c_ts,c_val,d_ts,d_val,e_ts,e_val,c_val_filtered,d_val_filtered,e_val_filtered
380042.0,12434.0,380042.0,44251.0,380042.0,65701.0,-148.5160699772104,22.155059170643256,50.816198584704125
380042.0,12472.0,380042.0,44285.0,380042.0,65825.0,-123.60314039874004,48.19833042897474,98.44464203649147
380053.0,12517.0,380053.0,44369.0,380053.0,65861.0,-98.14594324147532,74.5909811403107,146.81966381092514
380053.0,12555.0,380053.0,44396.0,380053.0,65952.0,-72.19753528343847,101.2636875366749,195.8218315443974
380053.0,12587.0,380053.0,44453.0,380053.0,66011.0,-45.812283773085426,128.14681147002477,245.33012611932895
380053.0,12629.0,380053.0,44487.0,380053.0,66062.0,-19.045500162128917,155.17112922197435,295.222560315368
380053.0,12665.0,380053.0,44492.0,380053.0,66153.0,8.046865637429278,182.26831282280494,345.37667615185546
380053.0,12701.0,380053.0,44584.0,380053.0,66252.0,35.40852892472617,209.37119647079453,395.67012521406025
380063.0,12730.0,380063.0,44575.0,380063.0,66300.0,62.98314528771448,236.4140629878491,445.9815585292911
380063.0,12767.0,380063.0,44636.0,380063.0,66364.0,90.71450831546451,263.3330293842229,496.1915365073046
380063.0,12799.0,380063.0,44655.0,380063.0,66422.0,118.54669807734928,290.0663353329562,546.1830824062304
380063.0,12842.0,380063.0,44661.0,380063.0,66470.0,146.4242469481385,316.55447793233094,595.8419681818808
380063.0,12867.0,380063.0,44707.0,380063.0,66526.0,174.29234482687576,342.74018058991567,645.0568963791396
380063.0,12908.0,380063.0,44716.0,380063.0,66575.0,202.09703900002245,368.56826271571174,693.7196060496557
380073.0,12951.0,380073.0,44786.0,380073.0,66674.0,229.78542839956538,393.9856387377537,741.7250418887124
380073.0,12979.0,380073.0,44802.0,380073.0,66749.0,257.3059167375958,418.9415615560422,788.9718572266654
380073.0,13011.0,380073.0,44826.0,380073.0,66755.0,284.6084736128057,443.3879806109636,835.3631712998815
380073.0,13047.0,380073.0,44832.0,380073.0,66824.0,311.6448081204643,467.27970657859737,880.8070194604545
380073.0,13073.0,380073.0,44894.0,380073.0,66899.0,338.3684930125547,490.5743437738313,925.2164225570834
380073.0,13116.0,380073.0,44894.0,380073.0,66925.0,364.73510168365124,513.2323054014586,968.5095945110882
380084.0,13139.0,380084.0,44951.0,380084.0,66989.0,390.70237162866454,535.2170121906908,1010.6103070937259
380084.0,13154.0,380084.0,44953.0,380084.0,67005.0,416.23033510007156,556.4951259395871,1051.44808266247
380084.0,13184.0,380084.0,44938.0,380084.0,67024.0,441.28130298264216,577.036628923362,1090.9581201869505
380084.0,13203.0,380084.0,44939.0,380084.0,67058.0,465.8197375858007,596.8144891887239,1129.080942684795
380084.0,13241.0,380084.0,44984.0,380084.0,67122.0,489.8121673565662,615.8040321117663,1165.7619948290294
380084.0,13277.0,380084.0,45001.0,380084.0,67158.0,513.2272397819223,633.9825816958504,1200.9515812134302
380094.0,13288.0,380094.0,45037.0,380094.0,67194.0,536.0358973766215,651.3295687150553,1234.6051166903926
380094.0,13323.0,380094.0,45062.0,380094.0,67243.0,558.2115259937241,667.8268453794174,1266.6833848100925
380094.0,13326.0,380094.0,45074.0,380094.0,67267.0,579.7299711663903,683.4590048140266,1297.1527349735316
380094.0,13361.0,380094.0,45075.0,380094.0,67267.0,600.5694658428439,698.2135642766472,1325.9851811182723
380094.0,13387.0,380094.0,45146.0,380094.0,67336.0,620.7105755329045,712.0810207058474,1353.1582998185581
380094.0,13392.0,380094.0,45114.0,380094.0,67334.0,640.1362283566526,725.0550319673968,1378.6551290569057
380104.0,13425.0,380104.0,45095.0,380104.0,67357.0,658.8317395597783,737.1325541136868,1402.4641898192647
380104.0,13421.0,380104.0,45109.0,380104.0,67351.0,676.784748078779,748.3134734564582,1424.5793538179087
380104.0,13427.0,380104.0,45105.0,380104.0,67353.0,693.9850494452928,758.5999642606048,1444.9994160587007
380104.0,13451.0,380104.0,45102.0,380104.0,67352.0,710.4243051979159,767.996029431317,1463.72748781144
380104.0,13489.0,380104.0,45127.0,380104.0,67380.0,726.0958294856958,776.5072099669085,1480.7703921676762
380104.0,13481.0,380104.0,45119.0,380104.0,67411.0,740.9946453908605,784.1404165082031,1496.138325178325
380115.0,13514.0,380115.0,45149.0,380115.0,67425.0,755.1176128658046,790.9039111408711,1509.8449058037538
380115.0,13511.0,380115.0,45154.0,380115.0,67413.0,768.4634321464483,796.8074028014944,1521.9073553129992
380115.0,13518.0,380115.0,45148.0,380115.0,67413.0,781.032555125085,801.8621973319537,1532.3464211865592
380115.0,13549.0,380115.0,45162.0,380115.0,67427.0,792.827053297324,806.0812642544796,1541.186032825908
380115.0,13552.0,380115.0,45185.0,380115.0,67442.0,803.8505616713204,809.4792522803023,1548.4530263636268
380115.0,13550.0,380115.0,45181.0,380115.0,67391.0,814.1083107174163,812.0726534792805,1554.1770106585727
380125.0,13559.0,380125.0,45119.0,380125.0,67409.0,823.6070398243693,813.8799071927594,1558.3900396999225
380125.0,13564.0,380125.0,45132.0,380125.0,67414.0,832.3547779303067,814.9209979402447,1561.126102610134
380125.0,13566.0,380125.0,45109.0,380125.0,67383.0,840.3606469408838,815.2167086261792,1562.420790437789
380125.0,13573.0,380125.0,45102.0,380125.0,67374.0,847.634705893165,814.7880262435949,1562.3110313902853
380125.0,13583.0,380125.0,45142.0,380125.0,67437.0,854.1878193846409,813.6558491660053,1560.834794197574
380125.0,13598.0,380125.0,45140.0,380125.0,67393.0,860.0316126805087,811.8410682066396,1558.0311530397207
380135.0,13598.0,380135.0,45128.0,380135.0,67376.0,865.1785313632851,809.3649377958182,1553.9405650780548
380135.0,13601.0,380135.0,45120.0,380135.0,67353.0,869.6419039639874,806.2492994745724,1548.6047259024479
380135.0,13599.0,380135.0,45103.0,380135.0,67370.0,873.4359059874641,802.5164748799085,1542.0661068200457
380135.0,13603.0,380135.0,45145.0,380135.0,67358.0,876.5754431159028,798.1891088114097,1534.367727138761
380135.0,13604.0,380135.0,45112.0,380135.0,67350.0,879.0760320594989,793.2902611675033,1525.553230903909
380135.0,13608.0,380135.0,45115.0,380135.0,67354.0,880.9537230966295,787.8436357132737,1515.6670177793471
380146.0,13598.0,380146.0,45072.0,380146.0,67276.0,882.2250415432069,781.8735745921548,1504.7542364298024
380146.0,13586.0,380146.0,45042.0,380146.0,67266.0,882.9068565673213,775.4046741312446,1492.8604062417514
380146.0,13589.0,380146.0,45014.0,380146.0,67251.0,883.0161322961908,768.4611081781454,1480.0307225909435
380146.0,13584.0,380146.0,45009.0,380146.0,67261.0,882.5696719783737,761.0658888856564,1466.3095905943455
380146.0,13596.0,380146.0,45058.0,380146.0,67246.0,881.5839882218518,753.2404749860921,1451.740665161693
380146.0,13591.0,380146.0,45078.0,380146.0,67213.0,880.0753149570015,745.0050951301187,1436.367082234339
380156.0,13598.0,380156.0,45041.0,380156.0,67178.0,878.0596958323606,736.3795811963051,1420.2314568404875
380156.0,13594.0,380156.0,45020.0,380156.0,67162.0,875.5530797114315,727.3839176112774,1403.3755595504922
380156.0,13596.0,380156.0,45034.0,380156.0,67181.0,872.5713984662859,718.0381862842346,1385.8400220822753
380156.0,13602.0,380156.0,45048.0,380156.0,67175.0,869.1306467884526,708.3624812413447,1367.6644774730007
380156.0,13587.0,380156.0,45015.0,380156.0,67128.0,865.2469756432753,698.3771788385279,1348.8880120769468
380156.0,13580.0,380156.0,44975.0,380156.0,67087.0,860.9367219486882,688.1031399434166,1329.5493371772773
380166.0,13571.0,380166.0,44949.0,380166.0,67042.0,856.2163031263578,677.5613941612673,1309.6863915768822
380166.0,13557.0,380166.0,44940.0,380166.0,67035.0,851.1020346862863,666.772515899311,1289.3356977138524
380166.0,13540.0,380166.0,44920.0,380166.0,67032.0,845.6099128149898,655.7561428845321,1268.5319679134273
380166.0,13544.0,380166.0,44914.0,380166.0,67029.0,839.7553675144285,644.5307477797564,1247.30820042106
380166.0,13556.0,380166.0,44932.0,380166.0,67018.0,833.5531335089951,633.1136116730675,1225.696122430669
380166.0,13551.0,380166.0,44939.0,380166.0,66965.0,827.0173841304179,621.5210919329807,1203.7266066707962
380177.0,13542.0,380177.0,44873.0,380177.0,66917.0,820.161992114008,609.7690422057844,1181.4296820808568
380177.0,13535.0,380177.0,44876.0,380177.0,66914.0,813.0006739993989,597.8728760688015,1158.834113293001
380177.0,13546.0,380177.0,44933.0,380177.0,66923.0,805.5470278034587,585.8473770335816,1135.9670842340631
380177.0,13529.0,380177.0,44890.0,380177.0,66901.0,797.8146274412521,573.7069728174396,1112.8544281118798
380177.0,13517.0,380177.0,44867.0,380177.0,66882.0,789.8171370271486,561.4663115031572,1089.521141842823
380177.0,13506.0,380177.0,44820.0,380177.0,66874.0,781.5682867664133,549.1403174867421,1065.99176719248
380187.0,13498.0,380187.0,44821.0,380187.0,66805.0,773.0817423750366,536.743696381625,1042.290554840389
380187.0,13496.0,380187.0,44785.0,380187.0,66813.0,764.3710153161193,524.2904246850458,1018.4413923574641
380187.0,13465.0,380187.0,44791.0,380187.0,66786.0,755.4494255544616,511.7934564640466,994.467645064651
380187.0,13484.0,380187.0,44824.0,380187.0,66763.0,746.3300374684405,499.2647174422083,970.3921902955497
380187.0,13477.0,380187.0,44817.0,380187.0,66735.0,737.0256575321904,486.7155459397228,946.2375532379115
380187.0,13456.0,380187.0,44776.0,380187.0,66715.0,727.5489844121279,474.15733540481244,922.0259432629555
380197.0,13456.0,380197.0,44754.0,380197.0,66685.0,717.9127248802865,461.6017589050248,897.7792385802738
380197.0,13441.0,380197.0,44755.0,380197.0,66714.0,708.1295759701472,449.0605124702848,873.5190763465575
380197.0,13433.0,380197.0,44782.0,380197.0,66652.0,698.2121943863231,436.5451718821364,849.2671709629199
380197.0,13422.0,380197.0,44729.0,380197.0,66660.0,688.1731810893864,424.06746203980595,825.0456898622828
380197.0,13420.0,380197.0,44711.0,380197.0,66602.0,678.0250705279673,411.63948926129916,800.8774148998148
380197.0,13408.0,380197.0,44702.0,380197.0,66565.0,667.7803666081018,399.27355972630096,776.7856441030196
380208.0,13390.0,380208.0,44683.0,380208.0,66573.0,657.4515885668611,386.9818791317734,752.7939342288731
380208.0,13380.0,380208.0,44655.0,380208.0,66522.0,647.0512332542453,374.7763820812703,728.9259484809127
380208.0,13386.0,380208.0,44681.0,380208.0,66507.0,636.5917019875428,362.66861796132196,705.2054794543462
380208.0,13374.0,380208.0,44659.0,380208.0,66480.0,626.0853514471717,350.66980219951,681.6564259567084
380208.0,13359.0,380208.0,44646.0,380208.0,66478.0,615.5446419034388,338.7910568127141,658.3027694775972
380208.0,13358.0,380208.0,44639.0,380208.0,66448.0,604.9822184516504,327.0435687016668,635.1687174993651
380218.0,13337.0,380218.0,44602.0,380218.0,66427.0,594.4109167558397,315.4385621189568,612.2789116831693
380218.0,13346.0,380218.0,44648.0,380218.0,66401.0,583.8437778869597,303.9872407732017,589.6585301496826
380218.0,13330.0,380218.0,44621.0,380218.0,66376.0,573.2941204083791,292.700952168604,567.3332769822298
380218.0,13313.0,380218.0,44595.0,380218.0,66375.0,562.7756389294539,281.59153536323356,545.329375509898
380218.0,13301.0,380218.0,44602.0,380218.0,66275.0,552.302403224481,270.67146322090787,523.6735362045303
380218.0,13280.0,380218.0,44561.0,380218.0,66289.0,541.8887250940847,259.9537382958771,502.3926332356631
380228.0,13266.0,380228.0,44546.0,380228.0,66265.0,531.5489673923328,249.45170789082584,481.51321024432514
380228.0,13261.0,380228.0,44537.0,380228.0,66252.0,521.2973554699815,239.17878167949783,461.06132039652374
380228.0,13266.0,380228.0,44493.0,380228.0,66235.0,511.1479018751985,229.14811419996158,441.06269581071615
380228.0,13260.0,380228.0,44496.0,380228.0,66231.0,501.1145349185803,219.37227809664404,421.5429540969361
380228.0,13227.0,380228.0,44486.0,380228.0,66175.0,491.2112889870394,209.86296006856836,402.5277541495635
380228.0,13213.0,380228.0,44538.0,380228.0,66162.0,481.45227688094576,200.63096851014004,384.04275060600673
380239.0,13222.0,380239.0,44501.0,380239.0,66145.0,471.85146193340614,191.68670626621693,366.1133380434742
380239.0,13226.0,380239.0,44504.0,380239.0,66096.0,462.42259170082104,183.0407378050606,348.7644087164503
380239.0,13194.0,380239.0,44504.0,380239.0,66086.0,453.17939193453975,174.7040598872122,332.020106824628
380239.0,13180.0,380239.0,44463.0,380239.0,66068.0,444.13566421304824,166.68814621238732,315.90352993781397
380239.0,13166.0,380239.0,44436.0,380239.0,66024.0,435.3050925125863,159.00478592343393,300.4365002447547
380239.0,13150.0,380239.0,44400.0,380239.0,66000.0,426.70095659470024,151.66556584319014,285.6392996464497
380249.0,13155.0,380249.0,44371.0,380249.0,65999.0,418.3359379524508,144.68111546825924,271.5302910888634
380249.0,13125.0,380249.0,44391.0,380249.0,65986.0,410.2220300299334,138.0604179111268,258.1256966580775
380249.0,13122.0,380249.0,44448.0,380249.0,65975.0,402.3704511201531,131.81062155250962,245.43964921948094
380249.0,13133.0,380249.0,44384.0,380249.0,65977.0,394.79153729288157,125.93752817713118,233.4843450573726
380249.0,13103.0,380249.0,44403.0,380249.0,65956.0,387.494744507316,120.44611786214043,222.27020598639433
380249.0,13118.0,380249.0,44369.0,380249.0,65959.0,380.4887190999898,115.3405559259443,211.80603029723898
380260.0,13103.0,380260.0,44426.0,380260.0,65995.0,373.7813331310433,110.62404604133428,202.0992111189894
380260.0,13107.0,380260.0,44402.0,380260.0,65905.0,367.37974906603574,106.29902721035108,193.15607452353277
380260.0,13088.0,380260.0,44385.0,380260.0,65918.0,361.290499370658,102.36756069120443,184.98193036028397
380260.0,13103.0,380260.0,44388.0,380260.0,65893.0,355.51951804954444,98.83144741016199,177.58064133754488
380260.0,13064.0,380260.0,44343.0,380260.0,65878.0,350.07214212964794,95.69201102999898,170.9541776586555
380260.0,13062.0,380260.0,44366.0,380260.0,65915.0,344.9530059944603,92.94975303680224,165.1024505295223
380270.0,13062.0,380270.0,44333.0,380270.0,65875.0,340.165802088996,90.60402551305566,160.02340828423849
380270.0,13074.0,380270.0,44329.0,380270.0,65864.0,335.7131527165381,88.6527742012803,155.7131785914089
380270.0,13072.0,380270.0,44404.0,380270.0,65881.0,331.59675470509296,87.09243687761523,152.16598360299452
380270.0,13060.0,380270.0,44358.0,380270.0,65875.0,327.8176167457621,85.9182601836186,149.37404470585238
380270.0,13055.0,380270.0,44338.0,380270.0,65855.0,324.3761505463649,85.12475777796129,147.32766729060052
380270.0,13057.0,380270.0,44376.0,380270.0,65897.0,321.27211171781516,84.70571296071023,146.01531960473756
380280.0,13049.0,380280.0,44385.0,380280.0,65895.0,318.5045421576647,84.65407604727443,145.423801114409
380280.0,13060.0,380280.0,44385.0,380280.0,65903.0,316.07178072092756,84.96226666692615,145.538644425725
380280.0,13040.0,380280.0,44406.0,380280.0,65897.0,313.97150375767296,85.62260396054387,146.34448607903016
380280.0,13042.0,380280.0,44331.0,380280.0,65873.0,312.2007125976765,86.62747434022569,147.82515573671947
380280.0,13041.0,380280.0,44338.0,380280.0,65884.0,310.75563972472264,87.96900028203825,149.963490329102
380280.0,13035.0,380280.0,44334.0,380280.0,65871.0,309.6316648047929,89.63832575371549,152.7410497448535
380291.0,13035.0,380291.0,44362.0,380291.0,65891.0,308.82327104598266,91.62512767722123,156.13793497010874
380291.0,13049.0,380291.0,44365.0,380291.0,65900.0,308.3240278734867,93.91766132262023,160.13278617452767
380291.0,13039.0,380291.0,44380.0,380291.0,65899.0,308.12665473748,96.50308295500207,164.70292900695034
380291.0,13057.0,380291.0,44390.0,380291.0,65905.0,308.2231460229457,99.36778297955155,169.82452003311283
380291.0,13047.0,380291.0,44372.0,380291.0,65912.0,308.6048905118802,102.4976207137484,175.4725888358288
380291.0,13061.0,380291.0,44415.0,380291.0,65943.0,309.26277755920967,105.87803289074617,181.62110099248218
380301.0,13062.0,380301.0,44421.0,380301.0,65971.0,310.18730037692154,109.4941964579732,188.24324105740578
380301.0,13061.0,380301.0,44400.0,380301.0,65892.0,311.36866278968165,113.33133315809994,195.31175246528073
380301.0,13047.0,380301.0,44381.0,380301.0,65937.0,312.7968148898925,117.37477995706016,202.79880702868013
380301.0,13055.0,380301.0,44380.0,380301.0,65966.0,314.46133898314434,121.60960116425238,210.67555669016315
380301.0,13055.0,380301.0,44401.0,380301.0,65960.0,316.35128935905027,126.02011508600421,218.9121050620476
380301.0,13051.0,380301.0,44398.0,380301.0,65986.0,318.4551096720372,130.58972425329338,227.47784099883597
380311.0,13061.0,380311.0,44439.0,380311.0,66024.0,320.76059388367497,135.30105175657135,236.34174053972708
380311.0,13075.0,380311.0,44428.0,380311.0,66008.0,323.25489316384227,140.13624660982268,245.47271915339036
380311.0,13066.0,380311.0,44441.0,380311.0,65991.0,325.92462378457765,145.0772968038,254.83986933695076
380311.0,13083.0,380311.0,44457.0,380311.0,66010.0,328.75598940038026,150.10621503215964,264.4122607773474
380311.0,13075.0,380311.0,44468.0,380311.0,66046.0,331.7348392206427,155.2051948068053,274.1586339393973
380311.0,13097.0,380311.0,44480.0,380311.0,66079.0,334.84671715868876,160.3568508685784,284.0475385318872
380322.0,13107.0,380322.0,44475.0,380322.0,66058.0,338.0769853853062,165.54444327935454,294.0478288160284
380322.0,13102.0,380322.0,44480.0,380322.0,66054.0,341.41103084636677,170.75196028378306,304.1289258423721
380322.0,13100.0,380322.0,44471.0,380322.0,66047.0,344.83439938865257,175.96404429049156,314.26056227556626
380322.0,13094.0,380322.0,44463.0,380322.0,66070.0,348.33272439906847,181.16579184644863,324.4123244724286
380322.0,13104.0,380322.0,44468.0,380322.0,66089.0,351.89154351542595,186.34246453027302,334.55341979951334
380322.0,13109.0,380322.0,44480.0,380322.0,66116.0,355.4961779139814,191.4792387436139,344.6528017166027
380332.0,13123.0,380332.0,44487.0,380332.0,66122.0,359.13175559074875,196.56114058715812,354.6795058879517
380332.0,13117.0,380332.0,44514.0,380332.0,66131.0,362.78332649371583,201.57317439555,364.6029494027736
380332.0,13128.0,380332.0,44502.0,380332.0,66132.0,366.4359505857568,206.500558393417,374.393042322258
380332.0,13138.0,380332.0,44515.0,380332.0,66161.0,370.0747411060494,211.32891415129117,384.0201772972717
380332.0,13152.0,380332.0,44527.0,380332.0,66187.0,373.68497076786423,216.04433746218933,393.45532893026115
380332.0,13161.0,380332.0,44541.0,380332.0,66194.0,377.25228589299314,220.63349680844405,402.67037716303776
380342.0,13159.0,380342.0,44528.0,380342.0,66177.0,380.76293384060364,225.0838084347685,411.6384087305239
380342.0,13140.0,380342.0,44520.0,380342.0,66203.0,384.20383824643136,229.38347394247052,420.3337203354614
380342.0,13161.0,380342.0,44515.0,380342.0,66199.0,387.5624537088945,233.52125534028823,428.73166607201574
380342.0,13149.0,380342.0,44519.0,380342.0,66220.0,390.826574384791,237.48614376145696,436.80861098763853
380342.0,13151.0,380342.0,44561.0,380342.0,66210.0,393.98423249041997,241.26720553292307,444.541969318267
380342.0,13173.0,380342.0,44567.0,380342.0,66229.0,397.02364258187424,244.853812371988,451.9102087598844
380353.0,13178.0,380353.0,44562.0,380353.0,66249.0,399.93326080722,248.23610428136215,458.8928680501516
380353.0,13180.0,380353.0,44558.0,380353.0,66255.0,402.70199391245677,251.4052605000042,465.47071807052157
380353.0,13166.0,380353.0,44571.0,380353.0,66263.0,405.31933981007694,254.35347156670053,471.62601046242946
380353.0,13188.0,380353.0,44563.0,380353.0,66273.0,407.77534269058384,257.0738637200857,477.3426565237803
380353.0,13184.0,380353.0,44573.0,380353.0,66274.0,410.06053907826436,259.56048921509966,482.60633088360635
380353.0,13202.0,380353.0,44553.0,380353.0,66243.0,412.16604490671625,261.80829373386314,487.4044640441241
380363.0,13189.0,380363.0,44577.0,380363.0,66274.0,414.0837070166833,263.8130206084045,491.7260271132674
380363.0,13192.0,380363.0,44578.0,380363.0,66253.0,415.80617162922186,265.5711714174091,495.5612710312788
380363.0,13193.0,380363.0,44523.0,380363.0,66252.0,417.3268336286999,267.08000285665133,498.9015764745076
380363.0,13186.0,380363.0,44531.0,380363.0,66241.0,418.63974784077675,268.3372220362925,501.7392670210279
380363.0,13187.0,380363.0,44549.0,380363.0,66247.0,419.7395409692424,269.3404430320185,504.0673393114868
380363.0,13196.0,380363.0,44525.0,380363.0,66268.0,420.62133045484364,270.0869127207343,505.8793128254881
380373.0,13201.0,380373.0,44585.0,380373.0,66278.0,421.28073542503734,270.57359300016583,507.1693613952642
380373.0,13191.0,380373.0,44560.0,380373.0,66286.0,421.7139778669979,270.79745781908474,507.932667973752
380373.0,13200.0,380373.0,44562.0,380373.0,66286.0,421.9179405977013,270.755865474579,508.16578630031455
380373.0,13193.0,380373.0,44610.0,380373.0,66297.0,421.89015584236927,270.44681401467506,507.8668942596272
380373.0,13206.0,380373.0,44608.0,380373.0,66270.0,421.62881356338977,269.869286243603,507.03594106162257
380373.0,13201.0,380373.0,44557.0,380373.0,66262.0,421.1328321152002,269.0237046243135,505.6746073473131
380384.0,13175.0,380384.0,44576.0,380384.0,66245.0,420.40190021393556,267.91195982060526,503.7860296505127
380384.0,13178.0,380384.0,44528.0,380384.0,66238.0,419.43632633419867,266.53697238874315,501.3744348685297
380384.0,13172.0,380384.0,44516.0,380384.0,66249.0,418.2367522070271,264.9021457581971,498.4448768944765
380384.0,13173.0,380384.0,44527.0,380384.0,66231.0,416.8039611138556,263.01081969387184,495.00316431800263
380384.0,13191.0,380384.0,44551.0,380384.0,66243.0,415.1388679758596,260.8659811469174,491.05591224597794
380384.0,13157.0,380384.0,44511.0,380384.0,66206.0,413.2426203817736,258.47039428506616,486.61056829673294
380394.0,13176.0,380394.0,44534.0,380394.0,66213.0,411.1166385059608,255.82676509817128,481.6753133879616
380394.0,13174.0,380394.0,44520.0,380394.0,66221.0,408.7625695923074,252.93772394860537,476.2589261179909
380394.0,13172.0,380394.0,44536.0,380394.0,66215.0,406.18233706610135,249.80585060827318,470.3708411762522
380394.0,13172.0,380394.0,44569.0,380394.0,66203.0,403.37827005157453,246.43391573331863,464.02136709106617
380394.0,13167.0,380394.0,44544.0,380394.0,66196.0,400.35318371155586,242.82534273449983,457.22180801522404
380394.0,13157.0,380394.0,44519.0,380394.0,66176.0,397.11039818793347,238.98458234114534,449.98443052247165
380404.0,13143.0,380404.0,44504.0,380404.0,66155.0,393.65367176481453,234.91700916510416,442.32232159077677
380404.0,13137.0,380404.0,44463.0,380404.0,66127.0,389.9870279086016,230.62841904476323,434.24910904182957
380404.0,13144.0,380404.0,44465.0,380404.0,66108.0,386.11458129630626,226.12441436692208,425.77855008473813
380404.0,13133.0,380404.0,44510.0,380404.0,66112.0,382.0404942430403,221.4099969322037,416.9241332319633
380404.0,13144.0,380404.0,44497.0,380404.0,66133.0,377.76905327525776,216.48973042971488,407.6989643210643
380404.0,13122.0,380404.0,44500.0,380404.0,66114.0,373.3047665498902,211.36829022144732,398.1160596491609
380415.0,13121.0,380415.0,44486.0,380415.0,66070.0,368.6523909099333,206.05084578255594,388.18868759137666
380415.0,13113.0,380415.0,44480.0,380415.0,66081.0,363.816862119524,200.54314005014874,377.93032924756733
380415.0,13124.0,380415.0,44513.0,380415.0,66076.0,358.80324549793045,194.8515245436509,367.3544701730066
380415.0,13113.0,380415.0,44483.0,380415.0,66070.0,353.61682011837524,188.98318077033218,356.4746558282098
380415.0,13102.0,380415.0,44465.0,380415.0,66067.0,348.2632073608803,182.94636580851946,345.30475566652404
380415.0,13099.0,380415.0,44445.0,380415.0,66023.0,342.7483938895772,176.7503236342693,333.8591480467928
380425.0,13081.0,380425.0,44389.0,380425.0,66010.0,337.07865494066016,170.40482752060092,322.1526413574839
380425.0,13068.0,380425.0,44415.0,380425.0,65976.0,331.26042427103266,163.91954749070575,310.20013695547203
380425.0,13057.0,380425.0,44392.0,380425.0,65961.0,325.30009639808213,157.3035582145852,298.0162196218221
380425.0,13059.0,380425.0,44404.0,380425.0,65991.0,319.2038317524771,150.56522583867908,285.6149138515603
380425.0,13062.0,380425.0,44401.0,380425.0,65959.0,312.9775082204783,143.71234798495183,273.0098098989752
380425.0,13055.0,380425.0,44416.0,380425.0,65931.0,306.6268492299672,136.75240700836667,260.2143607954095
380435.0,13041.0,380435.0,44395.0,380435.0,65924.0,300.15758247855774,129.69290185123376,247.24191074665725
380435.0,13028.0,380435.0,44371.0,380435.0,65934.0,293.5754611458939,122.5415538503587,234.10557184456843
380435.0,13049.0,380435.0,44409.0,380435.0,65944.0,286.8862020416289,115.30629518228329,220.81840601568967
380435.0,13033.0,380435.0,44378.0,380435.0,65888.0,280.0955631085178,107.99533110772364,207.3938632059726
380435.0,13002.0,380435.0,44382.0,380435.0,65912.0,273.2095014041707,100.61737289288925,193.84603217678136
380435.0,13002.0,380435.0,44350.0,380435.0,65835.0,266.2341037668731,93.18174162803092,180.18957192703772
380446.0,13005.0,380446.0,44329.0,380446.0,65801.0,259.1753648479941,85.69819695064831,166.43935363841672
380446.0,12978.0,380446.0,44299.0,380446.0,65811.0,252.03911182286134,78.17654501199985,152.6098308830325
380446.0,12977.0,380446.0,44324.0,380446.0,65798.0,244.83099868373876,70.62619941361157,138.71458890458825
380446.0,12966.0,380446.0,44325.0,380446.0,65802.0,237.55641612211843,63.05604692540197,124.76642260819301
380446.0,12969.0,380446.0,44291.0,380446.0,65773.0,230.22043014330592,55.47466624963863,110.77765140026054
380446.0,12956.0,380446.0,44277.0,380446.0,65746.0,222.82783220882322,47.89044015629855,96.76028190384056
380456.0,12948.0,380456.0,44275.0,380456.0,65744.0,215.38321371973007,40.311346195750275,82.72592910054084
380456.0,12960.0,380456.0,44321.0,380456.0,65778.0,207.89102218391946,32.74485271959253,68.6858051337847
380456.0,12941.0,380456.0,44286.0,380456.0,65734.0,200.35567783946306,25.19827612286332,54.65109513833124
380456.0,12946.0,380456.0,44264.0,380456.0,65686.0,192.78174046671882,17.679228719743037,40.633337242823586
380456.0,12917.0,380456.0,44226.0,380456.0,65672.0,185.17399874726402,10.195568109005762,26.644233664449644
380456.0,12899.0,380456.0,44230.0,380456.0,65634.0,177.5373889273194,2.754900397367294,12.695080725400658
380466.0,12880.0,380466.0,44227.0,380466.0,65638.0,169.87672036836193,-4.635844899679455,-1.2036887992817356
380466.0,12876.0,380466.0,44196.0,380466.0,65648.0,162.19633127257072,-11.970547937701554,-15.042636852696319
380466.0,12883.0,380466.0,44219.0,380466.0,65596.0,154.49989703739112,-19.2439280325126,-28.813145362927344
380466.0,12874.0,380466.0,44225.0,380466.0,65593.0,146.7904922841799,-26.45148392471782,-42.507281971704856
380466.0,12883.0,380466.0,44222.0,380466.0,65577.0,139.0708133476544,-33.58917702632556,-56.11791697571971
380466.0,12872.0,380466.0,44173.0,380466.0,65586.0,131.34343160303825,-40.65310874186201,-69.63879223164315
380477.0,12848.0,380477.0,44176.0,380477.0,65565.0,123.6109702803708,-47.63960483757876,-83.06433786495836
380477.0,12858.0,380477.0,44203.0,380477.0,65563.0,115.87611563394944,-54.54549854453387,-96.38939888884659
380477.0,12840.0,380477.0,44195.0,380477.0,65541.0,108.14156356401816,-61.36805194619927,-109.60903988945324
380477.0,12831.0,380477.0,44179.0,380477.0,65535.0,100.4100250476169,-68.10456027832902,-122.71844414180202
380477.0,12814.0,380477.0,44154.0,380477.0,65499.0,92.68419719783157,-74.75216742471105,-135.7128972032483
380477.0,12823.0,380477.0,44110.0,380477.0,65471.0,84.9666735531157,-81.30812745132397,-148.58793002239736
380487.0,12801.0,380487.0,44110.0,380487.0,65473.0,77.2599210011416,-87.7703787049548,-161.33961564668232
380487.0,12804.0,380487.0,44105.0,380487.0,65469.0,69.56632527431026,-94.13809462322558,-173.96475254431164
380487.0,12793.0,380487.0,44139.0,380487.0,65437.0,61.888228032643894,-100.41183693119956,-186.46078896207416
380487.0,12771.0,380487.0,44106.0,380487.0,65457.0,54.22793319250093,-106.59327482413414,-198.82568675134462
380487.0,12776.0,380487.0,44126.0,380487.0,65417.0,46.587648019264805,-112.68482022586204,-211.0578178416041
380487.0,12763.0,380487.0,44150.0,380487.0,65404.0,38.96940949996343,-118.68933692553242,-223.15590355203267
380498.0,12776.0,380498.0,44149.0,380498.0,65427.0,31.375127463310832,-124.60969079575176,-235.11903120195257
380498.0,12755.0,380498.0,44150.0,380498.0,65383.0,23.806746401212422,-130.44815922210302,-246.94657200344227
380498.0,12757.0,380498.0,44131.0,380498.0,65394.0,16.266402478414136,-136.20603155045228,-258.6380002711711
380498.0,12736.0,380498.0,44077.0,380498.0,65363.0,8.75648054773285,-141.88361499933058,-270.19282444208704
380498.0,12705.0,380498.0,44052.0,380498.0,65338.0,1.2795205052360643,-147.48074515936895,-281.61065218800786
380498.0,12701.0,380498.0,44050.0,380498.0,65333.0,-6.162065543685571,-152.9976007169256,-292.8913714270012
380508.0,12697.0,380508.0,44048.0,380508.0,65323.0,-13.566319681378559,-158.43530635201654,-304.0353399910405
380508.0,12700.0,380508.0,44078.0,380508.0,65323.0,-20.931851203579754,-163.79603036001754,-315.0433937266872
380508.0,12685.0,380508.0,44062.0,380508.0,65296.0,-28.257732290832337,-169.08267409921484,-325.916719566325
380508.0,12690.0,380508.0,44088.0,380508.0,65315.0,-35.54336053233965,-174.29841628241655,-336.65673723202804
380508.0,12682.0,380508.0,44052.0,380508.0,65275.0,-42.788349048643965,-179.446344754218,-347.2649895398397
380508.0,12667.0,380508.0,44054.0,380508.0,65269.0,-49.99242602401904,-184.52931327075737,-357.7430857853958
380518.0,12674.0,380518.0,44090.0,380518.0,65275.0,-57.1553800924122,-189.5499300961324,-368.09274875911547
380518.0,12676.0,380518.0,44083.0,380518.0,65272.0,-64.276988854769,-194.5103160825052,-378.31575892392937
380518.0,12645.0,380518.0,44017.0,380518.0,65242.0,-71.35687185135481,-199.41173738786142,-388.4137289227979
380518.0,12645.0,380518.0,44042.0,380518.0,65229.0,-78.39444608745953,-204.25470369234534,-398.3880098977655
380518.0,12642.0,380518.0,44017.0,380518.0,65210.0,-85.38903472114708,-209.03942866366725,-408.2398530197505
380518.0,12618.0,380518.0,43975.0,380518.0,65193.0,-92.33994477607826,-213.76619124532078,-417.9706501244822
380529.0,12608.0,380529.0,43994.0,380529.0,65204.0,-99.24654021119056,-218.43570298956843,-427.5820955654053
380529.0,12613.0,380529.0,44006.0,380529.0,65212.0,-106.10838929590295,-223.0494247584278,-437.0761215093985
380529.0,12606.0,380529.0,44023.0,380529.0,65178.0,-112.92532239200159,-227.6094300497548,-446.4546025780977
380529.0,12600.0,380529.0,44008.0,380529.0,65161.0,-119.69733337600621,-232.11792013768667,-455.71917583409754
380529.0,12594.0,380529.0,43983.0,380529.0,65140.0,-126.42447041870776,-236.57689284882628,-464.8714128315546
380529.0,12583.0,380529.0,44016.0,380529.0,65154.0,-133.1067930274865,-240.98813894856607,-473.9130967874388
380539.0,12584.0,380539.0,43997.0,380539.0,65152.0,-139.74436297422187,-245.3532463298867,-482.8462486500623
380539.0,12564.0,380539.0,44011.0,380539.0,65140.0,-146.33724077812985,-249.67340148330135,-491.67287974988415
380539.0,12555.0,380539.0,43920.0,380539.0,65101.0,-152.88552619483107,-253.94932008920858,-500.3948028623462
380539.0,12538.0,380539.0,43952.0,380539.0,65099.0,-159.38949532826115,-258.18168310597434,-509.0137707768114
380539.0,12549.0,380539.0,43948.0,380539.0,65087.0,-165.8497594858366,-262.37176465151407,-517.5317804184066
380539.0,12532.0,380539.0,43935.0,380539.0,65091.0,-172.26730613276345,-266.5216607267017,-525.9512186720524
380549.0,12541.0,380549.0,43966.0,380549.0,65084.0,-178.64341788048893,-270.6341571879749,-534.2747810396531
380549.0,12533.0,380549.0,43943.0,380549.0,65074.0,-184.97954638225588,-274.71250403401683,-542.5053006698712
380549.0,12530.0,380549.0,43991.0,380549.0,65061.0,-191.27716943100506,-278.76009592201206,-550.645635409874
380549.0,12515.0,380549.0,43958.0,380549.0,65035.0,-197.53768585774492,-282.78006083884554,-558.6987018360685
380549.0,12509.0,380549.0,43933.0,380549.0,65044.0,-203.7624149693844,-286.77497538588125,-566.6676298657542
380549.0,12510.0,380549.0,43983.0,380549.0,65081.0,-209.95264989090714,-290.7468826447394,-574.5557687040471
380560.0,12522.0,380560.0,43961.0,380560.0,65034.0,-216.10961096980128,-294.697264465006,-582.3663254682248
380560.0,12503.0,380560.0,43937.0,380560.0,65051.0,-222.23424051695355,-298.6267900243498,-590.1019601828051
380560.0,12490.0,380560.0,43944.0,380560.0,65047.0,-228.32702907883407,-302.53526964384974,-597.7646304886837
380560.0,12465.0,380560.0,43913.0,380560.0,64981.0,-234.38809177598273,-306.4218907402473,-605.3555807534337
380560.0,12455.0,380560.0,43877.0,380560.0,64964.0,-240.41746838536108,-310.28555783322753,-612.8756434905702
380560.0,12463.0,380560.0,43897.0,380560.0,64986.0,-246.41542657708186,-314.1253750808185,-620.3258611406227
380570.0,12474.0,380570.0,43941.0,380570.0,64999.0,-252.38251736291068,-317.940933413639,-627.7077623821127
380570.0,12451.0,380570.0,43894.0,380570.0,64978.0,-258.31936048898876,-321.7320258854898,-635.0230379508763
380570.0,12440.0,380570.0,43894.0,380570.0,64941.0,-264.2264693877553,-325.4982708773596,-642.2732210140235
380570.0,12440.0,380570.0,43888.0,380570.0,64962.0,-270.1043099501219,-329.2391652849467,-649.4597889352982
380570.0,12446.0,380570.0,43928.0,380570.0,65006.0,-275.95338263788415,-332.9542115310077,-656.5842391451489
380570.0,12444.0,380570.0,43898.0,380570.0,64952.0,-281.7741113863905,-336.64269141705637,-663.6476736181006
380580.0,12426.0,380580.0,43877.0,380580.0,64929.0,-287.56664451839583,-340.30338432021273,-670.6503998681727
380580.0,12412.0,380580.0,43860.0,380580.0,64917.0,-293.3308044344981,-343.9346952164553,-677.5921474526405
380580.0,12393.0,380580.0,43841.0,380580.0,64898.0,-299.06626297961736,-347.5351197159782,-684.4725822522979
380580.0,12395.0,380580.0,43858.0,380580.0,64896.0,-304.77281297406375,-351.10367379495693,-691.2916591509916
380580.0,12390.0,380580.0,43853.0,380580.0,64894.0,-310.45054568992805,-354.64005149384116,-698.049772648738
380580.0,12399.0,380580.0,43821.0,380580.0,64889.0,-316.09983511784117,-358.14458751371717,-704.7477438606379
380591.0,12384.0,380591.0,43892.0,380591.0,64894.0,-321.7211836639665,-361.61821090350975,-711.3866904371796
380591.0,12386.0,380591.0,43864.0,380591.0,64850.0,-327.3150729531661,-365.0621996013919,-717.9679190201078
380591.0,12369.0,380591.0,43846.0,380591.0,64874.0,-332.8819087700248,-368.4777297346503,-724.4929818613956
380591.0,12370.0,380591.0,43839.0,380591.0,64873.0,-338.42204393592317,-371.86574580830063,-730.9637559057047
380591.0,12359.0,380591.0,43859.0,380591.0,64886.0,-343.935822447566,-375.2271598427087,-737.3822488270796
380591.0,12370.0,380591.0,43869.0,380591.0,64873.0,-349.42357808511827,-378.562839099261,-743.7501987472132
380601.0,12365.0,380601.0,43864.0,380601.0,64862.0,-354.8855267702363,-381.8732690385126,-750.068777206016
380601.0,12338.0,380601.0,43813.0,380601.0,64834.0,-360.32162754449666,-385.1583124201467,-756.338565326976
380601.0,12328.0,380601.0,43807.0,380601.0,64816.0,-365.73162870217004,-388.417459156368,-762.5598071898158
380601.0,12318.0,380601.0,43784.0,380601.0,64797.0,-371.11532943595967,-391.65044752199685,-768.7328290864416
380601.0,12325.0,380601.0,43863.0,380601.0,64864.0,-376.47281213397014,-394.8576739026597,-774.8583069267188
380601.0,12324.0,380601.0,43847.0,380601.0,64802.0,-381.8044611760496,-398.0399053952051,-780.9370660841031
380611.0,12319.0,380611.0,43816.0,380611.0,64819.0,-387.11081477414007,-401.1976008330272,-786.9697111493136
380611.0,12303.0,380611.0,43797.0,380611.0,64802.0,-392.39243198228746,-404.330692202546,-792.9565591204922
380611.0,12303.0,380611.0,43813.0,380611.0,64793.0,-397.64989628556225,-407.4389438158364,-798.8977444729883
380611.0,12291.0,380611.0,43831.0,380611.0,64799.0,-402.88389706475164,-410.52219308285,-804.7932653971662
380611.0,12315.0,380611.0,43835.0,380611.0,64788.0,-408.09523916483545,-413.58011266939167,-810.6429631066619
380611.0,12289.0,380611.0,43800.0,380611.0,64739.0,-413.28470162271105,-416.6118340329309,-816.4465394522942
380622.0,12278.0,380622.0,43788.0,380622.0,64745.0,-418.4528993340705,-419.61592411436715,-822.2038415274704
380622.0,12262.0,380622.0,43768.0,380622.0,64745.0,-423.6003742935752,-422.5907759264036,-827.9152837551754
380622.0,12261.0,380622.0,43752.0,380622.0,64738.0,-428.7278475831953,-425.5351216664653,-833.5820087874973
380622.0,12260.0,380622.0,43753.0,380622.0,64741.0,-433.8363912686783,-428.4484700761638,-839.2057912511699
380622.0,12263.0,380622.0,43787.0,380622.0,64747.0,-438.92742101871954,-431.33131023352246,-844.7888785813321
380622.0,12266.0,380622.0,43766.0,380622.0,64736.0,-444.00254584115555,-434.1849381087565,-850.3337911515401
380632.0,12248.0,380632.0,43764.0,380632.0,64739.0,-449.0633821511283,-437.0111446685695,-855.8431302012982
380632.0,12245.0,380632.0,43779.0,380632.0,64707.0,-454.11147580729073,-439.8120832146092,-861.3195068120891
380632.0,12235.0,380632.0,43787.0,380632.0,64714.0,-459.1483644462869,-442.5901620998053,-866.7656383960293
380632.0,12251.0,380632.0,43791.0,380632.0,64719.0,-464.17563233625367,-445.3477543141246,-872.1844810721187
380632.0,12241.0,380632.0,43786.0,380632.0,64706.0,-469.1948140177806,-448.08686755038605,-877.5791974952994
380632.0,12236.0,380632.0,43767.0,380632.0,64694.0,-474.20720941944205,-450.8089871685517,-882.95304908784
380642.0,12214.0,380642.0,43745.0,380642.0,64696.0,-479.21381277359285,-453.5151952056665,-888.3094088735029
380642.0,12210.0,380642.0,43706.0,380642.0,64662.0,-484.21544028901826,-456.2065997855143,-893.6518725495911
380642.0,12221.0,380642.0,43727.0,380642.0,64669.0,-489.2129007230045,-458.88494941708996,-898.9844373320548
380642.0,12197.0,380642.0,43727.0,380642.0,64668.0,-494.2070246686087,-461.5530638230259,-904.3116877449218
380642.0,12194.0,380642.0,43780.0,380642.0,64678.0,-499.19864157535017,-464.214743276836,-909.6387899002332
380642.0,12194.0,380642.0,43756.0,380642.0,64682.0,-504.18864816162716,-466.87420897615624,-914.9712475766785
380653.0,12189.0,380653.0,43755.0,380653.0,64678.0,-509.1780609365376,-469.5355256246529,-920.3145717126388
380653.0,12185.0,380653.0,43758.0,380653.0,64661.0,-514.1679718549308,-472.2023784575473,-925.674041228418
380653.0,12190.0,380653.0,43756.0,380653.0,64672.0,-519.159471833818,-474.8780649478142,-931.0546359523842
380653.0,12182.0,380653.0,43752.0,380653.0,64666.0,-524.1535501926998,-477.56545215925786,-936.4610119657596
380653.0,12165.0,380653.0,43766.0,380653.0,64663.0,-529.1510104599,-480.26689559360454,-941.8973896894687
380653.0,12163.0,380653.0,43717.0,380653.0,64645.0,-534.152511796042,-482.98419634139236,-947.367453726772
380663.0,12154.0,380663.0,43715.0,380663.0,64635.0,-539.1586995829916,-485.718780619086,-952.8744019399422
380663.0,12147.0,380663.0,43698.0,380663.0,64614.0,-544.1703057580704,-488.47215222394243,-958.4211436417575
380663.0,12122.0,380663.0,43684.0,380663.0,64607.0,-549.1882512519157,-491.2463628675614,-964.0105759669809
380663.0,12152.0,380663.0,43735.0,380663.0,64612.0,-554.213784909261,-494.0442554639915,-969.6458209510299
380663.0,12136.0,380663.0,43727.0,380663.0,64627.0,-559.2484868474097,-496.86929007466784,-975.330247157454
380663.0,12130.0,380663.0,43721.0,380663.0,64596.0,-564.2940977631391,-499.72505967761765,-981.0672656350742
380673.0,12123.0,380673.0,43727.0,380673.0,64595.0,-569.3524190093085,-502.6149489669159,-986.8601894894935
380673.0,12112.0,380673.0,43730.0,380673.0,64605.0,-574.4253683835108,-505.5420230912295,-992.7122804078167
380673.0,12123.0,380673.0,43734.0,380673.0,64608.0,-579.5150478881133,-508.50889528497703,-998.6267068055421
380673.0,12121.0,380673.0,43714.0,380673.0,64580.0,-584.6236959066736,-511.51756924789106,-1004.6063365909791
380673.0,12110.0,380673.0,43716.0,380673.0,64569.0,-589.7535298020032,-514.5694180878638,-1010.6536801462487
380673.0,12100.0,380673.0,43698.0,380673.0,64579.0,-594.9066468347568,-517.665313928502,-1016.7710623582046
380684.0,12080.0,380684.0,43672.0,380684.0,64549.0,-600.0851067796497,-520.8058595666512,-1022.9607625580655
380684.0,12077.0,380684.0,43653.0,380684.0,64542.0,-605.2911476025424,-523.9917828590949,-1029.2251000321419
380684.0,12095.0,380684.0,43661.0,380684.0,64524.0,-610.5273519962717,-527.2244331019243,-1035.5666350200877
380684.0,12079.0,380684.0,43720.0,380684.0,64547.0,-615.7965845917495,-530.5059746304119,-1041.9883758428214
380684.0,12073.0,380684.0,43656.0,380684.0,64546.0,-621.1018110666895,-533.839046890844,-1048.4937289929192
380684.0,12060.0,380684.0,43664.0,380684.0,64511.0,-626.4460580974245,-537.2264211300414,-1055.0862548261525
380694.0,12065.0,380694.0,43678.0,380694.0,64528.0,-631.832503941096,-540.6710866956362,-1061.7695727776168
380694.0,12076.0,380694.0,43704.0,380694.0,64528.0,-637.2644830137248,-544.1762811670011,-1068.5474018231714
380694.0,12065.0,380694.0,43698.0,380694.0,64537.0,-642.745303177139,-547.7450797164219,-1075.4234102522987
380694.0,12054.0,380694.0,43695.0,380694.0,64513.0,-648.2780355034267,-551.3798957266551,-1082.4009110613265
380694.0,12046.0,380694.0,43640.0,380694.0,64485.0,-653.8654787846407,-555.0823398119121,-1089.4827529538875
380694.0,12039.0,380694.0,43618.0,380694.0,64469.0,-659.5102622633043,-558.8536294183141,-1096.6715788580423
380705.0,12020.0,380705.0,43619.0,380705.0,64462.0,-665.2149711413417,-562.6953546696122,-1103.9702636591746
380705.0,12035.0,380705.0,43638.0,380705.0,64455.0,-670.9822624020151,-566.6100337693775,-1111.3822295243594
380705.0,12020.0,380705.0,43658.0,380705.0,64469.0,-676.8148959832303,-570.6010774429844,-1118.9115172975203
380705.0,12010.0,380705.0,43645.0,380705.0,64448.0,-682.7156791929149,-574.6723384005504,-1126.56265837493
380705.0,12011.0,380705.0,43655.0,380705.0,64468.0,-688.6874598669609,-578.8276747427374,-1134.3404703778822
380705.0,12005.0,380705.0,43656.0,380705.0,64400.0,-694.733156037645,-583.0706992063484,-1142.2499505174044
380715.0,12000.0,380715.0,43627.0,380715.0,64439.0,-700.8557248828732,-587.4046453230025,-1150.296404108298
380715.0,12016.0,380715.0,43690.0,380715.0,64471.0,-707.0580647919472,-591.8322775223692,-1158.485524749708
380715.0,11997.0,380715.0,43648.0,380715.0,64455.0,-713.3428383122323,-596.3556568722506,-1166.8229544759347
380715.0,11995.0,380715.0,43628.0,380715.0,64428.0,-719.712292787154,-600.9758534362061,-1175.313647492303
380715.0,11968.0,380715.0,43609.0,380715.0,64409.0,-726.1682445466612,-605.6930665907762,-1183.9617253821798
380715.0,11959.0,380715.0,43601.0,380715.0,64399.0,-732.7122609811322,-610.5071087439251,-1192.7707811288888
380725.0,11966.0,380725.0,43590.0,380725.0,64400.0,-739.3458987784506,-615.4178254386941,-1201.744172432701
380725.0,11970.0,380725.0,43580.0,380725.0,64379.0,-746.0707655442691,-620.4253486322258,-1210.8851139731255
380725.0,11957.0,380725.0,43649.0,380725.0,64376.0,-752.8883480909643,-625.5301244632001,-1220.196683856369
380725.0,11939.0,380725.0,43591.0,380725.0,64397.0,-759.7998562619625,-630.7325455115885,-1229.681790688463
380725.0,11929.0,380725.0,43594.0,380725.0,64345.0,-766.8062866403841,-636.0325234765064,-1239.343026296684
380725.0,11929.0,380725.0,43595.0,380725.0,64372.0,-773.9086028933211,-641.4294697413096,-1249.1825517370748
380736.0,11934.0,380736.0,43645.0,380736.0,64389.0,-781.1077999910884,-646.9223175385214,-1259.2020144812168
380736.0,11935.0,380736.0,43612.0,380736.0,64381.0,-788.4047571555192,-652.5091000437408,-1269.4021749437238
380736.0,11934.0,380736.0,43572.0,380736.0,64369.0,-795.7999665269743,-658.1865094172749,-1279.7823677715721
380736.0,11908.0,380736.0,43549.0,380736.0,64336.0,-803.2933135885274,-663.9500905196809,-1290.340257258926
380736.0,11907.0,380736.0,43537.0,380736.0,64298.0,-810.884053018072,-669.7949297692605,-1301.072038689405
380736.0,11896.0,380736.0,43549.0,380736.0,64283.0,-818.5709273563674,-675.7162220443239,-1311.9729662782759
380746.0,11884.0,380746.0,43546.0,380746.0,64314.0,-826.3522686408437,-681.7094142476853,-1323.0378354666223
380746.0,11885.0,380746.0,43525.0,380746.0,64273.0,-834.2260486413919,-687.7700896060649,-1334.2610372317572
380746.0,11890.0,380746.0,43562.0,380746.0,64291.0,-842.1898554907046,-693.8938437918657,-1345.6363363578548
380746.0,11871.0,380746.0,43545.0,380746.0,64327.0,-850.2407542774157,-700.0760902771249,-1357.1565863393716
380746.0,11868.0,380746.0,43535.0,380746.0,64275.0,-858.3751551284015,-706.3117586375868,-1368.8132455337782
380746.0,11860.0,380746.0,43519.0,380746.0,64274.0,-866.5887920861142,-712.5951692781762,-1380.5959477643125
380756.0,11859.0,380756.0,43563.0,380756.0,64292.0,-874.8767177834933,-718.9200685554165,-1392.4924210911984
380756.0,11871.0,380756.0,43544.0,380756.0,64263.0,-883.2331926322631,-725.2794298571242,-1404.4884009386958
380756.0,11840.0,380756.0,43582.0,380756.0,64280.0,-891.6514767813032,-731.6649540619409,-1416.56736191234
380756.0,11826.0,380756.0,43492.0,380756.0,64215.0,-900.1237294280932,-738.0666581643154,-1428.7103541130002
380756.0,11804.0,380756.0,43499.0,380756.0,64206.0,-908.6411877176419,-744.4729995777452,-1440.8961711381055
380756.0,11801.0,380756.0,43466.0,380756.0,64180.0,-917.1944858440265,-750.8715161994837,-1453.1018159759587
380767.0,11809.0,380767.0,43540.0,380767.0,64228.0,-925.77384345658,-757.2493168004953,-1465.3028445396367
380767.0,11807.0,380767.0,43501.0,380767.0,64178.0,-934.3689840349721,-763.592893948681,-1477.473227358209
380767.0,11798.0,380767.0,43470.0,380767.0,64186.0,-942.9688766411232,-769.8876646252168,-1489.5850135350856
380767.0,11779.0,380767.0,43458.0,380767.0,64159.0,-951.5615482762238,-776.1179958426444,-1501.6082227971683
380767.0,11783.0,380767.0,43468.0,380767.0,64171.0,-960.1340744588056,-782.2676347872576,-1513.5108835671826
380767.0,11783.0,380767.0,43488.0,380767.0,64193.0,-968.6725905622602,-788.3198761614386,-1525.2588922105342
380777.0,11772.0,380777.0,43477.0,380777.0,64151.0,-977.162174575492,-794.2572770202289,-1536.8156175910367
380777.0,11756.0,380777.0,43517.0,380777.0,64138.0,-985.5867130404946,-800.0611847513849,-1548.1416041676282
380777.0,11742.0,380777.0,43451.0,380777.0,64123.0,-993.9289246900087,-805.7113216143684,-1559.194668257434
380777.0,11740.0,380777.0,43430.0,380777.0,64086.0,-1002.1705038554993,-811.1857522637688,-1569.9302086285904
380777.0,11734.0,380777.0,43430.0,380777.0,64079.0,-1010.2922162344579,-816.461386690555,-1580.301562789757
380777.0,11721.0,380777.0,43428.0,380777.0,64042.0,-1018.2738929674562,-821.514531569266,-1590.2604164829636
380787.0,11703.0,380787.0,43465.0,380787.0,64071.0,-1026.0944430453592,-826.3209807750673,-1599.757152529674
380787.0,11720.0,380787.0,43435.0,380787.0,64071.0,-1033.7319332675038,-830.8556964274505,-1608.740903812711
380787.0,11694.0,380787.0,43436.0,380787.0,64071.0,-1041.163602867068,-835.0924778936101,-1617.1592371192728
380787.0,11685.0,380787.0,43415.0,380787.0,64057.0,-1048.3658276784317,-839.0039352638322,-1624.9577609073385
380787.0,11696.0,380787.0,43423.0,380787.0,64020.0,-1055.3141620762824,-842.5616791028335,-1632.0800128442897
380787.0,11697.0,380787.0,43436.0,380787.0,64028.0,-1061.9833177903843,-845.73642785111,-1638.4676916120766
380798.0,11689.0,380798.0,43432.0,380798.0,64025.0,-1068.3469569407475,-848.4978840380131,-1644.0609615999044
380798.0,11677.0,380798.0,43419.0,380798.0,63998.0,-1074.3775004607403,-850.8145279851107,-1648.7985874956062
380798.0,11656.0,380798.0,43370.0,380798.0,63966.0,-1080.0461470382957,-852.6536780593793,-1652.6181152198833
380798.0,11640.0,380798.0,43390.0,380798.0,63977.0,-1085.3231075139051,-853.9819540818472,-1655.4563237867646
380798.0,11634.0,380798.0,43362.0,380798.0,63949.0,-1090.1779504302326,-854.765839361619,-1657.2497153518684
380798.0,11650.0,380798.0,43328.0,380798.0,63970.0,-1094.5798552967808,-854.9721319595452,-1657.934820852502
380808.0,11645.0,380808.0,43417.0,380808.0,63970.0,-1098.4976005108786,-854.5683105420318,-1657.4483212631012
380808.0,11637.0,380808.0,43360.0,380808.0,63943.0,-1101.8993840693174,-853.5225406684053,-1655.7270634156448
380808.0,11624.0,380808.0,43395.0,380808.0,63952.0,-1104.7527512827878,-851.8033488708109,-1652.7081970620327
380808.0,11625.0,380808.0,43373.0,380808.0,63942.0,-1107.0247134942003,-849.3794775573597,-1648.3294979515003
380808.0,11624.0,380808.0,43412.0,380808.0,63959.0,-1108.6819030229185,-846.2199156867111,-1642.5296563413872
380808.0,11624.0,380808.0,43408.0,380808.0,63955.0,-1109.6906379054444,-842.2937885021149,-1635.2484277141486
380818.0,11624.0,380818.0,43360.0,380818.0,63954.0,-1110.0169197708658,-837.5702429165194,-1626.4267468404305
380818.0,11591.0,380818.0,43343.0,380818.0,63938.0,-1109.626495456766,-832.0187949997492,-1616.0069710524403
380818.0,11568.0,380818.0,43331.0,380818.0,63919.0,-1108.485183810168,-825.6102012699677,-1603.9333801010548
380818.0,11577.0,380818.0,43376.0,380818.0,63928.0,-1106.5594788937779,-818.3172678858366,-1590.1528959998482
380818.0,11583.0,380818.0,43344.0,380818.0,63952.0,-1103.8170704732875,-810.1151595272049,-1574.6157514438776
380818.0,11590.0,380818.0,43387.0,380818.0,63959.0,-1100.2270096601655,-800.9814132312697,-1557.2758413772378
380829.0,11584.0,380829.0,43371.0,380829.0,63933.0,-1095.759676576386,-790.8959574937513,-1538.0909333485768
380829.0,11582.0,380829.0,43384.0,380829.0,63974.0,-1090.3868201940386,-779.841177833508,-1517.0230963343415
380829.0,11583.0,380829.0,43369.0,380829.0,63978.0,-1084.0817441592644,-767.8021002964969,-1494.039229986858
380829.0,11576.0,380829.0,43407.0,380829.0,63993.0,-1076.8195686802999,-754.766699534772,-1469.1114202975646
380829.0,11589.0,380829.0,43427.0,380829.0,64017.0,-1068.577504578896,-740.7260708800151,-1442.2172239215572
380829.0,11590.0,380829.0,43477.0,380829.0,64058.0,-1059.3350856637553,-725.6742441879809,-1413.339938720725
380839.0,11599.0,380839.0,43458.0,380839.0,64066.0,-1049.0743298021314,-709.6077733068782,-1382.46874386757
380839.0,11594.0,380839.0,43463.0,380839.0,64105.0,-1037.7798961292194,-692.525542533922,-1349.5988071804275
380839.0,11599.0,380839.0,43468.0,380839.0,64111.0,-1025.439328015397,-674.4290431351347,-1314.7315178818146
380839.0,11629.0,380839.0,43453.0,380839.0,64141.0,-1012.0433276413878,-655.3229297285966,-1277.8748590929156
380839.0,11627.0,380839.0,43505.0,380839.0,64197.0,-997.5859027049391,-635.2155812474581,-1239.0438147745167
380839.0,11655.0,380839.0,43557.0,380839.0,64225.0,-982.0643896023095,-614.1193465747766,-1198.2606003785932
380849.0,11665.0,380849.0,43563.0,380849.0,64273.0,-965.4794706500892,-592.0502641066664,-1155.5547005256756
380849.0,11673.0,380849.0,43565.0,380849.0,64325.0,-947.835219833414,-569.0276919650429,-1110.9628809496871
380849.0,11709.0,380849.0,43609.0,380849.0,64382.0,-929.1391831258321,-545.0743401038899,-1064.5291514881892
380849.0,11742.0,380849.0,43656.0,380849.0,64447.0,-909.4023819409116,-520.2164082174023,-1016.3045797607557
380849.0,11753.0,380849.0,43702.0,380849.0,64504.0,-888.6391322118096,-494.4833470680843,-966.3469824389281
380849.0,11783.0,380849.0,43700.0,380849.0,64554.0,-866.86685075655,-467.9073860700163,-914.7206078039342
380860.0,11805.0,380860.0,43710.0,380860.0,64607.0,-844.105992148312,-440.52335638829567,-861.4959473544161
380860.0,11814.0,380860.0,43740.0,380860.0,64686.0,-820.380062908295,-412.3689886202291,-806.7496581908242
380860.0,11847.0,380860.0,43779.0,380860.0,64728.0,-795.7157123553368,-383.48530144243335,-750.564438063435
380860.0,11890.0,380860.0,43801.0,380860.0,64836.0,-770.1428244692962,-353.9167339392186,-693.0287898864332
380860.0,11912.0,380860.0,43873.0,380860.0,64903.0,-743.6944318145937,-323.7110425393113,-634.2366143499559
380860.0,11960.0,380860.0,43913.0,380860.0,64989.0,-716.4064869808633,-292.9189732624776,-574.2865852666524
380870.0,11975.0,380870.0,43972.0,380870.0,65076.0,-688.3176442728559,-261.59368749454114,-513.281448298706
380870.0,12029.0,380870.0,43979.0,380870.0,65102.0,-659.4690909595156,-229.79017642687603,-451.327440221315
380870.0,12047.0,380870.0,44043.0,380870.0,65208.0,-629.9043944505809,-197.56492552638753,-388.5339913422856
380870.0,12122.0,380870.0,44101.0,380870.0,65313.0,-599.6692912125998,-164.97568762182817,-325.01350728912246
380870.0,12137.0,380870.0,44147.0,380870.0,65385.0,-568.8113472076097,-132.08103291413067,-260.8807733073518
380870.0,12174.0,380870.0,44169.0,380870.0,65480.0,-537.3796017026962,-98.93977320576732,-196.25209076073997
380880.0,12211.0,380880.0,44170.0,380880.0,65540.0,-505.42439325901086,-65.61071176819905,-131.2445650776467
380880.0,12239.0,380880.0,44240.0,380880.0,65590.0,-472.99732583736454,-32.15283229460033,-65.97570327872086
380880.0,12292.0,380880.0,44253.0,380880.0,65678.0,-440.1512175621308,1.3744756659438053,-0.5633334832173205
380880.0,12328.0,380880.0,44297.0,380880.0,65772.0,-406.93996166361404,34.9114076490946,64.87442859274961
380880.0,12377.0,380880.0,44364.0,380880.0,65860.0,-373.41828169749635,68.39785435598958,130.2195544712065
380880.0,12421.0,380880.0,44454.0,380880.0,65954.0,-339.64142584161715,101.77379875584518,195.35480064533158
380891.0,12457.0,380891.0,44434.0,380891.0,66022.0,-305.66485718662216,134.98009322067242,260.1644578042799
380891.0,12502.0,380891.0,44497.0,380891.0,66120.0,-271.54398882531206,167.95904591824376,324.5349934443525
380891.0,12559.0,380891.0,44579.0,380891.0,66176.0,-237.33393968441237,200.65462004959727,388.35558351532404
380891.0,12594.0,380891.0,44602.0,380891.0,66287.0,-203.0892081194312,233.01283872089675,451.51859546340165
380891.0,12616.0,380891.0,44602.0,380891.0,66329.0,-168.86335053213986,264.9823547631464,513.9200748273115
380891.0,12656.0,380891.0,44583.0,380891.0,66409.0,-134.7088818072441,296.51441216361536,575.4601599473372
380901.0,12690.0,380901.0,44644.0,380901.0,66450.0,-100.67735333401663,327.56210970883205,636.0432723281729
380901.0,12733.0,380901.0,44686.0,380901.0,66516.0,-66.81939037098368,358.0797516066509,695.5780838690866
380901.0,12744.0,380901.0,44706.0,380901.0,66584.0,-33.18467089021874,388.02278647456615,753.9774158415698
380901.0,12813.0,380901.0,44765.0,380901.0,66640.0,0.1780565801090006,417.348042741448,811.1582284045996
380901.0,12860.0,380901.0,44819.0,380901.0,66727.0,33.221059387047035,446.01402917894734,867.0417601517142
380901.0,12894.0,380901.0,44850.0,380901.0,66789.0,65.89797493530727,473.9814254048947,921.5538284772217
380911.0,12929.0,380911.0,44852.0,380911.0,66840.0,98.1642095336299,501.21355930366644,974.6252305793573
380911.0,12964.0,380911.0,44899.0,380911.0,66883.0,129.97713853565517,527.6765225315296,1026.1920066813418
380911.0,13015.0,380911.0,44950.0,380911.0,66960.0,161.29621445260852,553.3391337374437,1076.195480694595
380911.0,13039.0,380911.0,44963.0,380911.0,67012.0,192.08314631637643,578.1731472468812,1124.582337410839
380911.0,13084.0,380911.0,44952.0,380911.0,67019.0,222.302115180393,602.1534856109768,1171.3047826500047
380911.0,13094.0,380911.0,44971.0,380911.0,67082.0,251.9199076000749,625.2580274358925,1216.3204602539627
380922.0,13116.0,380922.0,45007.0,380922.0,67117.0,280.9058771877784,647.4671091597793,1259.5921396235249
380922.0,13146.0,380922.0,45025.0,380922.0,67158.0,309.23172925119707,668.7632494546515,1301.087509092727
380922.0,13174.0,380922.0,45035.0,380922.0,67190.0,336.871291411142,689.1311414187144,1340.7790783788423
380922.0,13227.0,380922.0,45083.0,380922.0,67242.0,363.80046337435465,708.5576662368462,1378.6440656927825
380922.0,13241.0,380922.0,45091.0,380922.0,67280.0,389.99737706902545,727.0319551157038,1414.6643594507113
380922.0,13265.0,380922.0,45113.0,380922.0,67320.0,415.4425878150946,744.5455464656263,1448.8266119947962
380932.0,13284.0,380932.0,45127.0,380932.0,67336.0,440.119084749282,761.0924767853003,1481.1223343733773
380932.0,13324.0,380932.0,45192.0,380932.0,67401.0,464.0121838729809,776.6693642122113,1511.5479076213514
380932.0,13343.0,380932.0,45164.0,380932.0,67395.0,487.1095147444523,791.2756832564628,1540.1046039116209
380932.0,13358.0,380932.0,45162.0,380932.0,67419.0,509.40108915260134,804.9139535784468,1566.7985590129592
380932.0,13367.0,380932.0,45154.0,380932.0,67406.0,530.8792558762855,817.5894259444917,1591.6404592454132
380932.0,13393.0,380932.0,45171.0,380932.0,67440.0,551.5384912644756,829.3094676569699,1614.6449731011771
380943.0,13411.0,380943.0,45167.0,380943.0,67443.0,571.3751898120718,840.0830884689472,1635.8302105176967
380943.0,13427.0,380943.0,45186.0,380943.0,67472.0,590.3875621735731,849.920681632306,1655.2173752860595
380943.0,13443.0,380943.0,45227.0,380943.0,67494.0,608.5755719307326,858.8339615810494,1672.8306019242136
380943.0,13466.0,380943.0,45208.0,380943.0,67511.0,625.9408585604858,866.8361485095695,1688.696943957109
380943.0,13479.0,380943.0,45193.0,380943.0,67478.0,642.4866911306781,873.9421161476885,1702.8463408126618
380943.0,13486.0,380943.0,45209.0,380943.0,67522.0,658.2179364851343,880.1681602986807,1715.3113277137936
380953.0,13503.0,380953.0,45263.0,380953.0,67523.0,673.1409608681715,885.5317316945523,1726.1266758108654
380953.0,13526.0,380953.0,45278.0,380953.0,67549.0,687.2635113811853,890.0517134505315,1735.3293095889112
380953.0,13536.0,380953.0,45233.0,380953.0,67555.0,700.5946984928003,893.7490098257058,1742.9584397185536
380953.0,13542.0,380953.0,45241.0,380953.0,67516.0,713.1450328102144,896.6466807115171,1749.0556066021813
380953.0,13546.0,380953.0,45205.0,380953.0,67526.0,724.9263620181343,898.7694754645452,1753.664382410368
380953.0,13540.0,380953.0,45193.0,380953.0,67500.0,735.9516550329981,900.1431640164678,1756.8297889602586
380963.0,13562.0,380963.0,45175.0,380963.0,67518.0,746.2347038253608,900.7938486298024,1758.59775180746
380963.0,13570.0,380963.0,45158.0,380963.0,67503.0,755.7899023711066,900.7472959523755,1759.0147590981437
380963.0,13592.0,380963.0,45227.0,380963.0,67554.0,764.6322196665567,900.0285070982507,1758.1277742965285
380963.0,13592.0,380963.0,45248.0,380963.0,67521.0,772.7773015865428,898.6619215758312,1755.9844397383827
380963.0,13589.0,380963.0,45177.0,380963.0,67495.0,780.2415250400495,896.6721085455133,1752.6332801009153
380963.0,13604.0,380963.0,45214.0,380963.0,67497.0,787.0419047576349,894.084068342951,1748.123507601501
380974.0,13604.0,380974.0,45227.0,380974.0,67518.0,793.1959513463762,890.9230483554365,1742.5046702051368
380974.0,13622.0,380974.0,45198.0,380974.0,67490.0,798.7216156549146,887.214568600609,1735.8266188508824
380974.0,13607.0,380974.0,45214.0,380974.0,67454.0,803.6372905536116,882.9846136937624,1728.13956948954
380974.0,13623.0,380974.0,45161.0,380974.0,67454.0,807.961762295321,878.2595815880891,1719.49382322488
380974.0,13609.0,380974.0,45164.0,380974.0,67434.0,811.7140865803945,873.0659619408489,1709.9393149553257
380974.0,13610.0,380974.0,45142.0,380974.0,67408.0,814.9134170544642,867.4298747984599,1699.5252924534993
380984.0,13615.0,380984.0,45130.0,380984.0,67376.0,817.5788018171431,861.3766549325173,1688.2999967819796
380984.0,13614.0,380984.0,45151.0,380984.0,67399.0,819.7290201809433,854.9306084828718,1676.3102716294989
380984.0,13624.0,380984.0,45107.0,380984.0,67391.0,821.3825197800934,848.1149512112528,1663.601419760008
380984.0,13620.0,380984.0,45131.0,380984.0,67355.0,822.5574210457075,840.9518021115111,1650.2173839879365
380984.0,13636.0,380984.0,45087.0,380984.0,67349.0,823.2715580970055,833.462100085701,1636.2008424244273
380984.0,13627.0,380984.0,45127.0,380984.0,67328.0,823.5425534401695,825.6655178494145,1621.5930587243688
380994.0,13626.0,380994.0,45134.0,380994.0,67318.0,823.3878732824087,817.5805929751887,1606.4337288019892
380994.0,13617.0,380994.0,45175.0,380994.0,67342.0,822.8247758731115,809.2252778062368,1590.7610088647991
380994.0,13619.0,380994.0,45088.0,380994.0,67294.0,821.8701664757696,800.6176566937937,1574.6117639567478
380994.0,13618.0,380994.0,45115.0,380994.0,67263.0,820.5404656729575,791.7761823812809,1558.0217565027492
380994.0,13616.0,380994.0,45047.0,380994.0,67243.0,818.8515491489638,782.7193054775299,1541.0254336780347
380994.0,13601.0,380994.0,45054.0,380994.0,67231.0,816.818701758013,773.4649112880916,1523.655526963004
381004.0,13602.0,381004.0,45053.0,381004.0,67207.0,814.4564963242435,764.0298649491813,1505.9428310906492
381004.0,13617.0,381004.0,45046.0,381004.0,67230.0,811.7786695360501,754.4298585692445,1487.9162139492346
381004.0,13614.0,381004.0,45033.0,381004.0,67197.0,808.7981725531276,744.6795213852228,1469.602846326457
381004.0,13609.0,381004.0,45024.0,381004.0,67169.0,805.5273554087782,734.7925091063513,1451.0284886623997
381004.0,13612.0,381004.0,45033.0,381004.0,67169.0,801.9780884880931,724.7815294734188,1432.217560729199
381004.0,13608.0,381004.0,45043.0,381004.0,67152.0,798.1618024689817,714.6585079861369,1413.1931148260285
381014.0,13626.0,381014.0,45061.0,381014.0,67128.0,794.0895697890594,704.4350208785504,1393.9769322849786
381014.0,13605.0,381014.0,45035.0,381014.0,67136.0,789.7722697667684,694.1228735283016,1374.5896656407963
381014.0,13593.0,381014.0,44994.0,381014.0,67095.0,785.2206913109663,683.7344373887619,1355.0509812372711
381014.0,13598.0,381014.0,44954.0,381014.0,67057.0,780.445441326264,673.2824030516996,1335.3796145815054
381014.0,13584.0,381014.0,44936.0,381014.0,67038.0,775.4567981038183,662.7790664191773,1315.5931435348255
381014.0,13564.0,381014.0,44935.0,381014.0,67029.0,770.2646064960812,652.235631251325,1295.7076446821404
381024.0,13574.0,381024.0,44971.0,381024.0,67029.0,764.8781174085658,641.6619708950008,1275.7376087267933
381024.0,13587.0,381024.0,44906.0,381024.0,67003.0,759.3058906927757,631.066873119425,1255.6961609381904
381024.0,13585.0,381024.0,44932.0,381024.0,67005.0,753.5559756566347,620.4582840707609,1235.5953595259352
381024.0,13565.0,381024.0,44936.0,381024.0,66986.0,747.6362070178596,609.8433527348952,1215.446458184711
381024.0,13567.0,381024.0,44908.0,381024.0,66971.0,741.5543084336684,599.2285953961742,1195.2601567007375
381024.0,13573.0,381024.0,44947.0,381024.0,66987.0,735.3178539456658,588.6202021191842,1175.0468675844286
381035.0,13561.0,381035.0,44960.0,381035.0,66959.0,728.9343218417347,578.0244506352989,1154.8170813514523
381035.0,13561.0,381035.0,44885.0,381035.0,66928.0,722.4112224770505,567.4482415932808,1134.581737019695
381035.0,13545.0,381035.0,44875.0,381035.0,66917.0,715.756154104941,556.8992146336745,1114.3523343961176
381035.0,13537.0,381035.0,44845.0,381035.0,66898.0,708.976758143181,546.3852062652215,1094.1408626754155
381035.0,13535.0,381035.0,44843.0,381035.0,66833.0,702.0806222008225,535.9136260605424,1073.9597008051658
381035.0,13533.0,381035.0,44839.0,381035.0,66856.0,695.0752277588467,525.4911597158709,1053.8213819755706
381045.0,13532.0,381045.0,44857.0,381045.0,66841.0,687.9680090435114,515.1238088586956,1033.738410041772
381045.0,13527.0,381045.0,44868.0,381045.0,66838.0,680.7664803527595,504.8172552442969,1013.7234715064064
381045.0,13511.0,381045.0,44866.0,381045.0,66813.0,673.4783364801917,494.5774479560785,993.7898564735681
381045.0,13514.0,381045.0,44808.0,381045.0,66761.0,666.1114652819269,484.4110592684633,973.951661156243
381045.0,13524.0,381045.0,44843.0,381045.0,66785.0,658.6739672522854,474.3255033934255,954.223676389851
381045.0,13505.0,381045.0,44853.0,381045.0,66768.0,651.1743093471346,464.3288558529608,934.6213239406637
381055.0,13499.0,381055.0,44832.0,381055.0,66773.0,643.6214893454363,454.43015488036787,915.1609619003582
381055.0,13480.0,381055.0,44758.0,381055.0,66722.0,636.0250242926418,444.6396778198275,895.8603137950286
381055.0,13482.0,381055.0,44763.0,381055.0,66676.0,628.3948153521802,434.96855476078946,876.7385392304917
381055.0,13471.0,381055.0,44745.0,381055.0,66654.0,620.7410466090689,425.4280266835668,857.8158038403379
381055.0,13462.0,381055.0,44750.0,381055.0,66645.0,613.0741600055246,416.0290277323895,839.1127162372746
381055.0,13463.0,381055.0,44746.0,381055.0,66618.0,605.4048534639762,406.78218434895047,820.6500461833697
381066.0,13463.0,381066.0,44735.0,381066.0,66630.0,597.7441200737227,397.6979759261137,802.4487314115357
381066.0,13453.0,381066.0,44704.0,381066.0,66571.0,590.1033704929999,388.7868239089882,784.5299842211061
381066.0,13448.0,381066.0,44720.0,381066.0,66590.0,582.4945572613009,380.05899769922087,766.9153271767377
381066.0,13438.0,381066.0,44694.0,381066.0,66544.0,574.9302197032581,371.52449285156047,749.6265369867388
381066.0,13431.0,381066.0,44721.0,381066.0,66550.0,567.4234712979616,363.19306538930846,732.6856091913712
381066.0,13416.0,381066.0,44723.0,381066.0,66535.0,559.987953393229,355.0744684594896,716.1147895023496
381076.0,13402.0,381076.0,44666.0,381076.0,66507.0,552.6377305572746,347.1787594672455,699.9366609619692
381076.0,13370.0,381076.0,44673.0,381076.0,66462.0,545.3870724886605,339.51629286506767,684.174114185008
381076.0,13381.0,381076.0,44615.0,381076.0,66432.0,538.250128104477,332.09728089640384,668.849975321906
381076.0,13352.0,381076.0,44664.0,381076.0,66411.0,531.2406370573638,324.93128623199493,653.9864063583184
381076.0,13348.0,381076.0,44629.0,381076.0,66418.0,524.3717429871687,318.02701246660695,639.6044392647256
381076.0,13354.0,381076.0,44629.0,381076.0,66402.0,517.6558514022836,311.3923800276614,625.7238719641261
381086.0,13358.0,381086.0,44665.0,381086.0,66375.0,511.10462688219013,305.03466460515415,612.3633837788329
381086.0,13366.0,381086.0,44631.0,381086.0,66411.0,504.72922026675826,298.96073831802215,599.5406390110073
381086.0,13338.0,381086.0,44621.0,381086.0,66375.0,498.5405574842206,293.1773344529325,587.2724751877159
381086.0,13343.0,381086.0,44666.0,381086.0,66356.0,492.54945085564594,287.69112103590896,575.5751551583093
381086.0,13341.0,381086.0,44641.0,381086.0,66346.0,486.76654871052193,282.5088663357931,564.4643708437078
381086.0,13328.0,381086.0,44599.0,381086.0,66333.0,481.2023172401983,277.6377142941814,553.9550466795788
381097.0,13301.0,381097.0,44579.0,381097.0,66300.0,475.8670077000429,273.0850009972186,544.061160808019
381097.0,13300.0,381097.0,44553.0,381097.0,66248.0,470.7704325602175,268.8575654155353,534.7954175929885
381097.0,13289.0,381097.0,44564.0,381097.0,66274.0,465.92165146242075,264.9610641589188,526.1686556605822
381097.0,13287.0,381097.0,44514.0,381097.0,66285.0,461.32876701695153,261.39952276098006,518.1894383004486
381097.0,13285.0,381097.0,44555.0,381097.0,66263.0,456.998846340177,258.1750120138041,510.86418812588283
381097.0,13285.0,381097.0,44587.0,381097.0,66261.0,452.9379195027331,255.28757874445736,504.19748525679574
381107.0,13290.0,381107.0,44590.0,381107.0,66270.0,449.15104858897183,252.73572035638406,498.192164544931
381107.0,13282.0,381107.0,44573.0,381107.0,66259.0,445.64244491084895,250.517077310085,492.84938572984134
381107.0,13279.0,381107.0,44584.0,381107.0,66260.0,442.4155593337438,248.62876884849098,488.16877356936914
381107.0,13284.0,381107.0,44610.0,381107.0,66287.0,439.47310712636556,247.0674792937239,484.1485732641311
381107.0,13278.0,381107.0,44632.0,381107.0,66241.0,436.8170919813286,245.8297665298674,480.78585356433337
381107.0,13274.0,381107.0,44552.0,381107.0,66230.0,434.4488473317053,244.91248956469485,478.076541075175
381117.0,13263.0,381117.0,44545.0,381117.0,66221.0,432.3690119264092,244.31267733394995,476.0150693183616
381117.0,13259.0,381117.0,44551.0,381117.0,66212.0,430.5774052188462,244.02676397460127,474.5939098150966
381117.0,13259.0,381117.0,44558.0,381117.0,66222.0,429.07286730891667,244.04997384838492,473.8032808384949
381117.0,13265.0,381117.0,44578.0,381117.0,66248.0,427.85316665579535,244.37627332350854,473.6311089597161
381117.0,13274.0,381117.0,44578.0,381117.0,66265.0,426.9150444066317,244.9986425777358,474.0633165579511
381117.0,13284.0,381117.0,44554.0,381117.0,66224.0,426.25439541281503,245.90931953635257,475.0842474749627
381128.0,13270.0,381128.0,44570.0,381128.0,66263.0,425.86649294616313,247.0997854657914,476.6768244979397
381128.0,13274.0,381128.0,44575.0,381128.0,66275.0,425.7460953481496,248.56061591976646,478.8225363117756
381128.0,13271.0,381128.0,44607.0,381128.0,66275.0,425.88739833685435,250.2815393217565,481.5016470715844
381128.0,13281.0,381128.0,44606.0,381128.0,66291.0,426.28397480147345,252.25178038809946,484.6935259813687
381128.0,13281.0,381128.0,44617.0,381128.0,66292.0,426.92880345843463,254.46047218202972,488.37685669090797
381128.0,13282.0,381128.0,44578.0,381128.0,66273.0,427.8143481264351,256.8968517982304,492.52971098487546
381138.0,13272.0,381138.0,44557.0,381138.0,66264.0,428.9325846375668,259.5500133712821,497.129388290553
381138.0,13271.0,381138.0,44595.0,381138.0,66292.0,430.2749068221719,262.4083422058543,502.15206421368464
381138.0,13282.0,381138.0,44574.0,381138.0,66282.0,431.831976587185,265.4591383399456,507.57257668172883
381138.0,13288.0,381138.0,44625.0,381138.0,66317.0,433.59367621786964,268.68866264855836,513.364471890611
381138.0,13297.0,381138.0,44645.0,381138.0,66340.0,435.54921582225427,272.0824945941437,519.5002359907912
381138.0,13319.0,381138.0,44615.0,381138.0,66338.0,437.6873395803143,275.62604826075426,525.9516809849835
381149.0,13309.0,381149.0,44603.0,381149.0,66337.0,439.9965866223218,279.30480191527016,532.6902610898297
381149.0,13323.0,381149.0,44654.0,381149.0,66366.0,442.4655077349664,283.10408371456293,539.6871383347587
381149.0,13329.0,381149.0,44682.0,381149.0,66395.0,445.0827775515745,287.0090676881838,546.9132674723871
381149.0,13313.0,381149.0,44652.0,381149.0,66388.0,447.8372511639676,291.00527188389253,554.339721715379
381149.0,13308.0,381149.0,44634.0,381149.0,66384.0,450.7178926682442,295.0788751360564,561.9379708437481
381149.0,13313.0,381149.0,44646.0,381149.0,66386.0,453.71352541362694,299.21642591835433,569.6798131058027
381159.0,13303.0,381159.0,44624.0,381159.0,66388.0,456.81256823548944,303.4043525205362,577.5370954002465
381159.0,13332.0,381159.0,44643.0,381159.0,66401.0,460.0028916028324,307.6286230689657,585.4814756189035
381159.0,13326.0,381159.0,44639.0,381159.0,66402.0,463.27183655497777,311.874543692944,593.4843009172705
381159.0,13343.0,381159.0,44672.0,381159.0,66448.0,466.6063664640329,316.1267276729884,601.5166230682149
381159.0,13346.0,381159.0,44699.0,381159.0,66446.0,469.9932346554121,320.36933520796987,609.5494226543898
381159.0,13337.0,381159.0,44686.0,381159.0,66447.0,473.41908735729356,324.58652965486317,617.5539216094788
381169.0,13352.0,381169.0,44690.0,381169.0,66471.0,476.870461931783,328.7628249293704,625.5017239834142
381169.0,13376.0,381169.0,44704.0,381169.0,66474.0,480.3337840286564,332.8831323221913,633.3648404997452
381169.0,13370.0,381169.0,44742.0,381169.0,66510.0,483.7955421830521,336.93280876242454,641.1158184060104
381169.0,13377.0,381169.0,44720.0,381169.0,66468.0,487.24252494226096,340.89795795441904,648.7279208562354
381169.0,13373.0,381169.0,44718.0,381169.0,66509.0,490.66189834741647,344.76569546675785,656.1751239838177
381169.0,13372.0,381169.0,44698.0,381169.0,66504.0,494.0411343145595,348.52402811772254,663.4319750265663
381180.0,13367.0,381180.0,44691.0,381180.0,66516.0,497.3678672319878,352.16142295227746,670.4735612630191
381180.0,13384.0,381180.0,44696.0,381180.0,66519.0,500.6297378687094,355.66633131028306,677.2755602268194
381180.0,13385.0,381180.0,44736.0,381180.0,66531.0,503.8143383236293,359.02693751870027,683.8142445103604
381180.0,13413.0,381180.0,44724.0,381180.0,66543.0,506.9093251982146,362.2313045995442,690.0665026541473
381180.0,13407.0,381180.0,44744.0,381180.0,66533.0,509.90266091776533,365.26771702633016,696.009895101396
381180.0,13383.0,381180.0,44728.0,381180.0,66549.0,512.7827893209169,368.12489104538224,701.6226488256833
381190.0,13405.0,381190.0,44753.0,381190.0,66564.0,515.5385354384246,370.7920205575452,706.8836217118164
381190.0,13422.0,381190.0,44768.0,381190.0,66617.0,518.1589322066557,373.25885724708877,711.7724842853062
381190.0,13420.0,381190.0,44768.0,381190.0,66601.0,520.6333164854979,375.5159568458166,716.2702348213802
381190.0,13434.0,381190.0,44747.0,381190.0,66575.0,522.9515834298302,377.55490567877365,720.3596538589791
381190.0,13423.0,381190.0,44721.0,381190.0,66602.0,525.1043465919123,379.3681938813047,724.0252656533048
381190.0,13406.0,381190.0,44732.0,381190.0,66582.0,527.082919082988,380.9487335373448,727.2530438959541
381200.0,13428.0,381200.0,44762.0,381200.0,66579.0,528.8791181211038,382.2894611323377,730.0302082599844
381200.0,13437.0,381200.0,44763.0,381200.0,66599.0,530.4851219272207,383.383409059295,732.3450575849783
381200.0,13428.0,381200.0,44784.0,381200.0,66607.0,531.893565416649,384.22411081615587,734.186912969539
381200.0,13445.0,381200.0,44782.0,381200.0,66599.0,533.0976948269669,384.8060062014879,735.5462682869137
381200.0,13435.0,381200.0,44721.0,381200.0,66601.0,534.0914398582647,385.12459577077414,736.4149218096186
381200.0,13434.0,381200.0,44772.0,381200.0,66604.0,534.8694359213746,385.1761767623783,736.7859617533284
381211.0,13446.0,381211.0,44794.0,381211.0,66627.0,535.4269987130536,384.9575734772774,736.6537840891776
381211.0,13456.0,381211.0,44808.0,381211.0,66646.0,535.7601504525629,384.466461251906,736.014341168579
381211.0,13435.0,381211.0,44817.0,381211.0,66620.0,535.8657505461562,383.70205948922484,734.8655545532556
381211.0,13418.0,381211.0,44768.0,381211.0,66606.0,535.7414899843141,382.6655705102638,733.207519810996
381211.0,13427.0,381211.0,44721.0,381211.0,66575.0,535.3856119605553,381.3599777156633,731.0422523992709
381211.0,13423.0,381211.0,44717.0,381211.0,66572.0,534.796617823981,379.7891949252834,728.3731426026811
381221.0,13438.0,381221.0,44695.0,381221.0,66578.0,533.9731992466648,377.9570808326136,725.204471589399
381221.0,13432.0,381221.0,44739.0,381221.0,66534.0,532.9143501091401,375.8668709324606,721.5411422833799
381221.0,13448.0,381221.0,44728.0,381221.0,66576.0,531.6195387447727,373.5211745355538,717.3884974224754
381221.0,13439.0,381221.0,44732.0,381221.0,66537.0,530.0888879552604,370.92230808511204,712.752208453632
381221.0,13423.0,381221.0,44746.0,381221.0,66552.0,528.3232818621105,368.07260851245866,707.6382917555751
381221.0,13428.0,381221.0,44742.0,381221.0,66559.0,526.3242984018921,364.9746698865305,702.0531730772778
381231.0,13429.0,381231.0,44796.0,381231.0,66564.0,524.0940686215279,361.6316914804401,696.0038728471648
381231.0,13411.0,381231.0,44745.0,381231.0,66556.0,521.6352205723013,358.04798370961623,689.4983404708447
381231.0,13411.0,381231.0,44703.0,381231.0,66527.0,518.9508207137917,354.22922911072874,682.545676323884
381231.0,13404.0,381231.0,44689.0,381231.0,66524.0,516.0442338177618,350.182038835977,675.1560610663339
381231.0,13399.0,381231.0,44684.0,381231.0,66497.0,512.9189943638103,345.9131383950172,667.3404972148052
381231.0,13400.0,381231.0,44700.0,381231.0,66493.0,509.5787358636478,341.4288765724936,659.1105366822383
381242.0,13392.0,381242.0,44686.0,381242.0,66489.0,506.0271618095051,336.7352050401889,650.4780849969999
381242.0,13409.0,381242.0,44694.0,381242.0,66470.0,502.2680763412932,331.837851209394,641.4553263488547
381242.0,13398.0,381242.0,44708.0,381242.0,66453.0,498.30551093720425,326.7425121118335,632.0546820552152
381242.0,13377.0,381242.0,44712.0,381242.0,66451.0,494.1438539105255,321.45515006689544,622.288692770547
381242.0,13389.0,381242.0,44679.0,381242.0,66421.0,489.7878166347731,315.9823292332242,612.1698806991634
381242.0,13387.0,381242.0,44698.0,381242.0,66481.0,485.2423476576188,310.3313358341423,601.7107472296526
381252.0,13394.0,381252.0,44717.0,381252.0,66463.0,480.51272120552585,304.510207310457,590.9241383077866
381252.0,13368.0,381252.0,44689.0,381252.0,66405.0,475.6047149202114,298.52798383646575,579.8238051194785
381252.0,13359.0,381252.0,44634.0,381252.0,66383.0,470.52462368862143,292.3948763538727,568.4244493354367
381252.0,13346.0,381252.0,44613.0,381252.0,66408.0,465.2790527136767,286.12182466374975,556.7412302073246
381252.0,13338.0,381252.0,44611.0,381252.0,66364.0,459.8746515198059,279.71966583490104,544.7894777669786
381252.0,13347.0,381252.0,44595.0,381252.0,66363.0,454.3179505781416,273.19853183926995,532.584724966282
381262.0,13329.0,381262.0,44617.0,381262.0,66339.0,448.6153489057873,266.56766629964824,520.1426656590056
381262.0,13341.0,381262.0,44615.0,381262.0,66334.0,442.77318766754087,259.8355568139011,507.4790318477113
381262.0,13314.0,381262.0,44592.0,381262.0,66311.0,436.7978124320449,253.01022065622345,494.6095252742019
381262.0,13326.0,381262.0,44594.0,381262.0,66302.0,430.69558340010093,246.09936227924578,481.54977046232455
381262.0,13313.0,381262.0,44612.0,381262.0,66276.0,424.47286982418603,239.110396282184,468.3152421569023
381262.0,13312.0,381262.0,44610.0,381262.0,66282.0,418.13608912258013,232.05064724341787,454.92118891105383
381273.0,13303.0,381273.0,44620.0,381273.0,66289.0,411.6917641710352,224.92776867018082,441.38269397779914
381273.0,13287.0,381273.0,44586.0,381273.0,66230.0,405.14652773172355,217.75010964332293,427.7148952683289
381273.0,13272.0,381273.0,44527.0,381273.0,66215.0,398.5070252372926,210.52669296673736,413.9330016382706
381273.0,13278.0,381273.0,44522.0,381273.0,66209.0,391.77974607033434,203.2666244399536,400.05195930142423
381273.0,13260.0,381273.0,44538.0,381273.0,66199.0,384.9709187119101,195.97834782869367,386.0861888102884
381273.0,13248.0,381273.0,44503.0,381273.0,66169.0,378.0864756197466,188.66933212243976,372.0495843721236
381283.0,13260.0,381283.0,44507.0,381283.0,66161.0,371.1319985899777,181.34606736314043,357.955511947888
381283.0,13255.0,381283.0,44514.0,381283.0,66134.0,364.112747617956,174.01404298474014,343.8166923537444
381283.0,13242.0,381283.0,44525.0,381283.0,66123.0,357.0338297385142,166.6778622536835,329.64506202004594
381283.0,13222.0,381283.0,44493.0,381283.0,66126.0,349.9002911342268,159.34155131583637,315.45170003799484
381283.0,13230.0,381283.0,44541.0,381283.0,66123.0,342.7170250863863,152.0088340155874,301.2469425266003
381283.0,13225.0,381283.0,44548.0,381283.0,66102.0,335.48869797491517,144.68348770134844,287.0406738371777
381293.0,13225.0,381293.0,44523.0,381293.0,66096.0,328.2198489929548,137.36993369063387,272.84257569213435
381293.0,13213.0,381293.0,44461.0,381293.0,66062.0,320.9150622359996,130.07355633493412,258.6622023893867
381293.0,13187.0,381293.0,44453.0,381293.0,66055.0,313.57902685662293,122.80027294018643,244.5089080619844
381293.0,13168.0,381293.0,44424.0,381293.0,66014.0,306.21636775831064,115.55570649790667,230.39166817857478
381293.0,13173.0,381293.0,44406.0,381293.0,66001.0,298.83132560149977,108.34450137525943,216.31881319422388
381293.0,13166.0,381293.0,44436.0,381293.0,66006.0,291.4275551274623,101.16993154553768,202.29777322261577
381304.0,13156.0,381304.0,44458.0,381304.0,66002.0,284.00814082521765,94.03395299028091,188.33506821012247
381304.0,13164.0,381304.0,44451.0,381304.0,65999.0,276.57568816125524,86.93776087565163,174.43660205411697
381304.0,13152.0,381304.0,44439.0,381304.0,65971.0,269.13243562847606,79.88241430849178,160.60800545977577
381304.0,13154.0,381304.0,44420.0,381304.0,65960.0,261.6804037154086,72.86908543028869,146.8547844897115
381304.0,13156.0,381304.0,44455.0,381304.0,65947.0,254.22155441031288,65.89904815986006,133.18228676040383
381304.0,13139.0,381304.0,44420.0,381304.0,65957.0,246.75795712240463,58.97377688249463,119.59570163968044
381314.0,13123.0,381314.0,44413.0,381314.0,65909.0,239.29187595606308,52.09512266153297,106.10018938231678
381314.0,13108.0,381314.0,44387.0,381314.0,65872.0,231.82566493979002,45.26524919823527,92.70085773464757
381314.0,13096.0,381314.0,44365.0,381314.0,65865.0,224.3615358944415,38.486304194575325,79.40236323053477
381314.0,13098.0,381314.0,44373.0,381314.0,65860.0,216.90136076209134,31.760036517394155,66.20846687889093
381314.0,13100.0,381314.0,44355.0,381314.0,65847.0,209.44663379425828,25.08755337386316,53.12192252814555
381314.0,13090.0,381314.0,44392.0,381314.0,65858.0,201.99860567931836,18.46933481842916,40.144635048434566
381324.0,13089.0,381324.0,44362.0,381324.0,65861.0,194.55845801533218,11.905491387141751,27.277972885097142
381324.0,13079.0,381324.0,44380.0,381324.0,65839.0,187.12741487364053,5.396092822710443,14.523192414595087
381324.0,13056.0,381324.0,44352.0,381324.0,65813.0,179.70676712627574,-1.0586304434342537,1.8817291796718791
381324.0,13064.0,381324.0,44350.0,381324.0,65783.0,172.29779330497757,-7.458255557554253,-10.644874747690096
381324.0,13061.0,381324.0,44359.0,381324.0,65796.0,164.90169634737146,-13.802210154453064,-23.055259594746758
381324.0,13050.0,381324.0,44344.0,381324.0,65802.0,157.51968772808596,-20.089736126346054,-35.34833809789677
381335.0,13037.0,381335.0,44342.0,381335.0,65754.0,150.153093462404,-26.3197722472064,-47.52307381320668
381335.0,13022.0,381335.0,44286.0,381335.0,65738.0,142.80331599529046,-32.49099245447792,-59.578380642929346
381335.0,13008.0,381335.0,44295.0,381335.0,65725.0,135.47167014429186,-38.602165767576366,-71.51338646160707
381335.0,13006.0,381335.0,44301.0,381335.0,65712.0,128.1591942361557,-44.65259706164693,-83.32773910786295
381335.0,13012.0,381335.0,44286.0,381335.0,65723.0,120.86656591213915,-50.642258156583466,-95.02168156925063
381335.0,13002.0,381335.0,44303.0,381335.0,65696.0,113.59419946789973,-56.57164567062745,-106.59592470612733
381345.0,12988.0,381345.0,44286.0,381345.0,65684.0,106.34240125598359,-62.441598369412475,-118.05150369369835
381345.0,12987.0,381345.0,44284.0,381345.0,65674.0,99.11141314137257,-68.25314887653121,-129.389780061416
381345.0,12978.0,381345.0,44292.0,381345.0,65693.0,91.90138244719549,-74.00743198377364,-140.61244966510162
381345.0,12986.0,381345.0,44325.0,381345.0,65673.0,84.7123939688563,-79.70549168206213,-151.72132989646502
381345.0,12975.0,381345.0,44284.0,381345.0,65683.0,77.54460047531694,-85.34786343579128,-162.71800703085933
381345.0,12964.0,381345.0,44265.0,381345.0,65622.0,70.39836669459407,-90.93429796571735,-173.6036229350974
381355.0,12941.0,381355.0,44226.0,381355.0,65637.0,63.27427904319745,-96.46402519927369,-184.3789791772997
381355.0,12951.0,381355.0,44237.0,381355.0,65600.0,56.17300489538394,-101.93636209481309,-195.04483303460756
381355.0,12933.0,381355.0,44222.0,381355.0,65594.0,49.095177435044036,-107.35118473923825,-205.60214657471886
381355.0,12915.0,381355.0,44244.0,381355.0,65608.0,42.04135666047529,-112.70904819928825,-216.05220783873358
381355.0,12918.0,381355.0,44250.0,381355.0,65579.0,35.01193497886317,-118.01099258099822,-226.39657147984997
381355.0,12926.0,381355.0,44243.0,381355.0,65566.0,28.00706224821937,-123.25816682508383,-236.63693012468127
381366.0,12919.0,381366.0,44229.0,381366.0,65557.0,21.026778457156013,-128.45152115199164,-246.77514913877258
381366.0,12917.0,381366.0,44224.0,381366.0,65550.0,14.07126498984752,-133.59175228345015,-256.8133817730701
381366.0,12905.0,381366.0,44270.0,381366.0,65567.0,7.141016145353547,-138.67929701838983,-266.7540319070482
381366.0,12898.0,381366.0,44254.0,381366.0,65574.0,0.23688840219188023,-143.71401392381654,-276.5994570670156
381366.0,12881.0,381366.0,44249.0,381366.0,65546.0,-6.6399422356696505,-148.69466848463787,-286.3515108119526
381366.0,12881.0,381366.0,44194.0,381366.0,65548.0,-13.488080438110558,-153.61875396121815,-296.0112340482915
381376.0,12857.0,381376.0,44161.0,381376.0,65503.0,-20.306024811090253,-158.48293941293082,-305.578859142597
381376.0,12846.0,381376.0,44147.0,381376.0,65472.0,-27.0923145047729,-163.28394664055065,-315.05410858877474
381376.0,12839.0,381376.0,44158.0,381376.0,65482.0,-33.845737548291595,-168.0193400988859,-324.4366991784233
381376.0,12840.0,381376.0,44192.0,381376.0,65454.0,-40.56549370141818,-172.68776239934823,-333.72674407591614
381376.0,12842.0,381376.0,44157.0,381376.0,65500.0,-47.25118639273546,-177.28862357437606,-342.92479984185195
381376.0,12833.0,381376.0,44164.0,381376.0,65461.0,-53.90267412857423,-181.82174603303412,-352.03159078355077
381387.0,12833.0,381387.0,44172.0,381387.0,65446.0,-60.51990888385507,-186.28727081372614,-361.04770203589146
381387.0,12829.0,381387.0,44157.0,381387.0,65452.0,-67.10282017203923,-190.68560658330313,-369.9735489608257
381387.0,12830.0,381387.0,44190.0,381387.0,65474.0,-73.65120027878498,-195.01725746073805,-378.80939417223146
381387.0,12817.0,381387.0,44154.0,381387.0,65447.0,-80.1645765001278,-199.28259036786966,-387.55506005187874
381387.0,12804.0,381387.0,44115.0,381387.0,65418.0,-86.64215134470464,-203.48177057515977,-396.2096322168079
381387.0,12796.0,381387.0,44151.0,381387.0,65399.0,-93.08287143002116,-207.61506780364323,-404.7715850014166
381397.0,12781.0,381397.0,44116.0,381397.0,65360.0,-99.48557450747728,-211.6831989638515,-413.23925815563825
381397.0,12778.0,381397.0,44103.0,381397.0,65377.0,-105.84913774975013,-215.68745657972596,-421.61137922539353
381397.0,12760.0,381397.0,44113.0,381397.0,65360.0,-112.17260507762762,-219.6298758374025,-429.8873706067176
381397.0,12765.0,381397.0,44110.0,381397.0,65378.0,-118.45529153947263,-223.51339974164773,-438.06732596192103
381397.0,12748.0,381397.0,44143.0,381397.0,65390.0,-124.6968465618337,-227.34176506627063,-446.15171875549674
381397.0,12755.0,381397.0,44166.0,381397.0,65310.0,-130.89726597641305,-231.11904627171964,-454.14108575950445
381407.0,12738.0,381407.0,44106.0,381407.0,65338.0,-137.0568710504878,-234.84907179082768,-462.03609835690145
381407.0,12747.0,381407.0,44138.0,381407.0,65358.0,-143.17627071338796,-238.535184084844,-469.8378738976568
381407.0,12752.0,381407.0,44147.0,381407.0,65325.0,-149.25626447407842,-242.18031906694046,-477.54790783124395
381407.0,12725.0,381407.0,44117.0,381407.0,65353.0,-155.29767387202992,-245.78692719152235,-485.16772372136313
381407.0,12731.0,381407.0,44124.0,381407.0,65294.0,-161.3012542184655,-249.35683932622163,-492.6986984608395
381407.0,12712.0,381407.0,44094.0,381407.0,65290.0,-167.2677594587338,-252.8913829102808,-500.1421881128897
381418.0,12713.0,381418.0,44070.0,381418.0,65294.0,-173.19803668687354,-256.3916997709758,-507.49986529290186
381418.0,12716.0,381418.0,44067.0,381418.0,65293.0,-179.0930571986358,-259.8592028170603,-514.7739179438528
381418.0,12715.0,381418.0,44083.0,381418.0,65297.0,-184.9538334649357,-263.2959772908118,-521.9669151757649
381418.0,12704.0,381418.0,44102.0,381418.0,65291.0,-190.78125437740164,-266.70479464100737,-529.0815404507573
381418.0,12694.0,381418.0,44127.0,381418.0,65281.0,-196.57599253986024,-270.0886782394651,-536.1203802420591
381418.0,12682.0,381418.0,44060.0,381418.0,65251.0,-202.33855845795404,-273.45037500841306,-543.0858793909902
381428.0,12679.0,381428.0,44072.0,381428.0,65240.0,-208.06943077713635,-276.79227724701417,-549.9805420061115
381428.0,12677.0,381428.0,44123.0,381428.0,65277.0,-213.769149225467,-280.1166893384354,-556.8071795026384
381428.0,12680.0,381428.0,44106.0,381428.0,65253.0,-219.43829536964756,-283.42569048732645,-563.5688353624881
381428.0,12670.0,381428.0,44062.0,381428.0,65255.0,-225.07737938290904,-286.72067638842236,-570.2684573578114
381428.0,12649.0,381428.0,44042.0,381428.0,65217.0,-230.68676839832,-290.0024216288038,-576.9087562916116
381428.0,12646.0,381428.0,44028.0,381428.0,65201.0,-236.26678392787517,-293.27173563236767,-583.4924272275329
381438.0,12643.0,381438.0,44052.0,381438.0,65226.0,-241.81788334081455,-296.5300584563754,-590.0225105131859
381438.0,12630.0,381438.0,44083.0,381438.0,65212.0,-247.34075944649226,-299.77952285902495,-596.502505979572
381438.0,12629.0,381438.0,44073.0,381438.0,65216.0,-252.83637435749063,-303.0224846157691,-602.9361734372305
381438.0,12621.0,381438.0,44071.0,381438.0,65221.0,-258.30599641816934,-306.2609642155337,-609.3272844668862
381438.0,12621.0,381438.0,44038.0,381438.0,65202.0,-263.7512138612541,-309.4964511567473,-615.6794306227317
381438.0,12628.0,381438.0,44037.0,381438.0,65185.0,-269.1738786082475,-312.7301153041104,-621.9959445956324
381449.0,12626.0,381449.0,44061.0,381449.0,65205.0,-274.5759477863086,-315.9631034870783,-628.2799787458397
381449.0,12626.0,381449.0,44079.0,381449.0,65206.0,-279.9592593331471,-319.19649227356916,-634.5344919832359
381449.0,12604.0,381449.0,44059.0,381449.0,65200.0,-285.3253731732507,-322.43086652867817,-640.7619890709317
381449.0,12593.0,381449.0,44034.0,381449.0,65153.0,-290.675603380394,-325.66602156260376,-646.964327961272
381449.0,12592.0,381449.0,44010.0,381449.0,65151.0,-296.0112109221577,-328.9011632404099,-653.1429330473381
381449.0,12579.0,381449.0,43999.0,381449.0,65127.0,-301.3335808808706,-332.1354542804385,-659.2992827284594
381459.0,12571.0,381459.0,43996.0,381459.0,65104.0,-306.64432137470567,-335.36854451694273,-665.4353737539086
381459.0,12580.0,381459.0,44006.0,381459.0,65132.0,-311.94533067995746,-338.600854444597,-671.5540611071526
381459.0,12584.0,381459.0,44015.0,381459.0,65164.0,-317.23875357908344,-341.83355134181323,-677.6590527791226
381459.0,12569.0,381459.0,44023.0,381459.0,65152.0,-322.5267944967708,-345.06828676708676,-683.7543792315236
381459.0,12567.0,381459.0,43997.0,381459.0,65133.0,-327.81157151675825,-348.306901813557,-689.8437705134703
381459.0,12559.0,381459.0,44010.0,381459.0,65139.0,-333.0951144214939,-351.5513226821799,-695.9304387448099
381469.0,12571.0,381469.0,44051.0,381469.0,65133.0,-338.379377171191,-354.80350688092363,-702.0171160972135
381469.0,12575.0,381469.0,44006.0,381469.0,65099.0,-343.66611095710334,-358.0651404819889,-708.1060891368845
381469.0,12556.0,381469.0,44024.0,381469.0,65130.0,-348.9566281254397,-361.3373170818072,-714.1992861060189
381469.0,12533.0,381469.0,43980.0,381469.0,65090.0,-354.251707860411,-364.6205707772457,-720.2983685009967
381469.0,12519.0,381469.0,43963.0,381469.0,65065.0,-359.5518196497111,-367.91523074372014,-726.4048289095548
381469.0,12537.0,381469.0,43977.0,381469.0,65068.0,-364.85746011164133,-371.2219112131471,-732.5203034953519
381480.0,12516.0,381480.0,43975.0,381480.0,65073.0,-370.1692793727483,-374.5418292309672,-738.6469149216254
381480.0,12520.0,381480.0,43962.0,381480.0,65103.0,-375.48801924066913,-377.8768044620432,-744.7872307987473
381480.0,12512.0,381480.0,44033.0,381480.0,65089.0,-380.81446957186415,-381.2290664765995,-750.943827471169
381480.0,12511.0,381480.0,44017.0,381480.0,65076.0,-386.1494549551819,-384.6007581580043,-757.1188314312781
381480.0,12500.0,381480.0,43970.0,381480.0,65071.0,-391.49380716640985,-387.99330718391946,-763.3137641026176
381480.0,12501.0,381480.0,44026.0,381480.0,65065.0,-396.8483557487938,-391.40723823095493,-769.5296170748032
381490.0,12505.0,381490.0,44012.0,381490.0,65073.0,-402.2139043154326,-394.84220325318813,-775.7668906130453
381490.0,12503.0,381490.0,43986.0,381490.0,65055.0,-407.59111564830073,-398.29677853237865,-782.0255164869886
381490.0,12486.0,381490.0,43969.0,381490.0,65021.0,-412.98036223533745,-401.7684190901433,-788.3048452156687
381490.0,12476.0,381490.0,43959.0,381490.0,65015.0,-418.3817081721412,-405.25382954395747,-794.6039102215937
381490.0,12469.0,381490.0,43923.0,381490.0,64985.0,-423.79505277390285,-408.7494600711939,-800.9218899884335
381490.0,12476.0,381490.0,43920.0,381490.0,65009.0,-429.22026995141323,-412.2520122296398,-807.2584970715914
381500.0,12465.0,381500.0,43918.0,381500.0,64980.0,-434.6572077658004,-415.75891629195525,-813.6141341113049
381500.0,12452.0,381500.0,43977.0,381500.0,65008.0,-440.10562911606837,-419.26847259106665,-819.9898451886784
381500.0,12461.0,381500.0,43922.0,381500.0,65009.0,-445.5652230841532,-422.77950315692465,-826.3871151305563
381500.0,12432.0,381500.0,43903.0,381500.0,64987.0,-451.0356565911351,-426.2910378454654,-832.8075612556111
381500.0,12434.0,381500.0,43941.0,381500.0,64984.0,-456.5166562571495,-429.8024822420207,-839.2527461989982
381500.0,12449.0,381500.0,43918.0,381500.0,65002.0,-462.0081002391091,-433.3138100120409,-845.7241765261715
381511.0,12438.0,381511.0,43936.0,381511.0,64984.0,-467.5099439931208,-436.8254134257225,-852.2232138870147
381511.0,12425.0,381511.0,43920.0,381511.0,64984.0,-473.0220285373374,-440.3378974026849,-858.7508784274827
381511.0,12409.0,381511.0,43929.0,381511.0,64944.0,-478.54405858728217,-443.8519789644656,-865.3078155954698
381511.0,12399.0,381511.0,43877.0,381511.0,64932.0,-484.0758011633982,-447.368512314659,-871.8945598745076
381511.0,12401.0,381511.0,43898.0,381511.0,64937.0,-489.6173164743466,-450.88874880381337,-878.5119497146785
381511.0,12389.0,381511.0,43901.0,381511.0,64936.0,-495.16907537484144,-454.41464961453613,-885.1613637746322
381521.0,12385.0,381521.0,43908.0,381521.0,64905.0,-500.7319856564437,-457.94889292658604,-891.8447136864341
381521.0,12391.0,381521.0,43909.0,381521.0,64929.0,-506.307393939401,-461.49461192547676,-898.5644462630462
381521.0,12394.0,381521.0,43904.0,381521.0,64908.0,-511.8970044502398,-465.055142844043,-905.3235692535254
381521.0,12384.0,381521.0,43908.0,381521.0,64921.0,-517.5026903598549,-468.6338800777762,-912.1255589084245
381521.0,12389.0,381521.0,43913.0,381521.0,64948.0,-523.1263190536313,-472.23416946305156,-918.9741249761454
381521.0,12388.0,381521.0,43894.0,381521.0,64927.0,-528.7696297275954,-475.8591930653929,-925.8727986195858
381531.0,12375.0,381531.0,43916.0,381531.0,64905.0,-534.4341126609031,-479.51189191718373,-932.824555629597
381531.0,12361.0,381531.0,43895.0,381531.0,64885.0,-540.1209649887638,-483.1949083899624,-939.8318431420823
381531.0,12345.0,381531.0,43866.0,381531.0,64878.0,-545.8312220910316,-486.91058655818745,-946.8969348858043
381531.0,12351.0,381531.0,43874.0,381531.0,64849.0,-551.5659815851202,-490.66120046021894,-954.0223052502761
381531.0,12328.0,381531.0,43841.0,381531.0,64874.0,-557.3265640621939,-494.4493272057196,-961.2108986489886
381531.0,12340.0,381531.0,43877.0,381531.0,64846.0,-563.1145882690756,-498.27811391089364,-968.4662252885629
381542.0,12340.0,381542.0,43894.0,381542.0,64846.0,-568.9319647405379,-502.1512380276572,-975.7923237215118
381542.0,12332.0,381542.0,43877.0,381542.0,64842.0,-574.7807673568041,-506.0725083495345,-983.193753990556
381542.0,12339.0,381542.0,43823.0,381542.0,64851.0,-580.6630596684307,-510.0455700101577,-990.6755746891266
381542.0,12324.0,381542.0,43870.0,381542.0,64858.0,-586.580766992031,-514.0741302388622,-998.2431459426647
381542.0,12325.0,381542.0,43901.0,381542.0,64843.0,-592.5356002843229,-518.1621603760971,-1005.9018087432345
381542.0,12309.0,381542.0,43913.0,381542.0,64844.0,-598.5290459004675,-522.313406203159,-1013.6566347451239
381552.0,12307.0,381552.0,43905.0,381552.0,64846.0,-604.562417135089,-526.530542400946,-1021.5122989694303
381552.0,12286.0,381552.0,43848.0,381552.0,64805.0,-610.6369513084711,-530.8147420611162,-1029.4730165682613
381552.0,12285.0,381552.0,43829.0,381552.0,64805.0,-616.7539543785423,-535.1659930575986,-1037.5426446840374
381552.0,12273.0,381552.0,43812.0,381552.0,64795.0,-622.9149566106067,-539.5838961304248,-1045.7249512896137
381552.0,12277.0,381552.0,43809.0,381552.0,64780.0,-629.1218064075773,-544.0683921985408,-1054.0238201781249
381552.0,12271.0,381552.0,43861.0,381552.0,64806.0,-635.3766638003196,-548.6200303517284,-1062.4432867449295
381562.0,12287.0,381562.0,43802.0,381562.0,64778.0,-641.6818834206397,-553.2397502112933,-1070.987406459103
381562.0,12259.0,381562.0,43803.0,381562.0,64750.0,-648.0398212927464,-557.9286542155571,-1079.6601198162168
381562.0,12258.0,381562.0,43802.0,381562.0,64759.0,-654.4527232197714,-562.6881704967101,-1088.465372677112
381562.0,12254.0,381562.0,43822.0,381562.0,64781.0,-660.9227756397546,-567.5202460915292,-1097.4072611611864
381562.0,12262.0,381562.0,43845.0,381562.0,64762.0,-667.4521387687878,-572.4271252218261,-1106.4898103892328
381562.0,12240.0,381562.0,43849.0,381562.0,64748.0,-674.0428486332786,-577.4107793674639,-1115.7166136014346
381573.0,12227.0,381573.0,43799.0,381573.0,64750.0,-680.6967660096041,-582.4723958326376,-1125.0907119821777
381573.0,12218.0,381573.0,43776.0,381573.0,64699.0,-687.4157158896627,-587.6124104386201,-1134.6146928161897
381573.0,12208.0,381573.0,43776.0,381573.0,64694.0,-694.2017040830345,-592.8310762090704,-1144.2909674255848
381573.0,12202.0,381573.0,43769.0,381573.0,64699.0,-701.0570712582555,-598.129005434981,-1154.1221559456017
381573.0,12208.0,381573.0,43762.0,381573.0,64707.0,-707.9845499533697,-603.5073774990694,-1164.1112186353987
381573.0,12208.0,381573.0,43806.0,381573.0,64708.0,-714.9871860292087,-608.9678852896134,-1174.2611859061185
381583.0,12209.0,381583.0,43771.0,381583.0,64672.0,-722.0681285261081,-614.5124363558523,-1184.5748046956192
381583.0,12202.0,381583.0,43780.0,381583.0,64657.0,-729.2303930618651,-620.1427969589452,-1195.0544775057392
381583.0,12183.0,381583.0,43790.0,381583.0,64662.0,-736.4767241428231,-625.8604218067708,-1205.7024859188682
381583.0,12196.0,381583.0,43793.0,381583.0,64696.0,-743.8095886723447,-631.66628930803,-1216.5210472257822
381583.0,12198.0,381583.0,43794.0,381583.0,64658.0,-751.2311386719555,-637.5605864758256,-1227.5119389840647
381583.0,12161.0,381583.0,43755.0,381583.0,64658.0,-758.7430642118372,-643.5424761795675,-1238.6760678496219
381594.0,12161.0,381594.0,43745.0,381594.0,64649.0,-766.3465833753722,-649.6102057765343,-1250.013342848822
381594.0,12147.0,381594.0,43702.0,381594.0,64623.0,-774.0426562227427,-655.7615611953456,-1261.5227134277495
381594.0,12145.0,381594.0,43713.0,381594.0,64600.0,-781.8321737953246,-661.9944520077393,-1273.2022812131036
381594.0,12146.0,381594.0,43687.0,381594.0,64563.0,-789.7159905862126,-668.3073786348666,-1285.0496130094343
381594.0,12138.0,381594.0,43747.0,381594.0,64597.0,-797.6948409216744,-674.699575329886,-1297.0621377130365
381594.0,12124.0,381594.0,43779.0,381594.0,64604.0,-805.7692323176949,-681.1705901855439,-1309.2371981887034
381604.0,12127.0,381604.0,43727.0,381604.0,64608.0,-813.9394109036255,-687.7194054066136,-1321.5715679625462
381604.0,12122.0,381604.0,43684.0,381604.0,64570.0,-822.20534223341,-694.3439356885053,-1334.0608537534981
381604.0,12117.0,381604.0,43744.0,381604.0,64581.0,-830.5666143863529,-701.0413155543071,-1346.6992453608896
381604.0,12122.0,381604.0,43753.0,381604.0,64563.0,-839.0222896681648,-707.8080812354661,-1359.4795118677512
381604.0,12103.0,381604.0,43727.0,381604.0,64549.0,-847.570751473122,-714.639680548237,-1372.3929711465566
381604.0,12099.0,381604.0,43706.0,381604.0,64530.0,-856.2096070510971,-721.5300212052546,-1385.4294733746647
381614.0,12070.0,381614.0,43649.0,381614.0,64488.0,-864.9357271813537,-728.471678992732,-1398.577554664309
381614.0,12064.0,381614.0,43671.0,381614.0,64496.0,-873.7454309244986,-735.4565616125835,-1411.824759108045
381614.0,12067.0,381614.0,43656.0,381614.0,64469.0,-882.6346941284588,-742.4764739232309,-1425.1579353282004
381614.0,12071.0,381614.0,43666.0,381614.0,64513.0,-891.5991733625349,-749.5232529440384,-1438.5632590117816
381614.0,12059.0,381614.0,43667.0,381614.0,64487.0,-900.6340069587186,-756.588600378518,-1452.0258867400821
381614.0,12053.0,381614.0,43666.0,381614.0,64501.0,-909.7335997214869,-763.663827435222,-1465.5294135793774
381625.0,12050.0,381625.0,43663.0,381625.0,64461.0,-918.8915189598149,-770.7396012607288,-1479.0554607359986
381625.0,12031.0,381625.0,43653.0,381625.0,64481.0,-928.1004514311774,-777.8057681464813,-1492.5835152340687
381625.0,12051.0,381625.0,43695.0,381625.0,64474.0,-937.3521566475313,-784.8511870308057,-1506.0908117460353
381625.0,12040.0,381625.0,43694.0,381625.0,64443.0,-946.6373236898482,-791.8633348297958,-1519.5521095097083
381625.0,12023.0,381625.0,43665.0,381625.0,64419.0,-955.9453398945525,-798.8277466975912,-1532.939601843542
381625.0,12006.0,381625.0,43617.0,381625.0,64423.0,-965.2642003948985,-805.7278380293451,-1546.223102759282
381635.0,12007.0,381635.0,43597.0,381635.0,64396.0,-974.5806256438556,-812.5454081849357,-1559.3702363434586
381635.0,11983.0,381635.0,43602.0,381635.0,64372.0,-983.8801950527536,-819.2614136255306,-1572.3465266705443
381635.0,11981.0,381635.0,43575.0,381635.0,64354.0,-993.1474324142026,-825.8564767807667,-1585.115591662429
381635.0,11981.0,381635.0,43629.0,381635.0,64373.0,-1002.3658678583838,-832.3110017365534,-1597.6393772462056
381635.0,11971.0,381635.0,43628.0,381635.0,64367.0,-1011.5180039886412,-838.6048791542698,-1609.8781152602912
381635.0,11964.0,381635.0,43579.0,381635.0,64323.0,-1020.5852069662441,-844.716963192592,-1621.7900650264514
381645.0,11944.0,381645.0,43602.0,381645.0,64318.0,-1029.5476627472,-850.6248735609092,-1633.3314850912288
381645.0,11943.0,381645.0,43564.0,381645.0,64339.0,-1038.3844435956048,-856.3052083863236,-1644.4568364859877
381645.0,11930.0,381645.0,43629.0,381645.0,64343.0,-1047.0736025410743,-861.7336748302167,-1655.1187069184575
381645.0,11938.0,381645.0,43594.0,381645.0,64305.0,-1055.5921952700296,-866.8848508425979,-1665.267416894405
381645.0,11921.0,381645.0,43562.0,381645.0,64284.0,-1063.9162058754969,-871.7318560901747,-1674.8508638025583
381645.0,11914.0,381645.0,43543.0,381645.0,64282.0,-1072.020464227548,-876.2464853561901,-1683.814801869681
381656.0,11898.0,381656.0,43539.0,381656.0,64263.0,-1079.8786650219756,-880.3997809938226,-1692.1031893273462
381656.0,11885.0,381656.0,43539.0,381656.0,64245.0,-1087.4634994390892,-884.162507030414,-1699.658408238562
381656.0,11876.0,381656.0,43557.0,381656.0,64246.0,-1094.746841573462,-887.505272887701,-1706.421478190206
381656.0,11867.0,381656.0,43564.0,381656.0,64241.0,-1101.6999277795458,-890.3983501585575,-1712.3322394016805
381656.0,11873.0,381656.0,43569.0,381656.0,64227.0,-1108.2934610335633,-892.8113149337,-1717.3294241811604
381656.0,11870.0,381656.0,43536.0,381656.0,64222.0,-1114.4975845760791,-894.7127777025044,-1721.35072795219
381666.0,11870.0,381666.0,43550.0,381666.0,64198.0,-1120.2817439960004,-896.0704183516075,-1724.3329951570345
381666.0,11862.0,381666.0,43542.0,381666.0,64209.0,-1125.6145419321697,-896.8512018055037,-1726.2124957389397
381666.0,11868.0,381666.0,43529.0,381666.0,64225.0,-1130.463649117329,-897.021540600499,-1726.9251181775644
381666.0,11835.0,381666.0,43548.0,381666.0,64180.0,-1134.795786946658,-896.5474155753298,-1726.4063920909043
381666.0,11845.0,381666.0,43505.0,381666.0,64155.0,-1138.5768433272165,-895.3945265915092,-1724.5916966232126
381666.0,11808.0,381666.0,43490.0,381666.0,64178.0,-1141.7721289531964,-893.5286059210002,-1721.416879305939
381676.0,11824.0,381676.0,43524.0,381676.0,64172.0,-1144.3466901098518,-890.9159318312022,-1716.818828089228
381676.0,11823.0,381676.0,43490.0,381676.0,64196.0,-1146.2655475815598,-887.52370348385,-1710.735640411829
381676.0,11805.0,381676.0,43510.0,381676.0,64216.0,-1147.4937777943205,-883.3201851410895,-1703.106526933743
381676.0,11814.0,381676.0,43519.0,381676.0,64185.0,-1147.9965708862455,-878.2748332248876,-1693.8716725168028
381676.0,11803.0,381676.0,43517.0,381676.0,64148.0,-1147.739370042675,-872.3583566601817,-1682.972436874899
381676.0,11794.0,381676.0,43514.0,381676.0,64186.0,-1146.6880365547545,-865.5427297007187,-1670.352095145709
381687.0,11791.0,381687.0,43534.0,381687.0,64189.0,-1144.8090700473745,-857.8013079371613,-1655.9565900554392
381687.0,11799.0,381687.0,43528.0,381687.0,64197.0,-1142.069866762549,-849.1089633950767,-1639.734854305083
381687.0,11797.0,381687.0,43530.0,381687.0,64213.0,-1138.4388874593915,-839.4421950591052,-1621.638963952291
381687.0,11781.0,381687.0,43502.0,381687.0,64197.0,-1133.8857764552224,-828.7793977657863,-1601.6244219190512
381687.0,11784.0,381687.0,43524.0,381687.0,64180.0,-1128.3816048393871,-817.1013711671092,-1579.6506966129846
381687.0,11785.0,381687.0,43505.0,381687.0,64181.0,-1121.8992226464927,-804.3918913672816,-1555.6821081557364
381697.0,11788.0,381697.0,43514.0,381697.0,64224.0,-1114.4135569974796,-790.6382102544635,-1529.6888024531477
381697.0,11776.0,381697.0,43577.0,381697.0,64226.0,-1105.901855056363,-775.8314061409089,-1501.6473872399233
381697.0,11799.0,381697.0,43595.0,381697.0,64286.0,-1096.3439636744579,-759.966312915754,-1471.5411946229508
381697.0,11811.0,381697.0,43618.0,381697.0,64270.0,-1085.7225513373614,-743.0410381162128,-1439.3604157386205
381697.0,11813.0,381697.0,43600.0,381697.0,64324.0,-1074.023165804546,-725.0566104177661,-1405.102318521269
381697.0,11824.0,381697.0,43611.0,381697.0,64350.0,-1061.234269658024,-706.017128969006,-1368.771559009273
381707.0,11839.0,381707.0,43673.0,381707.0,64456.0,-1047.3473695756034,-685.930157521696,-1330.3802725924181
381707.0,11863.0,381707.0,43690.0,381707.0,64453.0,-1032.3571243460274,-664.806800624448,-1289.9477325531889
381707.0,11881.0,381707.0,43691.0,381707.0,64496.0,-1016.2613266635849,-642.6614393700185,-1247.4999782256791
381707.0,11881.0,381707.0,43700.0,381707.0,64527.0,-999.0608458914546,-619.5116889270406,-1203.069893789096
381707.0,11884.0,381707.0,43711.0,381707.0,64564.0,-980.759738280737,-595.378775711147,-1156.6975992333564
381707.0,11911.0,381707.0,43752.0,381707.0,64630.0,-961.3655691333396,-570.287993633332,-1108.430792200207
381718.0,11943.0,381718.0,43783.0,381718.0,64696.0,-940.8896877348689,-544.2689129114643,-1058.3248491606546
381718.0,11968.0,381718.0,43853.0,381718.0,64758.0,-919.3472321972777,-517.3552252680367,-1006.4426196177056
381718.0,11995.0,381718.0,43877.0,381718.0,64838.0,-896.7569609780468,-489.5842711010095,-952.8540289128375
381718.0,12008.0,381718.0,43919.0,381718.0,64900.0,-873.1411271211755,-460.99647824317697,-897.6356191418835
381718.0,12042.0,381718.0,43934.0,381718.0,64978.0,-848.5254796066213,-431.6350004962174,-840.8700724617393
381718.0,12081.0,381718.0,43961.0,381718.0,65054.0,-822.9392858514334,-401.5456517705304,-782.6457426427719
381728.0,12122.0,381728.0,44032.0,381728.0,65161.0,-796.4151964388878,-370.7769543214474,-723.0561051708288
381728.0,12147.0,381728.0,44064.0,381728.0,65210.0,-768.9889551738898,-339.37996973050167,-662.1990522107646
381728.0,12201.0,381728.0,44132.0,381728.0,65267.0,-740.6991031623626,-307.40781796930463,-600.1762924904897
381728.0,12219.0,381728.0,44124.0,381728.0,65351.0,-711.586718256058,-274.91517228659285,-537.0931301861484
381728.0,12252.0,381728.0,44164.0,381728.0,65425.0,-681.6952169469913,-241.9580803273006,-473.0583928567995
381728.0,12285.0,381728.0,44213.0,381728.0,65483.0,-651.0702963052456,-208.59410566521257,-408.18423181323965
381738.0,12333.0,381738.0,44243.0,381738.0,65583.0,-619.7599214609124,-174.8824094958897,-342.5858844836562
381738.0,12382.0,381738.0,44327.0,381738.0,65663.0,-587.8141648950065,-140.88354599011842,-276.381385022842
381738.0,12413.0,381738.0,44359.0,381738.0,65770.0,-555.2848838425747,-106.65899772345313,-209.6910453928399
381738.0,12459.0,381738.0,44393.0,381738.0,65858.0,-522.2254001315779,-72.27061719257574,-142.63671118919615
381738.0,12510.0,381738.0,44443.0,381738.0,65945.0,-488.69024756171643,-37.7802597987818,-75.34093807600743
381738.0,12556.0,381738.0,44516.0,381738.0,66035.0,-454.73486772186345,-3.249533444830945,-7.926234644762189
381749.0,12582.0,381749.0,44548.0,381749.0,66127.0,-420.41525652850413,31.260657002639505,59.485603934452
381749.0,12633.0,381749.0,44571.0,381749.0,66197.0,-385.78772563526724,65.69062666949253,126.77411995405441
381749.0,12658.0,381749.0,44584.0,381749.0,66248.0,-350.9087991607824,99.98205592058616,193.82064730251136
381749.0,12700.0,381749.0,44625.0,381749.0,66332.0,-315.83516498460517,134.07771928511204,260.5084376939503
381749.0,12751.0,381749.0,44655.0,381749.0,66405.0,-280.62363223231574,167.92114601060746,326.72263485654094
381749.0,12793.0,381749.0,44716.0,381749.0,66474.0,-245.33099394924784,201.45650147347624,392.3503655723762
381759.0,12829.0,381759.0,44781.0,381759.0,66552.0,-210.0137850265378,234.62880865504678,457.28092700920115
381759.0,12878.0,381759.0,44805.0,381759.0,66675.0,-174.72806710460804,267.3844730409172,521.4060861450739
381759.0,12925.0,381759.0,44815.0,381759.0,66731.0,-139.52924064636466,299.67173630982006,584.6206851009104
381759.0,12958.0,381759.0,44858.0,381759.0,66793.0,-104.4718095103143,331.4406942537896,646.823353512425
381759.0,13008.0,381759.0,44904.0,381759.0,66890.0,-69.6091528928871,362.6431092870271,707.9169387434613
381759.0,13058.0,381759.0,44956.0,381759.0,66972.0,-34.99331501678205,393.23248057056435,767.8088434039773
381769.0,13094.0,381769.0,44992.0,381769.0,67048.0,-0.6747278641328194,423.1644239097601,826.4116031836336
381769.0,13129.0,381769.0,45027.0,381769.0,67047.0,33.29806794828778,452.39710389359516,883.6434125359403
381769.0,13157.0,381769.0,45034.0,381769.0,67131.0,66.87855400689989,480.8914829363031,939.4281173786478
381769.0,13188.0,381769.0,45045.0,381769.0,67191.0,100.02220001275896,508.61124489261874,993.6948778128826
381769.0,13231.0,381769.0,45108.0,381769.0,67240.0,132.68636948666835,535.5224997478574,1046.378057833574
381769.0,13262.0,381769.0,45132.0,381769.0,67319.0,164.83029016154148,561.5936753078317,1097.417376712871
381780.0,13308.0,381780.0,45219.0,381780.0,67382.0,196.4151288977789,586.795854001432,1146.7581663376045
381780.0,13350.0,381780.0,45193.0,381780.0,67383.0,227.40415423161505,611.1033736829047,1194.3516534827309
381780.0,13383.0,381780.0,45187.0,381780.0,67445.0,257.7629756732897,634.4941368454247,1240.1549450009697
381780.0,13414.0,381780.0,45242.0,381780.0,67514.0,287.4597739255847,656.9492931406312,1284.130755964759
381780.0,13443.0,381780.0,45270.0,381780.0,67555.0,316.46541992796733,678.4528463753625,1326.2474022519832
381780.0,13475.0,381780.0,45308.0,381780.0,67578.0,344.75349994860153,698.9917674084707,1366.4790426000045
381790.0,13509.0,381790.0,45320.0,381790.0,67641.0,372.3003326668505,718.556372646555,1404.8057562967083
381790.0,13512.0,381790.0,45296.0,381790.0,67607.0,399.0849791054068,737.1404767975814,1441.2133784263247
381790.0,13543.0,381790.0,45318.0,381790.0,67662.0,425.089126784511,754.7410894946224,1475.693075110396
381790.0,13568.0,381790.0,45325.0,381790.0,67679.0,450.2968589007735,771.3578583683488,1508.240734092531
381790.0,13570.0,381790.0,45310.0,381790.0,67718.0,474.6944467433186,786.9925925883585,1538.856531188203
381790.0,13627.0,381790.0,45354.0,381790.0,67749.0,498.27018408348545,801.6488770140204,1567.5447840494462
381800.0,13641.0,381800.0,45401.0,381800.0,67792.0,521.0143348190093,815.3319064225911,1594.3139677773702
381800.0,13665.0,381800.0,45353.0,381800.0,67779.0,542.919248896711,828.0486914820299,1619.1767809445241
381800.0,13682.0,381800.0,45361.0,381800.0,67824.0,563.9794485082007,839.808110137059,1642.1500634345189
381800.0,13695.0,381800.0,45424.0,381800.0,67861.0,584.1915613630581,850.6205451494895,1663.254630453217
381800.0,13739.0,381800.0,45433.0,381800.0,67869.0,603.5542206204539,860.4978056917889,1682.5153196587848
381800.0,13758.0,381800.0,45463.0,381800.0,67872.0,622.0681076562114,869.4536139566417,1699.961113129737
381811.0,13753.0,381811.0,45455.0,381811.0,67876.0,639.7361012861991,877.504118089885,1715.6249812453843
381811.0,13760.0,381811.0,45401.0,381811.0,67879.0,656.5632237988436,884.6679635215485,1729.543479927754
381811.0,13767.0,381811.0,45383.0,381811.0,67845.0,672.5562804995134,890.9656934951079,1741.7562357770844
381811.0,13784.0,381811.0,45400.0,381811.0,67871.0,687.723447600428,896.4187170007147,1752.3052956699066
381811.0,13802.0,381811.0,45408.0,381811.0,67866.0,702.0740187114022,901.0485578337687,1761.2344994248024
381811.0,13820.0,381811.0,45464.0,381811.0,67899.0,715.6183319353017,904.8767787224638,1768.5891595318358
381821.0,13827.0,381821.0,45451.0,381821.0,67891.0,728.3677943004263,907.9254280533471,1774.4160526068317
381821.0,13837.0,381821.0,45454.0,381821.0,67869.0,740.334877728747,910.217567324811,1778.7634337428167
381821.0,13854.0,381821.0,45407.0,381821.0,67874.0,751.5330477240859,911.7773848246172,1781.680788929761
381821.0,13869.0,381821.0,45441.0,381821.0,67909.0,761.9767174715089,912.6298259796581,1783.2184899324116
381821.0,13869.0,381821.0,45438.0,381821.0,67869.0,771.681267390393,912.8002111256751,1783.4277183480585
381821.0,13878.0,381821.0,45442.0,381821.0,67885.0,780.6630244450932,912.3142021407721,1782.3604953223853
381832.0,13882.0,381832.0,45462.0,381832.0,67837.0,788.9391440554562,911.197985584869,1780.069465169625
381832.0,13882.0,381832.0,45415.0,381832.0,67854.0,796.5274507475615,909.4784205742519,1776.6074676466883
381832.0,13893.0,381832.0,45373.0,381832.0,67826.0,803.446273421891,907.1828510348219,1772.027109676722
381832.0,13895.0,381832.0,45416.0,381832.0,67836.0,809.7143029997549,904.3384802846176,1766.3804724339534
381832.0,13913.0,381832.0,45411.0,381832.0,67823.0,815.3505224526966,900.9719060882928,1759.7189662610963
381832.0,13911.0,381832.0,45433.0,381832.0,67822.0,820.3742187327005,897.1092767168429,1752.0932872174249
381842.0,13909.0,381842.0,45383.0,381842.0,67812.0,824.8049970671802,892.7766522914894,1743.5534230051599
381842.0,13915.0,381842.0,45356.0,381842.0,67760.0,828.6626998595107,887.9999573791026,1734.1485690240988
381842.0,13911.0,381842.0,45377.0,381842.0,67804.0,831.9672599203725,882.804479476476,1723.926869969152
381842.0,13930.0,381842.0,45372.0,381842.0,67800.0,834.7385946492523,877.2144690724247,1712.935311201897
381842.0,13932.0,381842.0,45378.0,381842.0,67758.0,836.9966133787975,871.2531885540777,1701.219978925726
381842.0,13929.0,381842.0,45413.0,381842.0,67793.0,838.761308908279,864.94324120585,1688.8263031392296
381852.0,13912.0,381852.0,45332.0,381852.0,67721.0,840.0527565208431,858.3069326523142,1675.799075456623
381852.0,13912.0,381852.0,45335.0,381852.0,67677.0,840.890898418018,851.3662633157038,1662.1822099719952
381852.0,13909.0,381852.0,45305.0,381852.0,67677.0,841.2952303027087,844.1423933187492,1648.0180878746764
381852.0,13913.0,381852.0,45335.0,381852.0,67674.0,841.2845756535958,836.6551113644725,1633.3469012908804
381852.0,13922.0,381852.0,45327.0,381852.0,67687.0,840.8770138485065,828.9227662988653,1618.206567700208
381852.0,13932.0,381852.0,45340.0,381852.0,67684.0,840.0899595074427,820.9625736987969,1602.6331347060889
381863.0,13909.0,381863.0,45298.0,381863.0,67628.0,838.9403074759318,812.7909467870095,1586.661222642203
381863.0,13917.0,381863.0,45313.0,381863.0,67617.0,837.4444526570257,804.4235738653468,1570.3240727947382
381863.0,13930.0,381863.0,45338.0,381863.0,67616.0,835.6182003369879,795.8754097023668,1553.6532527373636
381863.0,13930.0,381863.0,45303.0,381863.0,67601.0,833.4768133696748,787.1609223745919,1536.6785114937552
381863.0,13916.0,381863.0,45331.0,381863.0,67607.0,831.035181543803,778.2944594863667,1519.4279535010096
381863.0,13913.0,381863.0,45263.0,381863.0,67554.0,828.3078556284233,769.2904034315779,1501.9282754238382
381873.0,13907.0,381873.0,45243.0,381873.0,67543.0,825.3089091897743,760.1629513112871,1484.2047815896567
381873.0,13903.0,381873.0,45209.0,381873.0,67505.0,822.051783538305,750.9254826198036,1466.2811184942532
381873.0,13911.0,381873.0,45230.0,381873.0,67503.0,818.5492064217415,741.5898623276439,1448.1789461255482
381873.0,13911.0,381873.0,45237.0,381873.0,67520.0,814.8132224831033,732.1661889140171,1429.917838783896
381873.0,13900.0,381873.0,45245.0,381873.0,67473.0,810.8553006704433,722.6630861309537,1411.5155199337335
381873.0,13901.0,381873.0,45231.0,381873.0,67468.0,806.6863886919498,713.0882083050218,1392.9881370139717
381883.0,13906.0,381883.0,45218.0,381883.0,67440.0,802.3169060515786,703.4485824811741,1374.3502842174933
381883.0,13886.0,381883.0,45188.0,381883.0,67461.0,797.7567663798004,693.7506394260982,1355.6149730646187
381883.0,13893.0,381883.0,45257.0,381883.0,67459.0,793.0153821787477,684.0001457527163,1336.793888258898
381883.0,13898.0,381883.0,45274.0,381883.0,67454.0,788.1016435680245,674.2025914543077,1317.8979486382843
381883.0,13888.0,381883.0,45196.0,381883.0,67393.0,783.0239901274228,664.3640326561305,1298.937804521991
381883.0,13870.0,381883.0,45158.0,381883.0,67375.0,777.7904946014479,654.4913836133142,1279.9238481387745
381894.0,13868.0,381894.0,45133.0,381894.0,67371.0,772.4087760597805,644.5916862321939,1260.8658521441753
381894.0,13860.0,381894.0,45145.0,381894.0,67357.0,766.8858130853661,634.6711724562219,1241.7727661077452
381894.0,13870.0,381894.0,45141.0,381894.0,67349.0,761.2278490001876,624.7348842640083,1222.6528507681196
381894.0,13874.0,381894.0,45214.0,381894.0,67340.0,755.4404759255128,614.7869563173256,1203.513939299781
381894.0,13864.0,381894.0,45172.0,381894.0,67356.0,749.5288489061058,604.8314214562097,1184.3637625864683
381894.0,13860.0,381894.0,45143.0,381894.0,67294.0,743.4978639720537,594.8729924949391,1165.2103362196167
381904.0,13864.0,381904.0,45126.0,381904.0,67318.0,737.3522230695089,584.9171685438807,1146.062198501151
381904.0,13863.0,381904.0,45160.0,381904.0,67300.0,731.0965051010448,574.9699247373726,1126.9285133540834
381904.0,13871.0,381904.0,45140.0,381904.0,67273.0,724.7353360143293,565.0377238468404,1107.8192786845539
381904.0,13867.0,381904.0,45111.0,381904.0,67272.0,718.2736274342612,555.1278151830131,1088.7455427582565
381904.0,13834.0,381904.0,45083.0,381904.0,67198.0,711.7167480984673,545.2482438181955,1069.7194076810551
381904.0,13837.0,381904.0,45114.0,381904.0,67191.0,705.070453897513,535.4075435858883,1050.7537346314339
381914.0,13844.0,381914.0,45035.0,381914.0,67176.0,698.3406896760831,525.6145142960281,1031.8616799752976
381914.0,13839.0,381914.0,45048.0,381914.0,67134.0,691.533580334994,515.8779999215151,1013.0563856471427
381914.0,13837.0,381914.0,45053.0,381914.0,67161.0,684.6556150905606,506.2065379581951,994.3508861124708
381914.0,13824.0,381914.0,45087.0,381914.0,67181.0,677.7137960130935,496.6083471531287,975.7583002933892
381914.0,13821.0,381914.0,45045.0,381914.0,67118.0,670.7156676615639,487.0918192691269,957.2923990997025
381914.0,13818.0,381914.0,45024.0,381914.0,67099.0,663.6692963946297,477.6659095242253,938.9680057792888
381925.0,13807.0,381925.0,45034.0,381925.0,67078.0,656.5832739924274,468.34005306708,920.8008198477132
381925.0,13809.0,381925.0,45063.0,381925.0,67092.0,649.4667433055195,459.124066580336,902.807139690755
381925.0,13795.0,381925.0,45024.0,381925.0,67063.0,642.3294213693189,450.02845563866384,885.0039406927999
381925.0,13799.0,381925.0,44999.0,381925.0,67060.0,635.1816237362202,441.0647207343407,867.4091505139442
381925.0,13776.0,381925.0,44948.0,381925.0,67021.0,628.0342755457272,432.24511117814745,850.0418133586564
381925.0,13764.0,381925.0,44956.0,381925.0,66996.0,620.8988422174205,423.58194185835765,832.9220232546895
381935.0,13750.0,381935.0,44925.0,381935.0,66950.0,613.7871308464225,415.0869642322296,816.0706075131883
381935.0,13738.0,381935.0,44924.0,381935.0,66958.0,606.7110307403661,406.77101174513643,799.5086730521896
381935.0,13739.0,381935.0,44968.0,381935.0,66944.0,599.6823060483107,398.6439253738246,783.2573225192773
381935.0,13744.0,381935.0,44929.0,381935.0,66904.0,592.7125311676654,390.7148378685411,767.3376447669802
381935.0,13739.0,381935.0,44935.0,381935.0,66902.0,585.8132070007229,382.9925816213026,751.7706896082677
381935.0,13737.0,381935.0,44939.0,381935.0,66895.0,578.9959585236658,375.4858677335501,736.5773452213991
381945.0,13720.0,381945.0,44946.0,381945.0,66894.0,572.2726615157184,368.2034140800999,721.7783826293783
381945.0,13711.0,381945.0,44929.0,381945.0,66879.0,565.6554252176096,361.15421433715585,707.3947030036463
381945.0,13713.0,381945.0,44926.0,381945.0,66817.0,559.156481128621,354.3477453172256,693.4474734410144
381945.0,13689.0,381945.0,44843.0,381945.0,66834.0,552.7880868328095,347.7938472111365,679.9578975716369
381945.0,13679.0,381945.0,44870.0,381945.0,66798.0,546.5624120815276,341.50215298628416,666.9468328051864
381945.0,13672.0,381945.0,44849.0,381945.0,66761.0,540.4913298373204,335.48139649522284,654.4345125680552
381956.0,13673.0,381956.0,44837.0,381956.0,66776.0,534.5862252167135,329.7390583743395,642.4402514387152
381956.0,13672.0,381956.0,44874.0,381956.0,66761.0,528.8579575394807,324.28132112359395,630.982213478
381956.0,13666.0,381956.0,44867.0,381956.0,66711.0,523.3169407141488,319.11326634337524,620.0773665786197
381956.0,13663.0,381956.0,44847.0,381956.0,66724.0,517.9732303038841,314.2392511901891,609.7413186901441
381956.0,13644.0,381956.0,44877.0,381956.0,66725.0,512.8365359867166,309.6631522299108,599.9880596568754
381956.0,13643.0,381956.0,44846.0,381956.0,66702.0,507.9161267057592,305.38846642487624,590.8299602911218
381966.0,13655.0,381966.0,44900.0,381966.0,66691.0,503.2207212875411,301.41849375849154,582.2778764505794
381966.0,13635.0,381966.0,44850.0,381966.0,66728.0,498.75850791370505,297.7566256653555,574.3411674888333
381966.0,13633.0,381966.0,44832.0,381966.0,66682.0,494.5372051447665,294.406486192075,567.027843239319
381966.0,13622.0,381966.0,44813.0,381966.0,66672.0,490.5639962630651,291.3716222211077,560.3447238752701
381966.0,13616.0,381966.0,44788.0,381966.0,66651.0,486.84537918433585,288.6548822802983,554.2972541876525
381966.0,13613.0,381966.0,44791.0,381966.0,66641.0,483.38702682235936,286.25782988639503,548.8890934848745
381976.0,13610.0,381976.0,44791.0,381976.0,66651.0,480.1936880545809,284.18035121200603,544.1218047361175
