c_ts,c_val,d_ts,d_val,e_ts,e_val,c_val_filtered,d_val_filtered,e_val_filtered
207464,325,207464,62688,207464.0,80798.0,-107.65162659581662,-340.67108750833086,-483.0141533499135
207464,329,207464,62802,207464.0,80804.0,-110.17678164451755,-345.9572958092282,-497.61520376304304
207464,335,207464,62760,207464.0,80798.0,-112.78116697879122,-351.48226436118046,-512.579618082663
207464,319,207464,62760,207464.0,80763.0,-115.46152954120501,-357.24931191858906,-527.8832524755518
207464,314,207464,62697,207464.0,80729.0,-118.21389859520151,-363.2575136412538,-543.4992218142339
207464,318,207464,62723,207464.0,80714.0,-121.03367857556711,-369.50211753801625,-559.398204704719
207475,299,207475,62708,207475.0,80716.0,-123.91575375846529,-375.97505631547983,-575.5487969697442
207475,322,207475,62727,207475.0,80732.0,-126.85453811532668,-382.66505896825623,-591.9175097878186
207475,317,207475,62733,207475.0,80730.0,-129.84392396964927,-389.5574109369137,-608.468320411866
207475,313,207475,62697,207475.0,80675.0,-132.87711142446514,-396.63363640050466,-625.1621226095226
207475,295,207475,62625,207475.0,80670.0,-135.94650291738125,-403.87155244533164,-641.9565697575988
207475,289,207475,62614,207475.0,80644.0,-139.0438149021977,-411.24603164002633,-658.8063118563787
207485,293,207485,62644,207485.0,80627.0,-142.16028952587934,-418.72998600845904,-675.6632392776684
207485,301,207485,62659,207485.0,80631.0,-145.28678193396323,-426.2946807426928,-692.4765667402019
207485,291,207485,62654,207485.0,80612.0,-148.4136607511183,-433.9092874595729,-709.1927529952632
207485,288,207485,62625,207485.0,80591.0,-151.53068595389095,-441.54037206652106,-725.755326670853
207485,274,207485,62605,207485.0,80552.0,-154.62701825026696,-449.1518383327576,-742.1048588051533
207485,282,207485,62605,207485.0,80557.0,-157.69132589384546,-456.7052412280965,-758.1791648431695
207495,277,207495,62613,207495.0,80584.0,-160.71185369307386,-464.1600482367984,-773.9133939849273
207495,280,207495,62626,207495.0,80580.0,-163.67638982215936,-471.4735604954484,-789.2396274384128
207495,278,207495,62593,207495.0,80524.0,-166.57218140672052,-478.60061244106873,-804.0862568321648
207495,271,207495,62564,207495.0,80488.0,-169.38586606247463,-485.493474308726,-818.3778654330192
207495,260,207495,62497,207495.0,80483.0,-172.1034764639943,-492.1023070174024,-832.0357379314728
207495,254,207495,62554,207495.0,80440.0,-174.71055480208,-498.375994917748,-844.9784548257508
207506,260,207506,62540,207506.0,80428.0,-177.1923047261159,-504.26264970361353,-857.1223189536441
207506,257,207506,62542,207506.0,80430.0,-179.53364969564944,-509.70946131581644,-868.3816957227389
207506,255,207506,62534,207506.0,80418.0,-181.71918810009967,-514.6623872543978,-878.6691624838993
207506,243,207506,62469,207506.0,80366.0,-183.73316705695322,-519.0661818669378,-887.8955365974823
207506,243,207506,62494,207506.0,80348.0,-185.55955431124755,-522.864856402795,-895.9701836882548
207506,237,207506,62499,207506.0,80335.0,-187.18216219931804,-526.0022093693597,-902.8016453955847
207516,245,207516,62520,207516.0,80323.0,-188.58473110279954,-528.4218947346383,-908.2982009879918
207516,226,207516,62513,207516.0,80295.0,-189.75095672527985,-530.0670682426075,-912.3682382984566
207516,227,207516,62451,207516.0,80277.0,-190.6645568309142,-530.8801803061087,-914.9206555000519
207516,224,207516,62432,207516.0,80252.0,-191.30941844511787,-530.8034030075598,-915.8654181006641
207516,217,207516,62376,207516.0,80207.0,-191.6697410458246,-529.7796728242104,-915.1142680226778
207516,224,207516,62411,207516.0,80218.0,-191.73013376613946,-527.7538571476975,-912.5815694545038
207526,233,207526,62436,207526.0,80212.0,-191.47564485686877,-524.6734474076534,-908.185069682949
207526,229,207526,62437,207526.0,80201.0,-190.89168140819532,-520.4885215368192,-901.8463611272152
207526,225,207526,62372,207526.0,80186.0,-189.96391492914347,-515.1515279232289,-893.4912455490628
207526,204,207526,62382,207526.0,80156.0,-188.67834527280118,-508.6176756396569,-883.0503085475048
207526,210,207526,62381,207526.0,80156.0,-187.02155979601156,-500.845792845812,-870.4597431540835
207526,215,207526,62380,207526.0,80158.0,-184.9810202344076,-491.79898495100025,-855.6622183408138
207537,217,207537,62383,207537.0,80144.0,-182.54518546974444,-481.4449845770165,-838.6075981897044
207537,213,207537,62423,207537.0,80131.0,-179.7035110666949,-469.7563725933012,-819.2536228447902
207537,202,207537,62385,207537.0,80089.0,-176.44651415631662,-456.7106732865784,-797.5668301013573
207537,195,207537,62315,207537.0,80104.0,-172.76599911970357,-442.2907070283044,-773.5237837409626
207537,208,207537,62329,207537.0,80121.0,-168.6553634261604,-426.4857151796058,-747.1122879019781
207537,216,207537,62365,207537.0,80131.0,-164.10978556245865,-409.2927498195191,-718.3322158596511
207547,221,207547,62422,207547.0,80194.0,-159.12621229113518,-390.71728438841905,-687.1959374029761
207547,219,207547,62435,207547.0,80193.0,-153.70328907613396,-370.77290569380955,-653.7284763416072
207547,210,207547,62417,207547.0,80225.0,-147.84141186070318,-349.4808662288015,-617.9676041532525
207547,231,207547,62437,207547.0,80257.0,-141.54290833440004,-326.87017430849136,-579.9641037047041
207547,226,207547,62448,207547.0,80316.0,-134.81219082360266,-302.9781282408633,-539.7820621789865
207547,248,207547,62575,207547.0,80393.0,-127.6557856126265,-277.8506095698501,-497.49884347813753
207557,254,207557,62613,207557.0,80456.0,-120.08227700145652,-251.54152301617762,-453.2046186234193
207557,263,207557,62636,207557.0,80524.0,-112.10221041013341,-224.11161436260738,-407.0016297371008
207557,271,207557,62687,207557.0,80599.0,-103.72801496347817,-195.62755093582814,-359.00343360844937
207557,274,207557,62693,207557.0,80680.0,-94.97399580749716,-166.16157033287743,-309.3341539202363
207557,292,207557,62783,207557.0,80797.0,-85.85636944595228,-135.79131882698243,-258.1275725221341
207557,322,207557,62858,207557.0,80911.0,-76.39322830489027,-104.59942178004758,-205.52584932426709
207568,332,207568,62942,207568.0,80991.0,-66.60432067217546,-72.67247392463156,-151.67788470829765
207568,355,207568,62971,207568.0,81109.0,-56.510720305716035,-40.09968767388233,-96.73765783263298
207568,361,207568,62999,207568.0,81188.0,-46.13455101888857,-6.971854377745899,-40.862740426681114
207568,371,207568,63063,207568.0,81298.0,-35.49883032268505,26.619113173563903,15.78708162740429
207568,400,207568,63146,207568.0,81421.0,-24.627392959307414,60.58051122012972,73.05119936160361
207568,426,207568,63198,207568.0,81501.0,-13.54473775690471,94.81956951919562,130.76970292084115
207578,431,207578,63258,207578.0,81571.0,-2.275720134356348,129.24444939566013,188.78484579930375
207578,437,207578,63282,207578.0,81639.0,9.154706139242919,163.76507515602083,246.94205557995963
207578,453,207578,63303,207578.0,81692.0,20.721528741042633,198.29354684296322,305.09044568139757
207578,470,207578,63335,207578.0,81802.0,32.39963049600128,232.74411295897255,363.08312452658856
207578,474,207578,63414,207578.0,81856.0,44.16380754933692,267.03301563586194,420.77763485926505
207578,516,207578,63495,207578.0,81969.0,55.988850800246354,301.0787594558375,478.03663117121425
207589,530,207589,63541,207589.0,82012.0,67.8497460527519,334.8029847211915,534.7286541399932
207589,525,207589,63542,207589.0,82056.0,79.72196536594205,368.13140140035784,590.7287333171653
207589,535,207589,63546,207589.0,82104.0,91.58157518628252,400.9940617901052,645.9185390000118
207589,561,207589,63609,207589.0,82165.0,103.40511753406517,433.3249641795336,700.1861804262696
207589,571,207589,63637,207589.0,82242.0,115.16956048264663,465.06167987306117,753.4260831562262
207589,589,207589,63713,207589.0,82296.0,126.85241380597279,496.14546105215163,805.5391718794579
207599,613,207599,63743,207599.0,82368.0,138.43188911715677,526.5217222184651,856.4332446917006
207599,598,207599,63715,207599.0,82371.0,149.88703237149326,556.1404721381506,906.023266824747
207599,615,207599,63702,207599.0,82424.0,161.19771408723415,584.956088916466,954.2313115911684
207599,633,207599,63788,207599.0,82477.0,172.34447594012266,612.9264620884268,1000.9862099902243
207599,647,207599,63825,207599.0,82541.0,183.30846711287694,640.012482692341,1046.2233526755763
207599,671,207599,63877,207599.0,82565.0,194.07156614580225,666.1784007687061,1089.8848125409033
207609,675,207609,63877,207609.0,82596.0,204.61657354688208,691.3924646743213,1131.9194419405912
207609,665,207609,63869,207609.0,82622.0,214.9273118260466,715.6271391127484,1172.2826712006492
207609,688,207609,63887,207609.0,82660.0,224.98851613512807,738.8587329175009,1210.9361274580326
207609,701,207609,63930,207609.0,82709.0,234.78566781784406,761.066832110773,1247.847342411148
207609,723,207609,63986,207609.0,82759.0,244.3050202832631,782.234140056313,1282.989726294852
207609,744,207609,64009,207609.0,82789.0,253.53382172082723,802.3468872693843,1316.3427868753186
207620,729,207620,63979,207620.0,82778.0,262.46056106091027,821.3953136086327,1347.892286723104
207620,740,207620,63977,207620.0,82784.0,271.07502510193484,839.3735676109677,1377.629948854798
207620,746,207620,63984,207620.0,82821.0,279.36813884493137,856.2790010287492,1405.5527638293247
207620,747,207620,64062,207620.0,82862.0,287.3317876926749,872.1115589742915,1431.6624490290424
207620,773,207620,64086,207620.0,82877.0,294.9587371621165,886.8738991888968,1455.9653779571404
207620,766,207620,64066,207620.0,82896.0,302.2426503750477,900.5720117601836,1478.4727002296443
207630,781,207630,64051,207630.0,82895.0,309.17814689815134,913.2154649544541,1499.2002918379023
207630,780,207630,64034,207630.0,82897.0,315.76081004717946,924.8168944883435,1518.168454376881
207630,784,207630,64068,207630.0,82909.0,321.9871367590935,935.3912094873972,1535.401453800196
207630,800,207630,64086,207630.0,82912.0,327.85448076940014,944.9551400616567,1550.9270619753847
207630,804,207630,64114,207630.0,82940.0,333.36105599205115,953.5273223245542,1564.7762378760574
207630,805,207630,64027,207630.0,82940.0,338.5060022120378,961.128479146588,1576.982987994398
207640,805,207640,64088,207640.0,82923.0,343.28939779713863,967.7810970237301,1587.5842714123698
207640,813,207640,64059,207640.0,82931.0,347.71218303056844,973.5088027906195,1596.6197157093138
207640,806,207640,64090,207640.0,82944.0,351.7760689409972,978.3360506211825,1604.1312153700387
207640,818,207640,64102,207640.0,82937.0,355.4834579098394,982.2881590326717,1610.1626906908512
207640,826,207640,64111,207640.0,82953.0,358.8374023105408,985.3915169931388,1614.760009880989
207640,825,207640,64083,207640.0,82927.0,361.84164967231777,987.6737923673056,1617.970909021511
207651,825,207651,64034,207651.0,82924.0,364.50070343983117,989.1637573413589,1619.844793049059
207651,817,207651,64057,207651.0,82911.0,366.81978385603435,989.8906044657197,1620.4323838456248
207651,831,207651,64090,207651.0,82910.0,368.8047110843734,989.883331176101,1619.7853413360046
207651,830,207651,64103,207651.0,82898.0,370.46183992082996,989.1708192073071,1617.95598142854
207651,831,207651,64092,207651.0,82900.0,371.79809245417596,987.7823894013968,1614.997085086161
207651,829,207651,64034,207651.0,82876.0,372.820991330963,985.7480741022674,1610.9617502937476
207661,814,207661,64037,207661.0,82862.0,373.53860031077573,983.098221681195,1605.903196174479
207661,824,207661,64043,207661.0,82836.0,373.959369845963,979.8628167320148,1599.8744345690482
207661,825,207661,64054,207661.0,82827.0,374.0919987314456,976.0711665984775,1592.927851883836
207661,820,207661,64062,207661.0,82831.0,373.9454127388773,971.7520767150806,1585.1148694904557
207661,827,207661,64053,207661.0,82812.0,373.52879519581876,966.9341940659201,1576.4858226478862
207661,815,207661,64029,207661.0,82800.0,372.85159029644,961.6462102216414,1567.0899672422904
207671,809,207671,64020,207671.0,82778.0,371.9234525386474,955.9167692233141,1556.9754103461873
207671,806,207671,64005,207671.0,82763.0,370.75411365122415,949.7741745011521,1546.1889245543352
207671,814,207671,64020,207671.0,82780.0,369.35324764906676,943.2461488929698,1534.775796321123
207671,818,207671,63984,207671.0,82761.0,367.7304713157983,936.3597662493996,1522.7799010640126
207671,812,207671,63986,207671.0,82723.0,365.89546968235766,929.1414060000822,1510.2438942871377
207671,796,207671,63964,207671.0,82711.0,363.8580741737094,921.6165901704046,1497.2091570833365
207682,802,207682,63952,207682.0,82659.0,361.62817978175315,913.8097667567281,1483.7154319006645
207682,792,207682,63946,207682.0,82659.0,359.2156041566117,905.7441094676526,1469.8003455633393
207682,799,207682,63953,207682.0,82666.0,356.63002388659356,897.4414058973166,1455.4990692086667
207682,795,207682,63932,207682.0,82666.0,353.8809957450559,888.922108259814,1440.8443952221457
207682,793,207682,63935,207682.0,82639.0,350.9780200929805,880.2054407468748,1425.8671409894446
207682,777,207682,63901,207682.0,82619.0,347.9305692263025,871.3094110675592,1410.5964372298185
207692,783,207692,63895,207692.0,82596.0,344.74802167273657,862.2506769793666,1395.0597076576944
207692,781,207692,63915,207692.0,82584.0,341.43958712819096,853.0443866288234,1379.2825090210924
207692,777,207692,63923,207692.0,82590.0,338.01432493936454,843.7042997682481,1363.288471453082
207692,760,207692,63913,207692.0,82574.0,334.4811769097537,834.2432480443903,1347.0994718744953
207692,750,207692,63880,207692.0,82560.0,330.8488684287107,824.6735291655256,1330.735942542633
207692,750,207692,63831,207692.0,82491.0,327.12569989648733,815.0068237141774,1314.2169922644143
207702,741,207702,63844,207702.0,82524.0,323.31937994397833,805.2536625405372,1297.560177714386
207702,757,207702,63861,207702.0,82519.0,319.436991247846,795.4229907676223,1280.7813330308686
207702,755,207702,63918,207702.0,82510.0,315.48511095279264,785.5224250668789,1263.8948861498652
207702,743,207702,63842,207702.0,82474.0,311.4700186875562,775.5590865359042,1246.9143456615052
207702,736,207702,63837,207702.0,82426.0,307.3978017302312,765.5401468210512,1229.8523991716431
207702,723,207702,63792,207702.0,82414.0,303.2742741460793,755.472587390818,1212.7205539241022
207713,727,207713,63787,207713.0,82398.0,299.1048270768456,745.362584567497,1195.5286916396071
207713,711,207713,63845,207713.0,82422.0,294.89432534683647,735.2151676860806,1178.2849601601397
207713,727,207713,63819,207713.0,82407.0,290.6470765210023,725.0345245713561,1160.9961310972249
207713,724,207713,63797,207713.0,82359.0,286.3669046372287,714.8246445387118,1143.6681034692638
207713,720,207713,63761,207713.0,82346.0,282.0573304958299,704.5895378604703,1126.3060552691736
207713,707,207713,63733,207713.0,82331.0,277.7217146965095,694.3328555024506,1108.9142407448744
207723,711,207723,63747,207723.0,82337.0,273.36326212123856,684.057352198588,1091.4958946322986
207723,710,207723,63760,207723.0,82326.0,268.98499905775975,673.7646804660376,1074.0534658112956
207723,704,207723,63826,207723.0,82294.0,264.5898321401952,663.4558311728292,1056.5889819530187
207723,697,207723,63751,207723.0,82290.0,260.1806242491949,653.1320627483228,1039.104261754088
207723,685,207723,63691,207723.0,82261.0,255.76018609099089,642.7954407019138,1021.6009544509906
207723,683,207723,63689,207723.0,82257.0,251.33118538635807,632.448331720557,1004.0805644035725
207733,689,207733,63732,207733.0,82260.0,246.89607476495462,622.0926071273384,986.5445740201087
207733,682,207733,63751,207733.0,82250.0,242.45713744112606,611.7297030770037,968.9947560393839
207733,678,207733,63705,207733.0,82234.0,238.0166020219611,601.3614018384924,951.4336063100397
207733,672,207733,63669,207733.0,82193.0,233.57670494942056,590.9902979686931,933.8646278490623
207733,665,207733,63653,207733.0,82170.0,229.1396822898347,580.6194939787732,916.2922859839848
207733,649,207733,63630,207733.0,82140.0,224.70770901160108,570.251990865298,898.7217174363279
207744,659,207744,63685,207744.0,82181.0,220.2827957979515,559.890372431232,881.158531164429
207744,663,207744,63692,207744.0,82138.0,215.86676272428969,549.5371212628829,863.6090245936704
207744,652,207744,63653,207744.0,82119.0,211.46137473071173,539.1953841401058,846.0806106538374
207744,659,207744,63641,207744.0,82108.0,207.0685113350076,528.8694542059893,828.5819960312944
207744,635,207744,63618,207744.0,82071.0,202.69024100896888,518.5646601590993,811.1231265810646
207744,641,207744,63620,207744.0,82083.0,198.32879003713617,508.2870751659856,793.7151424611335
207754,647,207754,63631,207754.0,82064.0,193.9864928104632,498.04343792402165,776.3704640886526
207754,638,207754,63642,207754.0,82050.0,189.66586109513614,487.84141519552054,759.1030368861926
207754,635,207754,63602,207754.0,82036.0,185.3697236306441,477.6900497649183,741.9285826330456
207754,630,207754,63567,207754.0,81994.0,181.10128824284254,467.59992811103075,724.864701139074
207754,622,207754,63540,207754.0,81964.0,176.86413245018696,457.5828023931263,707.9307448286054
207754,616,207754,63574,207754.0,81965.0,172.6621669805442,447.6510468695532,691.147520304614
207764,606,207764,63557,207764.0,81952.0,168.4995660118707,437.81753727409995,674.5371279204112
207764,617,207764,63555,207764.0,81926.0,164.3807024612532,428.09596084541755,658.1230742741529
207764,593,207764,63509,207764.0,81879.0,160.31014282781948,418.50104661359603,641.9303371621007
207764,586,207764,63475,207764.0,81828.0,156.29261847578695,409.0483532531182,625.9850381970675
207764,587,207764,63467,207764.0,81811.0,152.3328861906212,399.75368688125354,610.313756689993
207764,587,207764,63477,207764.0,81803.0,148.4356154687824,390.6325813792536,594.9428846514219
207775,587,207775,63468,207775.0,81816.0,144.60542988176528,381.7002049984366,579.8984268015342
207775,580,207775,63490,207775.0,81793.0,140.8470193903091,372.9716239430704,565.2062649727817
207775,565,207775,63454,207775.0,81728.0,137.16518584500653,364.4621613759172,550.8924327473312
207775,560,207775,63382,207775.0,81701.0,133.56475473806893,356.1874668481439,536.9828672509731
207775,558,207775,63372,207775.0,81692.0,130.05041781026364,348.1629212703041,523.5027344007549
207775,557,207775,63362,207775.0,81679.0,126.62664194700024,340.40269262398397,510.4759278148331
207785,560,207785,63415,207785.0,81687.0,123.29769278154647,332.9192554591099,497.92500568154304
207785,557,207785,63424,207785.0,81649.0,120.06773238583345,325.7237521573918,485.8713644661361
207785,539,207785,63360,207785.0,81603.0,116.94089781832889,318.8267321230618,474.3352682637776
207785,525,207785,63342,207785.0,81593.0,113.92122480434517,312.2383598842958,463.3354740696198
207785,536,207785,63331,207785.0,81599.0,111.0124285578062,305.96788534155536,452.8887376558246
207785,544,207785,63359,207785.0,81589.0,108.21779255606788,300.02311854030677,443.0096790718608
207795,536,207795,63398,207795.0,81588.0,105.54030276063392,294.4105420951959,433.7109890124624
207795,533,207795,63350,207795.0,81560.0,102.98283289926218,289.1359497060374,425.00364368685865
207795,526,207795,63322,207795.0,81545.0,100.54819048116462,284.2048739163863,416.89692135507727
207795,505,207795,63293,207795.0,81512.0,98.23902345100224,279.6222747323418,409.39818172323135
207795,517,207795,63293,207795.0,81513.0,96.05763596064743,275.39182890857455,402.51250706012206
207795,520,207795,63324,207795.0,81527.0,94.00585685837414,271.51547947851697,396.2424577633147
207806,510,207806,63335,207806.0,81520.0,92.08508426838195,267.99356920820344,390.5881648197146
207806,514,207806,63311,207806.0,81510.0,90.29637870687706,264.82533934775654,385.5476234850818
207806,513,207806,63267,207806.0,81504.0,88.64049136002124,262.0091602407556,381.1168704508127
207806,493,207806,63264,207806.0,81482.0,87.11785582026121,259.5421477580396,377.2899615849197
207806,496,207806,63316,207806.0,81498.0,85.72849468743264,257.4196452310797,374.05885965452916
207806,507,207806,63359,207806.0,81519.0,84.4718814956353,255.6353865382389,371.4134528050495
207816,508,207816,63354,207816.0,81514.0,83.34695831346414,254.18243762825702,369.34188213945197
207816,502,207816,63271,207816.0,81486.0,82.35229891529092,253.0539999299298,367.8309298023844
207816,499,207816,63300,207816.0,81462.0,81.48620708951276,252.24325423444128,366.8660126108874
207816,491,207816,63252,207816.0,81483.0,80.74667525077686,251.7425913252806,366.4308018946065
207816,486,207816,63303,207816.0,81488.0,80.13126412231024,251.5430410924383,366.50696785242826
207816,501,207816,63273,207816.0,81515.0,79.6369925976897,251.63414322975927,367.07435453533293
207827,508,207827,63312,207827.0,81507.0,79.26037142666637,252.00409791029816,368.11142414736685
207827,497,207827,63298,207827.0,81515.0,78.99758891526653,252.64002071246895,369.5956637049025
207827,497,207827,63290,207827.0,81498.0,78.84464030812855,253.52815444311668,371.50377665651655
207827,491,207827,63294,207827.0,81494.0,78.79728764643555,254.6538966108851,373.8116399502686
207827,506,207827,63335,207827.0,81524.0,78.8509817718986,256.0017745340055,376.4941770543385
207827,504,207827,63332,207827.0,81519.0,79.00089636873567,257.55571056025303,379.5254107938033
207837,495,207837,63333,207837.0,81498.0,79.24203573943952,259.29949087528394,382.8786563374728
207837,504,207837,63328,207837.0,81526.0,79.56927076163416,261.21703771742347,386.52654959160526
207837,494,207837,63299,207837.0,81533.0,79.97729913918951,263.2923458827468,390.44101102255735
207837,487,207837,63329,207837.0,81531.0,80.46058273000288,265.5092095101597,394.59340685041144
207837,495,207837,63288,207837.0,81552.0,81.01323783810217,267.8509460853705,398.9547850717587
207837,509,207837,63384,207837.0,81548.0,81.62897578831856,270.30032865671626,403.49605973869916
207847,505,207847,63383,207847.0,81586.0,82.30122146770033,272.83999393143415,408.1882354928956
207847,499,207847,63329,207847.0,81557.0,83.02328051774252,275.4531628821441,413.00269555091586
207847,494,207847,63325,207847.0,81574.0,83.78835099297288,278.1238183859815,417.911390152264
207847,513,207847,63385,207847.0,81566.0,84.58943231812663,280.8362635347083,422.88681913471567
207847,518,207847,63386,207847.0,81606.0,85.41935841977151,283.57505882566954,427.90200786584654
207847,526,207847,63380,207847.0,81596.0,86.27101799269191,286.3255411116412,432.9307020498965
207858,517,207858,63373,207858.0,81589.0,87.13759011408409,289.07418614789106,437.94763657075003
207858,505,207858,63350,207858.0,81593.0,88.0126072269603,291.8084974823396,442.9285817295798
207858,510,207858,63312,207858.0,81614.0,88.88981738010933,294.5165475964965,447.8502425690896
207858,532,207858,63377,207858.0,81626.0,89.76305032964605,297.186390267653,452.69033585973
207858,515,207858,63399,207858.0,81607.0,90.62629007642813,299.80590713584024,457.4278353799842
207858,519,207858,63393,207858.0,81626.0,91.47381237806525,302.3633478973835,462.04309681558976
207868,517,207868,63384,207868.0,81610.0,92.30017898598639,304.84792096919983,466.51780831388254
207868,505,207868,63342,207868.0,81600.0,93.10013736121697,307.24981574004335,470.83486648825203
207868,521,207868,63365,207868.0,81619.0,93.86851508885013,309.55974175148503,474.9781845363686
207868,521,207868,63414,207868.0,81600.0,94.60018201563733,311.76856795864205,478.93253016346097
207868,526,207868,63387,207868.0,81633.0,95.29014098920786,313.8675379458981,482.6834970403231
207868,528,207868,63388,207868.0,81617.0,95.93366641473992,315.84870521625675,486.2175900493609
207878,512,207878,63345,207878.0,81597.0,96.52637138945921,317.70492910175847,489.5222952641917
207878,519,207878,63361,207878.0,81613.0,97.0641489262012,319.42941536089404,492.585946890646
207878,521,207878,63376,207878.0,81610.0,97.54305823795013,321.0152752466295,495.3975150198435
207878,529,207878,63376,207878.0,81611.0,97.95931204262254,322.45546753673625,497.946561462754
207878,524,207878,63416,207878.0,81619.0,98.30937715741001,323.7430812509924,500.2233033102005
207878,529,207878,63371,207878.0,81572.0,98.59007112817169,324.8717042901653,502.2185983712572
207889,524,207889,63382,207889.0,81604.0,98.79860238970664,325.8355847757193,503.92373340531435
207889,518,207889,63374,207889.0,81609.0,98.93255810597803,326.6294739898125,505.3302036486059
207889,514,207889,63403,207889.0,81600.0,98.98982359051661,327.24846882375255,506.42978342562327
207889,534,207889,63409,207889.0,81623.0,98.96849612049701,327.6881635322524,507.21475859940534
207889,521,207889,63423,207889.0,81626.0,98.86692475432393,327.94504618928806,507.67815922387194
207889,526,207889,63396,207889.0,81570.0,98.68382764406302,328.01686475625087,507.81394204801506
207899,505,207899,63321,207899.0,81597.0,98.41830273651811,327.9025561038134,507.6168620339565
207899,514,207899,63344,207899.0,81587.0,98.06969142945859,327.60151140490586,507.0821383155125
207899,524,207899,63329,207899.0,81570.0,97.63745306250557,327.11266565558344,506.20530736793455
207899,506,207899,63408,207899.0,81583.0,97.12118382967756,326.434194529367,504.9821947362464
207899,522,207899,63383,207899.0,81588.0,96.52068299226335,325.564002759583,503.40890832621716
207899,510,207899,63360,207899.0,81588.0,95.83596926548137,324.5004131772531,501.4820011201106
207909,501,207909,63340,207909.0,81563.0,95.0672676214074,323.2423056654601,499.19868606225907
207909,504,207909,63333,207909.0,81552.0,94.21492603291865,321.78868584291195,496.5568239478886
207909,512,207909,63368,207909.0,81565.0,93.27932083931734,320.1382926527393,493.55472487647677
207909,508,207909,63339,207909.0,81561.0,92.26089440602874,318.28960915954315,490.1910790359231
207909,508,207909,63365,207909.0,81548.0,91.16027042478326,316.2410944598352,486.46509781815513
207909,494,207909,63337,207909.0,81514.0,89.97829505953136,313.9913473595985,482.376567818008
207920,499,207920,63293,207920.0,81507.0,88.71596748975293,311.53904199152834,477.92560322425334
207920,491,207920,63321,207920.0,81512.0,87.3743387484949,308.8825463731789,473.11229088497464
207920,494,207920,63333,207920.0,81529.0,85.95445572431984,306.0195781010377,467.93660850244345
207920,494,207920,63357,207920.0,81517.0,84.45735838802253,302.947397091494,462.3987151132651
207920,494,207920,63357,207920.0,81495.0,82.88412211461151,299.66340996761335,456.4992961250217
207920,481,207920,63319,207920.0,81484.0,81.23590256758855,296.1656721478163,450.2396310071836
207930,489,207930,63301,207930.0,81470.0,79.51391835062566,292.4529032064726,443.62142408358693
207930,490,207930,63312,207930.0,81466.0,77.71942805234694,288.5240985385632,436.6466371807903
207930,498,207930,63332,207930.0,81454.0,75.85381699536177,284.3782878213722,429.31743133237325
207930,480,207930,63297,207930.0,81450.0,73.91874912506377,280.0146993411443,421.6361911643388
207930,479,207930,63302,207930.0,81434.0,71.91621602264362,275.432951778907,413.6055792714761
207930,468,207930,63258,207930.0,81408.0,69.84843239419455,270.6329415874615,405.2285375304057
207940,462,207940,63273,207940.0,81392.0,67.71767308630189,265.6145190617552,396.50814216909544
207940,463,207940,63279,207940.0,81403.0,65.52613048260045,260.37724856977206,387.44740356247814
207940,472,207940,63336,207940.0,81416.0,63.275861014982155,254.92060709799887,378.0493162331128
207940,467,207940,63317,207940.0,81400.0,60.96887535844024,249.24471825813117,368.31726621073653
207940,468,207940,63256,207940.0,81366.0,58.60729331619143,243.35105916795123,358.2554414952166
207940,454,207940,63240,207940.0,81356.0,56.19342773845145,237.24239748936395,347.86887516485706
207951,442,207951,63225,207951.0,81326.0,53.72972859806487,230.922079996766,337.1632039613295
207951,442,207951,63252,207951.0,81334.0,51.21860738514471,224.39347398146828,326.14443967268494
207951,454,207951,63272,207951.0,81318.0,48.66229959219464,217.66003291352195,314.81892514637605
207951,440,207951,63235,207951.0,81314.0,46.06290484848691,210.7258061385873,303.19347878128156
207951,443,207951,63196,207951.0,81268.0,43.42249939718417,203.59574692609647,291.27553705914363
207951,430,207951,63164,207951.0,81238.0,40.743160971936135,196.27536137302798,279.07302775924643
207961,432,207961,63151,207961.0,81229.0,38.02691612292671,188.76995906406,266.59396349469455
207961,433,207961,63181,207961.0,81261.0,35.2756989679842,181.0841043353072,253.84617624656266
207961,438,207961,63214,207961.0,81224.0,32.491398203618246,173.22171116739486,240.8375528556113
207961,410,207961,63207,207961.0,81219.0,29.67594779020783,165.18677750838947,227.57648586791572
207961,421,207961,63159,207961.0,81161.0,26.83130137524094,156.9841416560982,214.07202139916842
207961,418,207961,63122,207961.0,81157.0,23.95932479443789,148.61956035402324,200.33360862556526
207971,411,207971,63134,207971.0,81141.0,21.061782650506757,140.09916510423034,186.37074606874876
207971,418,207971,63197,207971.0,81174.0,18.140400695085674,131.42914444872525,172.19292911069977
207971,409,207971,63132,207971.0,81128.0,15.196927054073882,122.61618628084165,157.81002592132484
207971,407,207971,63086,207971.0,81091.0,12.233188191154653,113.66796560951605,143.23264638443914
207971,402,207971,63057,207971.0,81058.0,9.251107171819882,104.59278307231688,128.47201193252306
207971,391,207971,63044,207971.0,81034.0,6.252670001614462,95.39867572100354,113.53945141413544
207982,380,207982,63079,207982.0,81030.0,3.2398318811374054,86.09285989638357,98.4459779676016
207982,386,207982,63097,207982.0,81009.0,0.2143754563033724,76.6819025844938,83.20215902566235
207982,386,207982,63062,207982.0,81027.0,-2.8221595995798054,67.17239840790751,67.81825683154955
207982,372,207982,63026,207982.0,80965.0,-5.868429184251369,57.571433610997815,52.304501505847725
207982,368,207982,63016,207982.0,80953.0,-8.923265303641159,47.886413861606854,36.67119883856162
207982,368,207982,62995,207982.0,80910.0,-11.985751374690949,38.124607764405255,20.928494383382485
207992,382,207992,63039,207992.0,80937.0,-15.055240553630313,28.292936060785337,5.086070767209776
207992,379,207992,62992,207992.0,80908.0,-18.13119367411508,18.398180319581797,-10.846831538408537
207992,367,207992,62992,207992.0,80879.0,-21.21295014710563,8.447305309088051,-26.861143155112018
207992,361,207992,62936,207992.0,80844.0,-24.299644333424965,-1.5525503917472179,-42.94787984950506
207992,346,207992,62932,207992.0,80843.0,-27.390309910433928,-11.594464339720844,-59.09834520654408
207992,347,207992,62956,207992.0,80806.0,-30.484058932699895,-21.672124550216154,-75.30431461424655
208001,364,208001,62933,208001.0,80810.0,-33.58017776711387,-31.779817604940376,-91.55806120647946
208001,349,208001,62941,208001.0,80780.0,-36.678024579487186,-41.91208562888403,-107.85229081680689
208001,338,208001,62919,208001.0,80761.0,-39.7768720812478,-52.06343076218832,-124.18005298097239
208001,334,208001,62892,208001.0,80730.0,-42.87593031006688,-62.22821908876938,-140.53473953356513
208001,328,208001,62869,208001.0,80696.0,-45.974494828522296,-72.40082467800244,-156.91024388184826
208001,339,208001,62907,208001.0,80717.0,-49.07202406567316,-82.57585809715647,-173.301157726317
208012,334,208012,62896,208012.0,80703.0,-52.16807094699081,-92.74805257397259,-189.70270389514508
208012,330,208012,62874,208012.0,80697.0,-55.262137638113444,-102.91180596496315,-206.11031643016486
208012,325,208012,62789,208012.0,80659.0,-58.353584960872524,-113.06103236601666,-222.51920604852262
208012,311,208012,62810,208012.0,80609.0,-61.44165114007416,-123.18971615025822,-238.92428350059492
208012,301,208012,62757,208012.0,80590.0,-64.52557180751481,-133.29271126674348,-255.32051181442102
208012,313,208012,62794,208012.0,80582.0,-67.60473855205507,-143.36620315811524,-271.7033739159831
208022,310,208022,62778,208022.0,80584.0,-70.67873616626721,-153.40771810769633,-288.069016641429
208022,315,208022,62809,208022.0,80561.0,-73.74720396966035,-163.4157590665174,-304.41400450743026
208022,301,208022,62779,208022.0,80550.0,-76.80966693170012,-173.38925018211404,-320.7349788330165
208022,293,208022,62752,208022.0,80503.0,-79.86548838766996,-183.32714626089444,-337.02849351033547
208022,292,208022,62729,208022.0,80479.0,-82.91395650662585,-193.22847838409155,-353.2911327725034
208022,293,208022,62772,208022.0,80471.0,-85.954375014526,-203.09259691595173,-369.5198017923922
208032,289,208032,62755,208032.0,80450.0,-88.98605296242033,-212.9190533920418,-385.71190285651846
208032,285,208032,62719,208032.0,80468.0,-92.00824213216177,-222.7071678583597,-401.8652312719495
208032,280,208032,62698,208032.0,80426.0,-95.02010709943272,-232.45590700957945,-417.97765990215544
208032,263,208032,62679,208032.0,80375.0,-98.02076440632024,-242.16422088328835,-434.04692810980475
208032,262,208032,62669,208032.0,80361.0,-101.00940908404576,-251.83143947127428,-450.07086909436384
208032,266,208032,62685,208032.0,80373.0,-103.98545569994388,-261.45743786451874,-466.04780249786916
208043,265,208043,62691,208043.0,80359.0,-106.94855431779118,-271.0424566261165,-481.9765155913922
208043,263,208043,62678,208043.0,80320.0,-109.89848341472992,-280.5866502549012,-497.85591000169063
208043,251,208043,62640,208043.0,80299.0,-112.83505940422108,-290.0897340793159,-513.684846260971
208043,243,208043,62632,208043.0,80281.0,-115.75816193595747,-299.55103314032885,-529.462299549175
208043,252,208043,62590,208043.0,80282.0,-118.66783248133166,-308.96983593646917,-545.1874907324964
208043,256,208043,62635,208043.0,80268.0,-121.56428026391134,-318.34572520950087,-560.8597640546332
208053,243,208053,62641,208053.0,80245.0,-124.44774494171725,-327.6785053347529,-576.478314720629
208053,246,208053,62601,208053.0,80194.0,-127.31837995752954,-336.9676980012588,-592.0420699585181
208053,227,208053,62558,208053.0,80177.0,-130.1762638084336,-346.2122558072649,-607.5499219134608
208053,236,208053,62524,208053.0,80168.0,-133.02148661396433,-355.41098150626203,-623.0011140861025
208053,221,208053,62545,208053.0,80165.0,-135.85423103156842,-364.56325223959846,-638.3953847030075
208053,232,208053,62564,208053.0,80159.0,-138.67480097076435,-373.6693121571333,-653.7327537175297
208064,229,208064,62570,208064.0,80134.0,-141.48357786336874,-382.72987440964266,-669.0131679693761
208064,221,208064,62514,208064.0,80120.0,-144.28092269475752,-391.74551617879206,-684.236251403514
208064,208,208064,62494,208064.0,80086.0,-147.06713711354956,-400.7165669351559,-699.4012514244394
208064,209,208064,62489,208064.0,80066.0,-149.84255848643295,-409.6435384783887,-714.507146999563
208064,222,208064,62523,208064.0,80050.0,-152.60764722835034,-418.52744713551715,-729.552829495133
208064,216,208064,62490,208064.0,80042.0,-155.36289640536899,-427.36960919105707,-744.5372065241711
208074,206,208074,62502,208074.0,79994.0,-158.10865466417897,-436.17122117201154,-759.4592025360269
208074,194,208074,62452,208074.0,79986.0,-160.8450911543219,-444.9331701686634,-774.3178464148077
208074,194,208074,62419,208074.0,79962.0,-163.5723307649984,-453.6562299829576,-789.1124825498273
208074,190,208074,62438,208074.0,79947.0,-166.29059574953334,-462.341539865747,-803.8429172054648
208074,191,208074,62444,208074.0,79932.0,-169.00024849929474,-470.99089428926607,-818.5094455724459
208074,197,208074,62461,208074.0,79925.0,-171.70173950728343,-479.60647337776527,-833.1128040314143
208084,181,208084,62416,208084.0,79909.0,-174.395507056366,-488.190313452708,-847.6540375045483
208084,176,208084,62395,208084.0,79881.0,-177.08193992355194,-496.74409843518913,-862.1343506830608
208084,182,208084,62368,208084.0,79845.0,-179.76144558516785,-505.26946024981,-876.5551191642701
208084,166,208084,62377,208084.0,79822.0,-182.4345085588124,-513.7684441426483,-890.9181434340508
208084,175,208084,62391,208084.0,79830.0,-185.10169839454198,-522.243677450877,-905.2259493503755
208084,172,208084,62397,208084.0,79848.0,-187.7636556319605,-530.6980778368152,-919.4817505636827
208095,172,208095,62367,208095.0,79794.0,-190.4210213026796,-539.1343599421934,-933.6890120852463
208095,158,208095,62294,208095.0,79769.0,-193.0743585280582,-547.5549049911112,-947.8511410722122
208095,157,208095,62310,208095.0,79732.0,-195.72417142592263,-555.9622907422107,-961.9716993473671
208095,153,208095,62318,208095.0,79721.0,-198.3709950001935,-564.3599474485626,-976.0548724375142
208095,159,208095,62342,208095.0,79745.0,-201.01543862145007,-572.7521869152886,-990.1057153929326
208095,160,208095,62343,208095.0,79712.0,-203.6581183224851,-581.1436126400328,-1004.1299546673047
208105,127,208105,62291,208105.0,79694.0,-206.29957502855603,-589.5385139715494,-1018.1336110056905
208105,148,208105,62261,208105.0,79660.0,-208.94034464794902,-597.9408107857163,-1032.1228904024601
208105,145,208105,62269,208105.0,79650.0,-211.58107274848925,-606.3545404480385,-1046.1043651992475
208105,157,208105,62266,208105.0,79659.0,-214.222422862129,-614.7842676760496,-1060.085111210767
208105,143,208105,62304,208105.0,79642.0,-216.8648391098307,-623.2349679039986,-1074.0725517502965
208105,135,208105,62289,208105.0,79618.0,-219.50841002143596,-631.7114669771037,-1088.0741338007426
208115,120,208115,62232,208115.0,79565.0,-222.15294079513671,-640.2179085479861,-1102.0972327440718
208115,115,208115,62202,208115.0,79561.0,-224.79816923451438,-648.7578399504227,-1116.1494493321281
208115,114,208115,62203,208115.0,79551.0,-227.44398168351887,-657.3348718949304,-1130.2389829598578
208115,119,208115,62222,208115.0,79545.0,-230.09050754266895,-665.9531691630822,-1144.374698511072
208115,120,208115,62228,208115.0,79564.0,-232.7380579661425,-674.6173107726153,-1158.5658440145412
208115,118,208115,62218,208115.0,79526.0,-235.38697754293213,-683.3317623267836,-1172.8215807268389
208126,103,208126,62180,208126.0,79504.0,-238.03753847185692,-692.1004825248191,-1187.1506167649864
208126,113,208126,62192,208126.0,79499.0,-240.6899460273362,-700.9269166597498,-1201.5611564893782
208126,104,208126,62180,208126.0,79487.0,-243.3443703119122,-709.8141280611205,-1216.0609407267439
208126,108,208126,62174,208126.0,79462.0,-246.00091322212825,-718.7647617911811,-1230.6571468666803
208126,101,208126,62189,208126.0,79469.0,-248.65954704985154,-727.780858710416,-1245.3562416747604
208126,101,208126,62145,208126.0,79447.0,-251.32007328600668,-736.8636372057348,-1260.163810878786
208136,87,208136,62139,208136.0,79416.0,-253.98211984199355,-746.0134185822993,-1275.084369370432
208136,90,208136,62079,208136.0,79381.0,-256.64519490895947,-755.2298863097872,-1290.1213683827177
208136,92,208136,62108,208136.0,79397.0,-259.3087408027632,-764.5125738772671,-1305.2774075932284
208136,93,208136,62139,208136.0,79391.0,-261.9720906722677,-773.8610935473349,-1320.554255393885
208136,89,208136,62110,208136.0,79387.0,-264.63434630338037,-783.2747478266839,-1335.9524708263239
208136,79,208136,62116,208136.0,79353.0,-267.2942944175187,-792.7519182949269,-1351.4709286651344
208146,77,208146,62077,208146.0,79331.0,-269.9504262537511,-802.2897923910514,-1367.106609882806
208146,55,208146,62045,208146.0,79322.0,-272.6010483316533,-811.8844949973331,-1382.8546575375474
208146,78,208146,62088,208146.0,79307.0,-275.24442575482067,-821.5313942085024,-1398.7084290295256
208146,80,208146,62126,208146.0,79297.0,-277.87879418784934,-831.22501679416,-1414.6593890579618
208146,72,208146,62069,208146.0,79307.0,-280.5021616385886,-840.9583185199617,-1430.6968617105258
208146,65,208146,62040,208146.0,79263.0,-283.11212068990153,-850.7221048329379,-1446.807688511444
208157,56,208157,62012,208157.0,79240.0,-285.70585742940096,-860.5052638999617,-1462.9760072933213
208157,56,208157,62015,208157.0,79223.0,-288.28027013593675,-870.2953670792863,-1479.1833304088775
208157,71,208157,62012,208157.0,79227.0,-290.8320217500347,-880.0789835197212,-1495.4086718568697
208157,57,208157,62026,208157.0,79213.0,-293.35743516140354,-889.8415676262332,-1511.6284061978968
208157,50,208157,62007,208157.0,79198.0,-295.8523589167376,-899.5670958911961,-1527.815928748674
208157,45,208157,61960,208157.0,79174.0,-298.31218560250164,-909.2378077170231,-1543.9413788835136
208167,53,208167,61947,208167.0,79136.0,-300.7319481599432,-918.8343806171182,-1559.9715811113172
208167,39,208167,61973,208167.0,79150.0,-303.10633440752383,-928.3363258553245,-1575.870150255773
208167,49,208167,62006,208167.0,79144.0,-305.4296442159161,-937.7219373214807,-1591.5974643280447
208167,48,208167,61971,208167.0,79124.0,-307.6957340298375,-946.967632411316,-1607.1103322318522
208167,34,208167,61965,208167.0,79099.0,-309.897938803752,-956.0473190436795,-1622.361640908302
208167,31,208167,61910,208167.0,79047.0,-312.02906261834585,-964.9323218231083,-1637.3003314017587
208177,33,208177,61913,208177.0,79018.0,-314.08147057304683,-973.5917771273777,-1651.8717701313612
208177,25,208177,61893,208177.0,79019.0,-316.04715671653446,-981.9931094913117,-1666.018280242061
208177,23,208177,61928,208177.0,79018.0,-317.9177599295308,-990.102223988196,-1679.6793956522283
208177,23,208177,61919,208177.0,79001.0,-319.6845887299532,-997.8832598354337,-1692.7916818119747
208177,9,208177,61878,208177.0,78991.0,-321.33865931815376,-1005.2981754850318,-1705.2884226174408
208177,10,208177,61856,208177.0,78963.0,-322.8707673800684,-1012.3067006243216,-1717.0994548107578
208188,6,208188,61846,208188.0,78943.0,-324.27159393796416,-1018.8667554809667,-1728.1512005971613
208188,24,208188,61864,208188.0,78931.0,-325.5317382887734,-1024.9348469693223,-1738.3668359917551
208188,10,208188,61869,208188.0,78913.0,-326.6416095252429,-1030.4660443644939,-1747.6664657342199
208188,3,208188,61866,208188.0,78895.0,-327.5913105103771,-1035.4136168608109,-1755.9672485683807
208188,0,208188,61800,208188.0,78857.0,-328.3706825848732,-1039.72878778462,-1763.1835847507389
208188,0,208188,61806,208188.0,78830.0,-328.96944656866657,-1043.3610177898875,-1769.2275081021708
208198,0,208198,61778,208198.0,78819.0,-329.37728455794564,-1046.2586506438345,-1774.0092469168692
208198,0,208198,61782,208198.0,78803.0,-329.5838446356666,-1048.3694436103196,-1777.4377319357905
208198,0,208198,61781,208198.0,78802.0,-329.57871942199466,-1049.6408302932296,-1779.4209126229186
208198,0,208198,61811,208198.0,78760.0,-329.3514251081697,-1050.0199277450163,-1779.8659878957794
208198,0,208198,61726,208198.0,78747.0,-328.8913873820295,-1049.4534231063858,-1778.6797829642876
208198,0,208198,61722,208198.0,78713.0,-328.18793458466394,-1047.8878555111678,-1775.7693703894959
208208,0,208208,61737,208208.0,78710.0,-327.2302984404655,-1045.2703900915935,-1771.0428007559663
208208,0,208208,61744,208208.0,78708.0,-326.0076227058606,-1041.549371434316,-1764.4097395357207
208208,0,208208,61758,208208.0,78695.0,-324.50898008498484,-1036.6743080876759,-1755.7819119238798
208208,0,208208,61751,208208.0,78638.0,-322.7233977632652,-1030.595658106081,-1745.0735670038753
208208,0,208208,61663,208208.0,78647.0,-320.63989191201836,-1023.2649272423301,-1732.2022919308934
208208,0,208208,61666,208208.0,78597.0,-318.2475115184833,-1014.6354922011589,-1717.0900999710368
208219,0,208219,61668,208219.0,78602.0,-315.5353918958994,-1004.6638692152196,-1699.664531963311
208219,0,208219,61693,208219.0,78614.0,-312.4928182270023,-993.3105794761918,-1679.8596421696864
208219,0,208219,61697,208219.0,78627.0,-309.109299491338,-980.540353779626,-1657.6166765651749
208219,0,208219,61671,208219.0,78613.0,-305.3746531217578,-966.3221572754187,-1632.884463903861
208219,0,208219,61638,208219.0,78564.0,-301.2791007280208,-950.6295879349724,-1605.619995000918
208219,0,208219,61638,208219.0,78585.0,-296.8133752152471,-933.4417994864598,-1575.7895298346193
208229,0,208229,61666,208229.0,78598.0,-291.9688396116777,-914.7445186078669,-1543.3698776683154
208229,0,208229,61690,208229.0,78604.0,-286.7376179034359,-894.5306086114133,-1508.349327122762
208229,0,208229,61715,208229.0,78619.0,-281.1127381533712,-872.8001193599132,-1470.7282997851798
208229,0,208229,61672,208229.0,78601.0,-275.0882881562135,-849.560270882128,-1430.5200899637227
208229,0,208229,61662,208229.0,78624.0,-268.6595838527705,-824.8259332739176,-1387.7518362657509
208229,0,208229,61672,208229.0,78666.0,-261.823350691369,-798.6206734714724,-1342.465548488214
208239,0,208239,61757,208239.0,78739.0,-254.57791808474502,-770.9776843849759,-1294.7187518023675
208239,0,208239,61798,208239.0,78792.0,-246.9234270647225,-741.9398711268697,-1244.5845060376332
208239,0,208239,61817,208239.0,78850.0,-238.8620511848555,-711.5592450348179,-1192.151043067204
208239,0,208239,61854,208239.0,78927.0,-230.39823066231918,-679.8963910913135,-1137.5213558666605
208239,4,208239,61897,208239.0,78995.0,-221.53891158947962,-647.0202924051227,-1080.8127647238296
208239,28,208239,61963,208239.0,79093.0,-212.29372530838884,-613.0081495742188,-1022.1563358466872
208250,39,208250,62053,208250.0,79221.0,-202.6749964160905,-577.9448304549389,-961.6960089404624
208250,57,208250,62121,208250.0,79341.0,-192.69757908811508,-541.9218426117739,-899.5872311978155
208250,90,208250,62183,208250.0,79442.0,-182.3786063186421,-505.0360402270134,-835.9951638896891
208250,90,208250,62232,208250.0,79528.0,-171.73717588419584,-467.38846321940673,-771.0929199763859
208250,108,208250,62281,208250.0,79663.0,-160.7940655708783,-429.08351187005434,-705.0601066870765
208250,129,208250,62367,208250.0,79793.0,-149.5715721647425,-390.22832215449694,-638.0813760689787
208260,149,208260,62488,208260.0,79929.0,-138.09335615964721,-350.93190938332214,-570.3446053483731
208260,164,208260,62553,208260.0,80064.0,-126.38419837208781,-311.30373671177483,-502.038755790417
208260,187,208260,62617,208260.0,80163.0,-114.46974055342824,-271.4520288020403,-433.35170553648396
208260,203,208260,62632,208260.0,80252.0,-102.37624562727531,-231.48252529634556,-364.4683862665021
208260,215,208260,62681,208260.0,80337.0,-90.13037470116959,-191.497964051776,-295.5694544021779
208260,229,208260,62742,208260.0,80438.0,-77.75902857395948,-151.59798513953783,-226.8303836245085
208270,258,208270,62820,208270.0,80550.0,-65.28923668777496,-111.87888969209763,-158.42060859956894
208270,277,208270,62871,208270.0,80593.0,-52.74797123241024,-72.43299133938473,-90.50257258175338
208270,277,208270,62854,208270.0,80683.0,-40.16189362397968,-33.34794567485892,-23.23097292733462
208270,285,208270,62887,208270.0,80716.0,-27.557236881874445,5.293313833197601,43.247557888908545
208270,302,208270,62944,208270.0,80814.0,-14.959887800381637,43.41209501252706,108.79449658704482
208270,333,208270,62979,208270.0,80858.0,-2.3954454560893623,80.93363223120599,173.2794645345058
208281,342,208281,63064,208281.0,80949.0,10.110924898433694,117.78727013462054,236.5803741776516
208281,362,208281,63105,208281.0,80974.0,22.534742196812545,153.90701068343492,298.5836117512372
208281,354,208281,63084,208281.0,81048.0,34.85235857071001,189.2320776967838,359.18408820536706
208281,388,208281,63113,208281.0,81075.0,47.040953162396846,223.70693034659962,418.2851033444157
208281,392,208281,63148,208281.0,81167.0,59.07851316385327,257.2807113832499,475.7981621751303
208281,411,208281,63213,208281.0,81202.0,70.94391210238294,289.90684829317,531.6429429012169
208291,425,208291,63236,208291.0,81266.0,82.61702335019669,321.5431935474953,585.7474214579338
208291,425,208291,63267,208291.0,81299.0,94.07879466393223,352.1523857045254,638.047960914048
208291,432,208291,63255,208291.0,81310.0,105.31122976535858,381.70196525162544,688.4891839185859
208291,456,208291,63264,208291.0,81356.0,116.29728769973482,410.1640359315601,737.023539192448
208291,462,208291,63305,208291.0,81416.0,127.02085233465584,437.5146527213577,783.6107804048397
208291,481,208291,63336,208291.0,81438.0,137.46682516868321,463.7334068784554,828.2177273005484
208302,479,208302,63383,208302.0,81475.0,147.62122257232784,488.8034698957222,870.8182213459027
208302,495,208302,63378,208302.0,81500.0,157.47119497758382,512.7118784678155,911.3929653220573
208302,496,208302,63384,208302.0,81514.0,167.00498465882902,535.4496360334714,949.9292112918768
208302,515,208302,63398,208302.0,81544.0,176.21188323364896,557.0114350145743,986.4203562616169
208302,518,208302,63449,208302.0,81584.0,185.08223378715365,577.395301581776,1020.8655532162888
208302,534,208302,63469,208302.0,81625.0,193.60747391977077,596.6025961985592,1053.269552265253
208312,542,208312,63489,208312.0,81629.0,201.78019979415393,614.6383376305172,1083.6427699073297
208312,532,208312,63465,208312.0,81626.0,209.594204912909,631.5114152761258,1112.001236163614
208312,540,208312,63437,208312.0,81633.0,217.04439672914555,647.2342990802953,1138.3661500920887
208312,538,208312,63442,208312.0,81629.0,224.12659331652185,661.8222244886025,1162.7631767400278
208312,560,208312,63460,208312.0,81662.0,230.83735609275772,675.2923033393663,1185.2217843704602
208312,575,208312,63474,208312.0,81671.0,237.17400241829682,687.6630479287984,1205.7748295868773
208322,571,208322,63527,208322.0,81681.0,243.13478199223982,698.9543947239601,1224.4583934595435
208322,577,208322,63498,208322.0,81676.0,248.7190208309362,709.188036897286,1241.31164296351
208322,568,208322,63495,208322.0,81664.0,253.92708920123164,718.3876481504095,1256.3765101484655
208322,584,208322,63480,208322.0,81679.0,258.76026436090405,726.578638927678,1269.697205992568
208322,577,208322,63504,208322.0,81698.0,263.22062166150465,733.7876587705562,1281.3198144860216
208322,592,208322,63502,208322.0,81738.0,267.3109984960273,740.0422932622774,1291.2922589584332
208333,596,208333,63539,208333.0,81691.0,271.0350188831068,745.371090293997,1299.6645703554518
208333,591,208333,63483,208333.0,81672.0,274.397154311558,749.8037204850671,1306.4889034403282
208333,579,208333,63466,208333.0,81665.0,277.4027074000435,753.3708357355762,1311.8189775337014
208333,582,208333,63490,208333.0,81669.0,280.05762716119546,756.1034893660334,1315.709365092088
208333,595,208333,63530,208333.0,81656.0,282.36829736119284,758.03274825787,1318.2150797094203
208333,588,208333,63562,208333.0,81693.0,284.3414839667629,759.190070728601,1319.391461783375
208343,587,208343,63487,208343.0,81656.0,285.98437266828665,759.6080342717926,1319.2942710265756
208343,599,208343,63458,208343.0,81633.0,287.3045606716379,759.3204306365003,1317.979743210636
208343,587,208343,63423,208343.0,81604.0,288.31004704810437,758.3614135169969,1315.5042612620482
208343,600,208343,63465,208343.0,81627.0,289.009255799921,756.7644526149994,1311.9237947214926
208343,595,208343,63440,208343.0,81648.0,289.411061026864,754.5618802070939,1307.2936845311265
208343,593,208343,63501,208343.0,81591.0,289.52481796852584,751.785069616191,1301.6689008601945
208353,575,208353,63428,208353.0,81565.0,289.3603308288631,748.4648559871913,1295.1041508977146
208353,576,208353,63405,208353.0,81568.0,288.92768018024714,744.6316499216721,1287.6534705658912
208353,572,208353,63420,208353.0,81523.0,288.2369966519196,740.3149839381852,1279.3697253927473
208353,571,208353,63404,208353.0,81519.0,287.2983161685516,735.543016944766,1270.3042798616289
208353,576,208353,63430,208353.0,81514.0,286.1215406979624,730.3424834887708,1260.5067384188592
208353,583,208353,63432,208353.0,81509.0,284.7164940654408,724.7389816413285,1250.0248718332405
208364,565,208364,63400,208364.0,81485.0,283.0930381104585,718.7573477079048,1238.9047515884981
208364,570,208364,63365,208364.0,81472.0,281.2611193490495,712.421748616566,1227.190849940232
208364,555,208364,63367,208364.0,81445.0,279.2306932057301,705.7553151172117,1214.925988794491
208364,560,208364,63376,208364.0,81448.0,277.01161453729566,698.7797399932984,1202.1512351314382
208364,546,208364,63395,208364.0,81414.0,274.6135507918206,691.5153201620766,1188.9058630129625
208364,555,208364,63370,208364.0,81392.0,272.0459215327739,683.9813792263201,1175.2273302533215
208374,550,208374,63324,208374.0,81377.0,269.3178923482348,676.1965537694235,1161.1511470610694
208374,542,208374,63356,208374.0,81361.0,266.43842081677235,668.1786371852247,1146.710720437534
208374,537,208374,63313,208374.0,81345.0,263.4162672133805,659.944320424241,1131.9373107979231
208374,544,208374,63338,208374.0,81341.0,260.2599554994757,651.5091589484981,1116.8600936637283
208374,540,208374,63340,208374.0,81333.0,256.9777976414505,642.887728929051,1101.5063274377296
208374,528,208374,63334,208374.0,81304.0,253.57798098150147,634.0939640854305,1085.9016000072202
208384,520,208384,63276,208384.0,81255.0,250.06857268364917,625.1414480589739,1070.0699225872256
208384,511,208384,63249,208384.0,81243.0,246.45739646839138,616.0432085552701,1054.0334817702653
208384,513,208384,63310,208384.0,81256.0,242.75188863312883,606.8112030472995,1037.8123282805047
208384,520,208384,63291,208384.0,81230.0,238.95906060074012,597.4562990366071,1021.4244408640295
208384,518,208384,63299,208384.0,81224.0,235.0856203724681,587.9888800264869,1004.8860837164574
208384,491,208384,63262,208384.0,81208.0,231.13812111545153,578.4193867631479,988.212114855543
208395,486,208395,63198,208395.0,81153.0,227.1229079868498,568.7583016398855,971.4161174138071
208395,494,208395,63217,208395.0,81182.0,223.04590548102215,559.0155961640901,954.510351344806
208395,490,208395,63205,208395.0,81152.0,218.91253448732834,549.2001531533783,937.5057558067837
208395,489,208395,63234,208395.0,81136.0,214.7278256502688,539.3197218899618,920.4121900313011
208395,494,208395,63198,208395.0,81117.0,210.49657505313237,529.3813169031177,903.238669474697
208395,473,208395,63191,208395.0,81088.0,206.2234631352893,519.3915663393067,885.9934228910613
208405,470,208405,63162,208405.0,81077.0,201.91307395106807,509.3567324395603,868.683865148177
208405,465,208405,63143,208405.0,81047.0,197.56979640497627,499.28248485761435,851.3165624214564
208405,453,208405,63172,208405.0,81022.0,193.19771659635595,489.173689700969,833.8971875024348
208405,464,208405,63199,208405.0,81029.0,188.80056993894985,479.0345864761912,816.4304771526207
208405,462,208405,63147,208405.0,81048.0,184.3817893504287,468.86940944167185,798.9204179742045
208405,449,208405,63095,208405.0,80993.0,179.94464534265464,458.6827550429145,781.370771945309
208415,455,208415,63082,208415.0,80955.0,175.49235040585094,448.4791509108102,763.7854537690836
208415,442,208415,63098,208415.0,80965.0,171.02808710491723,438.2623564914736,746.1684077848943
208415,433,208415,63124,208415.0,80958.0,166.5550063284777,428.0352329852281,728.5234720286664
208415,437,208415,63111,208415.0,80955.0,162.0761854689997,417.80028366013465,710.8546846503426
208415,442,208415,63087,208415.0,80926.0,157.59462738063235,407.5602917306408,693.1667876907252
208415,435,208415,63064,208415.0,80899.0,153.11339512905477,397.3185376415331,675.4655334565042
208426,415,208426,63036,208426.0,80880.0,148.6357488693481,387.07858554486177,657.7577063152521
208426,409,208426,63078,208426.0,80865.0,144.1650945222296,376.8440152758228,640.0510398333697
208426,426,208426,63105,208426.0,80876.0,139.70483925780286,366.6186157603777,622.354279977239
208426,416,208426,63073,208426.0,80851.0,135.25841878384173,356.4071490154364,604.677503405893
208426,407,208426,63029,208426.0,80810.0,130.8294740669258,346.21598642855577,587.0324760537317
208426,406,208426,63007,208426.0,80799.0,126.42193857513819,336.0529958754621,569.4327238311901
208436,387,208436,62976,208436.0,80754.0,122.03999342505497,325.92693445716094,551.8933433919246
208436,390,208436,62986,208436.0,80732.0,117.68797125431804,315.8469011060564,534.4307447836818
208436,387,208436,62986,208436.0,80737.0,113.37027344425776,305.82214424675055,517.062430729617
208436,383,208436,62982,208436.0,80721.0,109.0913734067203,295.8622485040248,499.8070143823543
208436,363,208436,62950,208436.0,80681.0,104.855847104911,285.97742290777376,482.6844608171705
208436,362,208436,62955,208436.0,80665.0,100.66829507456247,276.178588747665,465.7161894140396
208446,358,208446,62939,208446.0,80632.0,96.53319627235146,266.47732947985196,448.924925176242
208446,368,208446,62943,208446.0,80640.0,92.45486359580555,256.8859229162686,432.33454518549604
208446,367,208446,62969,208446.0,80616.0,88.4375737834651,247.41756460021702,415.9701258771679
208446,349,208446,62925,208446.0,80567.0,84.48575620220896,238.08677184824992,399.8580831046871
208446,351,208446,62899,208446.0,80543.0,80.60405622295045,228.90964018403108,384.0260621723846
208446,342,208446,62813,208446.0,80502.0,76.7972689925907,219.90348826137011,368.5025081764643
208457,338,208457,62827,208457.0,80498.0,73.07027499333466,211.08591099759423,353.3162011071835
208457,335,208457,62855,208457.0,80480.0,69.42800961413236,202.47394057250648,338.4959976423877
208457,331,208457,62866,208457.0,80447.0,65.87544836310586,194.08404529323954,324.070780727437
208457,315,208457,62838,208457.0,80411.0,62.4175873240845,185.93276340256938,310.06936506822075
208457,308,208457,62789,208457.0,80386.0,59.059347866562625,178.03708085715888,296.5201673738793
208457,307,208457,62749,208457.0,80359.0,55.805411519676575,170.414066844796,283.45076184372414
208467,310,208467,62776,208467.0,80339.0,52.66011841765134,163.08010445430855,270.88749806961977
208467,305,208467,62798,208467.0,80334.0,49.62749999610102,156.05050520166398,258.8552492726747
208467,319,208467,62774,208467.0,80325.0,46.711397228947064,149.33982460872542,247.37734871133767
208467,298,208467,62718,208467.0,80289.0,43.91560558581301,142.96223074827748,236.47565679189222
208467,297,208467,62703,208467.0,80249.0,41.24394742141814,136.93122305215488,226.17047075792289
208467,286,208467,62688,208467.0,80234.0,38.70019477187556,131.25890127442108,216.48010423670377
208477,282,208477,62700,208477.0,80252.0,36.28791933580062,125.9554236738819,207.42044157009423
208477,284,208477,62715,208477.0,80238.0,34.01037677649084,121.02894544551947,199.00489132102723
208477,286,208477,62723,208477.0,80262.0,31.87047987108267,116.48596624271278,191.244732369894
208477,275,208477,62702,208477.0,80215.0,29.870850282876276,112.33180522506157,184.14953241471534
208477,266,208477,62687,208477.0,80183.0,28.013827439167393,108.5708350991141,177.72727018842147
208477,261,208477,62673,208477.0,80183.0,26.30135145740659,105.20635152926934,171.9840032311397
208488,265,208488,62699,208488.0,80187.0,24.734811112166113,102.2403428839621,166.92346546743306
208488,262,208488,62732,208488.0,80193.0,23.31498427555171,99.67358721479893,162.54704568356078
208488,261,208488,62688,208488.0,80182.0,22.042066739332135,97.50614318433247,158.85406381127433
208488,263,208488,62672,208488.0,80142.0,20.915714515796687,95.73767231888536,155.8419503453372
208488,261,208488,62633,208488.0,80145.0,19.93508342037147,94.36713117461414,153.50607392661377
208488,254,208488,62631,208488.0,80143.0,19.098859875067113,93.39207020500389,151.83939930848524
208498,252,208498,62694,208498.0,80165.0,18.405236414099,92.80814243808149,150.8323846492848
208498,266,208498,62686,208498.0,80167.0,17.85186836095189,92.60930166750681,150.47323978149967
208498,269,208498,62673,208498.0,80149.0,17.435945300216765,92.78844542618752,150.74829886911806
208498,257,208498,62663,208498.0,80151.0,17.15436325271896,93.33775010964813,151.642192130597
208498,256,208498,62633,208498.0,80146.0,17.003799318909145,94.2484738417496,153.13778873382657
208498,251,208498,62667,208498.0,80165.0,16.980624130986897,95.51056732084068,155.21615218139223
208508,264,208508,62698,208508.0,80191.0,17.08080400019965,97.11255636292228,157.8567212293093
208508,275,208508,62684,208508.0,80163.0,17.299950726952822,99.04191907593469,161.03769468758293
208508,266,208508,62677,208508.0,80160.0,17.633519203216373,101.28554317049827,164.73627673135024
208508,250,208508,62642,208508.0,80142.0,18.076938433242105,103.82973157061687,168.9285264132835
208508,256,208508,62643,208508.0,80155.0,18.62550410253847,106.6597587717142,173.58901246297643
208508,253,208508,62672,208508.0,80180.0,19.274176527459367,109.75939123142652,178.6906384200633
208519,261,208519,62698,208519.0,80187.0,20.017494605823877,113.11084379999181,184.20481903509832
208519,264,208519,62716,208519.0,80195.0,20.84962009874196,116.6952617585248,190.10186512930022
208519,271,208519,62716,208519.0,80200.0,21.764451708332693,120.4933566713571,196.35129855982393
208519,279,208519,62696,208519.0,80198.0,22.75578080635873,124.48578381630482,202.92200717911862
208519,266,208519,62687,208519.0,80209.0,23.81744043960618,128.65308372465952,209.78229338802294
208519,263,208519,62716,208519.0,80242.0,24.943336506622764,132.97537868559758,216.89995489934412
208529,277,208529,62764,208529.0,80262.0,26.127353209852664,137.43234494096765,224.2426031303978
208529,267,208529,62753,208529.0,80277.0,27.363298925364067,142.00372429530987,231.77821621295243
208529,268,208529,62720,208529.0,80234.0,28.644923044293847,146.66986986411234,239.4755735113115
208529,263,208529,62712,208529.0,80237.0,29.965874468875082,151.41167497432875,247.30418614980766
208529,271,208529,62724,208529.0,80242.0,31.31961006059248,156.21003560760815,255.233827769085
208529,274,208529,62762,208529.0,80261.0,32.69936455094223,161.0455310246492,263.2341845731913
208539,284,208539,62781,208539.0,80284.0,34.09822462458199,165.8986753178282,271.27490289752836
208539,287,208539,62784,208539.0,80305.0,35.509277036842455,170.75050981404632,279.32594218710517
208539,285,208539,62752,208539.0,80294.0,36.92576015709874,175.58301483278785,287.35801175343596
208539,282,208539,62750,208539.0,80302.0,38.34113416351861,180.3790034473074,295.34282312192295
208539,283,208539,62802,208539.0,80302.0,39.749047845912436,185.12177508069044,303.253084035546
208539,302,208539,62831,208539.0,80352.0,41.14330746120646,189.79520946229908,311.06249811131426
208550,300,208550,62815,208550.0,80337.0,42.517979388065285,194.38441278675538,318.74603208912976
208550,298,208550,62810,208550.0,80337.0,43.86757213921271,198.87624269279843,326.2802714098288
208550,286,208550,62780,208550.0,80313.0,45.18709757365761,203.25925113061564,333.6434520898215
208550,290,208550,62739,208550.0,80325.0,46.47195077419286,207.5231285150181,340.8151332220209
208550,283,208550,62789,208550.0,80343.0,47.71773422287652,211.65794095656543,347.7758771022626
208550,292,208550,62793,208550.0,80342.0,48.920139753474345,215.65370124459088,354.5072189411188
208560,304,208560,62826,208560.0,80327.0,50.07494306479379,219.50059567868485,360.9917770358463
208560,288,208560,62814,208560.0,80354.0,51.17810486302234,223.18951494306305,367.2132328207226
208560,295,208560,62788,208560.0,80342.0,52.22583710861683,226.71236114543618,373.1562683763932
208560,288,208560,62755,208560.0,80345.0,53.21454545414821,230.06182775387293,378.80658537261354
208560,295,208560,62815,208560.0,80329.0,54.1407471577801,233.2308409009632,384.1508541600049
208560,299,208560,62805,208560.0,80350.0,55.00105768007213,236.21232809827637,389.176544905022
208571,304,208571,62832,208571.0,80362.0,55.79226024264179,238.9995452949707,393.87186178381
208571,301,208571,62787,208571.0,80353.0,56.51141798270268,241.58645253025713,398.2258980154484
208571,288,208571,62772,208571.0,80335.0,57.15591952546128,243.96764460715747,402.22876522024853
208571,295,208571,62785,208571.0,80334.0,57.72339128613331,246.13787138632165,405.8714424662527
208571,301,208571,62805,208571.0,80379.0,58.211587890849025,248.09166190216686,409.14556995566005
208571,292,208571,62859,208571.0,80330.0,58.618392335400486,249.82351792827518,412.04352762719043
208581,300,208581,62842,208581.0,80366.0,58.94186119563173,251.32861847745917,414.5586147852238
208581,304,208581,62788,208581.0,80335.0,59.18025222208767,252.60340805410584,416.68505982138055
208581,284,208581,62802,208581.0,80346.0,59.3320566417374,253.64545764577062,418.4179492866807
208581,292,208581,62811,208581.0,80324.0,59.39595527412596,254.45291831556773,419.75312709320207
208581,291,208581,62809,208581.0,80348.0,59.370696487407734,255.02430208593444,420.68707209861736
208581,297,208581,62876,208581.0,80323.0,59.25505591110327,255.35873588267364,421.2168655126779
208591,292,208591,62795,208591.0,80325.0,59.0479022307843,255.4564457378644,421.34020573990097
208591,297,208591,62803,208591.0,80341.0,58.74826589398155,255.31896939243,421.0553938506465
208591,292,208591,62728,208591.0,80308.0,58.35537635945837,254.94866826134069,420.3613707013271
208591,290,208591,62800,208591.0,80310.0,57.868673991327434,254.3478948901701,419.25773087933777
208591,296,208591,62824,208591.0,80317.0,57.287802693452306,253.51867388904452,417.7446163671198
208591,298,208591,62810,208591.0,80313.0,56.61263794193298,252.46321804047594,415.82269837972865
208602,291,208602,62796,208602.0,80338.0,55.843368439649026,251.18458335211946,413.4933870050167
208602,290,208602,62744,208602.0,80264.0,54.980542352190525,249.68670205842676,410.75906624915854
208602,287,208602,62763,208602.0,80278.0,54.025035620107076,247.97385418164333,407.62299219303696
208602,285,208602,62762,208602.0,80271.0,52.978001017193534,246.05014214521685,404.0888845376225
208602,288,208602,62748,208602.0,80302.0,51.84084447200658,243.91933864609896,400.16076390820285
208602,275,208602,62766,208602.0,80261.0,50.61522052040379,241.5849558763542,395.8432209786899
208612,280,208612,62757,208612.0,80237.0,49.303002321734375,239.0503497889167,391.1416194479278
208612,264,208612,62722,208612.0,80237.0,47.90620594810416,236.31880262702356,386.0618886846785
208612,279,208612,62715,208612.0,80230.0,46.42690936089756,233.39336302235006,380.61020942423016
208612,266,208612,62724,208612.0,80217.0,44.86722672122804,230.27648200715447,374.79292623866394
208612,259,208612,62761,208612.0,80251.0,43.22931368254676,226.96991636912261,368.61666229535535
208612,272,208612,62777,208612.0,80202.0,41.51533276678648,223.4751906830361,362.0885775069188
208622,265,208622,62723,208622.0,80186.0,39.72745160765423,219.79427999503272,355.21654117324687
208622,260,208622,62692,208622.0,80156.0,37.86792053578576,215.92978254086637,348.0089153233615
208622,262,208622,62723,208622.0,80164.0,35.93911408275713,211.88444684172822,340.4741367076625
208622,259,208622,62734,208622.0,80162.0,33.943524187723376,207.66083627308484,332.6205261997864
208622,260,208622,62752,208622.0,80167.0,31.88378395385982,203.26164908943792,324.45645687609186
208622,241,208622,62700,208622.0,80124.0,29.762685446395956,198.6902647904461,315.9906497963592
208633,237,208633,62653,208633.0,80093.0,27.58309026104834,193.95078819741957,307.23219651404224
208633,238,208633,62674,208633.0,80101.0,25.347753010445693,189.047443398322,298.19022101195355
208633,237,208633,62692,208633.0,80070.0,23.059211439714346,183.98402573278503,288.87355920428126
208633,236,208633,62673,208633.0,80086.0,20.719803794422184,178.76398439599103,279.29070058094715
208633,235,208633,62682,208633.0,80063.0,18.331734433515194,173.3907915058633,269.44990671070013
208633,224,208633,62647,208633.0,80069.0,15.897114756664543,167.86811789694076,259.3594152573444
208643,227,208643,62639,208643.0,80033.0,13.41794901794782,162.19974671815282,249.02763007439276
208643,217,208643,62628,208643.0,80022.0,10.896087217974554,156.38932185325046,238.4631615177336
208643,221,208643,62636,208643.0,80019.0,8.333191555007808,150.44014353296433,227.67473896195887
208643,221,208643,62654,208643.0,80015.0,5.730744707077527,144.35523565342783,216.67121582385974
208643,221,208643,62631,208643.0,79991.0,3.090120127672371,138.13767659690893,205.46174775650533
208643,216,208643,62623,208643.0,79960.0,0.41268192611861565,131.79090203649844,194.05590492435252
208653,211,208653,62583,208653.0,79954.0,-2.30015856725381,125.3186902291718,182.46355009153305
208653,208,208653,62578,208653.0,79933.0,-5.046949833768778,118.72483373203167,170.69464613296321
208653,213,208653,62589,208653.0,79925.0,-7.826214179269307,112.01278074161377,158.75918085367596
208653,209,208653,62612,208653.0,79910.0,-10.636399968543309,105.18563044125284,146.66719462658955
208653,200,208653,62607,208653.0,79895.0,-13.475802485972444,98.24658545226853,134.42884374033127
208653,193,208653,62585,208653.0,79846.0,-16.342560730694466,91.1994929657904,122.05438984823337
208664,195,208664,62513,208664.0,79821.0,-19.23473627313073,84.04894018322778,109.55393710149792
208664,181,208664,62532,208664.0,79830.0,-22.150385189406975,76.79972382836331,96.93700972617285
208664,203,208664,62542,208664.0,79829.0,-25.087570519473473,69.45623998927329,84.21240481746281
208664,175,208664,62537,208664.0,79826.0,-28.044301146233195,62.022439704332584,71.38850217584974
208664,181,208664,62525,208664.0,79776.0,-31.018480131711257,54.50217813443473,58.47366864995058
208664,172,208664,62513,208664.0,79759.0,-34.007955666412954,46.89943911806557,45.47631553802955
208674,164,208674,62469,208674.0,79724.0,-37.010609940926045,39.218273082831416,32.40458246582563
208674,175,208674,62471,208674.0,79740.0,-40.02440910776234,31.462484610663495,19.265997571468404
208674,170,208674,62512,208674.0,79698.0,-43.04737190391913,23.635371060558782,6.067388960415258
208674,165,208674,62490,208674.0,79701.0,-46.07745902470839,15.739951272052792,-7.185039833573342
208674,151,208674,62508,208674.0,79681.0,-49.11251890339972,7.779548649118709,-20.485642621461466
208674,154,208674,62422,208674.0,79661.0,-52.15036281738524,-0.24186645306241417,-33.82926772264068
208684,153,208684,62427,208684.0,79646.0,-55.188852015000236,-8.319935372549565,-47.211215895732835
208684,150,208684,62455,208684.0,79646.0,-58.22588765295602,-16.450451196994322,-60.62722123020029
208684,144,208684,62439,208684.0,79647.0,-61.2593521831499,-24.62945588031829,-74.07329325742904
208684,136,208684,62458,208684.0,79589.0,-64.2871014196924,-32.8528156315044,-87.54544673290263
208684,130,208684,62369,208684.0,79595.0,-67.30702961604814,-41.11589396532105,-101.03963492318871
208684,135,208684,62362,208684.0,79555.0,-70.31714893373169,-49.41381633951099,-114.55193509944496
208695,124,208695,62344,208695.0,79536.0,-73.31561051659651,-57.74220915096248,-128.07876173679932
208695,120,208695,62398,208695.0,79527.0,-76.3006955670439,-66.0976887527818,-141.61704885872138
208695,132,208695,62362,208695.0,79509.0,-79.27081898238437,-74.47763719929486,-155.16435712012134
208695,121,208695,62407,208695.0,79512.0,-82.22447275407752,-82.87959065026169,-168.71881263946716
208695,113,208695,62311,208695.0,79469.0,-85.16013144327292,-91.30078895405006,-182.27895456271108
208695,112,208695,62308,208695.0,79467.0,-88.07625537157516,-99.73827707327959,-195.84366951089027
208705,109,208705,62319,208705.0,79458.0,-90.97135919755874,-108.1894633281224,-209.4122149859595
208705,104,208705,62334,208705.0,79440.0,-93.8440386719356,-116.65240398877893,-222.9841496397416
208705,107,208705,62323,208705.0,79450.0,-96.69295966687213,-125.12547026831334,-236.55912591214656
208705,100,208705,62295,208705.0,79401.0,-99.5168297625602,-133.6069097828955,-250.13665838632392
208705,92,208705,62244,208705.0,79376.0,-102.31437671956104,-142.09484691686072,-263.7160682248391
208705,89,208705,62249,208705.0,79368.0,-105.0843864958187,-150.58776464893435,-277.296706914806
208715,83,208715,62262,208715.0,79348.0,-107.82578465970718,-159.0849862525028,-290.8781962615217
208715,84,208715,62258,208715.0,79342.0,-110.53769647900162,-167.5866671768366,-304.46045597146644
208715,94,208715,62294,208715.0,79333.0,-113.21943108000218,-176.09333963047533,-318.0435835976583
208715,98,208715,62264,208715.0,79308.0,-115.87033506579417,-184.60529521294058,-331.6276839920562
208715,78,208715,62214,208715.0,79286.0,-118.489584424687,-193.12217795056097,-345.21276968903874
208715,68,208715,62194,208715.0,79243.0,-121.07613736110414,-201.64319045187125,-358.79886983273934
208726,78,208726,62221,208726.0,79273.0,-123.6288885508128,-210.16765820583043,-372.3862606290363
208726,78,208726,62238,208726.0,79254.0,-126.1467678417801,-218.69516482049733,-385.9754672191117
208726,74,208726,62202,208726.0,79242.0,-128.62865391820353,-227.22510239806348,-399.5669256645915
208726,66,208726,62179,208726.0,79214.0,-131.07326890779382,-235.7563048907233,-413.1606672775399
208726,65,208726,62151,208726.0,79171.0,-133.47918146398848,-244.28721575026805,-426.75632682093044
208726,63,208726,62131,208726.0,79169.0,-135.84485765366958,-252.81637134791828,-440.3534260114624
208736,56,208736,62163,208736.0,79148.0,-138.16868684293203,-261.3427772546509,-453.95166115806205
208736,57,208736,62168,208736.0,79154.0,-140.44899679640852,-269.86583541871795,-467.5509460339349
208736,43,208736,62154,208736.0,79141.0,-142.6840904216394,-278.38484251226106,-481.15120392200254
208736,56,208736,62123,208736.0,79111.0,-144.87229611754756,-286.89856742559095,-494.7520909758341
208736,40,208736,62089,208736.0,79073.0,-147.01198725999527,-295.4053167281154,-508.35292410487557
208736,45,208736,62084,208736.0,79065.0,-149.10157290224473,-303.9033808798685,-521.9529186310339
208746,36,208746,62110,208746.0,79059.0,-151.1395123597277,-312.3913957909554,-535.551452418847
208746,42,208746,62099,208746.0,79042.0,-153.12433956477204,-320.8682352760854,-549.148071159933
208746,46,208746,62071,208746.0,79027.0,-155.05463045885415,-329.3326327744697,-562.7423279245924
208746,30,208746,62067,208746.0,78995.0,-156.92891751805914,-337.78303223371154,-576.3336978203274
208746,34,208746,62011,208746.0,78961.0,-158.7456587157893,-346.2177936719668,-589.9216952687898
208746,23,208746,62039,208746.0,78947.0,-160.50330549247568,-354.63557133362616,-603.5061797520082
208757,24,208757,62032,208757.0,78965.0,-162.20039288065186,-363.03555486006485,-617.0875930306751
208757,34,208757,62047,208757.0,78951.0,-163.83557695729596,-371.4173023402438,-630.6668101154258
208757,29,208757,62019,208757.0,78925.0,-165.40756705422285,-379.780333238671,-644.2447274273449
208757,5,208757,61975,208757.0,78883.0,-166.9150438380188,-388.1239486983834,-657.8220697690565
208757,12,208757,61958,208757.0,78855.0,-168.35675555467174,-396.44754232015066,-671.3996386898965
208757,17,208757,61979,208757.0,78871.0,-169.7317034373278,-404.7511140706954,-684.978714853636
208767,7,208767,61987,208767.0,78850.0,-171.0391835890277,-413.0353923637492,-698.5611630920607
208767,13,208767,61982,208767.0,78863.0,-172.27873191745758,-421.30144086725977,-712.1491530840376
208767,10,208767,61956,208767.0,78815.0,-173.4500955914874,-429.5502094012988,-725.7447930901576
208767,0,208767,61917,208767.0,78795.0,-174.5532249640549,-437.7824680442327,-739.3499984492183
208767,0,208767,61933,208767.0,78774.0,-175.588314301729,-445.99912239492585,-752.9666757200888
208767,0,208767,61935,208767.0,78792.0,-176.55588929835886,-454.2014667709617,-766.5969208740028
208777,0,208777,61918,208777.0,78755.0,-177.45685029860402,-462.39106973135915,-780.2429218471374
208777,0,208777,61944,208777.0,78732.0,-178.29245097673422,-470.5694780653896,-793.9067556168728
208777,0,208777,61889,208777.0,78721.0,-179.0642589872013,-478.73796990490257,-807.5904015047214
208777,0,208777,61860,208777.0,78684.0,-179.77411878418349,-486.8975714274037,-821.2959058810122
208777,0,208777,61868,208777.0,78684.0,-180.42411656005905,-495.0494625788532,-835.0255342866085
208777,0,208777,61886,208777.0,78677.0,-181.01654724376021,-503.19531644425524,-848.7818279318926
208788,0,208788,61889,208788.0,78654.0,-181.55388349208744,-511.3370926053766,-862.5674855761702
208788,0,208788,61852,208788.0,78640.0,-182.03874660026418,-519.4765596594813,-876.3851941539973
208788,0,208788,61822,208788.0,78600.0,-182.47387925221722,-527.6151539551211,-890.237614483062
208788,0,208788,61826,208788.0,78593.0,-182.8621200262153,-535.7542999605129,-904.127544228599
208788,0,208788,61831,208788.0,78598.0,-183.20637956753166,-543.8957227144929,-918.0580637612442
208788,0,208788,61835,208788.0,78601.0,-183.5096183366519,-552.0413657822302,-932.0323794745935
208798,0,208798,61848,208798.0,78568.0,-183.77482583918473,-560.1929976339286,-946.0533948215724
208798,0,208798,61816,208798.0,78571.0,-184.00500124198297,-568.3517714957317,-960.1233590746426
208798,0,208798,61760,208798.0,78526.0,-184.20313527901175,-576.5180947952293,-974.2437495476651
208798,0,208798,61767,208798.0,78508.0,-184.37219335015743,-584.6920408928866,-988.415344711647
208798,0,208798,61806,208798.0,78514.0,-184.51509971641616,-592.8738234626569,-1002.6383930422224
208798,0,208798,61799,208798.0,78501.0,-184.63472269569232,-601.0636252159086,-1016.9126124667205
208809,0,208809,61772,208809.0,78483.0,-184.73386076474623,-609.260989406938,-1031.236939455304
208809,0,208809,61766,208809.0,78474.0,-184.81522947461556,-617.4645026574373,-1045.6092807333273
208809,0,208809,61734,208809.0,78421.0,-184.8814490890759,-625.6719107798721,-1060.0264457395547
208809,0,208809,61680,208809.0,78413.0,-184.93503285836857,-633.8804895581274,-1074.4843125165671
208809,0,208809,61704,208809.0,78430.0,-184.97837584349125,-642.087621984129,-1088.9780490482754
208809,0,208809,61743,208809.0,78414.0,-185.01374420979204,-650.2911489571878,-1103.5019894820675
208819,0,208819,61722,208819.0,78403.0,-185.04326491241915,-658.4890037893309,-1118.0491876549395
208819,0,208819,61699,208819.0,78365.0,-185.06891570033656,-666.6785677129001,-1132.6110913061598
208819,0,208819,61678,208819.0,78358.0,-185.0925153701076,-674.8564871433196,-1147.177527434951
208819,0,208819,61689,208819.0,78331.0,-185.11571420546855,-683.0188900506037,-1161.7368311132827
208819,0,208819,61733,208819.0,78343.0,-185.1399845438474,-691.1613903862444,-1176.2758894030562
208819,0,208819,61720,208819.0,78316.0,-185.16661141642894,-699.2785407092166,-1190.7799955223436
208829,0,208829,61711,208829.0,78304.0,-185.196683214119,-707.3630751678667,-1205.2326148727407
208829,0,208829,61663,208829.0,78292.0,-185.23108233781483,-715.405560256122,-1219.6152293519217
208829,0,208829,61620,208829.0,78254.0,-185.27047579774847,-723.3946984531624,-1233.9072908447743
208829,0,208829,61652,208829.0,78247.0,-185.3153057333306,-731.31799768143,-1248.0862824697908
208829,0,208829,61648,208829.0,78257.0,-185.36577983188897,-739.1621553054455,-1262.1277830125568
208829,0,208829,61690,208829.0,78259.0,-185.42186163196953,-746.9127705425968,-1276.0052479081003
208840,0,208840,61644,208840.0,78243.0,-185.48326070445228,-754.5536852293394,-1289.6894913770095
208840,0,208840,61628,208840.0,78196.0,-185.54942271263263,-762.0665605306702,-1303.1482793707637
208840,0,208840,61599,208840.0,78173.0,-185.6195193606351,-769.4310098682238,-1316.3463803310615
208840,0,208840,61593,208840.0,78207.0,-185.69243824806432,-776.6250498613247,-1329.2458521980966
208840,0,208840,61655,208840.0,78178.0,-185.76677265766114,-783.6253255576858,-1341.8060001669046
208840,0,208840,61611,208840.0,78186.0,-185.84081131192346,-790.4067706795181,-1353.9829558275846
208850,0,208850,61588,208850.0,78142.0,-185.9125281441722,-796.9421043399518,-1365.7293282759229
208850,0,208850,61547,208850.0,78097.0,-185.9795721393956,-803.2018915586815,-1376.9942362224117
208850,0,208850,61544,208850.0,78100.0,-186.03925731038723,-809.1551461982647,-1387.7237246569064
208850,0,208850,61579,208850.0,78103.0,-186.0885528852038,-814.7698215843596,-1397.861167015781
208850,0,208850,61590,208850.0,78096.0,-186.12407379280324,-820.0126939973281,-1407.347235684366
208850,0,208850,61540,208850.0,78063.0,-186.14207154487235,-824.8488424451223,-1416.1196389675883
208860,0,208860,61522,208860.0,78034.0,-186.13842562331183,-829.241476594711,-1424.1131060704838
208860,0,208860,61519,208860.0,78020.0,-186.1086354945951,-833.1523467213838,-1431.2597293611047
208860,0,208860,61508,208860.0,78022.0,-186.04781338424505,-836.542216768058,-1437.489360443496
208860,0,208860,61563,208860.0,77998.0,-185.95067795695707,-839.3709666488379,-1442.7297951034407
208860,0,208860,61536,208860.0,77982.0,-185.81154906040985,-841.5972542353013,-1446.9068586736412
208860,0,208860,61506,208860.0,77977.0,-185.6243437035251,-843.1780985487723,-1449.9445924771862
208871,0,208871,61472,208871.0,77957.0,-185.38257345282037,-844.0689926141869,-1451.7654972008913
208871,0,208871,61445,208871.0,77936.0,-185.07934344351077,-844.2246222418742,-1452.290791131619
208871,0,208871,61454,208871.0,77919.0,-184.70735321511083,-843.5997165956554,-1451.4407849206455
208871,0,208871,61498,208871.0,77916.0,-184.2588995944058,-842.1495139318549,-1449.135349111306
208871,0,208871,61467,208871.0,77904.0,-183.72588186175574,-839.8296355254901,-1445.294321175699
208871,0,208871,61450,208871.0,77881.0,-183.0998094496886,-836.5958346856947,-1439.837854647048
208881,0,208881,61456,208881.0,77855.0,-182.37181243556017,-832.4041687005375,-1432.6869011399276
208881,0,208881,61420,208881.0,77834.0,-181.5326551026293,-827.2114656232282,-1423.7639371145253
208881,0,208881,61404,208881.0,77813.0,-180.5727528561205,-820.9758808960811,-1412.993848887568
208881,0,208881,61450,208881.0,77842.0,-179.48219279262813,-813.6574946077185,-1400.30475982383
208881,0,208881,61431,208881.0,77812.0,-178.25075823244413,-805.2186228876046,-1385.6285977311277
208881,0,208881,61438,208881.0,77775.0,-176.8679575349495,-795.623808297699,-1368.9015990499875
208891,0,208891,61387,208891.0,77751.0,-175.32305752696746,-784.8400004137221,-1350.0652195077018
208891,0,208891,61361,208891.0,77758.0,-173.60512188279594,-772.8372778405073,-1329.0674047148204
208891,0,208891,61398,208891.0,77770.0,-171.70305480236897,-759.589904277464,-1305.863686296104
208891,0,208891,61440,208891.0,77779.0,-169.60565034048057,-745.0770173592593,-1280.4178461866954
208891,0,208891,61423,208891.0,77816.0,-167.3016477450671,-729.2825868262172,-1252.7022820612624
208891,0,208891,61407,208891.0,77770.0,-164.77979316600587,-712.1952680233792,-1222.698319928008
208902,0,208902,61362,208902.0,77772.0,-162.0289080975503,-693.8088959712131,-1190.3968491589653
208902,0,208902,61381,208902.0,77781.0,-159.0379649171801,-674.1235819152865,-1155.7994161362624
208902,0,208902,61445,208902.0,77833.0,-155.79616988108307,-653.1467062629524,-1118.919280981297
208902,0,208902,61453,208902.0,77835.0,-152.2930539314699,-630.8931582769206,-1079.7819961299365
208902,0,208902,61487,208902.0,77857.0,-148.51857166321483,-607.3850125095271,-1038.4257471320934
208902,0,208902,61458,208902.0,77903.0,-144.46320878666276,-582.6513497951562,-994.9018008935059
208912,0,208912,61481,208912.0,77980.0,-140.11809840957827,-556.7285701643822,-949.2748435765545
208912,0,208912,61542,208912.0,78021.0,-135.4751464438647,-529.6609154365807,-901.6228584141774
208912,0,208912,61607,208912.0,78115.0,-130.5271664215627,-501.50054057490513,-852.0366445503962
208912,0,208912,61661,208912.0,78201.0,-125.26802397945319,-472.30685714446986,-800.6191261644161
208912,0,208912,61715,208912.0,78260.0,-119.69279124203823,-442.14553979216555,-747.4844287088639
208912,0,208912,61736,208912.0,78363.0,-113.79791129843645,-411.0876572668425,-692.756884885105
208922,0,208922,61764,208922.0,78431.0,-107.58137292949422,-379.2091687096081,-636.5700961894232
208922,0,208922,61848,208922.0,78554.0,-101.04289569684704,-346.5907019713619,-579.065918523012
208922,0,208922,61965,208922.0,78706.0,-94.18412545544248,-313.317020578175,-520.3931145893255
208922,0,208922,62014,208922.0,78794.0,-87.00884029481634,-279.47571533626126,-460.7054701811371
208922,4,208922,62044,208922.0,78884.0,-79.52315875705207,-245.15563794260174,-400.1597358573156
208922,19,208922,62039,208922.0,78976.0,-71.73570365990449,-210.4460229053613,-338.9140123600667
208933,22,208933,62121,208933.0,79040.0,-63.657662636277834,-175.4364466871369,-277.126639478039
208933,54,208933,62205,208933.0,79164.0,-55.30273094329846,-140.21680765125092,-214.95530195559604
208933,67,208933,62243,208933.0,79234.0,-46.68691594196271,-104.8766581107867,-152.55609639245358
208933,95,208933,62298,208933.0,79293.0,-37.82819673530243,-69.5042235364001,-90.08256415813412
208933,90,208933,62350,208933.0,79369.0,-28.746157850088125,-34.185660531917904,-27.68501311830846
208933,137,208933,62349,208933.0,79438.0,-19.461705665145345,0.9953905818307476,34.48983226974542
208943,128,208943,62389,208943.0,79527.0,-9.996802197547694,35.95791683797569,96.29917507929213
208943,148,208943,62474,208943.0,79594.0,-0.3742054548534952,70.62343755118923,157.60464482779253
208943,174,208943,62531,208943.0,79706.0,9.382705429790633,104.91628653172893,218.27294163616853
208943,180,208943,62541,208943.0,79747.0,19.250112081082847,138.76435304888747,278.17659772764966
208943,177,208943,62567,208943.0,79805.0,29.20394856199431,172.09959390130354,337.19462784834764
208943,196,208943,62586,208943.0,79841.0,39.21992553411852,204.8579688220828,395.2127550087755
208953,220,208953,62613,208953.0,79911.0,49.273480767841534,236.97910902808292,452.1232781983374
208953,228,208953,62682,208953.0,79983.0,59.33988951618517,268.4061034742822,507.82497837796996
208953,253,208953,62703,208953.0,80044.0,69.394499119882,299.0856213096506,562.2233232531905
208953,260,208953,62770,208953.0,80065.0,79.41295507673169,328.96832178487386,615.2307960199125
208953,268,208953,62769,208953.0,80111.0,89.3713708016291,358.00929632379143,666.7669443778366
208953,291,208953,62756,208953.0,80162.0,99.24642365045634,386.1682165111371,716.7581162212407
208964,305,208964,62797,208964.0,80240.0,109.01545690483144,413.4089708901762,765.1372954320743
208964,318,208964,62863,208964.0,80273.0,118.65666334893527,439.6992148381696,811.8442971764005
208964,321,208964,62875,208964.0,80322.0,128.14925807937774,465.0104640697356,856.826102267541
208964,330,208964,62855,208964.0,80346.0,137.47353197209736,489.3184333076721,900.0370067260912
208964,333,208964,62841,208964.0,80352.0,146.6107986213123,512.6028156062388,941.4384729039082
208964,344,208964,62898,208964.0,80395.0,155.54330419611472,534.84651121335,980.9987018706292
208974,359,208974,62927,208974.0,80436.0,164.25417165148565,556.03511207752,1018.6921711656289
208974,375,208974,62966,208974.0,80466.0,172.72744665233506,576.157059446269,1054.4994465583557
208974,379,208974,62974,208974.0,80497.0,180.94823563840487,595.2041006366095,1088.4072059151852
208974,398,208974,63008,208974.0,80507.0,188.90284547836046,613.1716203686148,1120.4082147469328
208974,386,208974,62975,208974.0,80517.0,196.57886043515805,630.058729550734,1150.5011122128456
208974,387,208974,62978,208974.0,80552.0,203.96509010320568,645.8680044104748,1178.6900402008098
208984,415,208984,63017,208984.0,80539.0,211.05140693409243,660.6049589766757,1204.9842713624046
208984,418,208984,63028,208984.0,80579.0,217.82869834749891,674.2777345055277,1229.3978784749843
208984,428,208984,63032,208984.0,80596.0,224.28901065727842,686.8971756691119,1251.9494670996373
208984,418,208984,63013,208984.0,80587.0,230.42566047492465,698.4768621947256,1272.6620358451892
208984,426,208984,63016,208984.0,80579.0,236.23316814005995,709.0327940728067,1291.5627410331128
208984,434,208984,63013,208984.0,80594.0,241.7071105337152,718.5828837019102,1308.6823808682188
208995,438,208995,63033,208995.0,80602.0,246.84404725617577,727.1465458755004,1324.0548653758153
208995,442,208995,63060,208995.0,80607.0,251.64153043282772,734.7445793141285,1337.7169159869773
208995,440,208995,63065,208995.0,80611.0,256.09810112197226,741.3993674496307,1349.707898567543
208995,441,208995,63040,208995.0,80606.0,260.21322181182154,747.1351306568331,1360.0696389523644
208995,437,208995,62987,208995.0,80578.0,263.98715315027954,751.9777455404824,1368.8461225783353
208995,448,208995,63019,208995.0,80592.0,267.42081944883233,755.9540110984645,1376.0830222284608
209004,455,209004,63049,209004.0,80601.0,270.5157499739584,759.0910004270238,1381.8272528195287
209004,462,209004,63049,209004.0,80601.0,273.2741465900843,761.4161082702237,1386.126822939859
209004,452,209004,63018,209004.0,80579.0,275.69899068463457,762.9574272470376,1389.0308500818978
209004,456,209004,62991,209004.0,80547.0,277.79404966701605,763.7436990464694,1390.589359584329
209004,448,209004,62998,209004.0,80551.0,279.5637687793443,763.8037688533499,1390.852770584317
209004,462,209004,63031,209004.0,80555.0,281.01315333161233,763.1661289578572,1389.8713992576786
209014,452,209014,63002,209014.0,80557.0,282.1477241914574,761.858953340149,1387.6953116351551
209014,456,209014,63054,209014.0,80549.0,282.9735160119565,759.9104158901907,1384.3744515164376
209014,464,209014,62987,209014.0,80531.0,283.4970694501559,757.3489716010694,1379.9587544943474
209014,443,209014,62964,209014.0,80510.0,283.7254272998795,754.2033185252313,1374.4980744569762
209014,455,209014,62951,209014.0,80510.0,283.66608575850466,750.5018412505617,1368.0419573804186
209014,441,209014,62991,209014.0,80504.0,283.3268783399873,746.2719963814254,1360.6394692439994
209025,457,209025,62997,209025.0,80489.0,282.71589337871615,741.5403130094276,1352.3391999138337
209025,451,209025,62995,209025.0,80464.0,281.8414916543397,736.3329324084722,1343.1892957008686
209025,447,209025,62958,209025.0,80434.0,280.7123793541358,730.6760648101886,1333.2373146262998
209025,437,209025,62886,209025.0,80389.0,279.33761670274964,724.5958423148501,1322.5298320093812
209025,436,209025,62917,209025.0,80419.0,277.7265113848681,718.1175529258719,1311.1119425756294
209025,430,209025,62937,209025.0,80391.0,275.8884814649177,711.2649753135372,1299.027033995118
209035,427,209035,62952,209035.0,80395.0,273.83295631070797,704.060523819794,1286.3169578885543
209035,431,209035,62907,209035.0,80366.0,271.56932331264164,696.5258730691231,1273.022287267856
209035,417,209035,62894,209035.0,80344.0,269.10691604676947,688.6822317313467,1259.1824121608083
209035,420,209035,62868,209035.0,80322.0,266.45499703287584,680.5500684315291,1244.8354518683698
209035,415,209035,62892,209035.0,80301.0,263.6227125250342,672.1487363634677,1230.0180696002692
209035,419,209035,62906,209035.0,80292.0,260.61908177035104,663.4964715206189,1214.7653258703458
209045,408,209045,62893,209045.0,80270.0,257.45303865333864,654.6108307004918,1199.1106443442334
209045,393,209045,62895,209045.0,80241.0,254.13342829551772,645.5092064422047,1183.0858262704137
209045,407,209045,62825,209045.0,80232.0,250.66890975221307,636.2090176274999,1166.7210031325878
209045,387,209045,62795,209045.0,80196.0,247.067877849146,626.7273485243546,1150.0445426846106
209045,382,209045,62812,209045.0,80194.0,243.33843423530158,617.0802057062389,1133.0829761996424
209045,394,209045,62825,209045.0,80201.0,239.4883325037163,607.2820864363713,1115.861049225828
209056,388,209056,62805,209056.0,80172.0,235.52499425651692,597.3462020352288,1098.4020164105466
209056,391,209056,62801,209056.0,80098.0,231.45566062139622,587.2848842355285,1080.7278922217508
209056,370,209056,62769,209056.0,80113.0,227.28752112789346,577.1097308995203,1062.859229807857
209056,370,209056,62731,209056.0,80087.0,223.027692213594,566.8314360567088,1044.8147247715224
209056,369,209056,62790,209056.0,80084.0,218.68311190997545,556.4594941175101,1026.6111835269012
209056,365,209056,62787,209056.0,80102.0,214.26050225687612,546.0023000368197,1008.2638576591014
209066,367,209066,62774,209066.0,80071.0,209.7664316007379,535.4678029670944,989.7869818399856
209066,354,209066,62724,209066.0,80031.0,205.207395609755,524.8640270831681,971.1942598107951
209066,341,209066,62700,209066.0,80011.0,200.58982572520546,514.1989210077611,952.4989438147053
209066,342,209066,62682,209066.0,79962.0,195.91998841174967,503.4797764008359,933.7135576263423
209066,339,209066,62711,209066.0,79981.0,191.2038822562531,492.71278817267876,914.8495966648032
209066,325,209066,62749,209066.0,79973.0,186.4472217567254,481.90322356717377,895.9175184625022
209077,323,209077,62689,209077.0,79959.0,181.65542261174494,471.0561392002895,876.9271364453767
209077,321,209077,62664,209077.0,79899.0,176.83354785137524,460.17687888829636,857.888038246095
209077,324,209077,62648,209077.0,79895.0,171.98631379640887,449.27085223851657,838.809593129121
209077,318,209077,62630,209077.0,79888.0,167.1181941321142,438.34303297664576,819.7007465393438
209077,312,209077,62698,209077.0,79896.0,162.23353694639073,427.3978102626307,800.5701175181723
209077,304,209077,62664,209077.0,79861.0,157.3366095898744,416.4394498460561,781.4264553587652
209087,315,209087,62641,209087.0,79847.0,152.43160359555347,405.47279862112214,762.2790626146822
209087,298,209087,62604,209087.0,79800.0,147.52269463351132,394.5035038980478,743.1379150187687
209087,287,209087,62562,209087.0,79772.0,142.6141027239238,383.5375914047146,724.0134901504758
209087,292,209087,62606,209087.0,79777.0,137.71004329194903,372.58088955472584,704.9164988059456
209087,279,209087,62610,209087.0,79770.0,132.81465594769412,361.6389170251889,685.8578647886025
209087,290,209087,62579,209087.0,79756.0,127.93202215938382,350.71735083151344,666.8490802659123
209097,284,209097,62587,209097.0,79729.0,123.06626561407343,339.8224898624141,647.9026368241246
209097,278,209097,62559,209097.0,79725.0,118.22169263412448,328.96138584305345,629.0322809014622
209097,266,209097,62539,209097.0,79665.0,113.40287132824575,318.14180746378867,610.2531012852663
209097,275,209097,62556,209097.0,79658.0,108.61461493318006,307.37215077323805,591.5814279879835
209097,262,209097,62565,209097.0,79631.0,103.86198252552927,296.66151616901556,573.0345966547493
209097,247,209097,62537,209097.0,79635.0,99.15030301870922,286.0200852765585,554.6308471283196
209108,243,209108,62489,209108.0,79580.0,94.48509478726373,275.45937446101857,536.3894223931254
209108,230,209108,62453,209108.0,79549.0,89.87189491294687,264.99190930423845,518.3305556549067
209108,224,209108,62429,209108.0,79563.0,85.31610108525024,254.63045931439072,500.47523160387834
209108,235,209108,62485,209108.0,79535.0,80.82287859565352,244.38743756157263,482.8450976186066
209108,222,209108,62471,209108.0,79552.0,76.39718891573996,234.27500516383554,465.4627407667566
209108,233,209108,62459,209108.0,79494.0,72.04391540673517,224.30570213332618,448.3520728860856
209118,230,209118,62440,209118.0,79453.0,67.76801314417435,214.49289790560795,431.5384324321227
209118,196,209118,62388,209118.0,79422.0,63.574611867239256,204.85073329811468,415.0482039920512
209118,191,209118,62422,209118.0,79395.0,59.468899875574024,195.39375381162978,398.9082076123025
209118,203,209118,62416,209118.0,79396.0,55.45583323053109,186.13669927397578,383.1452739769868
209118,207,209118,62387,209118.0,79360.0,51.540036387551375,177.09468005984672,367.7861239723767
209118,205,209118,62372,209118.0,79339.0,47.72600135677833,168.2833326413955,352.85735951771136
209128,189,209128,62330,209128.0,79296.0,44.018305967574726,159.7185978054333,338.3853037379999
209128,187,209128,62306,209128.0,79270.0,40.42164062249987,151.41621210030542,324.3956228362608
209128,175,209128,62320,209128.0,79264.0,36.9406899369444,143.39115282445928,310.9128907139603
209128,177,209128,62335,209128.0,79264.0,33.58000267856382,135.6574124642484,297.96037073742997
209128,164,209128,62337,209128.0,79234.0,30.34390449659716,128.22829839806198,285.5601049239716
209128,177,209128,62279,209128.0,79221.0,27.236455318576024,121.11685266732142,273.7330467089422
209139,150,209139,62252,209139.0,79185.0,24.261443179911662,114.33576605172627,262.4989917092206
209139,160,209139,62240,209139.0,79144.0,21.422347572464577,107.89673138692513,251.8762693772026
209139,162,209139,62284,209139.0,79156.0,18.722276237113586,101.80988533206744,241.88127990295186
209139,148,209139,62293,209139.0,79159.0,16.163978497222153,96.08393318580625,232.52820968859712
209139,145,209139,62268,209139.0,79129.0,13.749868249619247,90.72677428615908,223.82914342632097
209139,129,209139,62213,209139.0,79123.0,11.481920935248446,85.74583845733034,215.79424650139276
209149,137,209149,62199,209149.0,79079.0,9.361497028946552,81.14766778955469,208.43167734192915
209149,137,209149,62199,209149.0,79076.0,7.389237693552069,76.93713611577328,201.74725974173253
209149,144,209149,62227,209149.0,79101.0,5.565113503782037,73.11701225763937,195.744188095654
209149,145,209149,62258,209149.0,79095.0,3.8885837202268263,69.68818461068687,190.42311343886703
209149,148,209149,62211,209149.0,79099.0,2.3587750448571683,66.65027579815637,185.78257173341478
209149,140,209149,62215,209149.0,79082.0,0.974617137524703,64.00200786393164,181.81936177375195
209159,129,209159,62183,209159.0,79039.0,-0.2651318630002848,61.74102862015713,178.52860562213988
209159,146,209159,62202,209159.0,79053.0,-1.3619616847284206,59.86353108054789,175.90345524831343
209159,140,209159,62216,209159.0,79094.0,-2.317632268615455,58.36408091981861,173.9348280141901
209159,140,209159,62243,209159.0,79071.0,-3.134081355825117,57.23584838376064,172.6116488220816
209159,133,209159,62241,209159.0,79035.0,-3.8133609438644953,56.47115375467334,171.92126328012193
209159,123,209159,62167,209159.0,79053.0,-4.357697664263071,56.06184089482175,171.84939083966958
209170,117,209170,62174,209170.0,79030.0,-4.76965677767101,55.99896306527547,172.37979032817145
209170,129,209170,62191,209170.0,79072.0,-5.052322692711655,56.27205044112196,173.49412605624542
209170,136,209170,62230,209170.0,79059.0,-5.20933807407318,56.86883386344529,175.17214228159338
209170,130,209170,62247,209170.0,79090.0,-5.244769060409645,57.77572265515135,177.39202924394175
209170,132,209170,62239,209170.0,79054.0,-5.162970515096561,58.97855524796515,180.13076690686393
209170,132,209170,62196,209170.0,79062.0,-4.968556413260593,60.46299772320727,183.3642184267063
209180,121,209180,62192,209180.0,79047.0,-4.666430703407016,62.21429120961383,187.06694778279171
209180,148,209180,62227,209180.0,79095.0,-4.261819806675064,64.21671287213336,191.2120436463228
209180,141,209180,62280,209180.0,79096.0,-3.7602033858629937,66.45351998451989,195.77128422361912
209180,132,209180,62284,209180.0,79113.0,-3.16715940606435,68.90765079513181,200.7156075141825
209180,144,209180,62217,209180.0,79084.0,-2.488313540428088,71.56249060901447,206.01549731318153
209180,138,209180,62227,209180.0,79094.0,-1.729380599353128,74.40184152799475,211.64100459638138
209190,136,209190,62218,209190.0,79083.0,-0.8961763784128465,77.40924816409405,217.56150642671116
209190,141,209190,62264,209190.0,79124.0,0.005361809540367801,80.56753588722529,223.74552309899974
209190,150,209190,62280,209190.0,79130.0,0.9691622960402171,83.85897700587049,230.1608434312418
209190,146,209190,62256,209190.0,79141.0,1.989091005301539,87.26579806724924,236.774908625472
209190,135,209190,62270,209190.0,79150.0,3.059015293904089,90.77047839470598,243.55517848547845
209190,141,209190,62254,209190.0,79140.0,4.172732385821661,94.35567448840095,250.46931914169568
209201,142,209201,62247,209201.0,79146.0,5.323841526633892,98.0039934642441,257.4852092849246
209201,146,209201,62327,209201.0,79181.0,6.505703742448858,101.69787512950751,264.57089344655446
209201,159,209201,62307,209201.0,79199.0,7.711505600745742,105.41991717029697,271.6947687069321
209201,159,209201,62321,209201.0,79187.0,8.934398854904991,109.15352663850125,278.82601395631866
209201,143,209201,62261,209201.0,79186.0,10.167625123811945,112.8832041600467,285.93485798215346
209201,157,209201,62235,209201.0,79169.0,11.404492261517646,116.59407689249498,292.99246071952365
209211,157,209211,62268,209211.0,79206.0,12.638283583984013,120.2710004856897,299.97063123651947
209211,157,209211,62312,209211.0,79198.0,13.862262067013482,123.8980440692554,306.8417274199183
209211,166,209211,62345,209211.0,79194.0,15.069733305796024,127.45888492774469,313.57875041633594
209211,171,209211,62304,209211.0,79220.0,16.254120907696855,130.93764589622913,320.1553938995572
209211,161,209211,62291,209211.0,79201.0,17.409060604610833,134.31926734782803,326.5460429643106
209211,167,209211,62285,209211.0,79205.0,18.52843032414138,137.58915726965716,332.7257659940486
209221,172,209221,62342,209221.0,79229.0,19.60631237745512,140.73274726794983,338.67024366654215
209221,176,209221,62353,209221.0,79262.0,20.637011408229988,143.73563089747728,344.3558605349565
209221,190,209221,62355,209221.0,79255.0,21.615172815162133,146.58419371755468,349.7601340062785
209221,176,209221,62325,209221.0,79238.0,22.53593909539628,149.26607580235645,354.86212530162936
209221,165,209221,62313,209221.0,79231.0,23.39499857275755,151.77006239736505,359.6424263526868
209221,172,209221,62302,209221.0,79254.0,24.188435600299513,154.08557311388003,364.08287104101714
209232,167,209232,62359,209232.0,79254.0,24.91253415661658,156.2022438157577,368.1664125786168
209232,185,209232,62381,209232.0,79269.0,25.563719122553326,158.11008723536668,371.87728094472817
209232,174,209232,62375,209232.0,79254.0,26.138633335542977,159.8001901529601,375.20119629560264
209232,185,209232,62354,209232.0,79256.0,26.63424530317856,161.26528772333776,378.12544255252766
209232,171,209232,62331,209232.0,79259.0,27.047896615986012,162.4997335865787,380.63880365110623
209232,170,209232,62295,209232.0,79252.0,27.377254753492508,163.49895504048177,382.7314944028844
209242,161,209242,62355,209242.0,79274.0,27.62017339379114,164.25880225336078,384.39517132673654
209242,180,209242,62388,209242.0,79285.0,27.774547323286832,164.77542307014255,385.6230905471366
209242,180,209242,62361,209242.0,79262.0,27.838315819573197,165.04586187005359,386.4103948105584
209242,166,209242,62336,209242.0,79251.0,27.809588267060008,165.06860751134144,386.7542444899332
209242,174,209242,62307,209242.0,79227.0,27.686683628252197,164.8434044135204,386.6535903591047
209242,164,209242,62322,209242.0,79216.0,27.468047404247365,164.3706121700026,386.1087298902136
209252,177,209252,62331,209252.0,79228.0,27.15218779910564,163.650763317501,385.1209000752135
209252,193,209252,62374,209252.0,79234.0,26.737738395380056,162.68465519135648,383.6921354450173
209252,177,209252,62333,209252.0,79205.0,26.223661553662865,161.47383014020238,381.82537910358354
209252,164,209252,62328,209252.0,79209.0,25.609388182707114,160.0209098075706,379.5245310091053
209252,169,209252,62303,209252.0,79214.0,24.89470368298783,158.32943129959497,376.7943524559757
209252,166,209252,62331,209252.0,79238.0,24.079550074693184,156.40346240273857,373.6405362562429
209263,173,209263,62341,209263.0,79222.0,23.163964903594376,154.24749559673396,370.0700719804438
209263,177,209263,62376,209263.0,79197.0,22.148152879890034,151.86680893608744,366.09158834319027
209263,166,209263,62303,209263.0,79161.0,21.032599180633966,149.26798806827685,361.71528394823497
209263,157,209263,62282,209263.0,79173.0,19.818096913607395,146.4589515047048,356.95248456252546
209263,164,209263,62256,209263.0,79125.0,18.505640157233376,143.4482482271371,351.8151928837375
209263,168,209263,62278,209263.0,79122.0,17.09634040107104,140.24422639977604,346.31573162464156
209273,156,209273,62291,209273.0,79159.0,15.59146956455206,136.85472050733708,340.4664815523838
209273,161,209273,62271,209273.0,79164.0,13.992508134701836,133.28725260523777,334.280047996336
209273,155,209273,62304,209273.0,79114.0,12.301125527187867,129.54934875413502,327.76979673072515
209273,157,209273,62236,209273.0,79109.0,10.519161428613973,125.64870933130968,320.9500727774732
209273,155,209273,62260,209273.0,79081.0,8.648638421479472,121.5931115487799,313.8359013431913
209273,160,209273,62278,209273.0,79087.0,6.691801784247893,117.3901855885151,306.4426176666088
209283,156,209283,62283,209283.0,79077.0,4.651194494824914,113.04752753321907,298.78572277762237
209283,148,209283,62295,209283.0,79062.0,2.529722841678847,108.57319336412431,290.88092622038033
209283,148,209283,62220,209283.0,79048.0,0.33064780031484275,103.9760577260501,282.74419310198016
209283,137,209283,62210,209283.0,79009.0,-1.9424857770220427,99.26557174017495,274.3916350818832
209283,144,209283,62203,209283.0,78998.0,-4.285923575843029,94.45103088334737,265.8392022863309
209283,135,209283,62217,209283.0,79005.0,-6.695737454299298,89.54101236581596,257.1023395482036
209294,134,209294,62235,209294.0,78995.0,-9.167826467227414,84.54338038374173,248.19589989544124
209294,118,209294,62183,209294.0,78993.0,-11.697952212826284,79.46559588583776,239.13433704756844
209294,127,209294,62201,209294.0,78958.0,-14.28183899011185,74.31482871494211,229.93189716197145
209294,114,209294,62173,209294.0,78961.0,-16.915264026124703,69.09777069444253,220.60262115178358
209294,118,209294,62199,209294.0,78939.0,-19.594091365080885,63.820479292873586,211.16023805920997
209294,114,209294,62193,209294.0,78907.0,-22.314277887875562,58.488462116293306,201.61805021366033
209304,108,209304,62173,209304.0,78914.0,-25.0718677857691,53.106900844381386,191.98875711288628
209304,120,209304,62168,209304.0,78873.0,-27.862969548528625,47.6807493219965,182.2842540228281
209304,95,209304,62155,209304.0,78863.0,-30.683715595862502,42.2146186160801,172.51544940699281
209304,104,209304,62140,209304.0,78864.0,-33.53026539028306,36.71259863219639,162.6920704445658
209304,101,209304,62150,209304.0,78836.0,-36.39886429917281,31.17811125692309,152.8225675878051
209304,102,209304,62155,209304.0,78844.0,-39.28584095503794,25.613898103507836,142.91414617439503
209315,105,209315,62185,209315.0,78852.0,-42.1875128803883,20.022290479485847,132.97289041474542
209315,91,209315,62136,209315.0,78831.0,-45.100089540964746,14.405660296143694,123.00405439266692
209315,90,209315,62111,209315.0,78791.0,-48.01965389662176,8.766594479153454,113.01231345735945
209315,82,209315,62112,209315.0,78797.0,-50.94223471548621,3.1075499548358465,103.00167632121216
209315,85,209315,62082,209315.0,78806.0,-53.86388882928628,-2.569640529830309,92.97531067348905
209315,88,209315,62152,209315.0,78794.0,-56.780708461929336,-8.263960540344328,82.93569703910333
209325,83,209325,62112,209325.0,78784.0,-59.68874161702831,-13.974932131334384,72.88498732849757
209325,67,209325,62086,209325.0,78723.0,-62.58392481401725,-19.702183803127397,62.825138964419295
209325,70,209325,62066,209325.0,78739.0,-65.46214162964938,-25.44548149153053,52.75765249594531
209325,66,209325,62065,209325.0,78710.0,-68.31934039364621,-31.20519022448663,42.683195956210625
209325,63,209325,62097,209325.0,78743.0,-71.15158165321813,-36.982551241311285,32.6015166112324
209325,51,209325,62104,209325.0,78730.0,-73.95504994018113,-42.77943457724757,22.511735191085393
209335,51,209335,62066,209335.0,78687.0,-76.7261210350286,-48.59781801782431,12.412751427443368
209335,61,209335,62062,209335.0,78686.0,-79.46142818705852,-54.43955900911615,2.3033440332790747
209335,50,209335,62038,209335.0,78658.0,-82.15781610348778,-60.30661326638139,-7.818055080908437
209335,52,209335,62087,209335.0,78656.0,-84.81223948133629,-66.20126896986295,-17.953578403518463
209335,43,209335,62070,209335.0,78658.0,-87.42172963211915,-72.12598162292966,-28.105970283099737
209335,41,209335,62041,209335.0,78650.0,-89.98342929881593,-78.08297342215343,-38.27843990330956
209346,43,209346,62046,209346.0,78630.0,-92.49463504989707,-84.07411108871227,-48.47441480216406
209346,31,209346,62014,209346.0,78586.0,-94.95281496329942,-90.10111470822585,-58.69747613329753
209346,34,209346,61994,209346.0,78589.0,-97.35562799605296,-96.1658587200134,-68.95161115077497
209346,33,209346,62015,209346.0,78589.0,-99.70095524004863,-102.2706901191512,-79.24149948150477
209346,33,209346,62040,209346.0,78591.0,-101.98688647585071,-108.41849060705309,-89.57246676450967
209346,37,209346,62017,209346.0,78574.0,-104.21164792775245,-114.61228226815334,-99.95016419672118
209356,39,209356,62028,209356.0,78567.0,-106.37349354412267,-120.85474702482429,-110.38028547105114
209356,25,209356,61973,209356.0,78543.0,-108.47059831288477,-127.14807059342547,-120.86845651985413
209356,17,209356,61987,209356.0,78532.0,-110.50106092694662,-133.494147285325,-131.42026348087245
209356,22,209356,61954,209356.0,78526.0,-112.46303609593802,-139.89494320951727,-142.04132763967925
209356,20,209356,62040,209356.0,78515.0,-114.35483871508843,-146.35262521263752,-152.73730777079282
209356,13,209356,61983,209356.0,78498.0,-116.17494304884538,-152.86916003110989,-163.5138216037044
209366,2,209366,61948,209366.0,78493.0,-117.92200042996906,-159.44582071298927,-174.37638337243965
209366,2,209366,61959,209366.0,78471.0,-119.59496051900986,-166.08328831423324,-185.3303795317196
209366,12,209366,61886,209366.0,78457.0,-121.1931889098451,-172.78219907358516,-196.3810763932023
209366,7,209366,61949,209366.0,78478.0,-122.71644552549826,-179.54364730039237,-207.53361094120572
209366,2,209366,61940,209366.0,78451.0,-124.1647845364646,-186.3693343211556,-218.79280883574677
209366,10,209366,61943,209366.0,78432.0,-125.53850937558175,-193.26120964670952,-230.16291646134096
209377,0,209377,61921,209377.0,78397.0,-126.83816261160634,-200.22100702899456,-241.64758078355726
209377,0,209377,61909,209377.0,78376.0,-128.06451626909302,-207.25012259143563,-253.25014770899395
209377,0,209377,61899,209377.0,78380.0,-129.21859698032756,-214.3497580792885,-264.97401979444584
209377,2,209377,61956,209377.0,78374.0,-130.3017074937463,-221.5209669405201,-276.8227716620537
209377,0,209377,61907,209377.0,78361.0,-131.31539796026942,-228.76431583317537,-288.7999724191519
209377,0,209377,61886,209377.0,78343.0,-132.26142338267678,-236.0794954426363,-300.90896186395605
209387,0,209387,61834,209387.0,78292.0,-133.14171955795484,-243.4655059221884,-313.15284547387205
209387,0,209387,61834,209387.0,78312.0,-133.95838531413122,-250.92136839630564,-325.53474652095747
209387,0,209387,61861,209387.0,78300.0,-134.7136588371505,-258.4467230582979,-338.05799951517645
209387,0,209387,61849,209387.0,78289.0,-135.40989206778178,-266.04184843374736,-350.72601167425637
209387,0,209387,61883,209387.0,78275.0,-136.04952714405988,-273.7072151495738,-363.5419987346778
209387,0,209387,61843,209387.0,78274.0,-136.63507481363214,-281.44296478274276,-376.5088176080445
209397,0,209397,61801,209397.0,78240.0,-137.16909473742407,-289.24869221546567,-389.62884923890147
209397,0,209397,61801,209397.0,78212.0,-137.65417760377747,-297.123762199091,-402.90399633461493
209397,0,209397,61834,209397.0,78205.0,-138.09292897059476,-305.06774730015707,-416.33588695977096
209397,0,209397,61820,209397.0,78209.0,-138.48795475198347,-313.08034775305583,-429.92604918313043
209397,0,209397,61832,209397.0,78191.0,-138.84184826538012,-321.16090049166826,-443.67579971416524
209397,0,209397,61758,209397.0,78147.0,-139.15717875508918,-329.30806829992923,-457.58604278308724
209408,0,209408,61740,209408.0,78135.0,-139.436481308549,-337.5201077785823,-471.6573455182772
209408,0,209408,61754,209408.0,78120.0,-139.68224808238745,-345.79554617678264,-485.89022705808304
209408,0,209408,61764,209408.0,78130.0,-139.8969207564073,-354.13356895752474,-500.28528294427656
209408,0,209408,61816,209408.0,78140.0,-140.08288413500492,-362.53368506670665,-514.8429322919752
209408,0,209408,61774,209408.0,78102.0,-140.24246081713426,-370.9949168302667,-529.5629131930488
209408,0,209408,61747,209408.0,78081.0,-140.37790685774615,-379.5151762605432,-544.4439310906774
209418,0,209418,61698,209418.0,78036.0,-140.49140834562328,-388.09137219046215,-559.4837454840582
209418,0,209418,61707,209418.0,78028.0,-140.58507882466498,-396.72007021653525,-574.679553346721
209418,0,209418,61748,209418.0,78040.0,-140.6609574879194,-405.3979527233632,-590.0282787531152
209418,0,209418,61757,209418.0,78007.0,-140.72100807599224,-414.1215266231542,-605.5264976249564
209418,0,209418,61690,209418.0,77990.0,-140.76711841384758,-422.88642902389194,-621.170196023933
209418,0,209418,61651,209418.0,77955.0,-140.80110052244476,-431.68730232901305,-636.9547405405445
209428,0,209428,61644,209428.0,77933.0,-140.82469124409494,-440.5184938992757,-652.8750932906278
209428,0,209428,61652,209428.0,77930.0,-140.8395533228617,-449.3748053612027,-668.9260591801024
209428,0,209428,61654,209428.0,77916.0,-140.8472768837491,-458.2516704570801,-685.1023531100145
209428,0,209428,61660,209428.0,77894.0,-140.84938125680614,-467.1448749299126,-701.3984690784155
209428,0,209428,61610,209428.0,77851.0,-140.84731709461659,-476.05024357410144,-717.8086063406697
209428,0,209428,61608,209428.0,77841.0,-140.8424687339222,-484.9636527896505,-734.3268430383781
209439,0,209439,61585,209439.0,77826.0,-140.83615675434123,-493.8813566332969,-750.9473915400322
209439,0,209439,61619,209439.0,77821.0,-140.82964068928067,-502.80022984948545,-767.6646564124001
209439,0,209439,61616,209439.0,77804.0,-140.82412184619545,-511.7176042067863,-784.4730689027801
209439,0,209439,61615,209439.0,77765.0,-140.8207461953163,-520.6307812158416,-801.3669126307063
209439,0,209439,61553,209439.0,77745.0,-140.82060728784455,-529.5366827282865,-818.3403612578695
209439,0,209439,61533,209439.0,77709.0,-140.8247491663967,-538.4320705587625,-835.3877364175237
209449,0,209449,61526,209449.0,77714.0,-140.83416923217214,-547.314199638616,-852.503781695645
209449,0,209449,61541,209449.0,77702.0,-140.84982103491353,-556.1813017325813,-869.6837221432413
209449,0,209449,61563,209449.0,77691.0,-140.8726169532346,-565.0325031539263,-886.9230508030213
209449,0,209449,61541,209449.0,77687.0,-140.90343073430392,-573.8673181963532,-904.2171982359994
209449,0,209449,61509,209449.0,77631.0,-140.94309986320252,-582.6852303166156,-921.56129161828
209449,0,209449,61483,209449.0,77612.0,-140.99242773351824,-591.4857759496795,-938.9501998613065
209459,0,209459,61500,209459.0,77597.0,-141.05218559191212,-600.2689569338855,-956.378842653124
209459,0,209459,61552,209459.0,77603.0,-141.12311423049022,-609.0353319457734,-973.8423811036395
209459,0,209459,61542,209459.0,77604.0,-141.20592540185442,-617.785400416213,-991.3360048150106
209459,0,209459,61495,209459.0,77556.0,-141.3013029326878,-626.518778774516,-1008.8544956477693
209459,0,209459,61478,209459.0,77518.0,-141.40990351266865,-635.2339987362732,-1026.3920499888955
209459,0,209459,61438,209459.0,77510.0,-141.53235713640947,-643.9289903857966,-1043.9425519468064
209470,0,209470,61461,209470.0,77494.0,-141.66926717699533,-652.6016854795599,-1061.499905059461
209470,0,209470,61447,209470.0,77494.0,-141.82121007055798,-661.250297837218,-1079.0580503484484
209470,0,209470,61469,209470.0,77474.0,-141.988734592184,-669.8731918396253,-1096.6107296046234
209470,0,209470,61435,209470.0,77446.0,-142.17236070432693,-678.4685596776981,-1114.1512369512307
209470,0,209470,61412,209470.0,77424.0,-142.3725779597888,-687.034265605662,-1131.6723531673756
209470,0,209470,61416,209470.0,77408.0,-142.58984344226906,-695.5680110613442,-1149.166446801984
209480,0,209480,61413,209480.0,77391.0,-142.82457922846464,-704.0675434725168,-1166.6255622017027
209480,0,209480,61440,209480.0,77395.0,-143.07716935675637,-712.5305587196212,-1184.0413692295665
209480,0,209480,61417,209480.0,77387.0,-143.34795628865135,-720.9543074478025,-1201.4049202942886
209480,0,209480,61372,209480.0,77337.0,-143.6372368503836,-729.3352898127575,-1218.7063323390707
209480,0,209480,61361,209480.0,77321.0,-143.94525764342316,-737.6694394473841,-1235.9347199020453
209480,0,209480,61380,209480.0,77312.0,-144.27220991412239,-745.952584270548,-1253.0784058784227
209490,0,209490,61403,209490.0,77321.0,-144.6182238743563,-754.1805245346764,-1270.1249934510788
209490,0,209490,61396,209490.0,77303.0,-144.983362466808,-762.3485461124667,-1287.0610749363766
209490,0,209490,61410,209490.0,77284.0,-145.36761457052796,-770.4507759304643,-1303.8718207958411
209490,0,209490,61343,209490.0,77281.0,-145.7708876445766,-778.4798046901177,-1320.5407163844868
209490,0,209490,61357,209490.0,77248.0,-146.19299980995828,-786.4267834898076,-1337.0494287066972
209490,0,209490,61314,209490.0,77242.0,-146.63367137269526,-794.2818569740035,-1353.3777349116262
209501,0,209501,61384,209501.0,77233.0,-147.09251579378213,-802.0344617657256,-1369.5034807436125
209501,0,209501,61377,209501.0,77220.0,-147.56903011493233,-809.6730695657564,-1385.402460323646
209501,0,209501,61336,209501.0,77196.0,-148.06258485248824,-817.1845513265074,-1401.04823619433
209501,0,209501,61320,209501.0,77180.0,-148.5724133756378,-824.5539055825678,-1416.412058264529
209501,0,209501,61278,209501.0,77150.0,-149.0976007891785,-831.7646488513465,-1431.462927032299
209501,0,209501,61324,209501.0,77160.0,-149.63707234551083,-838.7993707514094,-1446.1676988070544
209511,0,209511,61323,209511.0,77167.0,-150.1895814153447,-845.6398593939036,-1460.4910113259477
209511,0,209511,61346,209511.0,77159.0,-150.7536970517779,-852.2666559487221,-1474.3948871554137
209511,0,209511,61316,209511.0,77113.0,-151.32779118797072,-858.6584396748278,-1487.838289229389
209511,0,209511,61265,209511.0,77099.0,-151.9100255146068,-864.7918025961727,-1500.7770587855825
209511,0,209511,61271,209511.0,77086.0,-152.49833808971172,-870.6416310522839,-1513.1641965556933
209511,0,209511,61307,209511.0,77110.0,-153.09042974020514,-876.1816091860117,-1524.950027229384
209521,0,209521,61322,209521.0,77069.0,-153.68375032179878,-881.3841166390639,-1536.0820200328428
209521,0,209521,61307,209521.0,77053.0,-154.27548491152987,-886.2195840428442,-1546.5045827302492
209521,0,209521,61305,209521.0,77049.0,-154.86254001533916,-890.6559730070092,-1556.1591383546136
209521,0,209521,61251,209521.0,77030.0,-155.44152988166823,-894.6587417894079,-1564.9843063565663
209521,0,209521,61232,209521.0,77004.0,-156.00876302106226,-898.1913017319356,-1572.916028167901
209521,0,209521,61252,209521.0,77004.0,-156.56022904121664,-901.2157126090619,-1579.887758562902
209532,0,209532,61288,209532.0,77011.0,-157.0915859167924,-903.6930149978745,-1585.8306439394487
209532,0,209532,61243,209532.0,76993.0,-157.5981478236378,-905.5829620944113,-1590.673497419042
209532,0,209532,61226,209532.0,76957.0,-158.07487367777415,-906.8437876838155,-1594.342765246195
209532,0,209532,61208,209532.0,76928.0,-158.51635653061763,-907.4325438037458,-1596.7628551057721
209532,0,209532,61238,209532.0,76921.0,-158.91681398339017,-907.3056532748499,-1597.856808496226
209532,0,209532,61261,209532.0,76939.0,-159.27007979549595,-906.4190592254538,-1597.5468966402018
209542,0,209542,61235,209542.0,76941.0,-159.56959687376877,-904.7279224248302,-1595.7548024311127
209542,0,209542,61211,209542.0,76929.0,-159.80841184189558,-902.1864344921219,-1592.4015103269576
209542,0,209542,61203,209542.0,76896.0,-159.97917140194318,-898.7481632933057,-1587.4073478943885
209542,0,209542,61162,209542.0,76858.0,-160.07412071271057,-894.3667498690627,-1580.692507375761
209542,0,209542,61175,209542.0,76852.0,-160.08510402253773,-888.9966811366378,-1572.1779972322752
209542,0,209542,61206,209542.0,76859.0,-160.00356780716038,-882.5938868898156,-1561.7866235135216
209553,0,209553,61190,209553.0,76840.0,-159.82056667613267,-875.1158974539678,-1549.4436717057326
209553,0,209553,61178,209553.0,76815.0,-159.5267723241672,-866.5218184056894,-1535.0774655837765
209553,0,209553,61159,209553.0,76809.0,-159.11248581637363,-856.772637751182,-1518.6201454574687
209553,0,209553,61172,209553.0,76819.0,-158.567653508714,-845.8318567623649,-1500.0085831225815
209553,0,209553,61183,209553.0,76825.0,-157.88188691692702,-833.6660510993742,-1479.185113928053
209553,0,209553,61198,209553.0,76824.0,-157.0444868585879,-820.2451387594953,-1456.098049538874
209563,0,209563,61177,209563.0,76794.0,-156.04447220373493,-805.5425077058744,-1430.702258593638
209563,0,209563,61139,209563.0,76757.0,-154.8706135794726,-789.5354129341953,-1402.9601548765131
209563,0,209563,61164,209563.0,76784.0,-153.51147238300214,-772.2058340585219,-1372.8431045654324
209563,0,209563,61141,209563.0,76809.0,-151.95544546547495,-753.5414521309265,-1340.3327296086632
209563,0,209563,61177,209563.0,76833.0,-150.19081585573983,-733.5363840174131,-1305.4216447053225
209563,0,209563,61202,209563.0,76842.0,-148.20580989827755,-712.1916119801406,-1268.1138308403297
209573,0,209573,61208,209573.0,76871.0,-145.98866118319,-689.5151288843399,-1228.4250665344152
209573,0,209573,61229,209573.0,76867.0,-143.52768164782924,-665.5220033872486,-1186.383536068855
209573,0,209573,61214,209573.0,76914.0,-140.8113402292937,-640.2346400706352,-1142.0305595211619
209573,0,209573,61258,209573.0,76975.0,-137.82834944435166,-613.6832481881905,-1095.4212271479641
209573,0,209573,61321,209573.0,77042.0,-134.5677602681329,-585.9061904525014,-1046.6245907104399
209573,0,209573,61369,209573.0,77099.0,-131.01906567490084,-556.9497939921584,-995.723383644116
209584,0,209584,61391,209584.0,77179.0,-127.17231319310964,-526.8677396123668,-942.8135572277897
209584,0,209584,61425,209584.0,77280.0,-123.01822681248686,-495.7205843845404,-888.0037009064267
209584,0,209584,61476,209584.0,77339.0,-118.54833856276584,-463.575587846726,-831.4142323636498
209584,0,209584,61566,209584.0,77462.0,-113.75513006162561,-430.50645130301814,-773.176438832583
209584,0,209584,61644,209584.0,77574.0,-108.63218430306233,-396.5925471155566,-713.4313738528384
209584,0,209584,61712,209584.0,77684.0,-103.17434792649675,-361.9176598966183,-652.328421079852
