c_ts,c_val,d_ts,d_val,e_ts,e_val,c_val_filtered,d_val_filtered,e_val_filtered
104064.0,14600.0,104064.0,9596.0,104064.0,24586.0,228.99640384956007,137.89051284476432,284.7980209956355
104064.0,14589.0,104064.0,9605.0,104064.0,24583.0,223.3531583629504,135.6500823302726,280.0566394703749
104064.0,14595.0,104064.0,9600.0,104064.0,24564.0,217.49618477178475,133.29556964477675,275.11473514133303
104064.0,14593.0,104064.0,9608.0,104064.0,24565.0,211.43143104800794,130.82765463257107,269.97917798113036
104064.0,14571.0,104064.0,9599.0,104064.0,24555.0,205.1654892511608,128.24768994317074,264.6572397246183
104064.0,14560.0,104064.0,9579.0,104064.0,24542.0,198.70561969362785,125.55776013783426,259.1565499698126
104074.0,14550.0,104074.0,9569.0,104074.0,24536.0,192.05959932970802,122.76054603091399,253.48504409305767
104074.0,14543.0,104074.0,9565.0,104074.0,24524.0,185.23554591131074,119.85904074465974,247.65087642167472
104074.0,14535.0,104074.0,9576.0,104074.0,24532.0,178.24183098635206,116.85634607253559,241.66236923614355
104074.0,14529.0,104074.0,9571.0,104074.0,24522.0,171.08706123904057,113.7556927391469,235.5280701896036
104074.0,14512.0,104074.0,9579.0,104074.0,24504.0,163.7800732589319,110.56061160145109,229.25686120834797
104074.0,14497.0,104074.0,9546.0,104074.0,24484.0,156.32987062818071,107.2750695019309,222.8579344355012
104085.0,14487.0,104085.0,9531.0,104085.0,24470.0,148.74547268396742,103.90337133304072,216.34056612260142
104085.0,14477.0,104085.0,9542.0,104085.0,24465.0,141.03574751793246,100.44983830333236,209.71383590299533
104085.0,14486.0,104085.0,9532.0,104085.0,24466.0,133.20934224831413,96.91856987270937,202.9864753061322
104085.0,14470.0,104085.0,9553.0,104085.0,24455.0,125.2747649163075,93.31347944762196,196.1668978350664
104085.0,14457.0,104085.0,9539.0,104085.0,24448.0,117.24051451410261,89.63850454012237,189.26330104171757
104085.0,14435.0,104085.0,9530.0,104085.0,24425.0,109.11507066016082,85.89780507871893,182.28369259310853
104095.0,14425.0,104095.0,9510.0,104095.0,24396.0,100.90671026504265,82.09576558201752,175.23574089900177
104095.0,14425.0,104095.0,9505.0,104095.0,24410.0,92.62330876261814,78.23678082213165,168.12648039719494
104095.0,14423.0,104095.0,9524.0,104095.0,24411.0,84.27229967793491,74.32504946911574,160.96214647431242
104095.0,14413.0,104095.0,9517.0,104095.0,24417.0,75.86080441715612,70.36461437317791,153.7483583545512
104095.0,14404.0,104095.0,9508.0,104095.0,24387.0,67.39578228031854,66.35958054085914,146.4904494025081
104095.0,14392.0,104095.0,9487.0,104095.0,24381.0,58.884091181439175,62.314203066531874,139.19359859721376
104105.0,14373.0,104105.0,9474.0,104105.0,24361.0,50.332454799814485,58.23270929546737,131.86270633644014
104105.0,14371.0,104105.0,9473.0,104105.0,24377.0,41.74736427037348,54.118996741485475,124.50224105793228
104105.0,14365.0,104105.0,9493.0,104105.0,24377.0,33.13500323743861,49.97646768363205,117.11629733978486
104105.0,14346.0,104105.0,9483.0,104105.0,24355.0,24.501258795315067,45.80816018957269,109.708853189579
104105.0,14342.0,104105.0,9474.0,104105.0,24335.0,15.85173311725623,41.617007484779165,102.28392282775147
104105.0,14327.0,104105.0,9459.0,104105.0,24325.0,7.191698915866368,37.40592403178029,94.84542269810277
104116.0,14321.0,104116.0,9453.0,104116.0,24320.0,-1.4739468082069038,33.17767370037129,87.39694282707171
104116.0,14314.0,104116.0,9465.0,104116.0,24318.0,-10.140696498779562,28.934722305479653,79.94165815585984
104116.0,14318.0,104116.0,9463.0,104116.0,24317.0,-18.80438103940918,24.679270723562468,72.48241210729134
104116.0,14300.0,104116.0,9448.0,104116.0,24295.0,-27.46103594734626,20.41342803168351,65.02186300098492
104116.0,14279.0,104116.0,9441.0,104116.0,24288.0,-36.10680835165965,16.139289844367596,57.56253739470134
104116.0,14274.0,104116.0,9430.0,104116.0,24283.0,-44.73803642864519,11.858838805465496,50.10676800181136
104126.0,14265.0,104126.0,9432.0,104126.0,24274.0,-53.35140023523826,7.573802755587479,42.65665371339594
104126.0,14262.0,104126.0,9433.0,104126.0,24264.0,-61.9439679968408,3.285606099991611,35.21408819286813
104126.0,14260.0,104126.0,9426.0,104126.0,24258.0,-70.51311772175598,-1.0045613951079133,27.780786142576858
104126.0,14246.0,104126.0,9413.0,104126.0,24251.0,-79.05640304675654,-5.295667706374928,20.358299083446695
104126.0,14226.0,104126.0,9412.0,104126.0,24243.0,-87.57147673075755,-9.586864902086518,12.948052968593686
104126.0,14212.0,104126.0,9411.0,104126.0,24226.0,-96.05617711200935,-13.877558059019862,5.551377222139024
104136.0,14209.0,104136.0,9418.0,104136.0,24221.0,-104.50871284738653,-18.167377139621266,-1.8305274622600791
104136.0,14203.0,104136.0,9422.0,104136.0,24220.0,-112.92776589361313,-22.45600530531061,-9.196636062869686
104136.0,14197.0,104136.0,9413.0,104136.0,24219.0,-121.31245005438672,-26.742936535360457,-16.546043577194325
104136.0,14198.0,104136.0,9394.0,104136.0,24194.0,-129.662191921412,-31.027330534230316,-23.87783109609802
104136.0,14179.0,104136.0,9373.0,104136.0,24183.0,-137.9765990008857,-35.308118748835795,-31.191041843143466
104136.0,14157.0,104136.0,9374.0,104136.0,24174.0,-146.25541825741288,-39.58431497744189,-38.48482387531942
104147.0,14178.0,104147.0,9387.0,104147.0,24175.0,-154.49861949411797,-43.85525537740176,-45.75856139050268
104147.0,14161.0,104147.0,9380.0,104147.0,24163.0,-162.7063931130641,-48.120551364869385,-53.01186312884812
104147.0,14151.0,104147.0,9382.0,104147.0,24165.0,-170.87898535863928,-52.379866733720775,-60.24446253063047
104147.0,14142.0,104147.0,9356.0,104147.0,24153.0,-179.01659567391312,-56.6327800689655,-67.45610656803291
104147.0,14125.0,104147.0,9345.0,104147.0,24123.0,-187.11941913782493,-60.878872104565346,-74.64651016451666
104147.0,14121.0,104147.0,9351.0,104147.0,24116.0,-195.18773684071755,-65.11796518591524,-81.81549358790204
104157.0,14108.0,104157.0,9365.0,104157.0,24121.0,-203.22199550538573,-69.35023557692946,-88.96321378368566
104157.0,14115.0,104157.0,9354.0,104157.0,24128.0,-211.22282575302188,-73.57604076811265,-96.0901901450381
104157.0,14105.0,104157.0,9351.0,104157.0,24115.0,-219.19095448018896,-77.79566820177061,-103.19705995790326
104157.0,14099.0,104157.0,9339.0,104157.0,24102.0,-227.1270518042113,-82.00924218141361,-110.2843286159005
104157.0,14073.0,104157.0,9334.0,104157.0,24074.0,-235.0316501700937,-86.21677884034901,-117.35235338788277
104157.0,14070.0,104157.0,9319.0,104157.0,24077.0,-242.90522869122373,-90.41830012290637,-124.40154453483223
104167.0,14068.0,104167.0,9321.0,104167.0,24079.0,-250.74835545131435,-94.61396630312626,-131.43254091929555
104167.0,14070.0,104167.0,9331.0,104167.0,24066.0,-258.56168942912007,-98.80413799645237,-138.44616986551682
104167.0,14054.0,104167.0,9337.0,104167.0,24065.0,-266.34582988755886,-102.98924218982819,-145.4432964852757
104167.0,14038.0,104167.0,9312.0,104167.0,24045.0,-274.10120950985515,-107.16951918276573,-152.42474255700677
104167.0,14030.0,104167.0,9295.0,104167.0,24039.0,-281.8281567368896,-111.34495398641394,-159.3913093369032
104167.0,14018.0,104167.0,9301.0,104167.0,24033.0,-289.52704027370424,-115.51548931294613,-166.34385166108086
104178.0,14010.0,104178.0,9299.0,104178.0,24040.0,-297.19837837968663,-119.68123076402992,-173.28328593930377
104178.0,14010.0,104178.0,9311.0,104178.0,24026.0,-304.84288459904263,-123.84240744488719,-180.21046118519206
104178.0,14000.0,104178.0,9294.0,104178.0,24014.0,-312.46143777406024,-127.99917299792887,-187.12601043247798
104178.0,13998.0,104178.0,9286.0,104178.0,23998.0,-320.0549965577461,-132.15147168409013,-194.03034441086555
104178.0,13976.0,104178.0,9262.0,104178.0,23984.0,-327.62453934907586,-136.29911926435344,-200.9237935345248
104178.0,13975.0,104178.0,9278.0,104178.0,23994.0,-335.1710923577433,-140.44202987727172,-207.80676057821864
104188.0,13975.0,104188.0,9272.0,104188.0,23988.0,-342.69578505733375,-144.58034404790862,-214.6797160627251
104188.0,13968.0,104188.0,9289.0,104188.0,23975.0,-350.1998034778914,-148.71431414719086,-221.54303836272197
104188.0,13959.0,104188.0,9266.0,104188.0,23949.0,-357.6842635649241,-152.8440606275882,-228.39693327634149
104188.0,13941.0,104188.0,9234.0,104188.0,23957.0,-365.15015432462855,-156.96948842163843,-235.24155649361194
104188.0,13932.0,104188.0,9248.0,104188.0,23934.0,-372.59841548068647,-161.09052742201527,-242.07717099009466
104188.0,13938.0,104188.0,9254.0,104188.0,23941.0,-380.03005247368094,-165.20740360643222,-248.9042017286232
104198.0,13918.0,104198.0,9257.0,104198.0,23943.0,-387.4461511610329,-169.3205765399443,-255.72318563819312
104198.0,13918.0,104198.0,9259.0,104198.0,23930.0,-394.847826589658,-173.43044645834408,-262.53461078830435
104198.0,13909.0,104198.0,9234.0,104198.0,23911.0,-402.2362049704653,-177.53713245548064,-269.33877021576495
104198.0,13899.0,104198.0,9233.0,104198.0,23902.0,-409.61241858384074,-181.640473544029,-276.135806454967
104198.0,13896.0,104198.0,9222.0,104198.0,23897.0,-416.977595368364,-185.740197947044,-282.9258718865614
104198.0,13884.0,104198.0,9225.0,104198.0,23897.0,-424.3328553004372,-189.8360744431488,-289.7092045530328
104209.0,13889.0,104209.0,9228.0,104209.0,23885.0,-431.6792872221323,-193.9279324455038,-296.48607086812774
104209.0,13877.0,104209.0,9220.0,104209.0,23873.0,-439.0178777514256,-198.0155670124435,-303.2566925904997
104209.0,13857.0,104209.0,9206.0,104209.0,23877.0,-446.3494468825855,-202.09865224387005,-310.0212390043461
104209.0,13852.0,104209.0,9193.0,104209.0,23857.0,-453.67470559877535,-206.17680675550247,-316.77982561470833
104209.0,13843.0,104209.0,9198.0,104209.0,23849.0,-460.9944010682402,-210.24977683855258,-323.5325132830483
104209.0,13852.0,104209.0,9202.0,104209.0,23844.0,-468.30937536205016,-214.31753494504682,-330.279366488895
104219.0,13845.0,104219.0,9209.0,104219.0,23836.0,-475.62045469824307,-218.38016601312802,-337.0205100056039
104219.0,13830.0,104219.0,9194.0,104219.0,23834.0,-482.92826835007213,-222.437638773905,-343.75611315970536
104219.0,13821.0,104219.0,9174.0,104219.0,23815.0,-490.23317730594556,-226.48970083887008,-350.4863482173532
104219.0,13806.0,104219.0,9175.0,104219.0,23806.0,-497.5353571849663,-230.53601697010055,-357.2114119379692
104219.0,13798.0,104219.0,9169.0,104219.0,23800.0,-504.83494028274913,-234.57638459656124,-363.93162445722413
104219.0,13791.0,104219.0,9185.0,104219.0,23807.0,-512.1321398404461,-238.61079183532837,-370.6474820474337
104230.0,13788.0,104230.0,9191.0,104230.0,23804.0,-519.427309987153,-242.6392431472853,-377.35954232394266
104230.0,13781.0,104230.0,9169.0,104230.0,23786.0,-526.7209251598526,-246.66147000635948,-384.0682187860273
104230.0,13772.0,104230.0,9145.0,104230.0,23771.0,-534.0135255365245,-250.67683014328128,-390.77370121581885
104230.0,13763.0,104230.0,9149.0,104230.0,23765.0,-541.3056932279984,-254.684543105506,-397.4760707309406
104230.0,13762.0,104230.0,9139.0,104230.0,23750.0,-548.5980612367601,-258.6839990698349,-404.17546580191936
104230.0,13751.0,104230.0,9142.0,104230.0,23745.0,-555.8913025488816,-262.67488796603675,-410.8721980457502
104240.0,13751.0,104240.0,9141.0,104240.0,23742.0,-563.1860851743885,-266.65717928561344,-417.566813743744
104240.0,13733.0,104240.0,9114.0,104240.0,23745.0,-570.4830315667894,-270.63108615141465,-424.2600606004046
104240.0,13719.0,104240.0,9119.0,104240.0,23721.0,-577.7827471607499,-274.59714721499347,-430.952773893918
104240.0,13719.0,104240.0,9132.0,104240.0,23710.0,-585.0859382457782,-278.55635554479704,-437.6458459176549
104240.0,13713.0,104240.0,9134.0,104240.0,23725.0,-592.3935038046369,-282.510075452481,-444.34031309102625
104240.0,13714.0,104240.0,9130.0,104240.0,23700.0,-599.7064960609777,-286.4597573459307,-451.037362388047
104250.0,13686.0,104250.0,9116.0,104250.0,23707.0,-607.0260347045511,-290.406725793992,-457.7382307437655
104250.0,13694.0,104250.0,9107.0,104250.0,23694.0,-614.3533184455365,-294.3521844430577,-464.44413501517454
104250.0,13675.0,104250.0,9096.0,104250.0,23672.0,-621.6897075547154,-298.29737703236725,-471.15626483872586
104250.0,13663.0,104250.0,9092.0,104250.0,23667.0,-629.0367943786897,-302.24378304498566,-477.87587882088746
104250.0,13675.0,104250.0,9112.0,104250.0,23672.0,-636.3964638098871,-306.1932123637391,-484.60444938336616
104250.0,13665.0,104250.0,9116.0,104250.0,23673.0,-643.7708647355796,-310.1476592479089,-491.34364170902904
104261.0,13658.0,104261.0,9107.0,104261.0,23658.0,-651.1622600271938,-314.108968191495,-498.09511662420414
104261.0,13643.0,104261.0,9078.0,104261.0,23633.0,-658.572927018688,-318.0786313497665,-504.86041640231883
104261.0,13636.0,104261.0,9074.0,104261.0,23625.0,-666.0051994700283,-322.05793603835525,-511.64110342964216
104261.0,13634.0,104261.0,9072.0,104261.0,23638.0,-673.4615517809782,-326.04828619271404,-518.4389776438879
104261.0,13635.0,104261.0,9077.0,104261.0,23627.0,-680.9445978859264,-330.05137799662253,-525.2560792562181
104261.0,13641.0,104261.0,9093.0,104261.0,23619.0,-688.4569460632533,-334.0691102337005,-532.094507055371
104271.0,13616.0,104271.0,9065.0,104271.0,23589.0,-696.0009824312091,-338.1033426364023,-538.9563436454355
104271.0,13605.0,104271.0,9062.0,104271.0,23599.0,-703.5787813732122,-342.15576525712106,-545.8437927847053
104271.0,13588.0,104271.0,9044.0,104271.0,23585.0,-711.1922440027603,-346.22802653421746,-552.7593324579859
104271.0,13599.0,104271.0,9058.0,104271.0,23593.0,-718.8432986557342,-350.32194798204455,-559.7057035004817
104271.0,13584.0,104271.0,9047.0,104271.0,23580.0,-726.5339488335607,-354.4395987939316,-566.6857741684759
104271.0,13579.0,104271.0,9063.0,104271.0,23587.0,-734.266190795504,-358.5831999430133,-573.7023797331788
104281.0,13558.0,104281.0,9047.0,104281.0,23559.0,-742.0419828706055,-362.7549487826462,-580.758195696143
104281.0,13548.0,104281.0,9036.0,104281.0,23556.0,-749.8633534450395,-366.956901689728,-587.8557254858556
104281.0,13542.0,104281.0,9038.0,104281.0,23542.0,-757.7325767308213,-371.1910097962663,-594.9974126688805
104281.0,13545.0,104281.0,9048.0,104281.0,23547.0,-765.6522725649862,-375.45917620181694,-602.185742005829
104281.0,13547.0,104281.0,9035.0,104281.0,23544.0,-773.6253289794366,-379.76316056475093,-609.4232038028617
104281.0,13540.0,104281.0,9035.0,104281.0,23536.0,-781.6546859087923,-384.104430174133,-616.7121396934865
104292.0,13536.0,104292.0,9030.0,104292.0,23526.0,-789.7431155348613,-388.48410315485773,-624.0545972668143
104292.0,13503.0,104292.0,9005.0,104292.0,23508.0,-797.8931347646784,-392.9029837597812,-631.4523027500437
104292.0,13504.0,104292.0,9014.0,104292.0,23509.0,-806.1071205838372,-397.3616917362929,-638.9067395380109
104292.0,13507.0,104292.0,9019.0,104292.0,23486.0,-814.3874905903024,-401.8607805069765,-646.4192434708517
104292.0,13504.0,104292.0,9015.0,104292.0,23498.0,-822.7366936425622,-406.40066403318104,-653.9910581474891
104292.0,13486.0,104292.0,8996.0,104292.0,23495.0,-831.1570368524535,-410.9814596014193,-661.6232895206555
104302.0,13475.0,104302.0,8982.0,104302.0,23482.0,-839.6506058567364,-415.60301365091374,-669.3167314030575
104302.0,13465.0,104302.0,8976.0,104302.0,23465.0,-848.2193511475898,-420.2651328991195,-677.0717257725314
104302.0,13459.0,104302.0,8991.0,104302.0,23453.0,-856.8652048051679,-424.96778601722787,-684.8882157025491
104302.0,13464.0,104302.0,8980.0,104302.0,23460.0,-865.5901020976587,-429.7110795596446,-692.7658775795792
104302.0,13462.0,104302.0,8988.0,104302.0,23456.0,-874.3958552698616,-434.49507493135997,-700.7041120241634
104302.0,13448.0,104302.0,8986.0,104302.0,23425.0,-883.2839381470098,-439.3196001944295,-708.7019137641172
104312.0,13426.0,104312.0,8965.0,104312.0,23421.0,-892.2553697031692,-444.1841174259031,-716.7578734451289
104312.0,13419.0,104312.0,8961.0,104312.0,23416.0,-901.3108098756801,-449.0877286070112,-724.8703397437463
104312.0,13409.0,104312.0,8964.0,104312.0,23406.0,-910.4507461688596,-454.0293018477043,-733.0375111242763
104312.0,13414.0,104312.0,8969.0,104312.0,23393.0,-919.6755787706423,-459.0075034612867,-741.2574208656212
104312.0,13402.0,104312.0,8954.0,104312.0,23401.0,-928.9855475011659,-464.02066914308966,-749.5279166023308
104312.0,13396.0,104312.0,8963.0,104312.0,23374.0,-938.3805936716524,-469.06667214751997,-757.8466182548983
104323.0,13382.0,104323.0,8915.0,104323.0,23376.0,-947.8602782700275,-474.14292410767615,-766.2108787045919
104323.0,13383.0,104323.0,8944.0,104323.0,23364.0,-957.4237665947273,-479.246547016813,-774.6177978836266
104323.0,13359.0,104323.0,8933.0,104323.0,23356.0,-967.0698226871267,-484.3745403905379,-783.0642296555349
104323.0,13367.0,104323.0,8947.0,104323.0,23349.0,-976.7968095418942,-489.5236988321614,-791.5467593191897
104323.0,13357.0,104323.0,8921.0,104323.0,23347.0,-986.6026627556524,-494.69038533224176,-800.0616680287586
104323.0,13347.0,104323.0,8915.0,104323.0,23343.0,-996.4847911216666,-499.870451823044,-808.6048437669756
104333.0,13334.0,104333.0,8906.0,104333.0,23326.0,-1006.4399912577597,-505.05936781801387,-817.1716572072531
104333.0,13326.0,104333.0,8899.0,104333.0,23307.0,-1016.4644552765917,-510.2523994195604,-825.7569280696111
104333.0,13330.0,104333.0,8919.0,104333.0,23327.0,-1026.553784582023,-515.4446728951737,-834.3549922396994
104333.0,13329.0,104333.0,8918.0,104333.0,23312.0,-1036.7028783732503,-520.6310217888511,-842.959657328821
104333.0,13306.0,104333.0,8912.0,104333.0,23300.0,-1046.9057253320839,-525.8056764153628,-851.5640043614644
104333.0,13294.0,104333.0,8887.0,104333.0,23292.0,-1057.155303055106,-530.9620650620084,-860.1602705437886
104343.0,13281.0,104343.0,8874.0,104343.0,23272.0,-1067.4436724454856,-536.0929213632812,-868.739892263483
104343.0,13282.0,104343.0,8879.0,104343.0,23275.0,-1077.7621053930563,-541.1905725896006,-877.2935972679317
104343.0,13269.0,104343.0,8888.0,104343.0,23274.0,-1088.1010942190824,-546.2470933827988,-885.8114268980753
104343.0,13266.0,104343.0,8885.0,104343.0,23262.0,-1098.4502694752537,-551.2541754299727,-894.2826239191664
104343.0,13255.0,104343.0,8877.0,104343.0,23254.0,-1108.798311400635,-556.2028873726388,-902.6954894815526
104343.0,13236.0,104343.0,8852.0,104343.0,23247.0,-1119.1329059652567,-561.08358830514,-911.0373269366752
104354.0,13229.0,104354.0,8860.0,104354.0,23220.0,-1129.4407863405113,-565.8860639585351,-919.2944688404469
104354.0,13234.0,104354.0,8856.0,104354.0,23227.0,-1139.7077954346983,-570.599693627669,-927.4523774359416
104354.0,13205.0,104354.0,8866.0,104354.0,23213.0,-1149.9188565936238,-575.2134356802204,-935.495742155276
104354.0,13224.0,104354.0,8847.0,104354.0,23212.0,-1160.0578974453604,-579.7156744892113,-943.4084714006449
104354.0,13199.0,104354.0,8833.0,104354.0,23191.0,-1170.107767851216,-584.0941558032241,-951.1736438585482
104354.0,13186.0,104354.0,8825.0,104354.0,23181.0,-1180.0501605780732,-588.3361364006568,-958.7735473619227
104364.0,13181.0,104364.0,8831.0,104364.0,23173.0,-1189.8656364324054,-592.4286067625962,-966.1898098943827
104364.0,13174.0,104364.0,8820.0,104364.0,23161.0,-1199.5337058779128,-596.3583848024259,-973.4035302171108
104364.0,13173.0,104364.0,8837.0,104364.0,23176.0,-1209.0328139618427,-600.1120669054085,-980.3953196677094
104364.0,13161.0,104364.0,8824.0,104364.0,23160.0,-1218.3402393305782,-603.6758994400657,-987.1452051490427
104364.0,13137.0,104364.0,8809.0,104364.0,23145.0,-1227.4320395730467,-607.035672361957,-993.6324890509626
104364.0,13135.0,104364.0,8813.0,104364.0,23134.0,-1236.2831448119728,-610.1767689206431,-999.8357670997696
104374.0,13125.0,104374.0,8802.0,104374.0,23120.0,-1244.8675193667095,-613.0843091936906,-1005.7331128993897
104374.0,13125.0,104374.0,8801.0,104374.0,23129.0,-1253.1582283749708,-615.7432482823683,-1011.3022558150458
104374.0,13124.0,104374.0,8809.0,104374.0,23121.0,-1261.1273778341836,-618.1384154826065,-1016.5206193412705
104374.0,13099.0,104374.0,8801.0,104374.0,23106.0,-1268.7460200002188,-620.2544827747055,-1021.3652591241554
104374.0,13094.0,104374.0,8786.0,104374.0,23098.0,-1275.9841707527999,-622.0759258575044,-1025.8128814785898
104374.0,13088.0,104374.0,8781.0,104374.0,23081.0,-1282.81095807584,-623.5871320245647,-1029.8400119479716
104385.0,13067.0,104385.0,8782.0,104385.0,23081.0,-1289.1947751256284,-624.7726209794478,-1033.4232215665138
104385.0,13070.0,104385.0,8790.0,104385.0,23081.0,-1295.103418644778,-625.6171807682151,-1036.539296228419
104385.0,13050.0,104385.0,8787.0,104385.0,23074.0,-1300.5042440962989,-626.1058404027898,-1039.165287183781
104385.0,13050.0,104385.0,8780.0,104385.0,23069.0,-1305.364314271209,-626.2237970420389,-1041.2785101931386
104385.0,13034.0,104385.0,8765.0,104385.0,23055.0,-1309.6505505166551,-625.9564682065536,-1042.8566134809598
104385.0,13040.0,104385.0,8755.0,104385.0,23036.0,-1313.3298815749679,-625.2897342630579,-1043.8777779549373
104395.0,13026.0,104395.0,8762.0,104395.0,23052.0,-1316.3693526493632,-624.210270460449,-1044.3210119599466
104395.0,13031.0,104395.0,8767.0,104395.0,23050.0,-1318.736199810128,-622.7057706452806,-1044.1663469913456
104395.0,13036.0,104395.0,8777.0,104395.0,23048.0,-1320.3978887807448,-620.7649598744674,-1043.3948318339078
104395.0,13009.0,104395.0,8754.0,104395.0,23042.0,-1321.322127256212,-618.3775238156561,-1041.9884998099992
104395.0,13014.0,104395.0,8763.0,104395.0,23034.0,-1321.4769813210237,-615.5341758839228,-1039.9304675983758
104395.0,13002.0,104395.0,8754.0,104395.0,23026.0,-1320.8311415290382,-612.226880659772,-1037.205156083684
104405.0,13014.0,104405.0,8772.0,104405.0,23050.0,-1319.3541737283595,-608.4490517509466,-1033.7985244980591
104405.0,13015.0,104405.0,8773.0,104405.0,23038.0,-1317.0166362393413,-604.1956069789686,-1029.6981645523158
104405.0,13012.0,104405.0,8798.0,104405.0,23045.0,-1313.79010281656,-599.4628811013936,-1024.8932853635683
104405.0,13017.0,104405.0,8774.0,104405.0,23037.0,-1309.6472036481928,-594.2484832536866,-1019.3747757601855
104405.0,12994.0,104405.0,8777.0,104405.0,23041.0,-1304.5617763759328,-588.5513036242908,-1013.1353827608691
104405.0,12992.0,104405.0,8783.0,104405.0,23047.0,-1298.5091887270578,-582.3717463395237,-1006.1699134277947
104416.0,13009.0,104416.0,8816.0,104416.0,23071.0,-1291.466766814904,-575.7119194364549,-998.4753449721968
104416.0,13021.0,104416.0,8808.0,104416.0,23075.0,-1283.4140668135665,-568.575549180221,-990.0507623285802
104416.0,13023.0,104416.0,8828.0,104416.0,23095.0,-1274.3328956189669,-560.9677785299455,-980.8971900766037
104416.0,13024.0,104416.0,8829.0,104416.0,23084.0,-1264.2073118565568,-552.8950661705759,-971.017474565856
104416.0,13026.0,104416.0,8829.0,104416.0,23088.0,-1253.023789954343,-544.3651940389643,-960.4163416797612
104416.0,13059.0,104416.0,8850.0,104416.0,23109.0,-1240.7714506532698,-535.3873426592519,-949.1006099061327
104426.0,13082.0,104426.0,8865.0,104426.0,23144.0,-1227.4421114935865,-525.972132847568,-937.0792974978345
104426.0,13082.0,104426.0,8877.0,104426.0,23150.0,-1213.0301171507294,-516.1315282538094,-924.3634332706254
104426.0,13114.0,104426.0,8891.0,104426.0,23160.0,-1197.5321947525943,-505.8786773209676,-910.9657791881604
104426.0,13104.0,104426.0,8901.0,104426.0,23166.0,-1180.9474679240466,-495.2278035553734,-896.9007557924238
104426.0,13120.0,104426.0,8902.0,104426.0,23178.0,-1163.277611447106,-484.1941720140072,-882.1845680412354
104426.0,13138.0,104426.0,8932.0,104426.0,23222.0,-1144.5271242977267,-472.79412142853045,-866.8353145451438
104436.0,13180.0,104436.0,8969.0,104436.0,23237.0,-1124.7035327920435,-461.0449975494992,-850.8728692093382
104436.0,13195.0,104436.0,8946.0,104436.0,23263.0,-1103.8173395317729,-448.9648920668424,-834.3185670731552
104436.0,13232.0,104436.0,8980.0,104436.0,23263.0,-1081.8818211105165,-436.572461771016,-817.1949547637025
104436.0,13231.0,104436.0,8987.0,104436.0,23284.0,-1058.9128887523425,-423.88696498184527,-799.5257647466283
104436.0,13266.0,104436.0,8996.0,104436.0,23312.0,-1034.9291207305516,-410.9283021496481,-781.3360094327439
104436.0,13297.0,104436.0,9030.0,104436.0,23339.0,-1009.9518830745866,-397.7169871490924,-762.6519717602472
104447.0,13325.0,104447.0,9045.0,104447.0,23374.0,-984.0053477289149,-384.274042548845,-743.5010023970906
104447.0,13367.0,104447.0,9067.0,104447.0,23396.0,-957.1163730642173,-370.6207777184077,-723.9112077081843
104447.0,13388.0,104447.0,9072.0,104447.0,23402.0,-929.3143410695172,-356.7785765863482,-703.9111874766157
104447.0,13413.0,104447.0,9072.0,104447.0,23418.0,-900.6310495149999,-342.7688582812825,-683.5299914610129
104447.0,13456.0,104447.0,9100.0,104447.0,23431.0,-871.1007127710909,-328.61321603293334,-662.7972979081213
104447.0,13495.0,104447.0,9126.0,104447.0,23472.0,-840.7599468034783,-314.33352317025515,-641.7436066561859
104457.0,13532.0,104457.0,9138.0,104457.0,23515.0,-809.6476097382979,-299.9518233803246,-620.4002009939163
104457.0,13579.0,104457.0,9173.0,104457.0,23527.0,-777.8045595443317,-285.49009963352677,-598.7988307396222
104457.0,13604.0,104457.0,9159.0,104457.0,23560.0,-745.2734206633361,-270.9700890302057,-576.9713684925041
104457.0,13643.0,104457.0,9182.0,104457.0,23580.0,-712.0984270702165,-256.4132602326707,-554.9496343295679
104457.0,13676.0,104457.0,9201.0,104457.0,23591.0,-678.3253768070315,-241.8409386110298,-532.7653433942793
104457.0,13730.0,104457.0,9237.0,104457.0,23624.0,-644.001601440162,-227.2743315116579,-510.45013891746225
104468.0,13773.0,104468.0,9249.0,104468.0,23662.0,-609.1758113412122,-212.73431331971014,-488.0356145257189
104468.0,13814.0,104468.0,9259.0,104468.0,23697.0,-573.8978172801869,-198.24115985840513,-465.55313862821873
104468.0,13858.0,104468.0,9264.0,104468.0,23699.0,-538.2182542462509,-183.81447024822103,-443.03355271175354
104468.0,13894.0,104468.0,9285.0,104468.0,23729.0,-502.1883827832454,-169.4732796160148,-420.50703394312046
104468.0,13937.0,104468.0,9304.0,104468.0,23755.0,-465.8599560797941,-155.23616976348364,-398.00315548186757
104468.0,13993.0,104468.0,9326.0,104468.0,23787.0,-429.2850924637389,-141.12123753917786,-375.5509006775615
104478.0,14022.0,104478.0,9352.0,104478.0,23806.0,-392.5160807921865,-127.14593245280469,-353.1785431709718
104478.0,14073.0,104478.0,9342.0,104478.0,23816.0,-355.6051696637536,-113.3268782973567,-330.9135518317757
104478.0,14106.0,104478.0,9366.0,104478.0,23856.0,-318.604429824577,-99.67984415836247,-308.78262282414596
104478.0,14152.0,104478.0,9368.0,104478.0,23875.0,-281.5656658123936,-86.21987843611231,-286.81171041350666
104478.0,14199.0,104478.0,9403.0,104478.0,23898.0,-244.54031848498892,-72.96141918510864,-265.0259504133109
104478.0,14250.0,104478.0,9415.0,104478.0,23940.0,-207.57929604064168,-59.91824266761188,-243.44953816407076
104488.0,14275.0,104488.0,9446.0,104488.0,23955.0,-170.73274400443677,-47.10326179456251,-222.10556225273797
104488.0,14326.0,104488.0,9443.0,104488.0,23973.0,-134.04988811846283,-34.528289359861674,-201.01582354370498
104488.0,14354.0,104488.0,9446.0,104488.0,23983.0,-97.57899100700297,-22.20394576106645,-180.2008047168307
104488.0,14405.0,104488.0,9452.0,104488.0,24014.0,-61.367329951413694,-10.139809984655528,-159.67979769826445
104488.0,14449.0,104488.0,9471.0,104488.0,24025.0,-25.461117306088454,1.6553241045805862,-139.47102034778868
104488.0,14506.0,104488.0,9501.0,104488.0,24060.0,10.09470273802549,13.173343496896337,-119.59164082437508
104499.0,14542.0,104499.0,9517.0,104499.0,24075.0,45.25678456459809,24.406975386159843,-100.05772724935048
104499.0,14576.0,104499.0,9498.0,104499.0,24094.0,79.98369649025767,35.35001612045119,-80.88416865363001
104499.0,14603.0,104499.0,9516.0,104499.0,24101.0,114.23605450669447,45.997306196281215,-62.08466584779205
104499.0,14647.0,104499.0,9511.0,104499.0,24125.0,147.976479798715,56.34445149997657,-43.671838274656125
104499.0,14685.0,104499.0,9548.0,104499.0,24164.0,181.16955333453666,66.3875904781508,-25.657304735998423
104499.0,14736.0,104499.0,9567.0,104499.0,24179.0,213.78191040404283,76.12342392187998,-8.051561517708137
104509.0,14749.0,104509.0,9566.0,104509.0,24179.0,245.78243173432065,85.54946701731325,9.136223066030539
104509.0,14779.0,104509.0,9565.0,104509.0,24204.0,277.1423238237945,94.66422425967494,25.898220802432434
104509.0,14821.0,104509.0,9577.0,104509.0,24214.0,307.8350126059556,103.46709708241173,42.22779506315055
104509.0,14856.0,104509.0,9576.0,104509.0,24240.0,337.83606589479655,111.95818210254834,58.119410460328936
104509.0,14899.0,104509.0,9604.0,104509.0,24260.0,367.1233033278867,120.1381502352391,73.56866363034317
104509.0,14914.0,104509.0,9633.0,104509.0,24272.0,395.67698329818813,128.00832000602867,88.57238675883843
104519.0,14946.0,104519.0,9620.0,104519.0,24282.0,423.47988546183933,135.57093718229595,103.1287228063469
104519.0,14957.0,104519.0,9618.0,104519.0,24286.0,450.5172226829991,142.82936724200664,117.23707337818905
104519.0,14988.0,104519.0,9603.0,104519.0,24298.0,476.77644369117115,149.78791728765128,130.89792739794382
104519.0,15021.0,104519.0,9633.0,104519.0,24321.0,502.2470524079897,156.45144919779455,144.11268596145635
104519.0,15045.0,104519.0,9652.0,104519.0,24330.0,526.9205576854456,162.8251906496148,156.88360680785956
104519.0,15080.0,104519.0,9650.0,104519.0,24348.0,550.7905416593001,168.91488754316907,169.21385420092736
104530.0,15078.0,104530.0,9654.0,104530.0,24358.0,573.8527154560807,174.727012315761,181.10755498889966
104530.0,15105.0,104530.0,9640.0,104530.0,24366.0,596.1048248539289,180.2687405932303,192.56981824534228
104530.0,15133.0,104530.0,9640.0,104530.0,24369.0,617.5464404458762,185.54770001860646,203.60669002881832
104530.0,15158.0,104530.0,9658.0,104530.0,24383.0,638.1788509470655,190.571665070476,214.22503298175093
104530.0,15169.0,104530.0,9680.0,104530.0,24393.0,658.005102164431,195.34845059412766,224.4324074789572
104530.0,15186.0,104530.0,9669.0,104530.0,24404.0,677.0299913634844,199.88607462720472,234.23702493877488
104540.0,15196.0,104540.0,9669.0,104540.0,24408.0,695.259929919521,204.19290694790243,243.6477386533153
104540.0,15210.0,104540.0,9673.0,104540.0,24403.0,712.7027368399451,208.27759059693403,252.67397473791584
104540.0,15221.0,104540.0,9658.0,104540.0,24419.0,729.3674196221591,212.14883931455984,261.3255604200143
104540.0,15252.0,104540.0,9685.0,104540.0,24445.0,745.2640008897765,215.81524418260767,269.61259102774056
104540.0,15262.0,104540.0,9697.0,104540.0,24436.0,760.4034714713307,219.28522073526761,277.5454871434657
104540.0,15274.0,104540.0,9684.0,104540.0,24452.0,774.7978291285585,222.5671549508894,285.13510398616006
104550.0,15287.0,104550.0,9693.0,104550.0,24442.0,788.4600609233705,225.66951714978893,292.39270043504825
104550.0,15290.0,104550.0,9682.0,104550.0,24436.0,801.4040324134642,228.6007796067857,299.32975722851313
104550.0,15315.0,104550.0,9698.0,104550.0,24462.0,813.6443500448431,231.36926712463418,305.9577188571209
104550.0,15318.0,104550.0,9692.0,104550.0,24465.0,825.1962711762699,233.983071839197,312.2878469910926
104550.0,15344.0,104550.0,9705.0,104550.0,24477.0,836.0756936480948,236.45004413244203,318.3312842388427
104550.0,15322.0,104550.0,9704.0,104550.0,24482.0,846.2991475055476,238.77782499046947,324.0991740729313
104561.0,15333.0,104561.0,9695.0,104561.0,24474.0,855.8836325412926,240.97386086644622,329.60269490481096
104561.0,15345.0,104561.0,9698.0,104561.0,24470.0,864.8463051766496,243.04532187840272,334.8529472392886
104561.0,15357.0,104561.0,9711.0,104561.0,24494.0,873.204252937592,244.99896964926558,339.86074212085805
104561.0,15366.0,104561.0,9716.0,104561.0,24500.0,880.9744652581367,246.84114657583405,344.63651717394725
104561.0,15386.0,104561.0,9729.0,104561.0,24508.0,888.1738968538477,248.57792273660948,349.19046488733056
104561.0,15387.0,104561.0,9725.0,104561.0,24513.0,894.8195664550924,250.21528488155656,353.5326947200449
104571.0,15378.0,104571.0,9699.0,104571.0,24497.0,900.9286094055929,251.75919933881556,357.6732708505599
104571.0,15380.0,104571.0,9702.0,104571.0,24512.0,906.5181419195228,253.21540091502374,361.6220928653722
104571.0,15392.0,104571.0,9728.0,104571.0,24507.0,911.6049991835177,254.58907759253816,365.38871822772717
104571.0,15409.0,104571.0,9742.0,104571.0,24529.0,916.2055956733986,255.88485963290947,368.98228406094324
104571.0,15419.0,104571.0,9731.0,104571.0,24525.0,920.3360184505348,257.10713315774535,372.4115663917073
104571.0,15414.0,104571.0,9732.0,104571.0,24514.0,924.0122132735385,258.2602773605805,375.6850490664318
104581.0,15408.0,104581.0,9716.0,104581.0,24514.0,927.2500383743152,259.348612716929,378.8108259964347
104581.0,15407.0,104581.0,9721.0,104581.0,24531.0,930.0651064609419,260.37617540448844,381.7963911019067
104581.0,15423.0,104581.0,9744.0,104581.0,24549.0,932.4725682418743,261.3465404064915,384.64859699400506
104581.0,15431.0,104581.0,9740.0,104581.0,24550.0,934.4870535096406,262.26287935288804,387.37387322278926
104581.0,15420.0,104581.0,9730.0,104581.0,24536.0,936.122767274597,263.128143704517,389.97845292953434
104581.0,15435.0,104581.0,9730.0,104581.0,24541.0,937.3935482255588,263.94508176314093,392.4683567554638
104592.0,15426.0,104592.0,9734.0,104592.0,24546.0,938.3128404912723,264.7160914370079,394.8492167802283
104592.0,15421.0,104592.0,9726.0,104592.0,24537.0,938.8936369462917,265.4431009289026,397.12615076627753
104592.0,15447.0,104592.0,9753.0,104592.0,24563.0,939.148409820184,266.1275420312792,399.3037209347052
104592.0,15438.0,104592.0,9758.0,104592.0,24561.0,939.0891394978323,266.7704706082176,401.38599127662144
104592.0,15433.0,104592.0,9753.0,104592.0,24559.0,938.7274390864309,267.37282612278227,403.376673135743
104592.0,15424.0,104592.0,9731.0,104592.0,24560.0,938.0745477080609,267.9355691154734,405.27919501136114
104602.0,15431.0,104602.0,9748.0,104602.0,24557.0,937.1411617898762,268.45953268280084,407.0966357522175
104602.0,15445.0,104602.0,9751.0,104602.0,24579.0,935.9373326726604,268.9452307734108,408.83165864612863
104602.0,15441.0,104602.0,9767.0,104602.0,24578.0,934.4725637609429,269.3928964795521,410.4865798741032
104602.0,15448.0,104602.0,9763.0,104602.0,24581.0,932.7559996347384,269.8026976919791,412.0635388652122
104602.0,15448.0,104602.0,9772.0,104602.0,24583.0,930.7965692036291,270.1749419045399,413.56461667592225
104602.0,15442.0,104602.0,9755.0,104602.0,24587.0,928.6030704658683,270.5101689761381,414.99186589894657
104612.0,15435.0,104612.0,9755.0,104612.0,24568.0,926.1841803956247,270.80909136624666,416.3472864394206
104612.0,15437.0,104612.0,9775.0,104612.0,24593.0,923.5483755106,271.07246277715035,417.6327309057144
104612.0,15451.0,104612.0,9775.0,104612.0,24600.0,920.7038822420047,271.30109171987993,418.84986704758944
104612.0,15435.0,104612.0,9769.0,104612.0,24590.0,917.658760045196,271.4960100993176,420.0003145600068
104612.0,15432.0,104612.0,9753.0,104612.0,24589.0,914.4209915167235,271.6585276385754,421.0857558524741
104612.0,15438.0,104612.0,9754.0,104612.0,24603.0,910.9984537887547,271.790046640386,422.107889191714
104623.0,15429.0,104623.0,9756.0,104623.0,24608.0,907.3988782021152,271.8918070386467,423.0684224895482
104623.0,15438.0,104623.0,9778.0,104623.0,24602.0,903.6298850256956,271.9647944263098,423.9691947031466
104623.0,15441.0,104623.0,9784.0,104623.0,24613.0,899.69907476088,272.0099081602413,424.8122750389027
104623.0,15430.0,104623.0,9772.0,104623.0,24616.0,895.614163643369,272.02824987438134,425.60000954592317
104623.0,15421.0,104623.0,9775.0,104623.0,24602.0,891.3830578643178,272.0212672637903,426.33506967403025
104623.0,15412.0,104623.0,9761.0,104623.0,24602.0,887.0137671010093,271.9906782260344,427.0204116554727
104633.0,15420.0,104633.0,9774.0,104633.0,24615.0,882.5142562666192,271.93831697499286,427.6591405559493
104633.0,15412.0,104633.0,9766.0,104633.0,24615.0,877.892395097308,271.86603563980094,428.25447115585723
104633.0,15404.0,104633.0,9802.0,104633.0,24612.0,873.1559931799723,271.7757462881205,428.80981591992077
104633.0,15402.0,104633.0,9777.0,104633.0,24612.0,868.3127946981842,271.6696255752754,429.3288319848634
104633.0,15402.0,104633.0,9765.0,104633.0,24615.0,863.3704346697664,271.55027149025403,429.8153845585439
104633.0,15404.0,104633.0,9765.0,104633.0,24596.0,858.3364596372692,271.4205632114963,430.27347720788543
104643.0,15401.0,104643.0,9774.0,104643.0,24617.0,853.2184307795775,271.28338993566473,430.70714081914025
104643.0,15398.0,104643.0,9769.0,104643.0,24618.0,848.0240424187714,271.1415521474037,431.1203701480571
104643.0,15391.0,104643.0,9763.0,104643.0,24613.0,842.7611949667472,270.99778059954775,431.51720092327093
104643.0,15383.0,104643.0,9784.0,104643.0,24619.0,837.4379998027996,270.8547292311786,431.9017978576177
104643.0,15389.0,104643.0,9775.0,104643.0,24613.0,832.062748207814,270.7150188372797,432.2784542763052
104643.0,15374.0,104643.0,9772.0,104643.0,24607.0,826.6439088536121,270.5813415232117,432.65153965593606
104654.0,15368.0,104654.0,9769.0,104654.0,24612.0,821.1901292967699,270.45646598615787,433.02540100984766
104654.0,15372.0,104654.0,9779.0,104654.0,24618.0,815.7101885884694,270.3431536561317,433.4042807168165
104654.0,15371.0,104654.0,9786.0,104654.0,24628.0,810.2129897662045,270.2441616717153,433.79235993611053
104654.0,15354.0,104654.0,9780.0,104654.0,24608.0,804.7076324192801,270.16236498155683,434.19387485667187
104654.0,15346.0,104654.0,9767.0,104654.0,24610.0,799.203413262922,270.10082749057847,434.61311339369274
104654.0,15340.0,104654.0,9765.0,104654.0,24614.0,793.7096896697574,270.0626825223463,435.0542638657996
104664.0,15345.0,104664.0,9789.0,104664.0,24623.0,788.2357515684259,270.050958089674,435.5213219363844
104664.0,15337.0,104664.0,9799.0,104664.0,24612.0,782.7908208087796,270.068634241936,436.0181386589818
104664.0,15331.0,104664.0,9780.0,104664.0,24635.0,777.3841169835894,270.1189182253279,436.54849617134767
104664.0,15335.0,104664.0,9769.0,104664.0,24612.0,772.0248942948267,270.20536297129553,437.11616639289946
104664.0,15314.0,104664.0,9759.0,104664.0,24616.0,766.7224491671788,270.3316385803083,437.7249121302681
104664.0,15308.0,104664.0,9767.0,104664.0,24614.0,761.4860659314505,270.50118132194916,438.378369759649
104675.0,15318.0,104675.0,9781.0,104675.0,24626.0,756.3248962319808,270.7170175236408,439.0799347904016
104675.0,15301.0,104675.0,9801.0,104675.0,24627.0,751.2479114966034,270.9818897340696,439.83278983155117
104675.0,15297.0,104675.0,9780.0,104675.0,24615.0,746.2639261514481,271.2985676875256,440.6399918808752
104675.0,15286.0,104675.0,9761.0,104675.0,24617.0,741.3815415372251,271.6699878047366,441.5044488432352
104675.0,15289.0,104675.0,9755.0,104675.0,24617.0,736.6090304810878,272.0989965082004,442.4287851813434
104675.0,15276.0,104675.0,9772.0,104675.0,24631.0,731.9542654577332,272.58794820139644,443.41526052898075
104685.0,15286.0,104685.0,9784.0,104685.0,24638.0,727.4247001930122,273.13856863907023,444.46584844124186
104685.0,15281.0,104685.0,9769.0,104685.0,24624.0,723.0274085042597,273.75210992372604,445.58239628479
104685.0,15273.0,104685.0,9774.0,104685.0,24636.0,718.7691700182183,274.42947732587527,446.7666901413953
104685.0,15259.0,104685.0,9790.0,104685.0,24631.0,714.6564871863407,275.17121658274607,448.0204104997754
104685.0,15254.0,104685.0,9774.0,104685.0,24621.0,710.6954564782928,275.97753770961765,449.34506974714634
104685.0,15253.0,104685.0,9785.0,104685.0,24641.0,706.8915886604451,276.8483732829092,450.7419293852422
104695.0,15258.0,104695.0,9786.0,104695.0,24633.0,703.2497236728051,277.7833740506106,452.21195561225375
104695.0,15258.0,104695.0,9793.0,104695.0,24640.0,699.7740884973286,278.78192484499624,453.755865848806
104695.0,15251.0,104695.0,9793.0,104695.0,24635.0,696.4684189367179,279.84322533122344,455.3741629686019
104695.0,15241.0,104695.0,9789.0,104695.0,24644.0,693.336009577859,280.96635061571055,457.0671147141286
104695.0,15239.0,104695.0,9786.0,104695.0,24641.0,690.3796371792287,282.1502229343212,458.8347389941581
104695.0,15239.0,104695.0,9807.0,104695.0,24642.0,687.6014443971177,283.39354504422187,460.67680112741084
104706.0,15254.0,104706.0,9783.0,104706.0,24657.0,685.0029233991595,284.6948005888623,462.5928129150792
104706.0,15243.0,104706.0,9814.0,104706.0,24656.0,682.5850458422779,286.0522911234178,464.58209021507037
104706.0,15238.0,104706.0,9803.0,104706.0,24649.0,680.3484035773765,287.4641815182052,466.6438447500875
104706.0,15238.0,104706.0,9794.0,104706.0,24654.0,678.2932123176748,288.92855986630036,468.7771766073862
104706.0,15227.0,104706.0,9793.0,104706.0,24646.0,676.4192207500539,290.44337231915017,470.9809613862724
104706.0,15238.0,104706.0,9821.0,104706.0,24671.0,674.7256262699468,292.0062754116869,473.2537615429319
104716.0,15232.0,104716.0,9829.0,104716.0,24668.0,673.2110479426574,293.6147095021803,475.59387327559716
104716.0,15259.0,104716.0,9816.0,104716.0,24666.0,671.8736113583029,295.26618733120324,477.99946649959224
104716.0,15230.0,104716.0,9795.0,104716.0,24667.0,670.7111312585357,296.9584031565616,480.46863785706455
104716.0,15219.0,104716.0,9806.0,104716.0,24668.0,669.7211795046535,298.6889824341138,482.99933837087553
104716.0,15236.0,104716.0,9821.0,104716.0,24665.0,668.9009028692813,300.45518984539126,485.5892790157284
104716.0,15243.0,104716.0,9825.0,104716.0,24676.0,668.2468740523668,302.25392764170067,488.23585677366134
104726.0,15239.0,104726.0,9839.0,104726.0,24685.0,667.7552067189793,304.08195558810655,490.93614577200447
104726.0,15229.0,104726.0,9831.0,104726.0,24675.0,667.4217059902358,305.9361099974138,493.68696977926254
104726.0,15232.0,104726.0,9825.0,104726.0,24674.0,667.2418339275371,307.8133883917743,496.4849185419746
104726.0,15231.0,104726.0,9820.0,104726.0,24682.0,667.2105852611421,309.7108432299613,499.32623521313565
104726.0,15247.0,104726.0,9834.0,104726.0,24709.0,667.3224475509676,311.6253880088315,502.20676521385235
104726.0,15245.0,104726.0,9848.0,104726.0,24692.0,667.57150260643,313.55374046922856,505.12211235853533
104737.0,15244.0,104737.0,9832.0,104737.0,24707.0,667.9515802996902,315.49254752928493,508.0678242910924
104737.0,15249.0,104737.0,9845.0,104737.0,24694.0,668.4563394921843,317.43848158491386,511.0394171444186
104737.0,15236.0,104737.0,9824.0,104737.0,24699.0,669.0792580599467,319.3881767443146,514.0322800423487
104737.0,15242.0,104737.0,9847.0,104737.0,24704.0,669.8135565079436,321.33808807774113,517.04155470593
104737.0,15250.0,104737.0,9852.0,104737.0,24721.0,670.65210800242,323.2844318432265,520.0620955490117
104737.0,15262.0,104737.0,9858.0,104737.0,24720.0,671.5874665831733,325.2232998948892,523.0885792281515
104747.0,15256.0,104747.0,9858.0,104747.0,24728.0,672.612029975914,327.15083911507054,526.1156686986233
104747.0,15265.0,104747.0,9864.0,104747.0,24719.0,673.7181874892892,329.0633502878437,529.1380943356137
104747.0,15255.0,104747.0,9852.0,104747.0,24720.0,674.898366221262,330.95729844268834,532.1506057478164
104747.0,15264.0,104747.0,9858.0,104747.0,24739.0,676.1450041524517,332.82924085963793,535.1478713566964
104747.0,15265.0,104747.0,9855.0,104747.0,24739.0,677.4505131069744,334.6757011837215,538.1244878101965
104747.0,15264.0,104747.0,9874.0,104747.0,24732.0,678.8072783714654,336.49310106649386,541.0750872621813
104757.0,15269.0,104757.0,9865.0,104757.0,24748.0,680.2076709335422,338.2778142071333,543.9943706769561
104757.0,15266.0,104757.0,9873.0,104757.0,24747.0,681.6440402067809,340.0262599367849,546.8770916174744
104757.0,15275.0,104757.0,9861.0,104757.0,24737.0,683.1087057026564,341.73491504020996,549.7180696143641
104757.0,15269.0,104757.0,9890.0,104757.0,24760.0,684.5939620631041,343.40027226274174,552.5121644804185
104757.0,15275.0,104757.0,9879.0,104757.0,24768.0,686.0920794888499,345.01888930060727,555.2542886402092
104757.0,15282.0,104757.0,9886.0,104757.0,24764.0,687.5953018365535,346.58752231662265,557.9395689455241
104768.0,15281.0,104768.0,9887.0,104768.0,24757.0,689.0958851326334,348.10320040797956,560.5634739825653
104768.0,15281.0,104768.0,9877.0,104768.0,24759.0,690.5861524696597,349.56320875099357,563.1217370362599
104768.0,15271.0,104768.0,9878.0,104768.0,24764.0,692.0584724444915,350.96499873295454,565.6101962825215
104768.0,15284.0,104768.0,9888.0,104768.0,24765.0,693.5051532920354,352.30606158732735,568.0247142462431
104768.0,15294.0,104768.0,9890.0,104768.0,24777.0,694.9183885511636,353.58389311051394,570.3611928512837
104768.0,15293.0,104768.0,9903.0,104768.0,24776.0,696.2903577212694,354.7960940636356,572.6156477701433
104778.0,15297.0,104778.0,9885.0,104778.0,24771.0,697.6133789513013,355.9404970591185,574.7842794706752
104778.0,15284.0,104778.0,9892.0,104778.0,24774.0,698.8799581864484,357.0151823960381,576.8634540689359
104778.0,15292.0,104778.0,9895.0,104778.0,24775.0,700.0827107354714,358.01838696178095,578.8496163728244
104778.0,15304.0,104778.0,9895.0,104778.0,24786.0,701.2142749006287,358.9484519704728,580.7392485634774
104778.0,15305.0,104778.0,9904.0,104778.0,24792.0,702.2673656404643,359.8038581651436,582.5289353417776
104778.0,15308.0,104778.0,9906.0,104778.0,24796.0,703.2349300520366,360.58330401542753,584.2155093451034
104788.0,15300.0,104788.0,9905.0,104788.0,24781.0,704.1102409853529,361.28580065072344,585.7961615919357
104788.0,15293.0,104788.0,9886.0,104788.0,24794.0,704.8868500918084,361.91069047916415,587.268413846572
104788.0,15299.0,104788.0,9891.0,104788.0,24782.0,705.558438974849,362.45749643383294,588.6300137068322
104788.0,15309.0,104788.0,9891.0,104788.0,24795.0,706.1187143600087,362.92570103151763,589.8788638006929
104788.0,15318.0,104788.0,9932.0,104788.0,24805.0,706.5614810542318,363.31471024968766,591.0130357588037
104788.0,15305.0,104788.0,9904.0,104788.0,24789.0,706.880822066697,363.6241094952991,592.0308690308923
104799.0,15297.0,104799.0,9884.0,104799.0,24778.0,707.0711614568966,363.8538858643601,592.9309886634002
104799.0,15313.0,104799.0,9888.0,104799.0,24786.0,707.1271534359796,364.0042504117397,593.7121166225089
104799.0,15309.0,104799.0,9902.0,104799.0,24801.0,707.0436103916668,364.0752992314864,594.3728993175746
104799.0,15314.0,104799.0,9909.0,104799.0,24803.0,706.8155792900293,364.0669605846873,594.9119881427
104799.0,15314.0,104799.0,9909.0,104799.0,24809.0,706.4384472213648,363.9792058118553,595.3282759412424
104799.0,15321.0,104799.0,9898.0,104799.0,24798.0,705.9080216078835,363.81222856793966,595.6210728969786
104809.0,15309.0,104809.0,9887.0,104809.0,24788.0,705.2206054572312,363.5664163157207,595.7901085575851
104809.0,15305.0,104809.0,9892.0,104809.0,24783.0,704.3730030367782,363.24215252205414,595.835355965382
104809.0,15300.0,104809.0,9895.0,104809.0,24781.0,703.3624095420251,362.83964382293124,595.7567892105759
104809.0,15299.0,104809.0,9899.0,104809.0,24799.0,702.1862637876483,362.3589077357932,595.554244402913
104809.0,15314.0,104809.0,9917.0,104809.0,24801.0,700.8421854353855,361.79990472273323,595.2274933446988
104809.0,15302.0,104809.0,9893.0,104809.0,24786.0,699.3280494577571,361.16272960620023,594.776434795182
104819.0,15303.0,104819.0,9887.0,104819.0,24778.0,697.6420987508095,360.44767615446153,594.2011402490214
104819.0,15284.0,104819.0,9892.0,104819.0,24793.0,695.7829371126342,359.65507769470446,593.501711733481
104819.0,15304.0,104819.0,9895.0,104819.0,24783.0,693.7494168093444,358.7851423065674,592.6781944685297
104819.0,15301.0,104819.0,9905.0,104819.0,24795.0,691.5406089784872,357.83798293436803,591.7306374780785
104819.0,15304.0,104819.0,9908.0,104819.0,24797.0,689.1559439254424,356.8137938415921,590.6592131068264
104819.0,15295.0,104819.0,9895.0,104819.0,24783.0,686.5953776561595,355.7130317416346,589.4643387750592
104830.0,15285.0,104830.0,9881.0,104830.0,24774.0,683.8594308591483,354.5364356515661,588.1466896600255
104830.0,15275.0,104830.0,9899.0,104830.0,24785.0,680.9490821225791,353.2848692638671,586.7070658630987
104830.0,15274.0,104830.0,9893.0,104830.0,24794.0,677.8655882231934,351.95922056395216,585.1463326025962
104830.0,15280.0,104830.0,9897.0,104830.0,24778.0,674.6103650210504,350.56047806530546,583.4655487580782
104830.0,15264.0,104830.0,9877.0,104830.0,24777.0,671.1849936782455,349.089807569624,581.6660752941086
104830.0,15271.0,104830.0,9877.0,104830.0,24771.0,667.5912590636541,347.5484695457842,579.749519844083
104840.0,15253.0,104840.0,9879.0,104840.0,24761.0,663.8311373183287,345.93764589666625,577.7176125244978
104840.0,15251.0,104840.0,9874.0,104840.0,24763.0,659.9067345459777,344.2583399953984,575.5720878061755
104840.0,15259.0,104840.0,9877.0,104840.0,24766.0,655.8202190615118,342.5113762620173,573.3146108381059
104840.0,15262.0,104840.0,9897.0,104840.0,24764.0,651.5738685509995,340.69747293944044,570.9468088795257
104840.0,15243.0,104840.0,9886.0,104840.0,24769.0,647.1702381412897,338.8174366092954,568.470381476997
104840.0,15235.0,104840.0,9863.0,104840.0,24740.0,642.6122307410957,336.8723408087995,565.8871739803672
104850.0,15224.0,104850.0,9872.0,104850.0,24749.0,637.9029683825433,334.8634519459438,563.1991030370042
104850.0,15232.0,104850.0,9862.0,104850.0,24741.0,633.0456283893413,332.79201580618985,560.4079926924564
104850.0,15226.0,104850.0,9880.0,104850.0,24745.0,628.0434183096718,330.65917781252676,557.5155011471163
104850.0,15215.0,104850.0,9872.0,104850.0,24748.0,622.8996611774685,328.46608354447346,554.5231785841528
104850.0,15205.0,104850.0,9868.0,104850.0,24740.0,617.6178250511671,326.2140299596276,551.4325831602016
104850.0,15192.0,104850.0,9847.0,104850.0,24731.0,612.2014238664818,323.9044891918025,548.245359991715
104861.0,15185.0,104861.0,9853.0,104861.0,24712.0,606.6538542489085,321.5389461952369,544.9631778519419
104861.0,15189.0,104861.0,9846.0,104861.0,24732.0,600.9782693579149,319.11870399075497,541.5875639994767
104861.0,15200.0,104861.0,9858.0,104861.0,24725.0,595.177611074873,316.6448224118414,538.1198515986518
104861.0,15184.0,104861.0,9856.0,104861.0,24725.0,589.2548247144375,314.1182105458748,534.5613165830522
104861.0,15163.0,104861.0,9844.0,104861.0,24711.0,583.2130355746898,311.53976760137664,530.9133136876999
104861.0,15177.0,104861.0,9842.0,104861.0,24712.0,577.055511163475,308.9104224148205,527.1772780409162
104871.0,15154.0,104871.0,9849.0,104871.0,24707.0,570.7855708942869,306.23107763762494,523.3546711956021
104871.0,15154.0,104871.0,9835.0,104871.0,24702.0,564.4065767094993,303.5025982089377,519.446964643432
104871.0,15145.0,104871.0,9837.0,104871.0,24705.0,557.9219195257499,300.7258339659023,515.4556627878088
104871.0,15136.0,104871.0,9836.0,104871.0,24688.0,551.3349872245496,297.90160553262655,511.3823349707107
104871.0,15126.0,104871.0,9834.0,104871.0,24694.0,544.6491363372053,295.0307080997535,507.22862007663
104871.0,15126.0,104871.0,9816.0,104871.0,24695.0,537.8676531464298,292.1139269961171,502.9962319933002
104881.0,15119.0,104881.0,9829.0,104881.0,24676.0,530.9937546867836,289.15198407749665,498.6870205149487
104881.0,15106.0,104881.0,9838.0,104881.0,24692.0,524.0306376298468,286.14552013964953,494.30302894305515
104881.0,15114.0,104881.0,9832.0,104881.0,24667.0,516.9815182829334,283.0952610620362,489.846517966955
104881.0,15093.0,104881.0,9824.0,104881.0,24650.0,509.8496777606571,280.0022300460834,485.3199294484373
104881.0,15081.0,104881.0,9810.0,104881.0,24646.0,502.63848591371607,276.86778128910987,480.7256888512571
104881.0,15077.0,104881.0,9805.0,104881.0,24654.0,495.3513229575949,273.6934510119431,476.06597575547215
104892.0,15068.0,104892.0,9809.0,104892.0,24645.0,487.9914755914535,270.4807816230001,471.34269915371516
104892.0,15073.0,104892.0,9810.0,104892.0,24649.0,480.5621349900958,267.2312707488048,466.55763091276077
104892.0,15054.0,104892.0,9813.0,104892.0,24637.0,473.0664844177735,263.94647138898654,461.71253139137116
104892.0,15051.0,104892.0,9805.0,104892.0,24630.0,465.5077731475001,260.6281419595591,456.80920239513466
104892.0,15022.0,104892.0,9780.0,104892.0,24623.0,457.889281464878,257.2782923693036,451.84945931425955
104892.0,15025.0,104892.0,9766.0,104892.0,24607.0,450.2141705779294,253.89899250623384,446.8350446456906
104902.0,15018.0,104902.0,9784.0,104902.0,24619.0,442.4853387485958,250.49204425626638,441.7675354570228
104902.0,15018.0,104902.0,9790.0,104902.0,24617.0,434.7054231786342,247.05886304470474,436.64835199214986
104902.0,15009.0,104902.0,9794.0,104902.0,24612.0,426.8769273161962,243.6007024074541,431.47891593472934
104902.0,14995.0,104902.0,9771.0,104902.0,24594.0,419.002335880999,240.11894429414676,426.26079840693205
104902.0,14987.0,104902.0,9765.0,104902.0,24581.0,411.08413050305467,236.6151494776372,420.9956815912718
104902.0,14987.0,104902.0,9747.0,104902.0,24590.0,403.12475243658787,233.09085385731964,415.68519665850994
104913.0,14967.0,104913.0,9766.0,104913.0,24580.0,395.1266053568488,229.54732714419862,410.3308524607998
104913.0,14959.0,104913.0,9771.0,104913.0,24575.0,387.0920576837189,225.98554077264095,404.9341035056108
104913.0,14954.0,104913.0,9748.0,104913.0,24573.0,379.0233836402789,222.40635309190097,399.49642359452946
104913.0,14944.0,104913.0,9744.0,104913.0,24549.0,370.9227198683085,218.81061229378565,394.01931222356546
104913.0,14918.0,104913.0,9743.0,104913.0,24529.0,362.7920435959802,215.19904145775607,388.50417096080685
104913.0,14920.0,104913.0,9742.0,104913.0,24556.0,354.633067053316,211.57212424670962,382.9520760612206
104923.0,14935.0,104923.0,9748.0,104923.0,24533.0,346.44715735008174,207.93013896104134,377.36370833297985
104923.0,14914.0,104923.0,9749.0,104923.0,24541.0,338.23549020039474,204.27330248331265,371.7395009309281
104923.0,14903.0,104923.0,9746.0,104923.0,24526.0,329.99928566646577,200.6019573187598,366.0797743488901
104923.0,14880.0,104923.0,9710.0,104923.0,24518.0,321.7398263684826,196.91665601382294,360.38476752612974
104923.0,14879.0,104923.0,9714.0,104923.0,24518.0,313.4582803784652,193.21798509017464,354.6546136242517
104923.0,14878.0,104923.0,9716.0,104923.0,24514.0,305.15556552960237,189.5062660898496,348.88933534231194
104933.0,14886.0,104933.0,9736.0,104933.0,24508.0,296.832423069748,185.78148786420613,343.0889123805274
104933.0,14859.0,104933.0,9726.0,104933.0,24521.0,288.4896480087145,182.04355711541024,337.2534028354022
104933.0,14838.0,104933.0,9710.0,104933.0,24480.0,280.12820292855776,178.29257779597373,331.383069954407
104933.0,14841.0,104933.0,9687.0,104933.0,24481.0,271.7490776142718,174.52884568959257,325.47836449024055
104933.0,14831.0,104933.0,9693.0,104933.0,24469.0,263.3531251750264,170.7525662635768,319.53971609936525
104933.0,14822.0,104933.0,9709.0,104933.0,24482.0,254.94106485142981,166.9636337450623,313.56738268733386
104944.0,14820.0,104944.0,9694.0,104944.0,24474.0,246.51355636391224,163.16171223737575,307.561533749512
104944.0,14813.0,104944.0,9698.0,104944.0,24456.0,238.07127696862614,159.34644686259344,301.52242806015465
104944.0,14798.0,104944.0,9700.0,104944.0,24461.0,229.6150092897867,155.51758840023453,295.45047928174967
104944.0,14779.0,104944.0,9688.0,104944.0,24444.0,221.14565490638086,151.67507392806107,289.34622364910524
104944.0,14782.0,104944.0,9685.0,104944.0,24421.0,212.6641372376967,147.8190796600411,283.2102544718761
104944.0,14778.0,104944.0,9683.0,104944.0,24441.0,204.17134547459057,143.9500014599301,277.0430951053107
104954.0,14775.0,104954.0,9684.0,104954.0,24441.0,195.66824297009566,140.06844194815145,270.84517631379754
104954.0,14762.0,104954.0,9678.0,104954.0,24434.0,187.15604898889245,136.1752648992022,264.61706776256375
104954.0,14740.0,104954.0,9656.0,104954.0,24409.0,178.636321763407,132.2716238174686,258.3597106549523
104954.0,14729.0,104954.0,9641.0,104954.0,24401.0,170.11086388799913,128.35881693136903,252.0743803146834
104954.0,14721.0,104954.0,9653.0,104954.0,24401.0,161.58153499449543,124.4380090435244,245.7624879611574
104954.0,14722.0,104954.0,9672.0,104954.0,24397.0,153.05014771262597,120.51012780102158,239.42548674280542
104964.0,14710.0,104964.0,9664.0,104964.0,24397.0,144.5185176830861,116.576114457936,233.06495281172562
104964.0,14702.0,104964.0,9669.0,104964.0,24385.0,135.98857244630574,112.6373004161901,226.6827260381787
104964.0,14684.0,104964.0,9641.0,104964.0,24366.0,127.46239367344765,108.69560595132609,220.2809726975231
104964.0,14678.0,104964.0,9607.0,104964.0,24358.0,118.94216434127873,104.75341334513033,213.86209316623467
104964.0,14675.0,104964.0,9635.0,104964.0,24346.0,110.4301037528736,100.8131669799184,207.4285372910013
104964.0,14660.0,104964.0,9635.0,104964.0,24341.0,101.92847532662847,96.87710506305928,200.98265484727472
104975.0,14648.0,104975.0,9633.0,104975.0,24335.0,93.43961648566551,92.94739812923069,194.52662755335962
104975.0,14639.0,104975.0,9613.0,104975.0,24331.0,84.96590152751207,89.02638461765758,188.06247244442704
104975.0,14626.0,104975.0,9594.0,104975.0,24322.0,76.50966572737786,85.11653715855928,181.59208820163764
104975.0,14612.0,104975.0,9575.0,104975.0,24311.0,68.07313107011316,81.22014532628972,175.1172877044578
104975.0,14610.0,104975.0,9588.0,104975.0,24301.0,59.658329485556806,77.33892524797858,168.63977019673422
104975.0,14593.0,104975.0,9603.0,104975.0,24298.0,51.267053868718335,73.47386360137892,162.16105526683384
104985.0,14595.0,104985.0,9593.0,104985.0,24296.0,42.90085502975046,69.62541736957778,155.68246155747084
104985.0,14579.0,104985.0,9586.0,104985.0,24275.0,34.56106832259968,65.79380016353369,149.20514432004262
104985.0,14563.0,104985.0,9580.0,104985.0,24283.0,26.248827400537266,61.97907177302582,142.7301087960672
104985.0,14555.0,104985.0,9555.0,104985.0,24260.0,17.96499826946308,58.18103498368103,136.25818724366627
104985.0,14559.0,104985.0,9581.0,104985.0,24260.0,9.710094311017997,54.399067151659125,129.79001195386945
104985.0,14551.0,104985.0,9592.0,104985.0,24272.0,1.4843240231515438,50.6321172458849,123.32601863090497
104995.0,14541.0,104995.0,9584.0,104995.0,24256.0,-6.712252827119187,46.87901003577957,116.86657725144408
104995.0,14525.0,104995.0,9558.0,104995.0,24245.0,-14.879630642523693,43.138751873024546,110.41217550724639
104995.0,14522.0,104995.0,9557.0,104995.0,24231.0,-23.017883720252712,39.41049204567645,103.96344030144525
104995.0,14508.0,104995.0,9560.0,104995.0,24236.0,-31.12722322280331,35.693291513800546,97.52103168293218
104995.0,14503.0,104995.0,9562.0,104995.0,24221.0,-39.208020636547985,31.986041062276854,91.08559740241282
104995.0,14508.0,104995.0,9572.0,104995.0,24224.0,-47.26077950091246,28.287601754426078,84.65781842270496
105005.0,14484.0,105005.0,9552.0,105005.0,24199.0,-55.2860392104119,24.59701998823897,78.23844822150511
105005.0,14485.0,105005.0,9532.0,105005.0,24188.0,-63.28429182631851,20.913596603561473,71.82824872385589
105005.0,14468.0,105005.0,9535.0,105005.0,24184.0,-71.25598676233005,17.236700788506255,65.42781879120042
105005.0,14469.0,105005.0,9529.0,105005.0,24174.0,-79.20155654939151,13.565525108527765,59.03744678355224
105005.0,14457.0,105005.0,9549.0,105005.0,24185.0,-87.12139890968444,9.899038691422106,52.657098479080275
105005.0,14452.0,105005.0,9532.0,105005.0,24188.0,-95.01582727163236,6.236152759596848,46.28657069521495
105015.0,14431.0,105015.0,9533.0,105015.0,24155.0,-102.88504638100085,2.5759123581512426,39.9257276356949
105015.0,14428.0,105015.0,9505.0,105015.0,24144.0,-110.729205618003,-1.082481989740245,33.57455081144275
105015.0,14410.0,105015.0,9508.0,105015.0,24147.0,-118.54850168449559,-4.739853026622882,27.232935754255664
105015.0,14410.0,105015.0,9512.0,105015.0,24136.0,-126.34326387593057,-8.397253861605861,20.90053300932533
105015.0,14412.0,105015.0,9508.0,105015.0,24143.0,-134.11395919895108,-12.056005076812426,14.57678721154798
105015.0,14399.0,105015.0,9516.0,105015.0,24138.0,-141.86107887684227,-15.717567877301462,8.261085211071077
105025.0,14381.0,105025.0,9511.0,105025.0,24116.0,-149.58501753668259,-19.383372643710345,1.9529060050156204
105025.0,14379.0,105025.0,9498.0,105025.0,24104.0,-157.2860907742272,-23.05468581638803,-4.348175239893067
105025.0,14364.0,105025.0,9492.0,105025.0,24102.0,-164.96462835202317,-26.73260411125267,-10.642649296418881
105025.0,14365.0,105025.0,9496.0,105025.0,24098.0,-172.6210175528056,-30.418149719788232,-16.93119873317613
105025.0,14357.0,105025.0,9507.0,105025.0,24108.0,-180.2556744193986,-34.112276229458985,-23.214643819842934
105025.0,14357.0,105025.0,9508.0,105025.0,24080.0,-187.86895096720468,-37.815675952839115,-29.493775244523704
105036.0,14338.0,105036.0,9479.0,105036.0,24083.0,-195.46102288214706,-41.528548511712074,-35.769257778783356
105036.0,14305.0,105036.0,9463.0,105036.0,24063.0,-203.0319034044228,-45.25063016704314,-42.041681769361276
105036.0,14310.0,105036.0,9463.0,105036.0,24065.0,-210.58167850952645,-48.98151626852001,-48.31165922775085
105036.0,14325.0,105036.0,9476.0,105036.0,24062.0,-218.110722564987,-52.72093279896342,-54.57985724295304
105036.0,14308.0,105036.0,9478.0,105036.0,24055.0,-225.61958888053664,-56.468685847445784,-60.846936320250734
105036.0,14288.0,105036.0,9452.0,105036.0,24052.0,-233.1087653728913,-60.22444282375693,-67.11344219658139
105046.0,14289.0,105046.0,9452.0,105046.0,24027.0,-240.5786434113004,-63.98768338391443,-73.37975432404039
105046.0,14277.0,105046.0,9449.0,105046.0,24024.0,-248.02961888381049,-67.75784841156954,-79.64616183672337
105046.0,14265.0,105046.0,9448.0,105046.0,24011.0,-255.462133221341,-71.53444220309024,-85.91302449190562
105046.0,14275.0,105046.0,9460.0,105046.0,24029.0,-262.8766644878359,-75.31697454683379,-92.18085465596857
105046.0,14263.0,105046.0,9451.0,105046.0,24007.0,-270.2736482885564,-79.10478723648731,-98.45021711558297
105046.0,14251.0,105046.0,9436.0,105046.0,24011.0,-277.65333658035877,-82.89689455560384,-104.72156002885208
105056.0,14228.0,105056.0,9410.0,105056.0,23991.0,-285.01576841382155,-86.69204012901636,-110.99513889952107
105056.0,14220.0,105056.0,9408.0,105056.0,23984.0,-292.3609335508579,-90.48901064754449,-117.27105380025023
105056.0,14215.0,105056.0,9425.0,105056.0,23983.0,-299.6889872978743,-94.28694139799154,-123.54933103251761
105056.0,14228.0,105056.0,9436.0,105056.0,23988.0,-307.00031216043,-98.08528984152895,-129.82992779870864
105056.0,14221.0,105056.0,9419.0,105056.0,23979.0,-314.2953392973152,-101.88351167339167,-136.11258703441513
105056.0,14193.0,105056.0,9406.0,105056.0,23960.0,-321.57430178242805,-105.68082591532996,-142.39667799514524
105067.0,14192.0,105067.0,9404.0,105067.0,23947.0,-328.8371948913143,-109.4762754814532,-148.6812148624249
105067.0,14184.0,105067.0,9392.0,105067.0,23938.0,-336.0839130529795,-113.26890920465209,-154.9650412494708
105067.0,14177.0,105067.0,9402.0,105067.0,23950.0,-343.3143246710215,-117.05789107751767,-161.24697624365996
105067.0,14172.0,105067.0,9396.0,105067.0,23929.0,-350.5282443453243,-120.84248816930628,-167.52578036386217
105067.0,14163.0,105067.0,9387.0,105067.0,23926.0,-357.72538749757905,-124.6219858164784,-173.80005277740855
105067.0,14146.0,105067.0,9388.0,105067.0,23903.0,-364.90535597933206,-128.39564344065462,-180.06824600145143
105077.0,14128.0,105077.0,9362.0,105077.0,23892.0,-372.0677214572179,-132.16274565922987,-186.32882444418442
105077.0,14126.0,105077.0,9371.0,105077.0,23885.0,-379.21221063734856,-135.92273657092267,-192.58048184025108
105077.0,14126.0,105077.0,9364.0,105077.0,23892.0,-386.3388425886633,-139.67535629049377,-198.82227799316223
105077.0,14132.0,105077.0,9375.0,105077.0,23903.0,-393.44786842079577,-143.42064416161475,-205.05354916045434
105077.0,14125.0,105077.0,9380.0,105077.0,23886.0,-400.53953760420825,-147.1587742546787,-211.27361640008706
105077.0,14097.0,105077.0,9365.0,105077.0,23866.0,-407.6138912778067,-150.88982029001892,-217.48155701167894
105087.0,14082.0,105087.0,9348.0,105087.0,23855.0,-414.67080514959343,-154.61364628524444,-223.67626170776566
105087.0,14090.0,105087.0,9352.0,105087.0,23848.0,-421.71022937491205,-158.33002613629003,-229.8566662425908
105087.0,14085.0,105087.0,9367.0,105087.0,23857.0,-428.7323076938967,-162.0387695285729,-236.02189040388492
105087.0,14081.0,105087.0,9361.0,105087.0,23845.0,-435.7372584558825,-165.73960324565337,-242.17117512207824
105087.0,14068.0,105087.0,9338.0,105087.0,23829.0,-442.7252118063874,-169.4319576388204,-248.30375331666704
105087.0,14047.0,105087.0,9334.0,105087.0,23822.0,-449.69618314460695,-173.1149759926143,-254.41885283155761
105098.0,14045.0,105098.0,9313.0,105098.0,23818.0,-456.65020106381826,-176.78775894810474,-260.5158072017674
105098.0,14038.0,105098.0,9311.0,105098.0,23802.0,-463.5874602578335,-180.44965782822283,-266.59413261766394
105098.0,14044.0,105098.0,9334.0,105098.0,23807.0,-470.5083415439948,-184.1004509471898,-272.65355896687856
105098.0,14034.0,105098.0,9332.0,105098.0,23805.0,-477.413282809179,-187.7402369797199,-278.69400890012014
105098.0,14016.0,105098.0,9316.0,105098.0,23781.0,-484.3026405068108,-191.3691364668215,-284.7155148134524
105098.0,14014.0,105098.0,9298.0,105098.0,23778.0,-491.17668335484416,-194.98717382248878,-290.71821136481356
105108.0,14008.0,105108.0,9289.0,105108.0,23784.0,-498.03566560962815,-198.59447947602342,-296.70242173922145
105108.0,14000.0,105108.0,9298.0,105108.0,23764.0,-504.87984027289406,-202.1915713264758,-302.66866159676124
105108.0,13980.0,105108.0,9312.0,105108.0,23772.0,-511.7094486526556,-205.77941599355182,-308.6175627185431
105108.0,13983.0,105108.0,9310.0,105108.0,23764.0,-518.5247854340535,-209.35919497135285,-314.549803356397
105108.0,13966.0,105108.0,9293.0,105108.0,23756.0,-525.3262886612254,-212.9320063608693,-320.46602098455526
105108.0,13957.0,105108.0,9275.0,105108.0,23736.0,-532.1145979580824,-216.49880772812696,-326.36677016952
105118.0,13956.0,105118.0,9285.0,105118.0,23720.0,-538.8906133545958,-220.06061219676786,-332.25264291496364
105118.0,13953.0,105118.0,9298.0,105118.0,23744.0,-545.6555122015856,-223.61861799693776,-338.12445432584525
105118.0,13955.0,105118.0,9282.0,105118.0,23742.0,-552.410651293837,-227.17407109003778,-343.98320620573327
105118.0,13940.0,105118.0,9293.0,105118.0,23722.0,-559.1574067836019,-230.72804701468527,-349.8298042788922
105118.0,13934.0,105118.0,9270.0,105118.0,23707.0,-565.8970732678125,-234.2813542884736,-355.6648953015898
105118.0,13923.0,105118.0,9269.0,105118.0,23690.0,-572.6308705772763,-237.83456945190284,-361.4890162894983
105129.0,13918.0,105129.0,9261.0,105129.0,23699.0,-579.3599975171115,-241.3881612311137,-367.3028453746124
105129.0,13910.0,105129.0,9264.0,105129.0,23693.0,-586.0856657381086,-244.94260261461056,-373.107293214377
105129.0,13912.0,105129.0,9263.0,105129.0,23686.0,-592.8090873938212,-248.49837773776204,-378.90340862321295
105129.0,13909.0,105129.0,9252.0,105129.0,23674.0,-599.5313902384635,-252.05591998734252,-384.6922785098609
105129.0,13882.0,105129.0,9236.0,105129.0,23669.0,-606.2535127462377,-255.6156148769337,-390.47503541747324
105129.0,13872.0,105129.0,9238.0,105129.0,23653.0,-612.9762451631368,-259.1779385097749,-396.2529301350206
105139.0,13877.0,105139.0,9242.0,105139.0,23658.0,-619.7004144386478,-262.743596027213,-402.02740863291535
105139.0,13857.0,105139.0,9237.0,105139.0,23667.0,-626.4269964746229,-266.31350420100136,-407.8000981686952
105139.0,13860.0,105139.0,9255.0,105139.0,23645.0,-633.1571131671152,-269.8886404085998,-413.5726438305288
105139.0,13849.0,105139.0,9230.0,105139.0,23628.0,-639.8920194441974,-273.46984903191503,-419.34658974572335
105139.0,13830.0,105139.0,9210.0,105139.0,23616.0,-646.6331126450145,-277.05777524297145,-425.1235113222406
105139.0,13836.0,105139.0,9216.0,105139.0,23620.0,-653.3819905093828,-280.6530597156988,-430.9052568135238
105150.0,13829.0,105150.0,9222.0,105150.0,23614.0,-660.1404970226502,-284.2565635384847,-436.6940411430551
105150.0,13827.0,105150.0,9229.0,105150.0,23611.0,-666.9106528564231,-287.8693217723503,-442.49236966808814
105150.0,13810.0,105150.0,9202.0,105150.0,23612.0,-673.6945472492121,-291.49233693212204,-448.30291121217067
105150.0,13809.0,105150.0,9205.0,105150.0,23601.0,-680.4943126873785,-295.126521988013,-454.1283749289754
105150.0,13793.0,105150.0,9199.0,105150.0,23592.0,-687.3121681550945,-298.7728232124992,-459.9714273411688
105150.0,13814.0,105150.0,9187.0,105150.0,23584.0,-694.150425652781,-302.4323366611136,-465.8346980383409
105160.0,13773.0,105160.0,9197.0,105160.0,23577.0,-701.0114052738712,-306.1063636155123,-471.72083954614084
105160.0,13782.0,105160.0,9195.0,105160.0,23576.0,-707.8973903088715,-309.79639685845837,-477.6325623574809
105160.0,13783.0,105160.0,9198.0,105160.0,23584.0,-714.8106769440036,-313.50399321817565,-483.57257825866964
105160.0,13756.0,105160.0,9176.0,105160.0,23553.0,-721.7535646799238,-317.2306355455146,-489.5434660308889
105160.0,13748.0,105160.0,9162.0,105160.0,23554.0,-728.7283521564966,-320.9777722808983,-495.54762741024797
105160.0,13736.0,105160.0,9177.0,105160.0,23537.0,-735.737490088524,-324.74702039735166,-501.58740810194126
105170.0,13744.0,105170.0,9190.0,105170.0,23541.0,-742.7837374356852,-328.54023216202717,-507.6652299687588
105170.0,13736.0,105170.0,9178.0,105170.0,23538.0,-749.8701385930293,-332.35926174363885,-513.7836048000755
105170.0,13737.0,105170.0,9164.0,105170.0,23530.0,-756.9998619886056,-336.20571088136387,-519.9450397026471
105170.0,13720.0,105170.0,9150.0,105170.0,23513.0,-764.176041652958,-340.08095104444203,-526.1519514092972
105170.0,13700.0,105170.0,9148.0,105170.0,23492.0,-771.4017491551797,-343.9863512013003,-532.406735133755
105170.0,13706.0,105170.0,9150.0,105170.0,23513.0,-778.6801140192323,-347.9234662827286,-538.7119433719204
105181.0,13700.0,105181.0,9162.0,105181.0,23508.0,-786.014420505635,-351.8940304672319,-545.070307441544
105181.0,13699.0,105181.0,9150.0,105181.0,23514.0,-793.408034950358,-355.8997714286072,-551.4844863273473
105181.0,13687.0,105181.0,9144.0,105181.0,23479.0,-800.8642546235953,-359.94222762655664,-557.9567916638835
105181.0,13676.0,105181.0,9130.0,105181.0,23477.0,-808.3862257334956,-364.022734531601,-564.4891680467059
105181.0,13661.0,105181.0,9115.0,105181.0,23466.0,-815.9769770157066,-368.1425777116553,-571.0833840768711
105181.0,13673.0,105181.0,9135.0,105181.0,23464.0,-823.6394959542127,-372.3031791706885,-577.7411851583382
105191.0,13659.0,105191.0,9149.0,105191.0,23470.0,-831.376699804857,-376.5060760746766,-584.4642804961562
105191.0,13654.0,105191.0,9137.0,105191.0,23456.0,-839.1912993026928,-380.7525987293976,-591.2542006669327
105191.0,13635.0,105191.0,9126.0,105191.0,23442.0,-847.0857209055885,-385.04354727408315,-598.1121633212331
105191.0,13632.0,105191.0,9110.0,105191.0,23443.0,-855.0621542707631,-389.37916251432915,-605.0390663700443
105191.0,13625.0,105191.0,9107.0,105191.0,23440.0,-863.1226257243887,-393.7593200396502,-612.0355114790925
105191.0,13619.0,105191.0,9117.0,105191.0,23424.0,-871.269000515322,-398.1836966760552,-619.1017424914337
105201.0,13614.0,105201.0,9113.0,105201.0,23422.0,-879.502919859251,-402.6517392843265,-626.2375857798362
105201.0,13612.0,105201.0,9114.0,105201.0,23415.0,-887.8257091414143,-407.1624824605913,-633.4424451392648
105201.0,13594.0,105201.0,9076.0,105201.0,23402.0,-896.2382794876588,-411.7144418152502,-640.7152905147431
105201.0,13580.0,105201.0,9085.0,105201.0,23402.0,-904.7411015877328,-416.30575285470377,-648.054640584962
105201.0,13581.0,105201.0,9079.0,105201.0,23388.0,-913.3342820979451,-420.9344199239572,-655.4585513781765
105201.0,13573.0,105201.0,9095.0,105201.0,23383.0,-922.0176090429411,-425.5983757587305,-662.9245988270088
105212.0,13569.0,105212.0,9081.0,105212.0,23369.0,-930.7904771700154,-430.295303142166,-670.4498816342368
105212.0,13565.0,105212.0,9073.0,105212.0,23363.0,-939.6517580231397,-435.02244539104066,-678.0310566708932
105212.0,13530.0,105212.0,9068.0,105212.0,23361.0,-948.5997240388564,-439.77657776466594,-685.6643645028323
105212.0,13512.0,105212.0,9048.0,105212.0,23348.0,-957.6321724089067,-444.5541095309607,-693.3456006327214
105212.0,13517.0,105212.0,9055.0,105212.0,23337.0,-966.7467305506011,-449.3512277496899,-701.0700750780247
105212.0,13526.0,105212.0,9064.0,105212.0,23334.0,-975.9410093406208,-454.16396348862446,-708.832623156996
105222.0,13517.0,105222.0,9051.0,105222.0,23335.0,-985.2124038403159,-458.9880733388974,-716.6275988289879
105222.0,13516.0,105222.0,9036.0,105222.0,23317.0,-994.5577520584613,-463.81889016163524,-724.4487819509404
105222.0,13495.0,105222.0,9035.0,105222.0,23303.0,-1003.9731068281586,-468.6513577184224,-732.2893129621698
105222.0,13487.0,105222.0,9028.0,105222.0,23291.0,-1013.4536816153001,-473.48016231701916,-740.1417725750239
105222.0,13486.0,105222.0,9028.0,105222.0,23287.0,-1022.9938894391855,-478.29978961929163,-747.9983257444956
105222.0,13467.0,105222.0,9024.0,105222.0,23285.0,-1032.5873475664912,-483.10449666406123,-755.850778377257
105232.0,13463.0,105232.0,9034.0,105232.0,23277.0,-1042.2268461356455,-487.8882235683789,-763.6905085827138
105232.0,13452.0,105232.0,9017.0,105232.0,23263.0,-1051.90434365367,-492.6444511657983,-771.5083658231873
105232.0,13439.0,105232.0,9000.0,105232.0,23267.0,-1061.6109713854962,-497.36612620236747,-779.294623239688
105232.0,13426.0,105232.0,9005.0,105232.0,23244.0,-1071.3370529671283,-502.0457656063255,-787.0389571424346
105232.0,13429.0,105232.0,9012.0,105232.0,23249.0,-1081.0721415529733,-506.67557006711854,-794.7304317206497
105232.0,13415.0,105232.0,9011.0,105232.0,23234.0,-1090.8049918380166,-511.24732658046804,-802.3574933538215
105243.0,13407.0,105243.0,9004.0,105243.0,23234.0,-1100.5234672932454,-515.7521872327934,-809.9079404755272
105243.0,13408.0,105243.0,8992.0,105243.0,23225.0,-1110.2144578566458,-520.1805450780579,-817.3688632934186
105243.0,13380.0,105243.0,8973.0,105243.0,23204.0,-1119.8638165684774,-524.5221004857917,-824.7266063776168
105243.0,13370.0,105243.0,8976.0,105243.0,23212.0,-1129.4563722396342,-528.7660676775185,-831.9668010812543
105243.0,13369.0,105243.0,8978.0,105243.0,23196.0,-1138.976046942254,-532.9013457194542,-839.0744034761475
105243.0,13369.0,105243.0,8996.0,105243.0,23197.0,-1148.4058987018038,-536.9164681369546,-846.0336593436698
105253.0,13352.0,105253.0,8979.0,105253.0,23188.0,-1157.7279968195676,-540.7993456767643,-852.8280371824168
105253.0,13342.0,105253.0,8960.0,105253.0,23168.0,-1166.9233023902284,-544.537069721029,-859.4401985494036
105253.0,13333.0,105253.0,8952.0,105253.0,23161.0,-1175.9716739948663,-548.1160114970608,-865.8520690052362
105253.0,13322.0,105253.0,8936.0,105253.0,23149.0,-1184.8519243079268,-551.5221284559509,-872.0450001045735
105253.0,13329.0,105253.0,8958.0,105253.0,23157.0,-1193.5418270834166,-554.7412171983115,-877.9998894497485
105253.0,13316.0,105253.0,8947.0,105253.0,23132.0,-1202.0180266365019,-557.7589434063332,-883.6971906031171
105263.0,13294.0,105263.0,8933.0,105263.0,23143.0,-1210.2559294650819,-560.5607322130024,-889.1168964478796
105263.0,13284.0,105263.0,8912.0,105263.0,23124.0,-1218.2297528068384,-563.1318129109811,-894.2385492463281
105263.0,13258.0,105263.0,8928.0,105263.0,23097.0,-1225.9127511632746,-565.4574791830221,-899.0413083982152
105263.0,13251.0,105263.0,8901.0,105263.0,23098.0,-1233.2775103170823,-567.5233204593833,-903.5041757214234
105263.0,13266.0,105263.0,8935.0,105263.0,23104.0,-1240.2961680436697,-569.3152994046097,-907.6062615506805
105263.0,13255.0,105263.0,8944.0,105263.0,23104.0,-1246.9403944323199,-570.8196314770496,-911.326819129282
105274.0,13248.0,105274.0,8924.0,105274.0,23087.0,-1253.1811974766456,-572.0224670169775,-914.6451026090157
105274.0,13231.0,105274.0,8903.0,105274.0,23084.0,-1258.9888280533942,-572.9097162964576,-917.5403225314152
105274.0,13232.0,105274.0,8902.0,105274.0,23074.0,-1264.332860105455,-573.4672830866932,-919.9917601732053
105274.0,13213.0,105274.0,8903.0,105274.0,23065.0,-1269.1823215199533,-573.6814400658634,-921.978930122657
105274.0,13213.0,105274.0,8908.0,105274.0,23073.0,-1273.505817995525,-573.5390146297523,-923.4817209245464
105274.0,13219.0,105274.0,8911.0,105274.0,23075.0,-1277.2716245898732,-573.0273734037953,-924.4804416005397
105284.0,13199.0,105284.0,8892.0,105284.0,23053.0,-1280.447693344702,-572.134373849908,-924.9557807655142
105284.0,13181.0,105284.0,8886.0,105284.0,23043.0,-1283.0016994355528,-570.8484675342149,-924.8888853947847
105284.0,13177.0,105284.0,8890.0,105284.0,23048.0,-1284.9012908016998,-569.1589655649141,-924.2616347421731
105284.0,13173.0,105284.0,8907.0,105284.0,23061.0,-1286.114418850933,-567.0562338432271,-923.0568550272109
105284.0,13167.0,105284.0,8896.0,105284.0,23049.0,-1286.6095610513312,-564.5316707391586,-921.2583075061438
105284.0,13166.0,105284.0,8896.0,105284.0,23046.0,-1286.355854655536,-561.5776374946286,-918.8506366625194
105294.0,13149.0,105294.0,8897.0,105294.0,23028.0,-1285.3232417353788,-558.1875257896645,-915.8195036737801
105294.0,13148.0,105294.0,8900.0,105294.0,23030.0,-1283.4826912802205,-554.3558939111088,-912.1518975527341
105294.0,13162.0,105294.0,8903.0,105294.0,23033.0,-1280.806444686512,-550.0785563835266,-907.8364625255582
105294.0,13169.0,105294.0,8914.0,105294.0,23049.0,-1277.2681054626808,-545.3526171175605,-902.8636720698063
105294.0,13171.0,105294.0,8917.0,105294.0,23056.0,-1272.8425436888974,-540.1764502571116,-897.2257933121247
105294.0,13156.0,105294.0,8924.0,105294.0,23058.0,-1267.5058346454575,-534.5496510791056,-890.9167493494766
105305.0,13148.0,105305.0,8922.0,105305.0,23056.0,-1261.2354368161054,-528.473019733029,-883.9320537833989
105305.0,13158.0,105305.0,8933.0,105305.0,23055.0,-1254.0105675377183,-521.9486061643124,-876.2689046828015
105305.0,13167.0,105305.0,8929.0,105305.0,23073.0,-1245.8125281021082,-514.9797878619477,-867.9263612165926
105305.0,13178.0,105305.0,8947.0,105305.0,23082.0,-1236.6248231497343,-507.57134595860447,-858.9054370986516
105305.0,13182.0,105305.0,8953.0,105305.0,23095.0,-1226.4331619754166,-499.7294970736507,-849.2090501612361
105305.0,13197.0,105305.0,8959.0,105305.0,23102.0,-1215.2254738180145,-491.4618645529276,-838.8419271845164
105315.0,13195.0,105315.0,8968.0,105315.0,23112.0,-1202.991971996661,-482.7774556854096,-827.8105590014093
105315.0,13214.0,105315.0,8971.0,105315.0,23103.0,-1189.725265256731,-473.68669321786797,-816.1232502451124
105315.0,13233.0,105315.0,9001.0,105315.0,23140.0,-1175.4204640213356,-464.20144218667764,-803.790255431456
105315.0,13241.0,105315.0,9017.0,105315.0,23158.0,-1160.0752028584907,-454.33490828162235,-790.8238209934846
105315.0,13249.0,105315.0,9022.0,105315.0,23164.0,-1143.6896501483616,-444.1013992629816,-777.2380155587159
105315.0,13264.0,105315.0,9038.0,105315.0,23181.0,-1126.2666284698082,-433.5161291163888,-763.0485524672407
105325.0,13286.0,105325.0,9043.0,105325.0,23195.0,-1107.8117870081096,-422.5951595979815,-748.2727558536276
105325.0,13300.0,105325.0,9055.0,105325.0,23204.0,-1088.3337044642408,-411.355411894542,-732.9295827630247
105325.0,13334.0,105325.0,9077.0,105325.0,23247.0,-1067.8439081117804,-399.8146790710006,-717.0396076475824
105325.0,13363.0,105325.0,9092.0,105325.0,23257.0,-1046.356800625138,-387.99156387868106,-700.6248795844034
105325.0,13380.0,105325.0,9122.0,105325.0,23273.0,-1023.8894922798672,-375.90529682620775,-683.7086859519135
105325.0,13404.0,105325.0,9109.0,105325.0,23288.0,-1000.4616635274339,-363.5755189076792,-666.315422198754
105336.0,13423.0,105336.0,9120.0,105336.0,23308.0,-976.0955585742507,-351.0222266903377,-648.4706013539449
105336.0,13452.0,105336.0,9141.0,105336.0,23323.0,-950.8160526604686,-338.2659256702535,-630.2008790398892
105336.0,13488.0,105336.0,9177.0,105336.0,23365.0,-924.6506830334602,-325.3277059023345,-611.5340142349214
105336.0,13527.0,105336.0,9188.0,105336.0,23380.0,-897.6295517396552,-312.2290247253015,-592.4987021856286
105336.0,13542.0,105336.0,9197.0,105336.0,23401.0,-869.7851256489757,-298.99139017618387,-573.1243291629548
105336.0,13590.0,105336.0,9208.0,105336.0,23430.0,-841.1520784431569,-285.6362236740597,-553.4407938409706
105346.0,13611.0,105346.0,9226.0,105346.0,23448.0,-811.7671998235016,-272.18489318243076,-533.4783882760548
105346.0,13649.0,105346.0,9229.0,105346.0,23468.0,-781.6693020069133,-258.6587664003094,-513.2676828777518
105346.0,13683.0,105346.0,9273.0,105346.0,23489.0,-750.899130411274,-245.07920841060948,-492.8394589111096
105346.0,13731.0,105346.0,9287.0,105346.0,23517.0,-719.4992469153333,-231.46743202560884,-472.2246753969019
105346.0,13757.0,105346.0,9288.0,105346.0,23548.0,-687.5138317552038,-217.84422847030345,-451.45437429689105
105346.0,13792.0,105346.0,9289.0,105346.0,23558.0,-654.9884937451119,-204.22986710893196,-430.55951286192845
105356.0,13836.0,105356.0,9312.0,105356.0,23590.0,-621.9701703625374,-190.6442687739828,-409.5708314177821
105356.0,13875.0,105356.0,9351.0,105356.0,23611.0,-588.5070231280217,-177.10713431534637,-388.5187859412872
105356.0,13919.0,105356.0,9364.0,105356.0,23630.0,-554.6482417617077,-163.63775452082217,-367.43347360007215
105356.0,13962.0,105356.0,9377.0,105356.0,23665.0,-520.4437940063847,-150.25465659654114,-346.3445421733687
105356.0,13998.0,105356.0,9385.0,105356.0,23679.0,-485.94417214033854,-136.97540026060875,-325.2810823780127
105356.0,14036.0,105356.0,9364.0,105356.0,23706.0,-451.20018515437135,-123.81664832121632,-304.27150820966733
105367.0,14073.0,105367.0,9399.0,105367.0,23712.0,-416.2628293600207,-110.79446866992126,-283.34350328084145
105367.0,14122.0,105367.0,9437.0,105367.0,23748.0,-381.1831851888888,-97.92456561209332,-262.5240544944215
105367.0,14170.0,105367.0,9438.0,105367.0,23769.0,-346.01223532022607,-85.2221222872418,-241.83946287287733
105367.0,14204.0,105367.0,9464.0,105367.0,23802.0,-310.8005822442408,-72.70145604186729,-221.3152274574315
105367.0,14235.0,105367.0,9460.0,105367.0,23820.0,-275.5982052696511,-60.37583839129195,-200.97583987488832
105367.0,14287.0,105367.0,9462.0,105367.0,23821.0,-240.45435449792296,-48.25752970057823,-180.84464457203086
105377.0,14321.0,105377.0,9492.0,105377.0,23855.0,-205.41746276822983,-36.35793910947518,-160.9438792749242
105377.0,14384.0,105377.0,9503.0,105377.0,23888.0,-170.53494041098782,-24.68770895337127,-141.2947471834268
105377.0,14397.0,105377.0,9513.0,105377.0,23898.0,-135.8528876670971,-13.256620098768508,-121.9173036403476
105377.0,14438.0,105377.0,9531.0,105377.0,23926.0,-101.4159013237911,-2.073473673520766,-102.83026384391457
105377.0,14464.0,105377.0,9527.0,105377.0,23931.0,-67.26708740035247,8.853945892193508,-84.05092320613471
105377.0,14505.0,105377.0,9539.0,105377.0,23951.0,-33.44816308374061,19.518820729243316,-65.59519379677272
105388.0,14556.0,105388.0,9558.0,105388.0,23978.0,0.0005356210573381759,29.915196954961516,-47.47767536119994
105388.0,14585.0,105388.0,9577.0,105388.0,24000.0,33.040210687458625,40.037979638858985,-29.71163694687573
105388.0,14630.0,105388.0,9565.0,105388.0,24003.0,65.63383759925694,49.88304371669051,-12.308906639378847
105388.0,14660.0,105388.0,9580.0,105388.0,24018.0,97.74635742936061,59.44724650528241,4.720146865966342
105388.0,14692.0,105388.0,9582.0,105388.0,24031.0,129.34480238110552,68.72827921856145,21.366480531286243
105388.0,14707.0,105388.0,9587.0,105388.0,24040.0,160.39832152693168,77.72450532106234,37.62221284540857
105398.0,14757.0,105398.0,9614.0,105398.0,24066.0,190.87809162646874,86.43487484107413,53.48050851799616
105398.0,14781.0,105398.0,9632.0,105398.0,24088.0,220.75725568816313,94.8589936240241,68.93556487485989
105398.0,14811.0,105398.0,9626.0,105398.0,24090.0,250.01097318513973,102.9973455371238,83.98270827383874
105398.0,14847.0,105398.0,9621.0,105398.0,24098.0,278.61648363719837,110.8514065784588,98.61843478685324
105398.0,14858.0,105398.0,9617.0,105398.0,24114.0,306.55312163190604,118.42345862302511,112.84028804553736
105398.0,14900.0,105398.0,9630.0,105398.0,24121.0,333.80228200243425,125.71625454050326,126.64669983841918
105408.0,14924.0,105408.0,9639.0,105408.0,24145.0,360.34737833401675,132.73279365202552,140.03691091952942
105408.0,14945.0,105408.0,9661.0,105408.0,24151.0,386.17385814146235,139.47631672229807,153.010974107165
105408.0,14982.0,105408.0,9648.0,105408.0,24167.0,411.26923073753244,145.9504353962139,165.5697951788262
105408.0,15000.0,105408.0,9664.0,105408.0,24172.0,435.6230900540504,152.15920574658105,177.7151468044043
105408.0,15015.0,105408.0,9664.0,105408.0,24187.0,459.22713484791916,158.10708510553394,189.44963727763195
105408.0,15027.0,105408.0,9667.0,105408.0,24183.0,482.0750753294478,163.79886918846557,200.7766461340463
105419.0,15058.0,105419.0,9681.0,105419.0,24210.0,504.1624204165016,169.2396538903884,211.7002346698414
105419.0,15088.0,105419.0,9700.0,105419.0,24225.0,525.4863421251903,174.43487017070134,222.225124346879
105419.0,15105.0,105419.0,9690.0,105419.0,24226.0,546.0457305764362,179.39043436027242,232.35680569029137
105419.0,15103.0,105419.0,9677.0,105419.0,24218.0,565.8412656748881,184.1128214624552,242.1015953938125
105419.0,15121.0,105419.0,9681.0,105419.0,24229.0,584.8752727733827,188.60886698150233,251.46646741835355
105419.0,15152.0,105419.0,9683.0,105419.0,24231.0,603.1514533741731,192.88544885131523,260.45878537827423
105429.0,15169.0,105429.0,9705.0,105429.0,24255.0,620.6747801897868,196.9493244737796,269.0861484855784
105429.0,15182.0,105429.0,9699.0,105429.0,24262.0,637.4515766865472,200.80718740671483,277.35641962480213
105429.0,15189.0,105429.0,9700.0,105429.0,24256.0,653.4895522741931,204.46577956348278,285.2778341297437
105429.0,15202.0,105429.0,9706.0,105429.0,24265.0,668.7976897315016,207.93189478738083,292.85899878041096
105429.0,15207.0,105429.0,9696.0,105429.0,24266.0,683.3860554538344,211.21229584484047,300.108756471908
105429.0,15226.0,105429.0,9706.0,105429.0,24293.0,697.2656131869801,214.31360937896278,307.0360923436548
105439.0,15242.0,105439.0,9729.0,105439.0,24292.0,710.4481077106723,217.24227550845495,313.6502025091919
105439.0,15259.0,105439.0,9726.0,105439.0,24297.0,722.9460666914574,220.00467935315464,319.9606401016914
105439.0,15252.0,105439.0,9723.0,105439.0,24298.0,734.7728454515459,222.60736511563476,325.9773663230061
105439.0,15267.0,105439.0,9717.0,105439.0,24281.0,745.9425604497967,225.05707954734987,331.7106414303257
105439.0,15262.0,105439.0,9713.0,105439.0,24293.0,756.4698928339617,227.3606162564891,337.17078165046973
105439.0,15280.0,105439.0,9717.0,105439.0,24301.0,766.3698729178438,229.52460837349918,342.3679132370406
105450.0,15296.0,105450.0,9751.0,105450.0,24312.0,775.6577543952772,231.55545149251628,347.3119074999146
105450.0,15295.0,105450.0,9733.0,105450.0,24315.0,784.349020307839,233.4594760752637,352.0124823170638
105450.0,15297.0,105450.0,9720.0,105450.0,24314.0,792.4593988537672,235.24314650167355,356.47930184270456
105450.0,15320.0,105450.0,9721.0,105450.0,24315.0,800.0047893788073,236.91296074437605,360.7219749365963
105450.0,15316.0,105450.0,9721.0,105450.0,24323.0,807.0012174430055,238.47516581193332,364.7499843835035
105450.0,15325.0,105450.0,9732.0,105450.0,24325.0,813.4648609507417,239.93559635947264,368.57264373317275
105460.0,15332.0,105460.0,9738.0,105460.0,24329.0,819.4120436194178,241.2997070981437,372.19910978884343
105460.0,15325.0,105460.0,9738.0,105460.0,24327.0,824.8591831243637,242.57270977250255,375.6383937814478
105460.0,15340.0,105460.0,9724.0,105460.0,24329.0,829.8227136327744,243.75966275072,378.89932843758277
105460.0,15333.0,105460.0,9731.0,105460.0,24308.0,834.3189983894054,244.86540175516825,381.9904582731547
105460.0,15338.0,105460.0,9724.0,105460.0,24332.0,838.364254087466,245.8943864492095,384.9198447363292
105460.0,15344.0,105460.0,9749.0,105460.0,24340.0,841.9744723335555,246.85063069490536,387.6949498485998
105470.0,15345.0,105470.0,9741.0,105470.0,24348.0,845.1653660179547,247.73779931162147,390.3227640309906
105470.0,15338.0,105470.0,9741.0,105470.0,24345.0,847.9523380529706,248.55937406767396,392.81004026230517
105470.0,15352.0,105470.0,9733.0,105470.0,24329.0,850.3504132868813,249.31870058065073,395.1633793551755
105470.0,15342.0,105470.0,9732.0,105470.0,24333.0,852.3741695257042,250.01888161131268,397.3890892313798
105470.0,15353.0,105470.0,9736.0,105470.0,24347.0,854.0377096783529,250.6626400918314,399.4929839312182
105470.0,15352.0,105470.0,9764.0,105470.0,24350.0,855.3546543196653,251.2523096402378,401.48036095514385
105481.0,15363.0,105481.0,9759.0,105481.0,24356.0,856.3381764786036,251.79005568338022,403.35615675225677
105481.0,15354.0,105481.0,9743.0,105481.0,24341.0,857.0010802367779,252.27815509576675,405.1250757897262
105481.0,15345.0,105481.0,9734.0,105481.0,24350.0,857.355819503576,252.71900644104448,406.7915695977955
105481.0,15352.0,105481.0,9738.0,105481.0,24353.0,857.4143897737838,253.11487276726848,408.35974861232773
105481.0,15349.0,105481.0,9737.0,105481.0,24355.0,857.1882017490204,253.4676503207054,409.8333744049579
105481.0,15360.0,105481.0,9761.0,105481.0,24357.0,856.6880659565579,253.77884119586065,411.2159260988693
105491.0,15362.0,105491.0,9768.0,105491.0,24373.0,855.9242900227716,254.04975414647657,412.51068620964236
105491.0,15351.0,105491.0,9745.0,105491.0,24346.0,854.9068073042872,254.2817979187609,413.72083568079665
105491.0,15352.0,105491.0,9736.0,105491.0,24356.0,853.6452171452013,254.47654731583333,414.84944670468053
105491.0,15351.0,105491.0,9746.0,105491.0,24356.0,852.1487242985581,254.6355111183629,415.8993489435835
105491.0,15357.0,105491.0,9757.0,105491.0,24369.0,850.4261067219143,254.75994989233902,416.87307344994963
105491.0,15364.0,105491.0,9760.0,105491.0,24368.0,848.4857964475873,254.85097029406597,417.77296728737497
105501.0,15349.0,105501.0,9750.0,105501.0,24361.0,846.3360246757536,254.90972381644343,418.60133711153924
105501.0,15359.0,105501.0,9750.0,105501.0,24360.0,843.9849114190397,254.93747114172476,419.36047390443264
105501.0,15349.0,105501.0,9743.0,105501.0,24358.0,841.4404791960701,254.93549385021288,420.0525668836632
105501.0,15333.0,105501.0,9754.0,105501.0,24363.0,838.7106269399287,254.90498701114518,420.6796218672191
105501.0,15348.0,105501.0,9761.0,105501.0,24383.0,835.8030395801534,254.8470601104229,421.24349330610494
105501.0,15343.0,105501.0,9763.0,105501.0,24376.0,832.7251301840421,254.7628786569063,421.74607444279525
105512.0,15337.0,105512.0,9755.0,105512.0,24365.0,829.4841115494664,254.65382905535546,422.1894998278349
105512.0,15319.0,105512.0,9731.0,105512.0,24358.0,826.0870371376695,254.52151445493695,422.5761334770556
105512.0,15322.0,105512.0,9747.0,105512.0,24363.0,822.5406815971239,254.3675329606629,422.9083790291859
105512.0,15326.0,105512.0,9762.0,105512.0,24368.0,818.8514043370018,254.19329314719914,423.18855062923024
105512.0,15325.0,105512.0,9759.0,105512.0,24382.0,815.0251719975422,254.00012181391577,423.4189339807747
105512.0,15335.0,105512.0,9770.0,105512.0,24377.0,811.0677254471376,253.7895344179068,423.6019889243213
105522.0,15319.0,105522.0,9759.0,105522.0,24367.0,806.9847777849482,253.56342934169578,423.7405234751036
105522.0,15310.0,105522.0,9743.0,105522.0,24350.0,802.7821156686407,253.3241169015099,423.837657106444
105522.0,15306.0,105522.0,9739.0,105522.0,24359.0,798.4655349766945,253.07414256111434,423.8965853323808
105522.0,15317.0,105522.0,9739.0,105522.0,24362.0,794.0407482327237,252.81600546546287,423.92038024366707
105522.0,15300.0,105522.0,9749.0,105522.0,24363.0,789.5134255037622,252.5519907772445,423.9119887950311
105522.0,15313.0,105522.0,9755.0,105522.0,24360.0,784.8893099013728,252.28421085315665,423.8743316081292
105532.0,15304.0,105532.0,9740.0,105532.0,24345.0,780.1743265537993,252.01474995364782,423.81032613275966
105532.0,15297.0,105532.0,9740.0,105532.0,24364.0,775.3746889105822,251.74571004601916,423.72280574122374
105532.0,15301.0,105532.0,9739.0,105532.0,24372.0,770.4969657611684,251.47910906470503,423.6145107265312
105532.0,15287.0,105532.0,9750.0,105532.0,24364.0,765.5481107906456,251.21679953066638,423.4882664656435
105532.0,15287.0,105532.0,9762.0,105532.0,24374.0,760.5354827928833,250.96055317337056,423.3471867614476
105532.0,15282.0,105532.0,9750.0,105532.0,24356.0,755.4668461987276,250.71227304462502,423.1947525163016
105543.0,15265.0,105543.0,9727.0,105543.0,24345.0,750.3503557299623,250.4740962909961,423.0347453995362
105543.0,15258.0,105543.0,9731.0,105543.0,24340.0,745.1944824315829,250.24820336547492,422.8710242567223
105543.0,15246.0,105543.0,9750.0,105543.0,24364.0,740.0078545129453,250.03655014935498,422.7073040159192
105543.0,15255.0,105543.0,9751.0,105543.0,24352.0,734.7991159363879,249.84087504331308,422.547169696957
105543.0,15244.0,105543.0,9751.0,105543.0,24353.0,729.5769117576095,249.6629364436086,422.39424040918664
105543.0,15244.0,105543.0,9750.0,105543.0,24363.0,724.3499695840248,249.50469722565083,422.25226668422033
105553.0,15234.0,105553.0,9740.0,105553.0,24337.0,719.1271675911911,249.36835499065216,422.12515293152296
105553.0,15216.0,105553.0,9721.0,105553.0,24336.0,713.9175200090173,249.25622408323176,422.0168806120486
105553.0,15211.0,105553.0,9745.0,105553.0,24343.0,708.7300514599538,249.17051180931566,421.9313117691667
105553.0,15223.0,105553.0,9754.0,105553.0,24354.0,703.5736549745875,249.1132275807492,421.8720953998152
105553.0,15221.0,105553.0,9739.0,105553.0,24349.0,698.4571317188521,249.08635241072255,421.8427999897603
105553.0,15196.0,105553.0,9739.0,105553.0,24342.0,693.3893656002547,249.09199144560722,421.8470757946172
105563.0,15188.0,105563.0,9739.0,105563.0,24346.0,688.3793390294682,249.13232126291388,421.88867675891225
105563.0,15178.0,105563.0,9729.0,105563.0,24329.0,683.435922768218,249.20947352802565,421.9713824298099
105563.0,15173.0,105563.0,9731.0,105563.0,24345.0,678.5676500422752,249.32543386625687,422.09890069483424
105563.0,15186.0,105563.0,9759.0,105563.0,24347.0,673.7826324858114,249.48199838135093,422.2748382431375
105563.0,15176.0,105563.0,9761.0,105563.0,24336.0,669.0886520461275,249.68095167745238,422.50278315354814
105563.0,15158.0,105563.0,9735.0,105563.0,24324.0,664.4933031159972,249.9243691864592,422.7863335487962
105574.0,15158.0,105574.0,9715.0,105574.0,24331.0,660.0039802461833,250.2146228084643,423.1289507782834
105574.0,15149.0,105574.0,9714.0,105574.0,24328.0,655.6277435725756,250.55397444752765,423.5337989127014
105574.0,15163.0,105574.0,9753.0,105574.0,24336.0,651.3712620682056,250.9441965168545,424.0037201962778
105574.0,15145.0,105574.0,9726.0,105574.0,24334.0,647.2408951043202,251.3866038505188,424.54130790531127
105574.0,15135.0,105574.0,9750.0,105574.0,24333.0,643.2427704448496,251.88230471264015,425.1489895017079
105574.0,15126.0,105574.0,9735.0,105574.0,24319.0,639.3827046663582,252.43234504174126,425.82903702541705
105584.0,15117.0,105584.0,9721.0,105584.0,24314.0,635.6660123522862,253.0377033949022,426.5834419133981
105584.0,15130.0,105584.0,9737.0,105584.0,24332.0,632.0973677968514,253.69915881923842,427.41373714626627
105584.0,15136.0,105584.0,9737.0,105584.0,24339.0,628.6808505901572,254.41716720982734,428.3209872459153
105584.0,15124.0,105584.0,9745.0,105584.0,24330.0,625.420162790825,255.19191612252828,429.3059804784825
105584.0,15119.0,105584.0,9732.0,105584.0,24329.0,622.3188030385564,256.02345077028707,430.36937633432893
105584.0,15105.0,105584.0,9743.0,105584.0,24322.0,619.3800436830891,256.91170525168377,431.5116665988193
105594.0,15108.0,105594.0,9704.0,105594.0,24319.0,616.6067897415181,257.8564025836115,432.7330390371017
105594.0,15100.0,105594.0,9738.0,105594.0,24334.0,614.0014592164189,258.8568336608603,434.03326712603587
105594.0,15106.0,105594.0,9741.0,105594.0,24332.0,611.5659453941655,259.9117074074595,435.41172499126753
105594.0,15120.0,105594.0,9741.0,105594.0,24332.0,609.301689378033,261.01927249225446,436.86750529674424
105594.0,15099.0,105594.0,9748.0,105594.0,24327.0,607.2098567229453,262.1775406580077,438.3994883281674
105594.0,15078.0,105594.0,9729.0,105594.0,24320.0,605.2914137286436,263.38437292047433,440.00628742238814
105605.0,15086.0,105605.0,9720.0,105605.0,24328.0,603.5469252667867,264.63737203728914,441.68612744447285
105605.0,15088.0,105605.0,9752.0,105605.0,24332.0,601.9763027927338,265.93367238467954,443.4367737348813
105605.0,15095.0,105605.0,9761.0,105605.0,24326.0,600.5787898939654,267.269938973785,445.2555621787214
105605.0,15083.0,105605.0,9760.0,105605.0,24340.0,599.3531064540823,268.64268497974183,447.13945559269575
105605.0,15082.0,105605.0,9753.0,105605.0,24346.0,598.2975268236536,270.0485679046628,449.0851204447529
105605.0,15077.0,105605.0,9742.0,105605.0,24331.0,597.4098313272489,271.48440342519723,451.0890482886686
105615.0,15080.0,105615.0,9748.0,105615.0,24328.0,596.6872262774916,272.9469800049419,453.147574289842
105615.0,15081.0,105615.0,9753.0,105615.0,24334.0,596.126321612424,274.43289091439556,455.2567302215608
105615.0,15087.0,105615.0,9766.0,105615.0,24346.0,595.723184460387,275.93853554321726,457.4121404947846
105615.0,15080.0,105615.0,9755.0,105615.0,24358.0,595.4734343384957,277.46025368879555,459.6091293196848
105615.0,15080.0,105615.0,9761.0,105615.0,24352.0,595.3723032098037,278.99442294473204,461.84296021500967
105615.0,15085.0,105615.0,9755.0,105615.0,24342.0,595.4146362555822,280.53744038205963,464.10898742974257
105626.0,15082.0,105626.0,9760.0,105626.0,24343.0,595.5949023230403,282.0856574469834,466.40258991152814
105626.0,15097.0,105626.0,9777.0,105626.0,24351.0,595.9072627840214,283.6353714019792,468.71901344344866
105626.0,15090.0,105626.0,9775.0,105626.0,24353.0,596.3456949352036,285.182946282113,471.05332144851195
105626.0,15088.0,105626.0,9778.0,105626.0,24362.0,596.9041073919373,286.72500074997106,473.40047687782516
105626.0,15092.0,105626.0,9745.0,105626.0,24350.0,597.576366720632,288.25845249892757,475.7554440376658
105626.0,15070.0,105626.0,9780.0,105626.0,24356.0,598.3562355062945,289.7803403893399,478.1132073086308
105636.0,15079.0,105636.0,9755.0,105636.0,24360.0,599.2372281257819,291.28764095679867,480.46872108577213
105636.0,15089.0,105636.0,9782.0,105636.0,24358.0,600.2124593078363,292.77724938251475,482.81689431230706
105636.0,15093.0,105636.0,9787.0,105636.0,24369.0,601.2746637780183,294.2460865738799,485.15263203163227
105636.0,15100.0,105636.0,9766.0,105636.0,24365.0,602.416381139778,295.6912596008508,487.4708997191441
105636.0,15072.0,105636.0,9763.0,105636.0,24362.0,603.6300896873174,297.11008130983043,489.76677413148076
105636.0,15086.0,105636.0,9765.0,105636.0,24358.0,604.9081295167794,298.4998581419191,492.0354120298063
105646.0,15085.0,105646.0,9771.0,105646.0,24368.0,606.2425204127396,299.85769111416937,494.27195717428356
105646.0,15097.0,105646.0,9777.0,105646.0,24358.0,607.6249155812917,301.18046409284057,496.47148693353205
105646.0,15102.0,105646.0,9801.0,105646.0,24381.0,609.0467319624534,302.4649951684187,498.6290290229606
105646.0,15085.0,105646.0,9766.0,105646.0,24369.0,610.4992995408027,303.7082581404576,500.73964448377967
105646.0,15097.0,105646.0,9770.0,105646.0,24362.0,611.9738801752522,304.9074333911444,502.79850623306805
105646.0,15091.0,105646.0,9781.0,105646.0,24355.0,613.4615865834353,306.05971943878444,504.8008215658158
105657.0,15099.0,105657.0,9792.0,105657.0,24387.0,614.9533434236382,307.1622351292842,506.7416797147914
105657.0,15098.0,105657.0,9771.0,105657.0,24380.0,616.4399150465109,308.2121400511909,508.61610794445505
105657.0,15108.0,105657.0,9784.0,105657.0,24382.0,617.9119658064417,309.2067020893819,510.4193161000641
105657.0,15102.0,105657.0,9786.0,105657.0,24371.0,619.3601451351303,310.143245426054,512.1468322846601
105657.0,15100.0,105657.0,9788.0,105657.0,24366.0,620.7751410139801,311.01916525897764,513.7944205368783
105657.0,15112.0,105657.0,9774.0,105657.0,24386.0,622.1476717909093,311.8319890863245,515.3579364809107
105667.0,15116.0,105667.0,9807.0,105667.0,24393.0,623.4685178276663,312.57938547987715,516.8333477427991
105667.0,15115.0,105667.0,9784.0,105667.0,24380.0,624.7286499406056,313.2592256590111,518.2169374802204
105667.0,15120.0,105667.0,9797.0,105667.0,24382.0,625.9193557691013,313.86970805838865,519.5054361663422
105667.0,15119.0,105667.0,9788.0,105667.0,24381.0,627.0323076974115,314.40940024946383,520.6959744895393
105667.0,15101.0,105667.0,9785.0,105667.0,24355.0,628.0595665389836,314.8771962496446,521.7859586606811
105667.0,15115.0,105667.0,9781.0,105667.0,24375.0,628.9934807778579,315.2722337875066,522.7728844123585
105677.0,15120.0,105677.0,9789.0,105677.0,24383.0,629.8265868575153,315.5937978691502,523.6542051278936
105677.0,15109.0,105677.0,9795.0,105677.0,24384.0,630.5516463536634,315.84131186017987,524.4274423876344
105677.0,15123.0,105677.0,9785.0,105677.0,24377.0,631.1617231333101,316.01443229602876,525.0904034247694
105677.0,15116.0,105677.0,9784.0,105677.0,24359.0,631.6502218077849,316.11310577831614,525.6412262961226
105677.0,15107.0,105677.0,9770.0,105677.0,24360.0,632.0109119870689,316.13748880569557,526.078200221531
105677.0,15116.0,105677.0,9779.0,105677.0,24379.0,632.2378920023092,316.0877872057229,526.3995675725182
105688.0,15127.0,105688.0,9786.0,105688.0,24371.0,632.3255631273792,315.96416289531334,526.6035463654293
105688.0,15115.0,105688.0,9783.0,105688.0,24369.0,632.2687379356873,315.7667990309991,526.6885004619103
105688.0,15116.0,105688.0,9776.0,105688.0,24375.0,632.062759524746,315.49601426240963,526.6530349239207
105688.0,15104.0,105688.0,9771.0,105688.0,24361.0,631.7034779718185,315.1522601372376,526.4960105031065
105688.0,15108.0,105688.0,9768.0,105688.0,24358.0,631.1871347631482,314.73600771812903,526.2165137357875
105688.0,15117.0,105688.0,9777.0,105688.0,24368.0,630.5102929436016,314.2476488680316,525.8137806566035
105698.0,15111.0,105698.0,9786.0,105698.0,24366.0,629.6698981037212,313.68752956474293,525.2871935597734
105698.0,15125.0,105698.0,9768.0,105698.0,24367.0,628.6634278154165,313.05609701771573,524.6363973772308
105698.0,15094.0,105698.0,9760.0,105698.0,24356.0,627.4890081891764,312.3539521317136,523.861402126895
105698.0,15099.0,105698.0,9769.0,105698.0,24340.0,626.1453762089744,311.58171623493564,522.962547994382
105698.0,15090.0,105698.0,9755.0,105698.0,24352.0,624.6316959995507,310.73989418712733,521.9403451899918
105698.0,15091.0,105698.0,9769.0,105698.0,24359.0,622.947401083206,309.828843129397,520.7953828474083
105708.0,15081.0,105708.0,9770.0,105708.0,24341.0,621.0921314601724,308.8488225748996,519.5284263469318
105708.0,15077.0,105708.0,9757.0,105708.0,24348.0,619.0656805347993,307.80010154317233,518.1405229322813
105708.0,15084.0,105708.0,9750.0,105708.0,24335.0,616.8679377326171,306.68298916305014,516.6329860767212
105708.0,15066.0,105708.0,9751.0,105708.0,24314.0,614.4988794305536,305.49771385740814,515.0072970144661
105708.0,15073.0,105708.0,9745.0,105708.0,24328.0,611.9585737994311,304.24428871300665,513.2649254194375
105708.0,15073.0,105708.0,9774.0,105708.0,24337.0,609.2471772970601,302.9225107600081,511.4072189394057
105719.0,15069.0,105719.0,9768.0,105719.0,24325.0,606.3649956613692,301.5321670135478,509.4355335537996
105719.0,15073.0,105719.0,9748.0,105719.0,24323.0,603.3126013009919,300.07331573926376,507.35142459892626
105719.0,15048.0,105719.0,9749.0,105719.0,24309.0,600.0909079082707,298.54634343650446,505.156673781677
105719.0,15057.0,105719.0,9741.0,105719.0,24308.0,596.7011354909721,296.9517934883572,502.8531905803636
105719.0,15053.0,105719.0,9744.0,105719.0,24318.0,593.1447345977275,295.2902174074014,500.4429377296859
105719.0,15046.0,105719.0,9756.0,105719.0,24307.0,589.4233992141517,293.56216805981,497.9279879845663
105729.0,15043.0,105729.0,9758.0,105729.0,24309.0,585.5391278064287,291.76835103907473,495.31065543366094
105729.0,15034.0,105729.0,9734.0,105729.0,24295.0,581.4942373406403,289.9098248883472,492.5935636805082
105729.0,15019.0,105729.0,9733.0,105729.0,24274.0,577.2913200923936,287.9880133713365,489.7795840329961
105729.0,15018.0,105729.0,9719.0,105729.0,24271.0,572.9331391230309,286.0045014247885,486.87162540284993
105729.0,15017.0,105729.0,9728.0,105729.0,24279.0,568.4225291204359,283.96082319044194,483.8724073651652
105729.0,14998.0,105729.0,9738.0,105729.0,24281.0,563.7623753677914,281.85841611634385,480.7844429411358
105739.0,15005.0,105739.0,9728.0,105739.0,24276.0,558.9556059883477,279.69876536234517,477.6102269676803
105739.0,14994.0,105739.0,9719.0,105739.0,24259.0,554.0051730863049,277.4835623978883,474.35239926616873
105739.0,14985.0,105739.0,9703.0,105739.0,24241.0,548.9140672086769,275.21467132297664,471.0137003923781
105739.0,14974.0,105739.0,9707.0,105739.0,24245.0,543.6853043191155,272.89393321285814,467.5967522609371
105739.0,14981.0,105739.0,9715.0,105739.0,24251.0,538.3218689951799,270.5230249647032,464.1039003311341
105739.0,14987.0,105739.0,9713.0,105739.0,24237.0,532.8267614805231,268.1035203184606,460.53726904826476
105750.0,14963.0,105750.0,9710.0,105750.0,24240.0,527.203186942683,265.6370659765674,456.8988928505103
105750.0,14952.0,105750.0,9703.0,105750.0,24228.0,521.45466220298,263.12549468198216,453.19077493885584
105750.0,14935.0,105750.0,9677.0,105750.0,24214.0,515.584884005513,260.57078413187537,449.4148717181435
105750.0,14940.0,105750.0,9680.0,105750.0,24221.0,509.5975104889991,257.974845477805,445.5730210566902
105750.0,14933.0,105750.0,9699.0,105750.0,24214.0,503.4960722791765,255.33931538942483,441.6669033437477
105750.0,14921.0,105750.0,9693.0,105750.0,24207.0,497.2840252246178,252.66561875109505,437.69810004316747
105760.0,14916.0,105760.0,9680.0,105760.0,24197.0,490.96480097546134,249.95520682247246,433.6681444538307
105760.0,14905.0,105760.0,9679.0,105760.0,24190.0,484.5417925551071,247.209649043324,429.57848569896225
105760.0,14901.0,105760.0,9658.0,105760.0,24182.0,478.01832945156,244.43052784059222,425.4304124390164
105760.0,14891.0,105760.0,9667.0,105760.0,24188.0,471.397674495705,241.61927197577626,421.22501113791
105760.0,14883.0,105760.0,9669.0,105760.0,24189.0,464.68303027408007,238.77705992384688,416.9632357408724
105760.0,14884.0,105760.0,9671.0,105760.0,24175.0,457.87755496784473,235.90489442319577,412.64607658372336
105770.0,14874.0,105770.0,9668.0,105770.0,24170.0,450.98442191444224,233.00378542148601,408.2746787445302
105770.0,14860.0,105770.0,9644.0,105770.0,24155.0,444.0068985016735,230.07485520028354,403.8503207589614
105770.0,14851.0,105770.0,9641.0,105770.0,24156.0,436.9483491735425,227.1192421971309,399.3743244908073
105770.0,14843.0,105770.0,9649.0,105770.0,24150.0,429.81216446311794,224.1379026507827,394.84800337221185
105770.0,14833.0,105770.0,9645.0,105770.0,24142.0,422.6017029611874,221.1315528792838,390.272683373149
105770.0,14828.0,105770.0,9664.0,105770.0,24133.0,415.32027444109895,218.10082298946344,385.6497318969749
105781.0,14822.0,105781.0,9644.0,105781.0,24126.0,407.97115795750574,215.0465046163082,380.9805358696509
105781.0,14806.0,105781.0,9636.0,105781.0,24121.0,400.55764064288996,211.9697125571713,376.26645933258317
105781.0,14803.0,105781.0,9619.0,105781.0,24115.0,393.0830285235156,208.871814564822,371.50882906198194
105781.0,14806.0,105781.0,9636.0,105781.0,24111.0,385.55065757725345,205.75423449592645,366.7089562639148
105781.0,14787.0,105781.0,9626.0,105781.0,24107.0,377.9639858714625,202.6183857830316,361.8681841814471
105781.0,14768.0,105781.0,9612.0,105781.0,24100.0,370.32666750712224,199.4657432787726,356.98795145037946
105791.0,14760.0,105791.0,9610.0,105791.0,24097.0,362.6424584992331,196.29783688796073,352.0698549676713
105791.0,14744.0,105791.0,9611.0,105791.0,24069.0,354.9150313745867,193.1161507492258,347.11566365414524
105791.0,14739.0,105791.0,9588.0,105791.0,24068.0,347.14783800094307,189.9220574341092,342.12721020454984
105791.0,14734.0,105791.0,9598.0,105791.0,24078.0,339.3440549310622,186.71675068886174,337.10624778676413
105791.0,14726.0,105791.0,9610.0,105791.0,24059.0,331.5066151951874,183.50120702997256,332.0544719778819
105791.0,14724.0,105791.0,9599.0,105791.0,24050.0,323.63830215129184,180.27632995567586,326.97363097749064
105801.0,14710.0,105801.0,9573.0,105801.0,24046.0,315.74185470110007,177.04312091317718,321.86551964549886
105801.0,14701.0,105801.0,9580.0,105801.0,24029.0,307.82003520822997,173.8025997410134,316.7318977801673
105801.0,14675.0,105801.0,9571.0,105801.0,24032.0,299.8756013383572,170.555595976458,311.5744276916197
105801.0,14671.0,105801.0,9586.0,105801.0,24034.0,291.9111614923686,167.3026922918289,306.39467553452243
105801.0,14674.0,105801.0,9581.0,105801.0,24019.0,283.9290331411052,164.04436455407549,301.1942188416924
105801.0,14658.0,105801.0,9563.0,105801.0,24002.0,275.9312598016822,160.78116266010034,295.9747367584803
105812.0,14642.0,105812.0,9565.0,105812.0,23989.0,267.9197036051842,157.51374594756788,290.7379190033346
105812.0,14640.0,105812.0,9545.0,105812.0,23989.0,259.8960373229189,154.24276506676935,285.4852704003654
105812.0,14637.0,105812.0,9558.0,105812.0,23982.0,251.8617086412898,150.9687299283918,280.21800520589136
105812.0,14636.0,105812.0,9550.0,105812.0,23979.0,243.81803245383293,147.69197096327767,274.9370797487429
105812.0,14620.0,105812.0,9562.0,105812.0,23978.0,235.76637064488386,144.4127341511186,269.6432904891609
105812.0,14611.0,105812.0,9535.0,105812.0,23954.0,227.70824956230166,141.13132683272457,264.33736056083944
105822.0,14590.0,105822.0,9526.0,105822.0,23951.0,219.64534227681088,137.8481240661789,259.01992572402844
105822.0,14570.0,105822.0,9527.0,105822.0,23946.0,211.5793236705374,134.56338694662628,253.6914318465296
105822.0,14588.0,105822.0,9530.0,105822.0,23957.0,203.51169139016088,131.27710941550865,248.35212197749024
105822.0,14570.0,105822.0,9530.0,105822.0,23942.0,195.44375093312306,127.98906354301118,243.00220001685045
105822.0,14563.0,105822.0,9525.0,105822.0,23940.0,187.37677695773544,124.69895221525778,237.64203133227784
105822.0,14532.0,105822.0,9521.0,105822.0,23912.0,179.31208768771785,121.40652352321175,232.27220627310004
105832.0,14533.0,105832.0,9506.0,105832.0,23896.0,171.25090891962554,118.11159019603011,226.8933977603137
105832.0,14521.0,105832.0,9515.0,105832.0,23913.0,163.1941955568861,114.81397432242417,221.5061201899453
105832.0,14527.0,105832.0,9510.0,105832.0,23906.0,155.142600858592,111.51348259827228,216.11066890076222
105832.0,14514.0,105832.0,9520.0,105832.0,23888.0,147.09660551161954,108.21000317189325,210.70728875730526
105832.0,14514.0,105832.0,9495.0,105832.0,23892.0,139.0566972197151,104.90365528446915,205.29629863384002
105832.0,14484.0,105832.0,9486.0,105832.0,23878.0,131.02348341301217,101.59480552473755,199.8780969099878
105843.0,14481.0,105843.0,9469.0,105843.0,23865.0,122.99765610907667,98.28386569697079,194.45315319803433
105843.0,14470.0,105843.0,9488.0,105843.0,23864.0,114.97986151940091,94.97104025961272,189.02197009719015
105843.0,14477.0,105843.0,9483.0,105843.0,23858.0,106.97065246375018,91.65627831063156,183.58504328989426
105843.0,14455.0,105843.0,9486.0,105843.0,23855.0,98.9705883274587,88.33945237308131,178.14290495774696
105843.0,14443.0,105843.0,9466.0,105843.0,23842.0,90.98032873745694,85.02053934719987,172.696210024001
105843.0,14426.0,105843.0,9463.0,105843.0,23822.0,83.00057522754719,81.69962554296274,167.24574782695151
105853.0,14430.0,105853.0,9453.0,105853.0,23817.0,75.03193776995454,78.37677221905929,161.79232051302938
105853.0,14428.0,105853.0,9468.0,105853.0,23812.0,67.0749204248907,75.05191161731977,156.33658323791917
105853.0,14412.0,105853.0,9475.0,105853.0,23812.0,59.130064535675615,71.724935387237,150.87899995128151
105853.0,14402.0,105853.0,9468.0,105853.0,23811.0,51.19807743277261,68.39597135245495,145.41994509796746
105853.0,14390.0,105853.0,9448.0,105853.0,23797.0,43.279829249029035,65.06561184364773,139.95986217369375
105853.0,14376.0,105853.0,9447.0,105853.0,23782.0,35.376276507425246,61.734891218167604,134.49934353006756
105864.0,14361.0,105864.0,9426.0,105864.0,23773.0,27.48836304366523,58.40508944698783,129.0390585576285
105864.0,14351.0,105864.0,9428.0,105864.0,23777.0,19.616894183591853,55.07751756236118,123.57963748280991
105864.0,14360.0,105864.0,9429.0,105864.0,23776.0,11.762456996924584,51.75337194605709,118.12168884262013
105864.0,14357.0,105864.0,9414.0,105864.0,23755.0,3.9255181399515777,48.43370396185085,112.66594049540066
105864.0,14326.0,105864.0,9410.0,105864.0,23734.0,-3.893363471461612,45.11941584962182,107.21327546482132
105864.0,14314.0,105864.0,9401.0,105864.0,23725.0,-11.693494522603032,41.811179636830246,101.76453509741214
105874.0,14302.0,105874.0,9409.0,105874.0,23737.0,-19.474250593422653,38.509351891354044,96.3202898523017
105874.0,14312.0,105874.0,9426.0,105874.0,23734.0,-27.235255754760146,35.21404011900182,90.88085494470005
105874.0,14300.0,105874.0,9410.0,105874.0,23734.0,-34.976332070123476,31.925363289468237,85.44654272716343
105874.0,14278.0,105874.0,9393.0,105874.0,23704.0,-42.69734246520045,28.643679826797268,80.01789073423038
105874.0,14266.0,105874.0,9383.0,105874.0,23702.0,-50.39818398703994,25.369528068786394,74.59566098019712
105874.0,14261.0,105874.0,9386.0,105874.0,23695.0,-58.07894157919793,22.103388463183023,69.1806853671988
105884.0,14264.0,105884.0,9379.0,105884.0,23669.0,-65.73997369854067,18.845540685681783,63.77373526499554
105884.0,14261.0,105884.0,9391.0,105884.0,23668.0,-73.38180025581232,15.596090541974831,58.375392974411795
105884.0,14257.0,105884.0,9397.0,105884.0,23672.0,-81.00486775048455,12.355136287439905,52.98592100172601
105884.0,14234.0,105884.0,9372.0,105884.0,23670.0,-88.60935551008288,9.122999479864632,47.6052991159641
105884.0,14208.0,105884.0,9353.0,105884.0,23656.0,-96.1951869459125,5.900277512419507,42.23341298783458
105884.0,14202.0,105884.0,9349.0,105884.0,23641.0,-103.76227617800646,2.6875882972219642,36.87016167980693
105895.0,14201.0,105895.0,9366.0,105895.0,23647.0,-111.31079551850917,-0.5147116224669048,31.515415180683817
105895.0,14204.0,105895.0,9361.0,105895.0,23639.0,-118.84121489964775,-3.706515803127729,26.168991977474207
105895.0,14201.0,105895.0,9340.0,105895.0,23624.0,-126.35410514858847,-6.887778839231146,20.83073154366457
105895.0,14176.0,105895.0,9354.0,105895.0,23622.0,-133.84990544694017,-10.058453072307032,15.500534252797365
105895.0,14164.0,105895.0,9344.0,105895.0,23609.0,-141.32887352344414,-13.218520719193975,10.178328245452235
105895.0,14162.0,105895.0,9332.0,105895.0,23603.0,-148.79121856963332,-16.367973691636053,4.864034080600106
105905.0,14155.0,105905.0,9334.0,105905.0,23598.0,-156.23719628754748,-19.506822057654688,-0.44245461500815964
105905.0,14157.0,105905.0,9339.0,105905.0,23602.0,-163.66704464221857,-22.635131146312688,-5.741242119539436
105905.0,14143.0,105905.0,9337.0,105905.0,23571.0,-171.08083316820512,-25.75294361341463,-11.032353210494819
105905.0,14112.0,105905.0,9303.0,105905.0,23571.0,-178.4783877243899,-28.860177535391415,-16.31574499293646
105905.0,14112.0,105905.0,9296.0,105905.0,23555.0,-185.85942223993715,-31.95676159082842,-21.59145046066584
105905.0,14107.0,105905.0,9318.0,105905.0,23552.0,-193.22374794105212,-35.04293245448201,-26.85971415646975
105915.0,14096.0,105915.0,9311.0,105915.0,23548.0,-200.57132936547657,-38.119301804277086,-32.12103898236768
105915.0,14104.0,105915.0,9310.0,105915.0,23562.0,-207.90219526786598,-41.186640317728745,-37.37611379813268
105915.0,14086.0,105915.0,9319.0,105915.0,23538.0,-215.2162995359089,-44.245655890212504,-42.625611676861126
105915.0,14058.0,105915.0,9281.0,105915.0,23526.0,-222.51344140156897,-47.29688950110153,-47.87003486325432
105915.0,14054.0,105915.0,9288.0,105915.0,23503.0,-229.79339268379675,-50.340789419027374,-53.109802716857075
105915.0,14054.0,105915.0,9284.0,105915.0,23504.0,-237.05611671915312,-53.37792123122637,-58.3455057244189
105926.0,14043.0,105926.0,9284.0,105926.0,23510.0,-244.30181995328678,-56.40907285978852,-63.578068555682876
105926.0,14037.0,105926.0,9280.0,105926.0,23515.0,-251.530860481202,-59.435199906208595,-68.80864810485275
105926.0,14040.0,105926.0,9276.0,105926.0,23494.0,-258.743651146003,-62.457352960304775,-74.03835958222896
105926.0,14013.0,105926.0,9267.0,105926.0,23482.0,-265.940571355108,-65.47665362731382,-79.2681179912239
105926.0,14016.0,105926.0,9259.0,105926.0,23479.0,-273.12193415024467,-68.49433340691607,-84.49870221600406
105926.0,14003.0,105926.0,9277.0,105926.0,23470.0,-280.28802471219,-71.51178074865993,-89.73086158182014
105936.0,14001.0,105936.0,9282.0,105936.0,23464.0,-287.4391070836191,-74.53043232455303,-94.9653353465435
105936.0,13990.0,105936.0,9264.0,105936.0,23467.0,-294.5753727956734,-77.55150240597521,-100.20281140935492
105936.0,13977.0,105936.0,9258.0,105936.0,23449.0,-301.6969022231234,-80.57581945666186,-105.44384850019782
105936.0,13970.0,105936.0,9238.0,105936.0,23433.0,-308.80368318706155,-83.60392573167823,-110.6888427794728
105936.0,13959.0,105936.0,9229.0,105936.0,23423.0,-315.8956645444613,-86.63633462274623,-115.93814204170326
105936.0,13947.0,105936.0,9263.0,105936.0,23431.0,-322.9728063167446,-89.67373121707135,-121.1922022783242
105946.0,13952.0,105946.0,9250.0,105946.0,23435.0,-330.03510814785056,-92.71687523043539,-126.45155993342308
105946.0,13948.0,105946.0,9245.0,105946.0,23421.0,-337.0825513370678,-95.76628521983199,-131.71660162711527
105946.0,13926.0,105946.0,9229.0,105946.0,23401.0,-344.1149605216325,-98.82208046627505,-136.98738227458813
105946.0,13917.0,105946.0,9217.0,105946.0,23387.0,-351.1319590533187,-101.8840999134859,-142.26369396385257
105946.0,13907.0,105946.0,9216.0,105946.0,23387.0,-358.13307878945295,-104.95213019061472,-147.545284406552
105946.0,13908.0,105946.0,9220.0,105946.0,23377.0,-365.1178624153546,-108.02605856492767,-152.83199426518246
105957.0,13893.0,105957.0,9221.0,105957.0,23377.0,-372.0858530820292,-111.1058476213332,-158.12374860655694
105957.0,13885.0,105957.0,9213.0,105957.0,23365.0,-379.0365482776266,-114.19139440902842,-163.42048748461355
105957.0,13869.0,105957.0,9201.0,105957.0,23358.0,-385.96942115994625,-117.28244405112511,-168.7221145829805
105957.0,13864.0,105957.0,9185.0,105957.0,23345.0,-392.88400734499237,-120.37866710336382,-174.02850237265142
105957.0,13858.0,105957.0,9196.0,105957.0,23360.0,-399.77997824558656,-123.47984198280784,-179.3395052213521
105957.0,13853.0,105957.0,9205.0,105957.0,23349.0,-406.65713824189515,-126.58592189194502,-184.6548549911493
105967.0,13847.0,105967.0,9208.0,105967.0,23341.0,-413.51535581581095,-129.69684256266692,-189.9739593700806
105967.0,13836.0,105967.0,9173.0,105967.0,23314.0,-420.3544873467339,-132.81226914899776,-195.29581544086267
105967.0,13822.0,105967.0,9172.0,105967.0,23313.0,-427.17435428812144,-135.93161618710536,-200.6191417184428
105967.0,13811.0,105967.0,9169.0,105967.0,23291.0,-433.9748061117275,-139.05431027889097,-205.94260119568173
105967.0,13808.0,105967.0,9167.0,105967.0,23293.0,-440.7558224817724,-142.17997374631585,-211.2649778254845
105967.0,13804.0,105967.0,9171.0,105967.0,23285.0,-447.51755145612185,-145.30841392230172,-216.58526196062138
105977.0,13808.0,105977.0,9179.0,105977.0,23295.0,-454.2602250296734,-148.43949094516773,-221.9026063410809
105977.0,13783.0,105977.0,9139.0,105977.0,23270.0,-460.98401070653813,-151.5729733462718,-227.21617694908707
105977.0,13769.0,105977.0,9142.0,105977.0,23250.0,-467.6889711133066,-154.70859595154963,-232.52509101561986
105977.0,13760.0,105977.0,9141.0,105977.0,23250.0,-474.3752146230297,-157.84631605736962,-237.82857374939562
105977.0,13763.0,105977.0,9155.0,105977.0,23247.0,-481.0430669968382,-160.98642992791912,-243.12614561217032
105977.0,13752.0,105977.0,9159.0,105977.0,23240.0,-487.6930839299472,-164.12938569496794,-248.41762969941038
105988.0,13744.0,105988.0,9145.0,105988.0,23235.0,-494.3259631810665,-167.27547681160172,-253.70305209733112
105988.0,13739.0,105988.0,9131.0,105988.0,23214.0,-500.94248983562215,-170.42468925164349,-258.9825910508622
105988.0,13720.0,105988.0,9107.0,105988.0,23212.0,-507.54353896792236,-173.57683803703037,-264.25663160844863
105988.0,13711.0,105988.0,9119.0,105988.0,23203.0,-514.1301397266362,-176.7318777415407,-269.5258670517312
105988.0,13711.0,105988.0,9118.0,105988.0,23214.0,-520.7035805795805,-179.89010567829803,-274.79131151003514
105988.0,13712.0,105988.0,9122.0,105988.0,23200.0,-527.2654261681245,-183.05210396895865,-280.05416505167466
105998.0,13699.0,105998.0,9129.0,105998.0,23206.0,-533.8173931153092,-186.21852167224512,-285.31561621916285
105998.0,13693.0,105998.0,9104.0,105998.0,23183.0,-540.3612203294451,-189.38986897253147,-290.5766973257345
105998.0,13684.0,105998.0,9084.0,105998.0,23169.0,-546.8986329134505,-192.56650959259088,-295.83827545103907
105998.0,13667.0,105998.0,9096.0,105998.0,23165.0,-553.4313733183535,-195.74890200792646,-301.10119124693756
105998.0,13671.0,105998.0,9095.0,105998.0,23161.0,-559.9612632601459,-198.93780005854615,-306.36640184223756
105998.0,13667.0,105998.0,9113.0,105998.0,23150.0,-566.4902194440642,-202.1341559309305,-311.63500234922753
