c_ts,c_val,d_ts,d_val,e_ts,e_val,c_val_filtered,d_val_filtered,e_val_filtered
69082,14849,69082,22954,69082.0,56458.0,-351.1798287068948,-267.6823713590228,-945.7813383980945
69082,14830,69082,22970,69082.0,56462.0,-357.9205701251028,-271.7926909254975,-961.5657629409878
69092,14847,69092,22967,69092.0,56431.0,-364.7717445129858,-275.92594985763765,-977.5133566830577
69092,14828,69092,22948,69092.0,56441.0,-371.72440050234496,-280.07571531981455,-993.5868028122145
69092,14845,69092,22972,69092.0,56391.0,-378.7690233113793,-284.2346309723318,-1009.7459766552524
69092,14842,69092,22986,69092.0,56443.0,-385.89536597263043,-288.3943245965705,-1025.9479923496026
69092,14825,69092,22968,69092.0,56372.0,-393.09224936878775,-292.5451070565427,-1042.1471377045143
69092,14817,69092,22917,69092.0,56332.0,-400.3474791403708,-296.67580285396275,-1058.294905055343
69103,14803,69103,22950,69103.0,56365.0,-407.6479587517739,-300.7740606690451,-1074.3404130233712
69103,14789,69103,22914,69103.0,56358.0,-414.97989387475764,-304.8268042605405,-1090.2307330284048
69103,14779,69103,22938,69103.0,56293.0,-422.32901565547036,-308.8204335417264,-1105.910772091759
69103,14783,69103,22938,69103.0,56300.0,-429.6807727140963,-312.7408147016388,-1121.323316704484
69103,14784,69103,22930,69103.0,56312.0,-437.0203790072478,-316.57314278274555,-1136.4093710807701
69103,14787,69103,22903,69103.0,56268.0,-444.3326795717456,-320.30185525950935,-1151.108253334022
69113,14783,69113,22938,69113.0,56266.0,-451.6019297433112,-323.91074685150613,-1165.3575445704264
69113,14791,69113,22927,69113.0,56268.0,-458.8115794096997,-327.3830229903923,-1179.0931964168026
69113,14788,69113,22958,69113.0,56279.0,-465.94405876264034,-330.701061761144,-1192.2495359162044
69113,14772,69113,22960,69113.0,56275.0,-472.9805883472167,-333.8459941439339,-1204.7589695138852
69113,14755,69113,22890,69113.0,56222.0,-479.90114956724705,-336.79740668820534,-1216.5516999106999
69113,14747,69113,22868,69113.0,56176.0,-486.6846708936704,-339.5336407799535,-1227.5559477087277
69123,14731,69123,22878,69123.0,56166.0,-493.30930090255106,-342.03266892005166,-1237.6987650963988
69123,14723,69123,22880,69123.0,56183.0,-499.7526595389826,-344.2727938579601,-1246.906871171404
69123,14702,69123,22858,69123.0,56176.0,-505.9920824747068,-346.23283737040185,-1255.1069506792655
69123,14704,69123,22909,69123.0,56169.0,-512.0048795155188,-347.8921249622439,-1262.225544000235
69123,14718,69123,22857,69123.0,56157.0,-517.7684985065232,-349.23038859644487,-1268.1889800175404
69123,14731,69123,22908,69123.0,56112.0,-523.260411308615,-350.2276285966709,-1272.923591014879
69134,14719,69134,22885,69134.0,56138.0,-528.457761026868,-350.86401025664145,-1276.3561978142545
69134,14715,69134,22880,69134.0,56115.0,-533.3370727561121,-351.119769495956,-1278.4146003975407
69134,14696,69134,22893,69134.0,56141.0,-537.8742269096099,-350.97522129495434,-1279.027823405384
69134,14679,69134,22861,69134.0,56087.0,-542.0446675577398,-350.4108978551323,-1278.1262584776618
69134,14694,69134,22867,69134.0,56064.0,-545.8237089406877,-349.4077725972407,-1275.6420963004412
69134,14675,69134,22881,69134.0,56050.0,-549.1867446441979,-347.94753824308464,-1271.5102124976263
69144,14670,69144,22829,69144.0,56045.0,-552.1093420191542,-346.0128343584007,-1265.6691857504068
69144,14639,69144,22842,69144.0,56055.0,-554.5674391745561,-343.58757874585604,-1258.062067751314
69144,14652,69144,22842,69144.0,56090.0,-556.537718183203,-340.657474072927,-1248.6367916126446
69144,14678,69144,22864,69144.0,56080.0,-557.9978820713079,-337.2103199079076,-1237.3462529401434
69144,14663,69144,22890,69144.0,56093.0,-558.9265732591211,-333.2359201551235,-1224.148324284854
69144,14663,69144,22897,69144.0,56085.0,-559.3031486864402,-328.72571984873474,-1209.0060999531267
69155,14655,69155,22892,69155.0,56125.0,-559.1076705116359,-323.6724367446057,-1191.888309794092
69155,14674,69155,22930,69155.0,56162.0,-558.3210482921722,-318.0698741721752,-1172.7695732834186
69155,14672,69155,22918,69155.0,56176.0,-556.9250823486135,-311.91279598504775,-1151.6303289621596
69155,14674,69155,22912,69155.0,56139.0,-554.902394761511,-305.19682536085867,-1128.4568083614586
69155,14647,69155,22888,69155.0,56143.0,-552.236459054571,-297.91863272497585,-1103.2416115592953
69155,14643,69155,22899,69155.0,56200.0,-548.9119051863295,-290.07646150388086,-1075.9847208796932
69165,14662,69165,22861,69165.0,56213.0,-544.9149749086879,-281.67075907983656,-1046.6942021572218
69165,14641,69165,22879,69165.0,56230.0,-540.2338406145136,-272.70481787770706,-1015.3864478432021
69165,14670,69165,22946,69165.0,56311.0,-534.8587618042322,-263.18523025799414,-982.086346185734
69165,14686,69165,22920,69165.0,56371.0,-528.7821382369233,-253.12179890487616,-946.8272403554181
69165,14701,69165,23009,69165.0,56406.0,-521.998362940381,-242.52703605972067,-909.6504520739983
69165,14693,69165,22968,69165.0,56457.0,-514.5035866299316,-231.4156317452648,-870.6047673370284
69175,14679,69175,23029,69175.0,56532.0,-506.2957195352157,-219.804042359665,-829.7461500230434
69175,14712,69175,23026,69175.0,56609.0,-497.3747233734285,-207.71023559630916,-787.1373681334964
69175,14707,69175,23055,69175.0,56601.0,-487.7428839028733,-195.15348592615584,-742.8474640686236
69175,14733,69175,23041,69175.0,56672.0,-477.4048758468223,-182.15422815694558,-696.951558668334
69175,14728,69175,23035,69175.0,56744.0,-466.3677556982012,-168.73418093461967,-649.5310353478284
69175,14754,69175,23054,69175.0,56769.0,-454.64100164981625,-154.91676178194012,-600.6735878651272
69186,14753,69186,23059,69186.0,56835.0,-442.2365822051377,-140.72752785732712,-550.4731351486845
69186,14771,69186,23084,69186.0,56935.0,-429.16903899308,-126.19442108288939,-499.029784496954
69186,14820,69186,23159,69186.0,57015.0,-415.4555145894131,-111.34771359932066,-446.44948393076425
69186,14850,69186,23166,69186.0,57132.0,-401.11551440570645,-96.21951705365936,-392.84315201410857
69186,14854,69186,23190,69186.0,57195.0,-386.1704203052422,-80.8430773530421,-338.3255387301681
69186,14873,69186,23209,69186.0,57289.0,-370.64314589429483,-65.25233144808277,-283.01413762486584
69196,14892,69196,23259,69196.0,57371.0,-354.558096719221,-49.48169269529308,-227.0282972906341
69196,14917,69196,23277,69196.0,57414.0,-337.9412039232092,-33.565717647891574,-170.48852029846046
69196,14942,69196,23275,69196.0,57489.0,-320.8198585543497,-17.538707804031674,-113.51603880816947
69196,14953,69196,23286,69196.0,57576.0,-303.2227881814392,-1.4345993460815976,-56.23263259923601
69196,14962,69196,23280,69196.0,57628.0,-285.18001861274695,14.712775244471402,1.239613915561904
69196,14980,69196,23314,69196.0,57717.0,-266.72300680463104,30.86929764596266,58.77866213804532
69206,15016,69206,23321,69206.0,57817.0,-247.8848164894567,47.00030029608064,116.26292246122739
69206,15057,69206,23373,69206.0,57877.0,-228.70008658308532,63.07054964148432,173.57185376234656
69206,15078,69206,23396,69206.0,57963.0,-209.2047245167559,79.04449739943954,230.5866558907478
69206,15118,69206,23463,69206.0,58055.0,-189.43550955457908,94.88679692278924,287.1908688214337
69206,15144,69206,23460,69206.0,58145.0,-169.429746596729,110.56299474635341,343.27104016756243
69206,15171,69206,23497,69206.0,58206.0,-149.22496118531654,126.0401313212655,398.7175336248956
69217,15215,69217,23511,69217.0,58282.0,-128.85861629373494,141.28707193550787,453.4252270295017
69217,15228,69217,23531,69217.0,58347.0,-108.36782337790675,156.2746781645585,507.2939740572617
69217,15236,69217,23558,69217.0,58395.0,-87.78913349739145,170.97595240009474,560.2289098697208
69217,15279,69217,23550,69217.0,58437.0,-67.15853884589234,185.36614425784632,612.140563476853
69217,15289,69217,23510,69217.0,58471.0,-46.511537797965616,199.4226052263558,662.9446706137253
69217,15318,69217,23561,69217.0,58547.0,-25.883108501148342,213.1242223713233,712.5618074132499
69227,15332,69227,23558,69227.0,58589.0,-5.3076869992418665,226.45083253332092,760.9171511715354
69227,15376,69227,23611,69227.0,58704.0,15.180828987639813,239.38309935531055,807.9405853013907
69227,15384,69227,23635,69227.0,58760.0,35.54915292951131,251.9028133226676,853.5672278022842
69227,15423,69227,23656,69227.0,58825.0,55.76473783807404,263.99339080785876,897.7382398091574
69227,15432,69227,23696,69227.0,58880.0,75.79587416279992,275.6403925936527,940.4015378820391
69227,15522,69227,23691,69227.0,58933.0,95.61185947200772,286.83196122008394,981.512248016938
69237,15511,69237,23724,69237.0,58952.0,115.1834392687457,297.5591330961679,1021.0329556802931
69237,15531,69237,23688,69237.0,58970.0,134.48330339520822,307.8159346903799,1058.9336420189243
69237,15535,69237,23689,69237.0,58966.0,153.48617756346675,317.59914571567947,1095.1911698527201
69237,15560,69237,23678,69237.0,58990.0,172.16855946718147,326.90773153185194,1129.7884094799974
69237,15560,69237,23678,69237.0,59045.0,190.50843623455694,335.7421836774595,1162.7133632610196
69237,15597,69237,23671,69237.0,59045.0,208.48507303405592,344.1039648765968,1193.9586437027992
69248,15598,69248,23669,69248.0,59123.0,226.0788735518986,351.99503423084775,1223.5212771169624
69248,15660,69248,23742,69248.0,59150.0,243.2713737290586,359.4175598148165,1251.4027298902633
69248,15673,69248,23757,69248.0,59217.0,260.0454543907375,366.37416264776664,1277.6092222286993
69248,15683,69248,23762,69248.0,59200.0,276.3856883701717,372.86862316300915,1302.1521512428021
69248,15710,69248,23743,69248.0,59217.0,292.27853733604104,378.90638630578223,1325.0481880758607
69248,15722,69248,23799,69248.0,59253.0,307.7123603724348,384.4946000255777,1346.3189434780147
69258,15741,69258,23756,69258.0,59293.0,322.6774128382341,389.6420856572363,1365.9906627021815
69258,15739,69258,23782,69258.0,59265.0,337.1658237434807,394.3593573362491,1384.0942040195578
69258,15741,69258,23734,69258.0,59256.0,351.1714244681782,398.65842101140595,1400.6648284882694
69258,15758,69258,23741,69258.0,59270.0,364.68942706013866,402.55228796075676,1415.7414863111867
69258,15770,69258,23730,69258.0,59275.0,377.71612231077233,406.054370398924,1429.3660094702159
69258,15801,69258,23759,69258.0,59259.0,390.24876371507935,409.17803398944375,1441.5825331870587
69268,15833,69268,23724,69268.0,59353.0,402.28569208058354,411.93643433003206,1452.4371327288295
69268,15818,69268,23773,69268.0,59337.0,413.8266098081697,414.3424690147317,1461.9778927006373
69268,15844,69268,23782,69268.0,59310.0,424.8727296731638,416.4088509203541,1470.2552555598768
69268,15847,69268,23785,69268.0,59346.0,435.42670097876885,418.14843991178293,1477.3219637832394
69268,15869,69268,23828,69268.0,59358.0,445.49252351159544,419.5746827964608,1483.232703339357
69268,15892,69268,23794,69268.0,59308.0,455.07559087673667,420.7020052808966,1488.043920316796
69279,15886,69279,23787,69279.0,59312.0,464.18282665812,421.5460016873967,1491.8134790812444
69279,15865,69279,23721,69279.0,59285.0,472.8226906225093,422.12311031186596,1494.5999112291825
69279,15876,69279,23762,69279.0,59311.0,481.00483820916406,422.4498224933852,1496.4616602459414
69279,15873,69279,23749,69279.0,59263.0,488.73961112515724,422.5420036564964,1497.4565729529909
69279,15904,69279,23737,69279.0,59257.0,496.03770682146876,422.41466376301787,1497.641409210305
69279,15903,69279,23763,69279.0,59314.0,502.9101317553334,422.0819115595949,1497.0713153972315
69289,15911,69289,23761,69289.0,59268.0,509.3682923890866,421.5569585725136,1495.7996443507282
69289,15917,69289,23768,69289.0,59316.0,515.4240272708602,420.8522816742426,1493.878111888232
69289,15912,69289,23761,69289.0,59292.0,521.0895332844416,419.9798061805602,1491.3569360649701
69289,15931,69289,23758,69289.0,59231.0,526.3772484234393,418.950949200124,1488.2847753603455
69289,15966,69289,23842,69289.0,59306.0,531.2998424766997,417.7767231973701,1484.7083407266516
69289,15937,69289,23777,69289.0,59334.0,535.8704184337082,416.4682009304313,1480.6721899084932
69299,15942,69299,23727,69299.0,59270.0,540.1026429039135,415.03686987822243,1476.2191780982535
69299,15940,69299,23755,69299.0,59263.0,544.0105501392983,413.49417356853814,1471.3907499529814
69299,15941,69299,23726,69299.0,59247.0,547.6082337356296,411.8507251325615,1466.2264664970514
69299,15947,69299,23741,69299.0,59253.0,550.9096441251347,410.11591923854496,1460.7633686441002
69299,15940,69299,23746,69299.0,59247.0,553.9284590304514,408.29785302546577,1455.0356718786645
69299,15960,69299,23776,69299.0,59273.0,556.6779839346908,406.40345050220265,1449.0747484091698
69310,15977,69310,23798,69310.0,59287.0,559.1711630765212,404.43889538166235,1442.9093673568152
69310,15957,69310,23760,69310.0,59277.0,561.420732920732,402.41019201011864,1436.5661332768107
69310,15966,69310,23779,69310.0,59300.0,563.4392991246966,400.3234433716294,1430.069893398569
69310,15975,69310,23785,69310.0,59272.0,565.2392374277249,398.1848237088974,1423.4439912982932
69310,15989,69310,23795,69310.0,59293.0,566.8326588794558,396.0006462576312,1416.7103945304975
69310,15976,69310,23771,69310.0,59238.0,568.231528052068,393.7775785106395,1409.8896691561126
69320,15971,69320,23756,69320.0,59275.0,569.4477051657241,391.52266077502054,1403.0007781985876
69320,15950,69320,23717,69320.0,59201.0,570.4927397263341,389.2429436503141,1396.060774198644
69320,15963,69320,23743,69320.0,59262.0,571.3774982687129,386.9449061024994,1389.0844702570516
69320,15961,69320,23719,69320.0,59200.0,572.1118585648966,384.63401211148556,1382.0842003257742
69320,15970,69320,23702,69320.0,59234.0,572.7046095881568,382.3144906856989,1375.0697067248807
69320,15979,69320,23792,69320.0,59239.0,573.1635063237138,379.9892601469613,1368.0481221117905
69330,15996,69330,23784,69330.0,59240.0,573.4954265261882,377.66033248538696,1361.0241528466372
69330,15977,69330,23759,69330.0,59276.0,573.7065826267301,375.3296450678443,1354.0004776888436
69330,15994,69330,23754,69330.0,59298.0,573.8026388114562,372.9994858563401,1346.9783130999372
69330,16027,69330,23788,69330.0,59260.0,573.7887836623646,370.6723764793451,1339.9580782773273
69330,16004,69330,23725,69330.0,59278.0,573.6699848326737,368.3509817452402,1332.9397935812424
69330,15993,69330,23737,69330.0,59266.0,573.4512313105278,366.0379868310225,1325.9231010338021
69341,15981,69341,23699,69341.0,59239.0,573.1373968177105,363.73565874418574,1318.9071780679644
69341,15986,69341,23725,69341.0,59204.0,572.7328577499762,361.44533684674616,1311.890481807179
69341,15975,69341,23726,69341.0,59221.0,572.2411913252425,359.1671943827255,1304.8702227236256
69341,15983,69341,23714,69341.0,59237.0,571.6650084443369,356.90029525471164,1297.841978547793
69341,16011,69341,23736,69341.0,59235.0,571.0059252000788,354.6427274835891,1290.799800652552
69341,16032,69341,23734,69341.0,59270.0,570.2648206824782,352.39173243212986,1283.7366430644242
69351,16004,69351,23777,69351.0,59248.0,569.4423061479833,350.14398770161984,1276.6448552558145
69351,16010,69351,23775,69351.0,59277.0,568.5389845878303,347.8961206876639,1269.5166195419645
69351,16020,69351,23752,69351.0,59285.0,567.5553853218639,345.6452363586589,1262.3443313017794
69351,16037,69351,23783,69351.0,59311.0,566.4919500095225,343.38915377893574,1255.1210801201148
69351,16014,69351,23793,69351.0,59230.0,565.3492218401741,341.126509315948,1247.841104598701
69351,16012,69351,23763,69351.0,59248.0,564.1279424260899,338.85700384817903,1240.4997353651959
69361,16006,69361,23735,69361.0,59233.0,562.8288924602067,336.58147022197574,1233.0928790857727
69361,16011,69361,23665,69361.0,59212.0,561.4526703940247,334.3013258701241,1225.616598137407
69361,16012,69361,23708,69361.0,59214.0,559.9995952958891,332.01757247071833,1218.066875123584
69361,16014,69361,23734,69361.0,59213.0,558.469725778237,329.7301015059003,1210.4394207073185
69361,16027,69361,23694,69361.0,59250.0,556.86294439177,327.43776508024905,1202.7297009582853
69361,16024,69361,23737,69361.0,59253.0,555.1791034370164,325.1387040521006,1194.9333442265606
69372,16024,69372,23756,69372.0,59227.0,553.4181836269983,322.8305894804426,1187.0467010298146
69372,16037,69372,23772,69372.0,59251.0,551.580402869461,320.511103260327,1179.0671624656834
69372,16036,69372,23729,69372.0,59273.0,549.6663338560228,318.17852242657085,1170.9933323776936
69372,16041,69372,23764,69372.0,59225.0,547.677072948084,315.83192150295076,1162.8253488182627
69372,16014,69372,23743,69372.0,59238.0,545.6143368933056,313.4711042534004,1154.565087721147
69372,16003,69372,23716,69372.0,59181.0,543.4803213929365,311.09653401908497,1146.215957363469
69382,16009,69382,23746,69382.0,59210.0,541.2773578942467,308.70916348765104,1137.7824737888886
69382,16017,69382,23724,69382.0,59162.0,539.0076619804792,306.3102529256885,1129.2698821947324
69382,16002,69382,23685,69382.0,59196.0,536.6733250655282,303.9012638658844,1120.6839253289945
69382,16007,69382,23698,69382.0,59170.0,534.2763570707585,301.4835388205462,1112.030776945261
69382,16034,69382,23729,69382.0,59180.0,531.8187091868683,299.0579268520298,1103.3171117997972
69382,16013,69382,23744,69382.0,59180.0,529.3024405760052,296.62491148139827,1094.5502290183902
69393,16024,69393,23740,69393.0,59153.0,526.7299459773171,294.18517614729706,1085.7381598100594
69393,16026,69393,23782,69393.0,59195.0,524.1040620129775,291.7401660232031,1076.8897471474445
69393,16033,69393,23778,69393.0,59207.0,521.4281573487364,289.29260568781774,1068.014889405305
69393,15996,69393,23709,69393.0,59191.0,518.7062288771439,286.84688557439074,1059.1250852790454
69393,16005,69393,23682,69393.0,59124.0,515.9427893009426,284.40878284693554,1050.233789918228
69393,16009,69393,23671,69393.0,59127.0,513.1426067007508,281.9844862102292,1041.356057758245
69403,15976,69403,23695,69403.0,59105.0,510.31054283758044,279.5797117029945,1032.5077954130443
69403,15976,69403,23658,69403.0,59050.0,507.45138278275886,277.19938081122433,1023.7051260325321
69403,15981,69403,23685,69403.0,59083.0,504.5695464411343,274.8475733558529,1014.9638241457321
69403,16010,69403,23694,69403.0,59109.0,501.6689813259779,272.5275364363166,1006.2989864208935
69403,15997,69403,23685,69403.0,59050.0,498.75341857798566,270.2418646489634,997.7252231793418
69403,16003,69403,23710,69403.0,59079.0,495.82672699180847,267.9927786187935,989.2568986482863
69413,15990,69413,23705,69413.0,59074.0,492.89307755814576,265.7823823576815,980.9081017543831
69413,16008,69413,23696,69413.0,59117.0,489.9569568442605,263.612899372927,972.6928023265291
69413,15991,69413,23713,69413.0,59048.0,487.0231990691872,261.4868024586086,964.6252934343382
69413,15987,69413,23693,69413.0,59043.0,484.09702256224267,259.40685530904256,956.720338599769
69413,15970,69413,23689,69413.0,58999.0,481.18393283633736,257.37610837120457,948.9927137900577
69413,15969,69413,23676,69413.0,59003.0,478.2894900852519,255.39775778008564,941.4564938216324
69424,15956,69424,23672,69424.0,59005.0,475.4190583055549,253.47489561222153,934.1245360175784
69424,15958,69424,23653,69424.0,59010.0,472.5776026496432,251.6102464719222,927.0083448278771
69424,15966,69424,23681,69424.0,58986.0,469.7695773375373,249.80594495425441,920.1181814097647
69424,15959,69424,23710,69424.0,58990.0,466.9989484902457,248.06356638888624,913.4631061433629
69424,15966,69424,23701,69424.0,59010.0,464.26929305284966,246.38455447801192,907.0509416068239
69424,15958,69424,23663,69424.0,59039.0,461.58387653981123,244.7706430532711,900.8884876052241
69434,15966,69434,23681,69434.0,58999.0,458.9457013907042,243.22379632776082,894.9820244223616
69434,15982,69434,23692,69434.0,59024.0,456.35760070709495,241.745928645424,889.3376770653866
69434,15971,69434,23696,69434.0,58992.0,453.8224420304236,240.3389197130332,883.9614500640187
69434,15947,69434,23684,69434.0,58956.0,451.34328119341393,239.00484835154094,878.8590338102529
69434,15939,69434,23642,69434.0,58962.0,448.92321116314787,237.74600555837384,874.0353498669334
69434,15946,69434,23642,69434.0,58932.0,446.5650089881997,236.56448241889908,869.493976727199
69444,15952,69444,23622,69444.0,58914.0,444.27093490355185,235.46154731189063,865.2366622912425
69444,15945,69444,23659,69444.0,58910.0,442.0427806443687,234.43720899695325,861.2628480748651
69444,15948,69444,23684,69444.0,58999.0,439.88197261916173,233.49025089187356,857.5694256835823
69444,15947,69444,23717,69444.0,58981.0,437.7896104840874,232.61879724986605,854.1512153094639
69444,15953,69444,23683,69444.0,59004.0,435.7664997589631,231.8210814030852,851.0019194510778
69444,15955,69444,23670,69444.0,58983.0,433.813237136173,231.09582722267757,848.1147931188351
69455,15961,69455,23678,69455.0,58993.0,431.93034238377464,230.44206778404524,845.4828323949797
69455,15958,69455,23723,69455.0,58989.0,430.11840241828185,229.85893553882514,843.0987588096953
69455,15954,69455,23678,69455.0,59006.0,428.3781688404547,229.345857100581,840.9550284378324
69455,15920,69455,23662,69455.0,58937.0,426.7104996333338,228.9027378096115,839.0438214290325
69455,15926,69455,23631,69455.0,58949.0,425.11606000343284,228.5295977869976,837.3566965167124
69455,15933,69455,23649,69455.0,58961.0,423.59495638040977,228.22588209392805,835.8839917117432
69465,15936,69465,23642,69465.0,58913.0,422.14660913859416,227.9899853351987,834.614426795611
69465,15926,69465,23653,69465.0,59002.0,420.7698397542826,227.81914048623506,833.5349726895859
69465,15940,69465,23697,69465.0,58994.0,419.46293969002113,227.70958093041645,832.6310629428624
69465,15933,69465,23659,69465.0,58997.0,418.22370080557977,227.65691710582115,831.8872145389543
69465,15942,69465,23696,69465.0,58978.0,417.04948425090663,227.65649515107495,831.287497914583
69465,15929,69465,23672,69465.0,59030.0,415.9372854132779,227.70354543427524,830.8155936019729
69475,15951,69475,23699,69475.0,59020.0,414.88376262351403,227.79325265370773,830.4549196727792
69475,15957,69475,23688,69475.0,59020.0,413.8853349501952,227.9208609904647,830.1889802626041
69475,15920,69475,23701,69475.0,59019.0,412.9383410933842,228.08179625354148,830.0015673917451
69475,15924,69475,23658,69475.0,59011.0,412.03897617227494,228.27169588887344,829.8767012600903
69475,15922,69475,23647,69475.0,58980.0,411.18296605190136,228.48613653442928,829.7984087019453
69475,15937,69475,23639,69475.0,58993.0,410.36534360347247,228.72006331385793,829.7503302012827
69486,15950,69486,23700,69486.0,58975.0,409.5805294102578,228.96736623544928,829.7152814588922
69486,15940,69486,23685,69486.0,59041.0,408.8225895846879,229.22104301004063,829.6750675308172
69486,15949,69486,23705,69486.0,59043.0,408.0854462416344,229.47374408851235,829.6107807977063
69486,15963,69486,23718,69486.0,59043.0,407.362990223437,229.71822861342753,829.503435617188
69486,15959,69486,23725,69486.0,59093.0,406.6492379303354,229.94770115927,829.3345294474861
69486,15962,69486,23741,69486.0,59088.0,405.93852435621847,230.15616305416464,829.086526998465
69496,15968,69496,23743,69496.0,59091.0,405.2256191922881,230.33875016508355,828.7433793030888
69496,15950,69496,23705,69496.0,59067.0,404.50576820329974,230.4919237702129,828.2907888769039
69496,15934,69496,23653,69496.0,59022.0,403.77460135702495,230.61320099838142,827.7159705396693
69496,15946,69496,23652,69496.0,59005.0,403.02786131652726,230.70029543680292,827.0069286006752
69496,15937,69496,23650,69496.0,59027.0,402.2611527871019,230.7501476186227,826.1515867661093
69496,15929,69496,23669,69496.0,59033.0,401.469832257544,230.75841616360518,825.1373216158821
69506,15955,69506,23672,69506.0,59073.0,400.6489512599528,230.71948027127044,823.9510983691189
69506,15952,69506,23707,69506.0,59040.0,399.7933160333445,230.62672907526596,822.579917929348
69506,15967,69506,23740,69506.0,59050.0,398.89772850810635,230.47308137199352,821.0111283831599
69506,15954,69506,23748,69506.0,59088.0,397.9572428311149,230.2517419995175,819.2325042283006
69506,15961,69506,23723,69506.0,59087.0,396.96728986450984,229.95689355138487,817.2324802641506
69506,15974,69506,23752,69506.0,59088.0,395.92372445545675,229.58397758018853,815.0006214824868
69517,15967,69517,23728,69517.0,59070.0,394.82293525873826,229.1297010621368,812.5279185108693
69517,15952,69517,23702,69517.0,59065.0,393.66195653263867,228.59195040265146,809.8067288297888
69517,15947,69517,23685,69517.0,59054.0,392.4383836994859,227.96943702821778,806.8305259496465
69517,15923,69517,23655,69517.0,59018.0,391.15008669618567,227.26104832963424,803.5935660764623
69517,15940,69517,23712,69517.0,59047.0,389.7948709503845,226.46525815634186,800.0904866463578
69517,15923,69517,23678,69517.0,59059.0,388.37023783353595,225.57997129169075,796.3160797625653
69527,15942,69527,23707,69527.0,59055.0,386.87330942331414,224.60273113065983,792.2654795068783
69527,15946,69527,23701,69527.0,59033.0,385.3008974195311,223.53094254685877,787.9344617562122
69527,15957,69527,23724,69527.0,59068.0,383.64971225715846,222.36207764458788,783.3195227430573
69527,15947,69527,23701,69527.0,59071.0,381.91662954350085,221.09392721072885,778.4179813605793
69527,15956,69527,23750,69527.0,59051.0,380.0988641665871,219.72482509004342,773.2282995967059
69527,15969,69527,23723,69527.0,59025.0,378.1940805039491,218.25391030952048,767.7502508379855
69537,15950,69537,23711,69537.0,59012.0,376.20054809904434,216.68136831320317,761.9846527688577
69537,15925,69537,23651,69537.0,59022.0,374.11718907592194,215.00826682695282,755.932938074887
69537,15906,69537,23680,69537.0,58971.0,371.9432745018177,213.23589932977737,749.5968604115194
69537,15924,69537,23653,69537.0,58978.0,369.6779235378781,211.36512381935037,742.9782060767652
69537,15920,69537,23677,69537.0,58959.0,367.31982026765974,209.39607729583037,736.0784040759135
69537,15934,69537,23689,69537.0,58984.0,364.8672777524146,207.3282254659611,728.8982814156597
69548,15940,69548,23718,69548.0,59049.0,362.3184793624092,205.1606990923352,721.4382954690107
69548,15933,69548,23686,69548.0,58980.0,359.6717476797709,202.89280164768326,713.6992696855018
69548,15930,69548,23698,69548.0,58985.0,356.92572365125534,200.52432807403113,705.6829931262685
69548,15936,69548,23699,69548.0,58977.0,354.07941354336043,198.055593477995,697.3921879769654
69548,15944,69548,23741,69548.0,58985.0,351.13224337730026,195.4875340102964,688.8303084056581
69548,15935,69548,23684,69548.0,58969.0,348.084213964137,192.82204181300085,680.0015997024743
69558,15907,69558,23667,69558.0,58926.0,344.9359885875424,190.06208068821397,670.9111565269778
69558,15902,69558,23668,69558.0,58913.0,341.68870488990825,187.2112727975304,661.5646441865476
69558,15906,69558,23621,69558.0,58922.0,338.3436303405706,184.27330437887855,651.9678264645947
69558,15898,69558,23663,69558.0,58869.0,334.90196076156917,181.2514680935871,642.1262519437075
69558,15899,69558,23639,69558.0,58864.0,331.3648003221798,178.14843902839596,632.0449994769101
69558,15891,69558,23669,69558.0,58889.0,327.73317320839317,174.96635710173143,621.7283672768503
69568,15896,69568,23667,69568.0,58890.0,324.00802240844604,171.7071065053422,611.1798899632843
69568,15898,69568,23684,69568.0,58873.0,320.1902502198938,168.37267877897523,600.4027603264547
69568,15902,69568,23659,69568.0,58882.0,316.2808449670039,164.96552231240494,589.4002145139767
69568,15896,69568,23690,69568.0,58875.0,312.2810574691139,161.48874868669125,578.1757510107104
69568,15905,69568,23676,69568.0,58861.0,308.1925563939601,157.94628279008785,566.7333350773031
69568,15880,69568,23647,69568.0,58858.0,304.0175280485519,154.3429991022205,555.0775561476157
69579,15865,69579,23633,69579.0,58798.0,299.7586294837387,150.68459105313264,543.21360448575
69579,15867,69579,23612,69579.0,58789.0,295.41874829575056,146.97711663683953,531.146941480918
69579,15856,69579,23588,69579.0,58769.0,291.0007531980277,143.22645282700918,518.8827504328078
69579,15845,69579,23573,69579.0,58780.0,286.50736074189115,139.43775169679103,506.4255481115233
69579,15845,69579,23630,69579.0,58775.0,281.94102702714144,135.61505388531302,493.7791856051947
69579,15827,69579,23599,69579.0,58797.0,277.30382384066,131.76137899424177,480.94717152265946
69589,15851,69589,23612,69589.0,58748.0,272.59736390246377,127.87913493221615,467.9331109994372
69589,15837,69589,23579,69589.0,58760.0,267.82286217088506,123.97032398599362,454.7409608742224
69589,15843,69589,23626,69589.0,58743.0,262.98131898615077,120.03650708565138,441.37505031808905
69589,15846,69589,23604,69589.0,58749.0,258.07370358621506,116.07889653610485,427.8401399840751
69589,15829,69589,23625,69589.0,58723.0,253.10109546001397,112.09866620459971,414.1416065507764
69589,15849,69589,23614,69589.0,58729.0,248.0647895739483,108.09726258259676,400.28560679215286
69600,15820,69600,23563,69600.0,58674.0,242.96637757542965,104.07650216522,386.27912183106105
69600,15805,69600,23560,69600.0,58632.0,237.80774421746347,100.03826284692343,372.1297154285621
69600,15790,69600,23563,69600.0,58660.0,232.59084336296976,95.98391903228662,357.8449979877241
69600,15798,69600,23568,69600.0,58616.0,227.31737088445985,91.91402431139844,343.43224529364477
69600,15788,69600,23582,69600.0,58657.0,221.98860355194356,87.8284096264918,328.8984429212554
69600,15802,69600,23592,69600.0,58627.0,216.60545040015407,83.72651679961834,314.2505982215473
69610,15793,69610,23575,69610.0,58606.0,211.1686214171131,79.6077832631895,299.4960909720662
69610,15789,69610,23595,69610.0,58578.0,205.67881435865246,75.47191206036928,284.6427669941104
69610,15802,69610,23597,69610.0,58601.0,200.13685692625387,71.3190635546108,269.69878865767055
69610,15795,69610,23619,69610.0,58552.0,194.54387106374583,67.15016515285325,254.6726002137342
69610,15781,69610,23566,69610.0,58547.0,188.90146338900024,62.96725808282346,239.57298340103227
69610,15754,69610,23531,69610.0,58510.0,183.21173934906466,58.77344609138626,224.408931872699
69620,15768,69620,23510,69620.0,58483.0,177.4770843809431,54.57223350855793,209.1893441556972
69620,15744,69620,23509,69620.0,58461.0,171.6999467611605,50.36666946908633,193.9226319903113
69620,15732,69620,23473,69620.0,58450.0,165.88271718259347,46.158747452894886,178.61634494853035
69620,15726,69620,23531,69620.0,58450.0,160.0275633201341,41.94910457554579,163.27698509905565
69620,15736,69620,23556,69620.0,58458.0,154.13626787746938,37.73718044047311,147.910122776702
69620,15745,69620,23522,69620.0,58445.0,148.2102886055401,33.52188814473146,132.52076871783527
69631,15746,69631,23530,69631.0,58412.0,142.25106249275063,29.30218223855462,117.1137453605902
69631,15721,69631,23566,69631.0,58430.0,136.26032337081932,25.077230226483096,101.6938325060496
69631,15720,69631,23551,69631.0,58416.0,130.24018599084854,20.84667332864211,86.26586526330448
69631,15708,69631,23510,69631.0,58406.0,124.19302079465132,16.61098259483856,70.83499660633242
69631,15683,69631,23512,69631.0,58376.0,118.12127918554091,12.371384213203783,55.40693617291538
69631,15682,69631,23482,69631.0,58335.0,112.02727124645531,8.129396495777144,39.98789800164707
69641,15686,69641,23494,69641.0,58273.0,105.91295046765799,3.8864014617002454,24.584141667182735
69641,15677,69641,23487,69641.0,58304.0,99.7798774256052,-0.35657498712510005,9.201244227438906
69641,15662,69641,23470,69641.0,58243.0,93.6292955661076,-4.5989188617024865,-6.156445927064283
69641,15684,69641,23501,69641.0,58315.0,87.46216523668289,-8.840423095458391,-21.485894226702726
69641,15673,69641,23513,69641.0,58267.0,81.27926318157171,-13.081122627312311,-36.78503862629748
69641,15659,69641,23497,69641.0,58265.0,75.08138389144165,-17.320876478612774,-52.05226885852392
69651,15661,69651,23495,69651.0,58286.0,68.86943635966372,-21.559010504810658,-67.28605415713503
69651,15663,69651,23513,69651.0,58293.0,62.64444228700586,-25.794202966794956,-82.4845576162952
69651,15656,69651,23511,69651.0,58254.0,56.4076198603899,-30.0243437942691,-97.64504904194507
69651,15651,69651,23450,69651.0,58192.0,50.16052271374389,-34.24637568231054,-112.76362836579574
69651,15617,69651,23428,69651.0,58177.0,43.905059988806386,-38.45658659242656,-127.83566648352439
69651,15622,69651,23419,69651.0,58157.0,37.6433124477025,-42.65139827512718,-142.8565568766487
69662,15607,69662,23414,69662.0,58128.0,31.37727004610531,-46.82808630940872,-157.82223580786092
69662,15596,69662,23410,69662.0,58124.0,25.108658869247392,-50.98511201954875,-172.72945302147605
69662,15593,69662,23426,69662.0,58133.0,18.838831059002416,-55.12217360952144,-187.57586998174008
69662,15621,69662,23449,69662.0,58104.0,12.568748031495602,-59.24001096825123,-202.35991088008245
69662,15593,69662,23453,69662.0,58130.0,6.299190504170269,-63.339933804312864,-217.08046970256567
69662,15592,69662,23459,69662.0,58117.0,0.031019233588949646,-67.42325118095982,-231.7365584136785
69672,15584,69672,23425,69672.0,58121.0,-6.234772601541408,-71.49089990377792,-246.3268517806515
69672,15585,69672,23483,69672.0,58130.0,-12.497108146536107,-75.54332636596553,-260.84919161720313
69672,15586,69672,23439,69672.0,58032.0,-18.754782503977594,-79.58033850551513,-275.30026703812223
69672,15552,69672,23444,69672.0,58051.0,-25.006381955273866,-83.60088738936977,-289.67580673917007
69672,15571,69672,23405,69672.0,57983.0,-31.250320614311022,-87.60311639404497,-303.97122674690274
69672,15536,69672,23408,69672.0,57962.0,-37.484964204827236,-91.58472658596028,-318.1823249827795
69682,15529,69682,23366,69682.0,57951.0,-43.70877423062353,-95.54343777318948,-332.30590338453396
69682,15524,69682,23368,69682.0,57972.0,-49.92051913637539,-99.47747244357305,-346.34014367672194
69682,15547,69682,23425,69682.0,57975.0,-56.11940275337321,-103.38586838083796,-360.2844373842735
69682,15521,69682,23370,69682.0,57974.0,-62.304923889290194,-107.26831848060846,-374.13880776671226
69682,15521,69682,23407,69682.0,57922.0,-68.47666743861231,-111.12479885901601,-387.9034093954691
69682,15528,69682,23418,69682.0,57953.0,-74.63423547679048,-114.9553313243396,-401.5784048937437
69693,15516,69693,23425,69693.0,57923.0,-80.77718479021479,-118.75964344412958,-415.16398409092994
69693,15520,69693,23400,69693.0,57936.0,-86.90488990975206,-122.53672419016823,-428.6602058449321
69693,15482,69693,23363,69693.0,57885.0,-93.01648344414411,-126.28473658272333,-442.0667960977164
69693,15481,69693,23348,69693.0,57884.0,-99.1110073008328,-130.00145736061194,-455.3831692983074
69693,15464,69693,23329,69693.0,57821.0,-105.18771613449718,-133.6849604120136,-468.6087258224585
69693,15471,69693,23333,69693.0,57816.0,-111.24632056241688,-137.33418178527967,-481.74336064864985
69703,15473,69703,23344,69703.0,57811.0,-117.28702648598517,-140.9491801534221,-494.7879829593927
69703,15470,69703,23346,69703.0,57828.0,-123.31038874229523,-144.53106847920282,-507.744690494889
69703,15463,69703,23380,69703.0,57828.0,-129.31711264792654,-148.08169175816846,-520.6164589957307
69703,15461,69703,23357,69703.0,57817.0,-135.3079309153847,-151.6031681847682,-533.4066097569962
69703,15445,69703,23360,69703.0,57793.0,-141.28356806552353,-155.0975102265591,-546.1184235242611
69703,15456,69703,23364,69703.0,57784.0,-147.2447457695365,-158.56648541780726,-558.755058483066
69713,15453,69713,23383,69713.0,57794.0,-153.19213600853607,-162.0115205113679,-571.3195921314102
69713,15446,69713,23376,69713.0,57758.0,-159.12621143747202,-165.4334303743792,-583.8149501630153
69713,15422,69713,23358,69713.0,57770.0,-165.04714268993735,-168.8321375306909,-596.2437870253984
69713,15406,69713,23300,69713.0,57712.0,-170.9549247454833,-172.2067546906452,-608.6084961497249
69713,15406,69713,23313,69713.0,57685.0,-176.8496736663182,-175.5561618112327,-620.9114772636046
69713,15405,69713,23323,69713.0,57705.0,-182.73184478514997,-178.8796426108413,-633.1556141636524
69724,15410,69724,23299,69724.0,57691.0,-188.6022225847044,-182.1770989241994,-645.3445358649362
69724,15406,69724,23326,69724.0,57680.0,-194.46174701470323,-185.44898053017084,-657.4824687816229
69724,15404,69724,23306,69724.0,57743.0,-200.31131181369307,-188.6961915154322,-669.5738862452845
69724,15396,69724,23315,69724.0,57675.0,-206.1516218296428,-191.91998125688804,-681.6229693994105
69724,15379,69724,23307,69724.0,57653.0,-211.98315383598634,-195.12186249403942,-693.6331828931591
69724,15381,69724,23332,69724.0,57640.0,-217.8062268938839,-198.3035260976912,-705.6074468909364
69734,15403,69734,23359,69734.0,57680.0,-223.6210324918385,-201.46655214173035,-717.5484823325635
69734,15377,69734,23327,69734.0,57649.0,-229.4274544626531,-204.61190306303382,-729.4586554542675
69734,15344,69734,23270,69734.0,57596.0,-235.2249134257591,-207.7396886036405,-741.339633138841
69734,15340,69734,23256,69734.0,57575.0,-241.01259193479757,-210.8496801028872,-753.1925674420761
69734,15323,69734,23263,69734.0,57544.0,-246.78988452217965,-213.94221188563705,-765.0187768629692
69734,15316,69734,23269,69734.0,57518.0,-252.55673470312047,-217.01871489902123,-776.8204325527634
69744,15335,69744,23288,69744.0,57569.0,-258.3137759832108,-220.08168020889764,-788.6009559755355
69744,15332,69744,23308,69744.0,57558.0,-264.06223234933407,-223.13427087112711,-800.3648749842503
69744,15324,69744,23276,69744.0,57545.0,-269.80363691414163,-226.17983911454604,-812.1172312972931
69744,15325,69744,23300,69744.0,57524.0,-275.53960950145756,-229.2216361078,-823.8631402818614
69744,15325,69744,23294,69744.0,57519.0,-281.27174979188237,-232.2627263493428,-835.6077538305051
69744,15324,69744,23330,69744.0,57549.0,-287.00151646262634,-235.3057989746477,-847.3562619025379
69755,15308,69755,23285,69755.0,57535.0,-292.73009429707963,-238.35281922164785,-859.1135743710665
69755,15297,69755,23289,69755.0,57503.0,-298.4583746902937,-241.40485590868747,-870.8838570544744
69755,15289,69755,23243,69755.0,57454.0,-304.1870818932156,-244.46231759071713,-882.6704661602328
69755,15283,69755,23268,69755.0,57444.0,-309.9169336627509,-247.5254253414481,-894.4764449301631
69755,15275,69755,23255,69755.0,57432.0,-315.64874320283377,-250.5945619222333,-906.3051493010487
69755,15254,69755,23214,69755.0,57430.0,-321.38350487098455,-253.6704285197497,-918.1605694024345
69765,15256,69765,23206,69765.0,57437.0,-327.1225405249837,-256.7543490204946,-930.0472941643775
69765,15281,69765,23252,69765.0,57425.0,-332.8675830306951,-259.84870155826763,-941.970256521166
69765,15258,69765,23267,69765.0,57405.0,-338.62060058928387,-262.9568782693074,-953.9344614399722
69765,15264,69765,23265,69765.0,57425.0,-344.38351158610806,-266.08266389965036,-965.9448342334442
69765,15240,69765,23276,69765.0,57449.0,-350.1580752458474,-269.2295977787496,-978.0059684160478
69765,15269,69765,23266,69765.0,57406.0,-355.9459074424932,-272.40062057977127,-990.121592841632
69775,15250,69775,23253,69775.0,57336.0,-361.7483909062171,-275.59793897619454,-1002.294278076693
69775,15237,69775,23244,69775.0,57324.0,-367.56650203851405,-278.82308988904447,-1014.5259424617464
69775,15206,69775,23209,69775.0,57329.0,-373.40083963723634,-282.07720425293275,-1026.8187145808572
69775,15221,69775,23209,69775.0,57299.0,-379.2519141882768,-285.3614277498584,-1039.1753769875506
69775,15205,69775,23221,69775.0,57278.0,-385.12039414575827,-288.67732240577544,-1051.5994518244875
69775,15195,69775,23205,69775.0,57298.0,-391.00716549864126,-292.0270041389382,-1064.095298585481
69786,15200,69786,23213,69786.0,57325.0,-396.91335233291204,-295.4130809662451,-1076.6680033230925
69786,15180,69786,23223,69786.0,57289.0,-402.8403509779059,-298.8385638156626,-1089.3228365572752
69786,15185,69786,23227,69786.0,57280.0,-408.7898473456953,-302.30668307995774,-1102.0647289936287
69786,15198,69786,23236,69786.0,57269.0,-414.7637850400173,-305.82058046239507,-1114.8981554659922
69786,15189,69786,23288,69786.0,57279.0,-420.7641809731607,-309.3828800626716,-1127.8271577952248
69786,15190,69786,23258,69786.0,57275.0,-426.7928491432392,-312.99505968454076,-1140.8551563203703
69796,15196,69796,23225,69796.0,57235.0,-432.8511842899695,-316.6569400122483,-1153.9846511615447
69796,15142,69796,23191,69796.0,57212.0,-438.94006608612676,-320.3668359929257,-1167.2171814246842
69796,15141,69796,23173,69796.0,57188.0,-445.0600436947951,-324.1222955518852,-1180.553653573466
69796,15145,69796,23176,69796.0,57193.0,-451.21174804586246,-327.92086714167306,-1193.9947292884842
69796,15140,69796,23151,69796.0,57144.0,-457.3961129018966,-331.76057239996027,-1207.5410319592418
69796,15147,69796,23182,69796.0,57186.0,-463.61427517352774,-335.64010827281936,-1221.193224402106
69806,15146,69806,23176,69806.0,57156.0,-469.8673548034867,-339.5588069965331,-1234.951915286912
69806,15130,69806,23192,69806.0,57151.0,-476.15624572782906,-343.5163539812141,-1248.8173679456047
69806,15144,69806,23186,69806.0,57150.0,-482.48148466481973,-347.51242349540564,-1262.7892422517587
69806,15130,69806,23193,69806.0,57165.0,-488.8431552078795,-351.5463839459126,-1276.8663634970608
69806,15136,69806,23209,69806.0,57143.0,-495.24075030714664,-355.61704241302317,-1291.0463280527727
69806,15106,69806,23189,69806.0,57135.0,-501.67307206453415,-359.7223637075694,-1305.3250996635143
69817,15094,69817,23155,69817.0,57096.0,-508.1383084969192,-363.85933803190767,-1319.6968635878802
69817,15086,69817,23142,69817.0,57061.0,-514.6342873059253,-368.0242563470856,-1334.1542176446737
69817,15075,69817,23115,69817.0,57039.0,-521.1587346950239,-372.21328628346504,-1348.6886396399611
69817,15061,69817,23142,69817.0,57077.0,-527.7094421632871,-376.422982415317,-1363.2908995210003
69817,15084,69817,23172,69817.0,57042.0,-534.2843494423723,-380.6503809151123,-1377.9510036917998
69817,15063,69817,23130,69817.0,57053.0,-540.8814687707886,-384.8926301286849,-1392.6577932133566
69827,15078,69827,23178,69827.0,57045.0,-547.4986728349531,-389.14657608024595,-1407.3985807232123
69827,15066,69827,23126,69827.0,56997.0,-554.1334860811353,-393.4085620403986,-1422.1589316750067
69827,15064,69827,23182,69827.0,57021.0,-560.7829179217445,-397.674302627341,-1436.922628763489
69827,15069,69827,23178,69827.0,57020.0,-567.4433257773084,-401.93863626259673,-1451.6716500126827
69827,15062,69827,23150,69827.0,56965.0,-574.1102696036122,-406.1951277923813,-1466.3859465408282
69827,15040,69827,23116,69827.0,57000.0,-580.7783823093949,-410.4359342837951,-1481.04327760004
69838,15019,69838,23138,69838.0,56943.0,-587.441428225954,-414.6521649087695,-1495.6192168705065
69838,15011,69838,23087,69838.0,56902.0,-594.0925922998957,-418.8343243521193,-1510.0872679950232
69838,14992,69838,23103,69838.0,56932.0,-600.7248200972816,-422.9726295594836,-1524.4192075179135
69838,15014,69838,23115,69838.0,56874.0,-607.3310287253673,-427.05723857783454,-1538.5854031183621
69838,15009,69838,23095,69838.0,56914.0,-613.9040674752445,-431.078242047683,-1552.5548449653932
69838,15005,69838,23134,69838.0,56869.0,-620.4364607952077,-435.02545004509994,-1566.2950226946741
69848,15000,69848,23090,69848.0,56907.0,-626.9201645331848,-438.8881567311566,-1579.7717077004938
69848,14995,69848,23108,69848.0,56863.0,-633.3464550931939,-442.65500456471955,-1592.948653941437
69848,14996,69848,23120,69848.0,56851.0,-639.7058667730366,-446.31395652230105,-1605.7873883639093
69848,15005,69848,23125,69848.0,56872.0,-645.9880723344929,-449.8521338486834,-1618.2471811633204
69848,14992,69848,23068,69848.0,56841.0,-652.181674735624,-453.2555784180131,-1630.284972498062
69848,14953,69848,23089,69848.0,56807.0,-658.274086425431,-456.50937117497585,-1641.855244833413
69858,14923,69858,23049,69858.0,56828.0,-664.2517940566098,-459.59806865562217,-1652.9101215828
69858,14926,69858,23058,69858.0,56789.0,-670.1009644984758,-462.50610796300845,-1663.3995478112677
69858,14949,69858,23046,69858.0,56783.0,-675.807892723361,-465.21809771918527,-1673.2713683674
69858,14937,69858,23051,69858.0,56758.0,-681.3589419066791,-467.71899144522075,-1682.4714851720696
69858,14915,69858,23068,69858.0,56784.0,-686.7402635514695,-469.994087200757,-1690.94405892299
69858,14937,69858,23089,69858.0,56749.0,-691.9377109191234,-472.02879325923794,-1698.6315282841986
69869,14927,69869,23055,69869.0,56735.0,-696.9368308651121,-473.80823922256604,-1705.4745718132062
69869,14920,69869,23064,69869.0,56742.0,-701.7227321677298,-475.317073036035,-1711.412249238986
69869,14952,69869,23090,69869.0,56756.0,-706.2799097443977,-476.5394949805234,-1716.3821216379615
69869,14922,69869,23077,69869.0,56729.0,-710.5920191694794,-477.4591567767968,-1720.320125823398
69869,14911,69869,23074,69869.0,56685.0,-714.6416890185147,-478.058922267368,-1723.1605490002164
69869,14890,69869,23019,69869.0,56700.0,-718.4106386999674,-478.32091113910775,-1724.8364538360024
69879,14881,69879,23022,69879.0,56658.0,-721.8800537660284,-478.2270164684269,-1725.2803010807881
69879,14880,69879,23032,69879.0,56617.0,-725.0309501357171,-477.7595789378541,-1724.4245735687348
69879,14879,69879,23041,69879.0,56590.0,-727.8443801030528,-476.90171439676277,-1722.2026526924967
69879,14883,69879,23030,69879.0,56633.0,-730.301464551852,-475.63725283458115,-1718.5498119088
69879,14901,69879,23044,69879.0,56607.0,-732.3832782980722,-473.9506394142665,-1713.403764801217
69879,14888,69879,23041,69879.0,56627.0,-734.070619528141,-471.8269174893783,-1706.7047596670131
69889,14877,69889,23058,69889.0,56601.0,-735.3438278694455,-469.2516828042624,-1698.3956860692563
69889,14872,69889,23062,69889.0,56647.0,-736.1828399217519,-466.21096079313725,-1688.422316707613
69889,14878,69889,23059,69889.0,56601.0,-736.5673857471375,-462.69106208572845,-1676.7335306258503
69889,14859,69889,23055,69889.0,56613.0,-736.477134712649,-458.6785421433847,-1663.28162271506
69889,14858,69889,23017,69889.0,56585.0,-735.8918358606904,-454.1604030807287,-1648.022907578283
69889,14842,69889,23013,69889.0,56575.0,-734.791560718965,-449.1246129812965,-1630.9185626255332
69900,14841,69900,23016,69900.0,56588.0,-733.1570147982784,-443.5607872937331,-1611.9355397827992
69900,14841,69900,22994,69900.0,56629.0,-730.969829374918,-437.4607453206475,-1591.047281949682
69900,14826,69900,23048,69900.0,56612.0,-728.2127957266978,-430.818840941345,-1568.2340469387614
69900,14855,69900,23052,69900.0,56652.0,-724.8700464603799,-423.63197473697176,-1543.4830846166303
69900,14840,69900,23057,69900.0,56685.0,-720.9271318678436,-415.8992917472026,-1516.788860132056
69900,14851,69900,23073,69900.0,56709.0,-716.3710039650168,-407.6219089926468,-1488.153135433283
69910,14855,69910,23074,69910.0,56747.0,-711.1900321268442,-398.80284076144324,-1457.5848991308326
69910,14863,69910,23110,69910.0,56804.0,-705.3740385975539,-389.446951633302,-1425.1002579743367
69910,14872,69910,23119,69910.0,56838.0,-698.9142834217919,-379.5607894128044,-1390.722200607884
69910,14878,69910,23097,69910.0,56868.0,-691.8034234099639,-369.1523909067314,-1354.4802917705542
69910,14860,69910,23085,69910.0,56849.0,-684.0355344635411,-358.23141043622655,-1316.4106564184938
69910,14865,69910,23082,69910.0,56931.0,-675.6063229663478,-346.80969021904,-1276.5564126807462
69920,14859,69920,23131,69920.0,56974.0,-666.5135082159684,-334.9018533925367,-1234.968099159199
69920,14866,69920,23156,69920.0,57026.0,-656.7572100833968,-322.52541335751073,-1191.7036357851766
69920,14908,69920,23187,69920.0,57096.0,-646.3401780474926,-309.7003564688593,-1146.827986584709
69920,14920,69920,23192,69920.0,57123.0,-635.267703746706,-296.4485961812796,-1100.4128199629722
69920,14940,69920,23238,69920.0,57215.0,-623.5472736230201,-282.79358537649756,-1052.5362251173422
69920,14962,69920,23221,69920.0,57278.0,-611.1882286201019,-268.7600537884708,-1003.2823689318623
69931,14959,69931,23250,69931.0,57331.0,-598.2015541434245,-254.37387584140816,-952.7409774989288
69931,15002,69931,23320,69931.0,57425.0,-584.5997716502677,-239.6619810816981,-901.0067731117518
69931,14992,69931,23257,69931.0,57502.0,-570.3968566373353,-224.6520817352242,-848.1788800171294
69931,15006,69931,23300,69931.0,57533.0,-555.6081967865421,-209.37253019534668,-794.3601412268874
69931,14999,69931,23316,69931.0,57620.0,-540.2507395697899,-193.85257267427534,-739.6566244802762
69931,15026,69931,23289,69931.0,57648.0,-524.34330452635,-178.12262370941664,-684.1774395005851
69941,15055,69941,23333,69941.0,57755.0,-507.9068026472987,-162.21449176620484,-628.0346283609056
69941,15057,69941,23356,69941.0,57821.0,-490.9642205934604,-146.16160554033596,-571.3428805552961
69941,15106,69941,23407,69941.0,57946.0,-473.540488467051,-129.99889994244296,-514.2188870148243
69941,15127,69941,23449,69941.0,57989.0,-455.6622830096688,-113.76226556943125,-456.7803779295067
69941,15128,69941,23468,69941.0,58098.0,-437.35775732629327,-97.48780743075423,-399.1451603545003
69941,15155,69941,23514,69941.0,58143.0,-418.65640876318946,-81.21116271750915,-341.430362264431
69951,15206,69951,23522,69951.0,58248.0,-399.5890759338797,-64.96697359293557,-283.75182258578985
69951,15221,69951,23563,69951.0,58300.0,-380.187730025517,-48.78847743091691,-226.2235141400148
69951,15246,69951,23546,69951.0,58400.0,-360.4850877207407,-32.70723564703658,-168.95695325380836
69951,15247,69951,23548,69951.0,58424.0,-340.51439278135797,-16.75314373198006,-112.06065710962685
69951,15271,69951,23562,69951.0,58482.0,-320.3094765401242,-0.9547740802566409,-55.639863790034155
69951,15300,69951,23574,69951.0,58547.0,-299.90491408823243,14.660206370837585,0.20340754993208066
69962,15337,69962,23594,69962.0,58642.0,-279.3360261433071,30.064805683003158,55.3703240617175
69962,15361,69962,23635,69962.0,58706.0,-258.63865059969004,45.23270096680116,109.7656118273228
69962,15383,69962,23639,69962.0,58781.0,-237.8488445155038,60.13843960176041,163.2982114572294
69962,15424,69962,23682,69962.0,58815.0,-217.0026509673546,74.75774324430563,215.88184535610276
69962,15442,69962,23680,69962.0,58913.0,-196.13587496713433,89.06778187967075,267.4353538931938
69962,15461,69962,23684,69962.0,58942.0,-175.28385715724374,103.04732156282083,317.8829692140115
69972,15494,69972,23723,69972.0,59031.0,-154.48134126450884,116.67669599400608,367.15465276681573
69972,15530,69972,23755,69972.0,59025.0,-133.7623572681147,129.93784546245905,415.1863593610144
69972,15546,69972,23719,69972.0,59085.0,-113.15998761593323,142.81455533640246,461.9200033703877
69972,15562,69972,23754,69972.0,59096.0,-92.70614085897904,155.29251017778734,507.3030927334264
69972,15570,69972,23732,69972.0,59149.0,-72.43152793383405,167.35900818198678,551.288247154243
69972,15600,69972,23726,69972.0,59177.0,-52.36580970288722,179.00255699541992,593.832796491396
69982,15650,69982,23770,69982.0,59243.0,-32.537657743457316,190.21245858645858,634.89854587531
69982,15643,69982,23829,69982.0,59284.0,-12.97455945519738,200.97871948423978,674.451781797123
69982,15667,69982,23809,69982.0,59384.0,6.2973905968812005,211.29255791081113,712.4635871921405
69982,15695,69982,23829,69982.0,59350.0,25.253481266325423,221.14698600752195,748.9103654235505
69982,15725,69982,23860,69982.0,59434.0,43.8703767430427,230.5370161460279,783.7741592391321
69982,15744,69982,23850,69982.0,59475.0,62.12629678770827,239.45976474777387,817.0426885632562
69993,15777,69993,23861,69993.0,59480.0,80.0012666388609,247.91457924259845,848.7094861417254
69993,15754,69993,23859,69993.0,59487.0,97.47726932828408,255.90299600700916,878.7739594240213
69993,15785,69993,23817,69993.0,59525.0,114.53815129676843,263.42847264137356,907.241036889604
69993,15813,69993,23854,69993.0,59489.0,131.16938308217135,270.4959006127227,934.1206133596313
69993,15808,69993,23826,69993.0,59547.0,147.35797309283743,277.1110924357833,959.4269580673788
69993,15837,69993,23819,69993.0,59550.0,163.09248434750054,283.2804091867696,983.1781802944577
70002,15844,70002,23863,70002.0,59565.0,178.36298056534724,289.0104451970182,1005.3959302091739
70002,15872,70002,23863,70002.0,59545.0,193.16099102214463,294.3079397176746,1026.1051198166565
70002,15902,70002,23897,70002.0,59600.0,207.4796058002567,299.18007319317735,1045.3334528628206
70002,15903,70002,23901,70002.0,59631.0,221.3136895647665,303.63491317201823,1063.1111231160287
70002,15902,70002,23905,70002.0,59643.0,234.6600218359527,307.681791055905,1079.4709796458224
70002,15917,70002,23913,70002.0,59677.0,247.51717571947626,311.33152240192356,1094.4488748036897
70012,15937,70012,23870,70012.0,59650.0,259.88529709848444,314.5963955957233,1108.0838396917532
70012,15942,70012,23893,70012.0,59637.0,271.76602920725804,317.4898820015588,1120.4179038259604
70012,15926,70012,23883,70012.0,59654.0,283.1624753282923,320.0262392116324,1131.4955314279953
70012,15942,70012,23888,70012.0,59634.0,294.07896278863893,322.2202862369236,1141.3629886952656
70012,15961,70012,23885,70012.0,59631.0,304.52072148790694,324.08732589789173,1150.0678409692375
70012,15965,70012,23839,70012.0,59644.0,314.493760143092,325.6429751403786,1157.6584811776593
70023,15986,70023,23876,70023.0,59642.0,324.0049238949746,326.90278338626865,1164.1837628983656
70023,15997,70023,23906,70023.0,59651.0,333.06199142294554,327.8819622127957,1169.6928275532794
70023,15982,70023,23890,70023.0,59674.0,341.6737445644527,328.5956184605976,1174.2350654692216
70023,15993,70023,23875,70023.0,59651.0,349.84988067066547,329.05912600839685,1177.8601748150118
70023,16019,70023,23899,70023.0,59669.0,357.60081800958164,329.28814598377005,1180.6181913478547
70023,16018,70023,23884,70023.0,59684.0,364.9376671072266,329.2985175199005,1182.5594509356458
70033,16014,70033,23883,70033.0,59621.0,371.87233126496824,329.1062573507714,1183.734552044188
70033,16012,70033,23853,70033.0,59595.0,378.4174465034804,328.7274653623425,1184.1939907466647
70033,16008,70033,23861,70033.0,59608.0,384.586122100103,328.1780121373651,1183.9873108004524
70033,16001,70033,23830,70033.0,59632.0,390.3916169041778,327.4731435664597,1183.1624268997198
70033,16004,70033,23847,70033.0,59571.0,395.84700970007395,326.6271274881882,1181.7655019931808
70033,16026,70033,23832,70033.0,59607.0,400.96495223823945,325.6530046057432,1179.8408772651787
70043,16043,70043,23857,70043.0,59590.0,405.75767045993325,324.56251000501106,1177.4308347290805
70043,16065,70043,23888,70043.0,59630.0,410.2372519577275,323.36625592042395,1174.575575506922
70043,16049,70043,23883,70043.0,59604.0,414.41602094967664,322.07421786400005,1171.313511590524
70043,16047,70043,23855,70043.0,59621.0,418.3067028867472,320.6962181874357,1167.6815844375378
70043,16070,70043,23851,70043.0,59630.0,421.92233174789703,319.2419676034409,1163.7154816625932
70043,16062,70043,23850,70043.0,59605.0,425.2761788846436,317.7207513673831,1159.4498356214508
70054,16030,70054,23873,70054.0,59579.0,428.38173132745624,316.1412232384996,1154.9182732143975
70054,16051,70054,23854,70054.0,59581.0,431.2524459258435,314.51149512826316,1150.1531336556677
70054,16040,70054,23847,70054.0,59534.0,433.9013841233269,312.8392772867494,1145.1850190699047
70054,16044,70054,23827,70054.0,59524.0,436.34101228083796,311.13178139659897,1140.0422942529115
70054,16050,70054,23844,70054.0,59573.0,438.5831266560439,309.39544906188917,1134.7506418716252
70054,16054,70054,23857,70054.0,59533.0,440.6388277602954,307.6358272319525,1129.3330303897583
70064,16057,70064,23847,70064.0,59553.0,442.518563949895,305.85773403713887,1123.8100048464428
70064,16071,70064,23848,70064.0,59562.0,444.23221758454565,304.0654861760774,1118.1999172615485
70064,16072,70064,23862,70064.0,59556.0,445.7892354381163,302.26300556190273,1112.5191688534567
70064,16074,70064,23874,70064.0,59582.0,447.1987828036988,300.45396698264324,1106.7825707290276
70064,16064,70064,23881,70064.0,59569.0,448.46981575311656,298.6421202111855,1101.0037375148902
70064,16065,70064,23803,70064.0,59544.0,449.61101256657923,296.83150312253525,1095.1953879759678
70075,16052,70075,23807,70075.0,59512.0,450.6306065424742,295.0260822658394,1089.369291119127
70075,16060,70075,23823,70075.0,59487.0,451.53619073959567,293.22900492354086,1083.5357744006467
70075,16057,70075,23812,70075.0,59514.0,452.33456926641145,291.44219107492125,1077.7031336477862
70075,16061,70075,23828,70075.0,59482.0,453.03170142011174,289.66639873343394,1071.8773491114976
70075,16062,70075,23846,70075.0,59532.0,453.63270810136805,287.901446897208,1066.0621640512013
70075,16056,70075,23842,70075.0,59499.0,454.1418816253697,286.14654346859464,1060.2593779276017
70085,16082,70085,23845,70085.0,59529.0,454.56270483509775,284.4006371954053,1054.4692184902724
70085,16077,70085,23854,70085.0,59503.0,454.8979744925712,282.6626418763711,1048.690646990572
70085,16084,70085,23862,70085.0,59542.0,455.1500268104178,280.9316178569769,1042.9216005555054
70085,16101,70085,23891,70085.0,59517.0,455.32095170303114,279.2070727444492,1037.1592931757605
70085,16091,70085,23844,70085.0,59542.0,455.41279567905343,277.48932875132823,1031.4005632282442
70085,16079,70085,23819,70085.0,59469.0,455.4277006886855,275.77957824537106,1025.6420632247175
70095,16072,70095,23802,70095.0,59487.0,455.36781696190576,274.0793785791532,1019.8800611842041
70095,16066,70095,23781,70095.0,59467.0,455.2350383392367,272.389897819327,1014.1099873061912
70095,16073,70095,23786,70095.0,59515.0,455.03076442450924,270.71130191235443,1008.3262239042613
70095,16058,70095,23815,70095.0,59460.0,454.7557744983952,269.0424613447444,1002.5223148144773
70095,16083,70095,23819,70095.0,59483.0,454.41018279458876,267.381100743305,996.6912018591349
70095,16088,70095,23823,70095.0,59519.0,453.99351963626873,265.72423967185546,990.8253428649994
70106,16101,70106,23847,70106.0,59508.0,453.50500318694503,264.06861708820907,984.9170919193044
70106,16107,70106,23853,70106.0,59509.0,452.94390064200775,262.4110874089245,978.959305675437
70106,16098,70106,23848,70106.0,59468.0,452.30982103215433,260.74904089735344,972.9456558546145
70106,16091,70106,23839,70106.0,59528.0,451.6028324019862,259.0806703842683,966.8705996012118
70106,16093,70106,23826,70106.0,59510.0,450.82339325661263,257.4049589316249,960.7295037049187
70106,16087,70106,23837,70106.0,59471.0,449.9722318400563,255.72150992053074,954.5190078625914
70116,16094,70116,23812,70116.0,59475.0,449.05028453682587,254.03039566121683,948.2370928668629
70116,16076,70116,23834,70116.0,59440.0,448.05867111376085,252.33206096700414,941.8827384779162
70116,16081,70116,23776,70116.0,59436.0,446.9986278483019,250.62719467236062,935.4555251976705
70116,16066,70116,23801,70116.0,59493.0,445.87137422401764,248.9164496840051,928.9554450910084
70116,16081,70116,23789,70116.0,59488.0,444.6779839855022,247.20009654303578,922.383231297139
70116,16084,70116,23826,70116.0,59458.0,443.41936979565617,245.47793225117786,915.7410504010576
70126,16079,70126,23834,70126.0,59448.0,442.0964057456508,243.74958803682216,909.0328392151001
70126,16080,70126,23800,70126.0,59431.0,440.7100561456221,242.01498107575011,902.2641098327504
70126,16094,70126,23814,70126.0,59454.0,439.2614478312995,240.27449328826629,895.4416963767677
70126,16087,70126,23817,70126.0,59411.0,437.7519911869955,238.52887114125346,888.5737205142931
70126,16076,70126,23818,70126.0,59407.0,436.1835154438622,236.7792167820655,881.6695731475522
70126,16070,70126,23803,70126.0,59373.0,434.55824619103606,235.02710083568053,874.7396610779961
70137,16049,70137,23788,70137.0,59352.0,432.87860278028677,233.27452969860494,867.7949588174673
70137,16062,70137,23765,70137.0,59340.0,431.1469309067096,231.52366407023408,860.846502828145
70137,16073,70137,23784,70137.0,59335.0,429.3653584960488,229.77642424920614,853.9049674790073
70137,16070,70137,23796,70137.0,59364.0,427.5359104132998,228.03429175763839,846.9805206909025
70137,16078,70137,23810,70137.0,59332.0,425.6607544287184,226.29850353333458,840.0830155898541
70137,16064,70137,23804,70137.0,59336.0,423.74237600143414,224.5704605527693,833.2222486832216
70147,16078,70147,23788,70147.0,59344.0,421.78364942853204,222.85200680841308,826.4080656747766
70147,16068,70147,23818,70147.0,59360.0,419.78788217878775,221.14547942889817,819.6505270880236
70147,16095,70147,23816,70147.0,59338.0,417.7589254076447,219.45378689156314,812.9602770583297
70147,16055,70147,23797,70147.0,59292.0,415.7013404260973,217.78063060126792,806.3487567660316
70147,16050,70147,23761,70147.0,59291.0,413.62040648356236,216.1305176132123,799.8279242028915
70147,16036,70147,23706,70147.0,59281.0,411.52183210507593,214.5082243971692,793.4097348919416
70157,16028,70157,23728,70157.0,59265.0,409.4113640920186,212.91785316493957,787.1058101822468
70157,16021,70157,23751,70157.0,59291.0,407.29448625968206,211.3621099930067,780.9273453522296
70157,16037,70157,23782,70157.0,59262.0,405.17624415700567,209.84235304268145,774.885188339882
70157,16039,70157,23761,70157.0,59270.0,403.0612704707196,208.35919627634857,768.9899875497224
70157,16033,70157,23792,70157.0,59247.0,400.95398059445216,206.91305745749844,763.2522323197649
70157,16046,70157,23782,70157.0,59261.0,398.85876012360774,205.5044783906091,757.6822018914969
70168,16039,70168,23779,70168.0,59236.0,396.7801016320713,204.13435296993822,752.2899419413042
70168,16043,70168,23816,70168.0,59273.0,394.7227391552669,202.80410956096583,747.0853189323826
70168,16021,70168,23792,70168.0,59218.0,392.6917134494862,201.51595089095787,742.0781479122832
70168,16008,70168,23750,70168.0,59178.0,390.69225454557215,200.2730218812552,737.2781121385591
70168,16003,70168,23763,70168.0,59204.0,388.7294854828241,199.0791390565171,732.6942374412797
70168,16013,70168,23740,70168.0,59158.0,386.8081413337952,197.9382595190427,728.3343115910143
70178,16002,70178,23727,70178.0,59144.0,384.93248346804285,196.85407590003297,724.2045155165818
70178,16000,70178,23735,70178.0,59195.0,383.1063259307033,195.8297047866997,720.3091285133661
70178,16018,70178,23745,70178.0,59178.0,381.333056422426,194.86748874721684,716.6505541371115
70178,16001,70178,23725,70178.0,59189.0,379.6157165149933,193.96901506430441,713.2297475907519
70178,15996,70178,23747,70178.0,59168.0,377.9570944461152,193.13518920455653,710.0465628767902
70178,16007,70178,23751,70178.0,59173.0,376.3597008760139,192.36630428315055,707.0998071880865
70188,16010,70188,23751,70188.0,59223.0,374.8257590562689,191.66222589150436,704.387289905379
70188,16018,70188,23789,70188.0,59214.0,373.35735908341405,191.02268013273218,701.9062224092806
70188,15991,70188,23766,70188.0,59182.0,371.95663652682697,190.4476145085913,699.6537785417005
70188,15990,70188,23731,70188.0,59135.0,370.62574668148284,189.93743131378488,697.6271317842404
70188,15979,70188,23688,70188.0,59129.0,369.36662628150543,189.49266451002507,695.8227810385318
70188,15964,70188,23718,70188.0,59117.0,368.18070652810195,189.11317494857104,694.2357013903701
70199,15965,70199,23723,70199.0,59162.0,367.0686421318335,188.79756616148148,692.8588845963849
70199,15976,70199,23745,70199.0,59147.0,366.03011096672776,188.54322749945138,691.6834414761197
70199,15983,70199,23738,70199.0,59194.0,365.0638259769712,188.34672538918585,690.6990640627939
70199,16000,70199,23758,70199.0,59187.0,364.1677755355031,188.20416435535267,689.8945948280464
70199,15982,70199,23742,70199.0,59182.0,363.33953646656244,188.11142684539902,689.2585393835911
70199,15995,70199,23752,70199.0,59202.0,362.57647361097065,188.06430007366043,688.7793651616137
70209,16001,70209,23781,70209.0,59238.0,361.87582196137606,188.0585729873631,688.4457422646366
70209,15973,70209,23752,70209.0,59189.0,361.23475465967647,188.09024717163737,688.2469474359368
70209,15981,70209,23742,70209.0,59193.0,360.65034183039444,188.15568374018204,688.1730834317133
70209,15974,70209,23746,70209.0,59165.0,360.11936189112964,188.2514333749537,688.2148065337442
70209,15980,70209,23722,70209.0,59150.0,359.63816376030337,188.37392164986701,688.3628053696419
70209,15976,70209,23732,70209.0,59155.0,359.2026529213533,188.51918200630857,688.6072903835036
70219,15981,70219,23703,70219.0,59108.0,358.80832253665704,188.68259602594406,688.9375428333635
70219,15993,70219,23802,70219.0,59182.0,358.4503236714655,188.85879088691257,689.3415681591057
70219,16008,70219,23778,70219.0,59185.0,358.12365167255473,189.04206853897793,689.8061394130974
70219,15983,70219,23760,70219.0,59204.0,357.8234124282409,189.22715832268597,690.3173849406905
70219,15986,70219,23775,70219.0,59185.0,357.5449318933427,189.40954848132566,690.8614390853996
70219,15992,70219,23768,70219.0,59213.0,357.28365034764494,189.58537649326044,691.4247435195871
70230,16013,70230,23789,70230.0,59186.0,357.0350929533595,189.7513984637111,691.9941413016123
70230,15997,70230,23744,70230.0,59172.0,356.79506853659626,189.90506400883882,692.556847066129
70230,15966,70230,23728,70230.0,59149.0,356.5598012730186,190.04434461100342,693.1001399703755
70230,15974,70230,23727,70230.0,59186.0,356.3256979259499,190.1672082735632,693.6109133769626
70230,15975,70230,23769,70230.0,59175.0,356.08896527464924,190.27117766853988,694.0754985730289
70230,15959,70230,23694,70230.0,59199.0,355.845413789132,190.35328349980017,694.4798540167228
70240,15978,70240,23755,70240.0,59165.0,355.5903950603095,190.4100488953046,694.809806874151
70240,15993,70240,23770,70240.0,59184.0,355.31883062341865,190.43744016560896,695.0510923081019
70240,15983,70240,23771,70240.0,59221.0,355.0254314852623,190.43120901893272,695.1893427519315
70240,15995,70240,23754,70240.0,59185.0,354.7049607848366,190.38739160757888,695.2103230886388
70240,15992,70240,23768,70240.0,59196.0,354.3523798807862,190.30245860850573,695.1002037522682
70240,16006,70240,23772,70240.0,59222.0,353.9629650511162,190.17327228837715,694.8456151950594
70250,16003,70250,23787,70250.0,59240.0,353.5324738898023,189.9971886257842,694.4338281940136
70250,15995,70250,23729,70250.0,59179.0,353.05729476732256,189.7721953097092,693.8531292298023
70250,15965,70250,23744,70250.0,59188.0,352.534413545275,189.49672345402908,693.0928226806772
70250,15962,70250,23711,70250.0,59199.0,351.9610944526244,189.169137142745,692.1428156860937
70250,15973,70250,23737,70250.0,59202.0,351.3344674770694,188.78727322565072,690.9934032597464
70250,15974,70250,23751,70250.0,59188.0,350.65135020555186,188.3482965291273,689.6353915909174
70261,15975,70261,23753,70261.0,59208.0,349.9083345641678,187.84891102770527,688.0602198614164
70261,15976,70261,23752,70261.0,59176.0,349.101922021682,187.28570445654296,686.2599918274856
70261,15991,70261,23759,70261.0,59182.0,348.2286365340376,186.6553633836185,684.227429582828
70261,15984,70261,23764,70261.0,59199.0,347.2851881933936,185.9547932508243,681.9557740401385
70261,15983,70261,23783,70261.0,59208.0,346.2686431689613,185.181301337225,679.4388752096897
70261,15994,70261,23815,70261.0,59214.0,345.17651504657766,184.33295606819155,676.6715554611135
70271,15988,70271,23788,70271.0,59206.0,344.0068444415573,183.40910453762237,673.6499970426684
70271,15961,70271,23737,70271.0,59145.0,342.7582507730892,182.41063343725997,670.3718383184763
70271,15963,70271,23700,70271.0,59130.0,341.4297781756452,181.3394836729304,666.8357319505344
70271,15941,70271,23705,70271.0,59094.0,340.0205619014304,180.1976230399359,663.04047843325
70271,15952,70271,23693,70271.0,59136.0,338.5295176191983,178.9861831829176,658.9842571501418
70271,15940,70271,23703,70271.0,59137.0,336.9551548263355,177.70508053458536,654.664424499683
70281,15971,70281,23742,70281.0,59134.0,335.2955589324331,176.35303823007115,650.0778508172164
70281,15949,70281,23744,70281.0,59138.0,333.5485562274582,174.92798471374562,645.2213388127116
70281,15960,70281,23746,70281.0,59156.0,331.7119221569162,173.4276509866454,640.0919131499899
70281,15958,70281,23746,70281.0,59139.0,329.783491310379,171.84999621311175,634.6871310170924
70281,15983,70281,23772,70281.0,59160.0,327.76127847220454,170.1934313967772,629.00541377516
70281,15960,70281,23763,70281.0,59146.0,325.64372615221936,168.45708605535987,623.0463269027409
70292,15950,70292,23694,70292.0,59121.0,323.42988235597215,166.6409722338413,616.8107698281093
70292,15938,70292,23741,70292.0,59073.0,321.1192921043936,164.7456816138823,610.3008510257298
70292,15932,70292,23698,70292.0,59067.0,318.7117120138947,162.77188285179668,603.5193309712585
70292,15927,70292,23719,70292.0,59039.0,316.20686246735363,160.72007446629635,596.4689303764678
70292,15951,70292,23694,70292.0,59066.0,313.6043327373776,158.5904900484434,589.1518820545809
70292,15938,70292,23731,70292.0,59071.0,310.9037058531521,156.38304245071154,581.5699185832024
70302,15945,70302,23719,70302.0,59064.0,308.1048000117081,154.09745063042106,573.7246410488128
70302,15933,70302,23713,70302.0,59051.0,305.20782417128885,151.73349450722577,565.6179207299961
70302,15924,70302,23708,70302.0,59022.0,302.2133911649115,149.29113678081973,557.2520159356326
70302,15935,70302,23735,70302.0,59044.0,299.12245510772914,146.77052183143033,548.6294565479197
70302,15923,70302,23743,70302.0,59028.0,295.93629045257563,144.1721593062174,539.7530058215385
70302,15912,70302,23702,70302.0,59074.0,292.65651873253836,141.49726607454264,530.6259260086654
70313,15900,70313,23733,70313.0,58987.0,289.28503319324886,138.74789012024394,521.2524040285999
70313,15880,70313,23660,70313.0,58954.0,285.82376864556727,135.9267252617169,511.63756638165586
70313,15886,70313,23672,70313.0,58936.0,282.27441159351383,133.03669758349906,501.7867796114618
70313,15884,70313,23656,70313.0,58957.0,278.6382043792299,130.08040646947933,491.7048635050703
70313,15887,70313,23682,70313.0,58969.0,274.91594650064883,127.05976215683637,481.3959595648991
70313,15875,70313,23714,70313.0,58941.0,271.1081060407218,123.97611519184416,470.8639574564164
70323,15888,70323,23682,70323.0,58933.0,267.21491166170534,120.8307623714462,460.11288229410115
70323,15899,70323,23688,70323.0,58935.0,263.2364878809245,117.62536973678962,449.14699168986465
70323,15884,70323,23692,70323.0,58962.0,259.17311658849644,114.36205758211058,437.97091229153966
70323,15905,70323,23686,70323.0,58897.0,255.0255114695753,111.04340645656107,426.5900018476897
70323,15867,70323,23664,70323.0,58912.0,250.7949859172349,107.67250551114553,415.01056023001024
70323,15857,70323,23642,70323.0,58827.0,246.48342536544587,104.2528124031121,403.2395978188298
70333,15847,70333,23618,70333.0,58883.0,242.09301138192984,100.78773156854008,391.28436341745817
70333,15844,70333,23630,70333.0,58825.0,237.62589780910378,97.28010098477459,379.1520362122105
70333,15842,70333,23656,70333.0,58827.0,233.0840554221303,93.73194349152791,366.84968677679154
70333,15833,70333,23630,70333.0,58815.0,228.46925467942623,90.14464852507162,354.38425594536045
70333,15832,70333,23599,70333.0,58804.0,223.78307924396466,86.5191814790546,341.7625189421242
70333,15828,70333,23655,70333.0,58754.0,219.02693783665273,82.85598470749258,328.99106894181523
70344,15828,70344,23650,70344.0,58793.0,214.20210472399685,79.1550072590282,316.0761903203319
70344,15830,70344,23650,70344.0,58760.0,209.30981307631032,75.41616283448349,303.02381767896287
70344,15811,70344,23652,70344.0,58778.0,204.35136472510277,71.63978693563263,289.8397868526547
70344,15817,70344,23644,70344.0,58739.0,199.32817330418123,67.82683416528218,276.5301550940068
70344,15822,70344,23652,70344.0,58725.0,194.24177918003832,63.97896946492864,263.101331200535
70344,15808,70344,23644,70344.0,58716.0,189.09395754574996,60.09866253618193,249.5599971688875
70354,15787,70354,23575,70354.0,58703.0,183.88680832110848,56.189147777557366,235.9130113934931
70354,15772,70354,23550,70354.0,58650.0,178.62261530925508,52.25389550796186,222.1673498537633
70354,15775,70354,23570,70354.0,58629.0,173.30355144281674,48.29569354086149,208.32983412514886
70354,15767,70354,23550,70354.0,58609.0,167.93148705870817,44.31602099847544,194.40661563218123
70354,15779,70354,23624,70354.0,58633.0,162.50800434119793,40.31506843258927,180.40281661983295
70354,15766,70354,23605,70354.0,58651.0,157.03454906455562,36.29229897001872,166.3227081012093
70364,15755,70364,23604,70364.0,58616.0,151.51257589657197,32.24720238914139,152.17034163663584
70364,15758,70364,23597,70364.0,58591.0,145.9435759081553,28.17973418199233,137.95006005886546
70364,15774,70364,23613,70364.0,58612.0,140.3291076615664,24.09040925441056,123.6665814214848
70364,15748,70364,23614,70364.0,58526.0,134.67098562791827,19.980436790297944,109.3249211287083
70364,15735,70364,23578,70364.0,58547.0,128.97143160287413,15.851926615323322,94.93019863571647
70364,15732,70364,23567,70364.0,58527.0,123.23297656843766,11.707839176500386,80.48732248446731
70375,15706,70375,23543,70375.0,58500.0,117.45824244539409,7.551588002089119,66.00085706502625
70375,15694,70375,23526,70375.0,58495.0,111.64970888852443,3.38652525335155,51.47503046707152
70375,15699,70375,23517,70375.0,58458.0,105.80945694653403,-0.7845298627779016,36.91365661394184
70375,15710,70375,23551,70375.0,58451.0,99.93906759439434,-4.959580286751873,22.319987728724527
70375,15707,70375,23563,70375.0,58479.0,94.03981470577793,-9.13730907757784,7.696656879037278
70375,15693,70375,23522,70375.0,58436.0,88.1129621810584,-13.316621581415262,-6.954089161919455
70385,15674,70385,23554,70385.0,58434.0,82.15987579315606,-17.496371703663414,-21.630044917723126
70385,15688,70385,23517,70385.0,58429.0,76.18192744563771,-21.67537148721121,-36.328892712909465
70385,15684,70385,23560,70385.0,58410.0,70.18045285601056,-25.852384526851864,-51.048107193264286
70385,15682,70385,23567,70385.0,58429.0,64.1569063013007,-30.025898865834307,-65.78474390500753
70385,15649,70385,23502,70385.0,58368.0,58.113007984000035,-34.19377655721334,-80.53519297090997
70385,15641,70385,23517,70385.0,58325.0,52.05063707498135,-38.35325349245437,-95.29520152287773
70395,15633,70395,23462,70395.0,58316.0,45.971531088377844,-42.5014372982443,-110.06037345355605
70395,15645,70395,23489,70395.0,58311.0,39.87708294360948,-46.635890548611684,-124.82673783338373
70395,15611,70395,23491,70395.0,58308.0,33.768346963092256,-50.754949277304746,-139.59088425239725
70395,15624,70395,23518,70395.0,58316.0,27.6460615065173,-54.85760282683776,-154.3496996208312
70395,15627,70395,23489,70395.0,58290.0,21.510635588764558,-58.94306663215235,-169.09995951077713
70395,15616,70395,23484,70395.0,58248.0,15.362265399258092,-63.0104931944328,-183.83806961176617
70406,15616,70406,23478,70406.0,58244.0,9.201126065543804,-67.05901959932882,-198.56018002082874
70406,15612,70406,23523,70406.0,58261.0,3.0274888954148196,-71.08783186253535,-213.26239726249776
70406,15612,70406,23489,70406.0,58232.0,-3.15818531954136,-75.09590817224833,-227.94065704496722
70406,15602,70406,23478,70406.0,58194.0,-9.355128382509008,-79.08169604699242,-242.59045823150814
70406,15576,70406,23448,70406.0,58171.0,-15.562221332607407,-83.04319092380999,-257.2069519515062
70406,15573,70406,23475,70406.0,58149.0,-21.77813090890504,-86.97831099451412,-271.78534754958696
70416,15564,70416,23423,70416.0,58137.0,-28.001538854221735,-90.88517575159588,-286.32127530873436
70416,15540,70416,23439,70416.0,58128.0,-34.23132041740712,-94.76230247388261,-300.8109482522992
70416,15566,70416,23458,70416.0,58137.0,-40.46666197749454,-98.60878344568675,-315.25110495522404
70416,15553,70416,23458,70416.0,58113.0,-46.70703687826614,-102.42417682695537,-329.6387557530312
70416,15553,70416,23417,70416.0,58102.0,-52.951997004348584,-106.20820834459772,-343.970908525397
70416,15544,70416,23461,70416.0,58083.0,-59.20097642060682,-109.96070273192382,-358.2444562930831
70426,15536,70426,23429,70426.0,58075.0,-65.45322244577147,-113.68162755258521,-372.4561822101077
70426,15533,70426,23442,70426.0,58090.0,-71.70779144706626,-117.37100049968583,-386.60268980447495
70426,15527,70426,23443,70426.0,58049.0,-77.96354462389468,-121.02877552495062,-400.6801675104126
70426,15519,70426,23397,70426.0,57979.0,-84.21912155262066,-124.65481910405046,-414.6843154504227
70426,15480,70426,23393,70426.0,58014.0,-90.47298664591182,-128.2491183003927,-428.61076850723975
70426,15478,70426,23424,70426.0,57990.0,-96.72369023131,-131.81215587103367,-442.455550370688
70437,15477,70437,23409,70437.0,57928.0,-102.97022692185664,-135.3449910058862,-456.21515800476607
70437,15509,70437,23387,70437.0,57917.0,-109.21212503170062,-138.84905782663537,-469.886778544893
70437,15478,70437,23408,70437.0,57945.0,-115.4491476714469,-142.32612480657178,-483.46874397244176
70437,15486,70437,23413,70437.0,57940.0,-121.68094148019884,-145.77832602371763,-496.96054773750416
70437,15462,70437,23406,70437.0,57900.0,-127.90693049413466,-149.20797480113123,-510.3623930325516
70437,15461,70437,23410,70437.0,57938.0,-134.126392432059,-152.61731347081923,-523.6748515241105
70447,15460,70447,23422,70447.0,57886.0,-140.33854945009904,-156.00834692195212,-536.8986892093549
70447,15470,70447,23428,70447.0,57924.0,-146.54253780137174,-159.38262022903422,-550.0346448736416
70447,15454,70447,23429,70447.0,57865.0,-152.73722000176298,-162.74089375465428,-563.0832117245723
70447,15423,70447,23340,70447.0,57850.0,-158.92105809481757,-166.08302733349626,-576.0445962248002
70447,15405,70447,23384,70447.0,57839.0,-165.09230911445184,-169.40841754550382,-588.9189472030496
70447,15415,70447,23344,70447.0,57782.0,-171.24942946676515,-172.71667440281618,-601.7067176249088
70457,15405,70457,23350,70457.0,57794.0,-177.39130985036735,-176.00800927346944,-614.409053784595
70457,15416,70457,23385,70457.0,57806.0,-183.5172152938743,-179.28331785978975,-627.0280661939764
70457,15391,70457,23390,70457.0,57816.0,-189.62661855384113,-182.5439420346512,-639.5666340545197
70457,15409,70457,23394,70457.0,57828.0,-195.71908879798133,-185.79112265379229,-652.0277594405563
70457,15398,70457,23391,70457.0,57794.0,-201.79419916784235,-189.02551162464465,-664.4138859744116
70457,15394,70457,23379,70457.0,57764.0,-207.85138240880855,-192.24695568926813,-676.7265765331795
70468,15403,70468,23378,70468.0,57766.0,-213.88978113075865,-195.45448512265347,-688.9666430075772
70468,15367,70468,23360,70468.0,57736.0,-219.9081473621306,-198.64641628586975,-701.1344042716103
70468,15353,70468,23345,70468.0,57739.0,-225.90490677983615,-201.82053973302902,-713.2298112785716
70468,15369,70468,23327,70468.0,57684.0,-231.87841194085303,-204.97442630376798,-725.2525465312676
70468,15343,70468,23295,70468.0,57676.0,-237.82710934059173,-208.10586543477132,-737.202294229384
70468,15334,70468,23304,70468.0,57658.0,-243.74956166331185,-211.21338112286486,-749.0791547955273
70478,15331,70478,23318,70478.0,57652.0,-249.64454383634495,-214.29659490179432,-760.8839508243389
70478,15340,70478,23334,70478.0,57655.0,-255.5111400817608,-217.35616672293895,-772.6182787434088
70478,15320,70478,23320,70478.0,57682.0,-261.34867808549575,-220.39341696307167,-784.2842818778656
70478,15312,70478,23343,70478.0,57625.0,-267.1566460231614,-223.4099695269786,-795.884215703702
70478,15313,70478,23310,70478.0,57635.0,-272.9347381742634,-226.4075475496478,-807.4201715214804
70478,15322,70478,23380,70478.0,57632.0,-278.6828773646515,-229.38780427487796,-818.8940940734078
70488,15317,70488,23349,70488.0,57624.0,-284.40105437615796,-232.35196645077036,-830.3077348438642
70488,15299,70488,23330,70488.0,57595.0,-290.0891138472871,-235.30039947528581,-841.6624762261395
70488,15284,70488,23308,70488.0,57565.0,-295.74672749129985,-238.2325880436254,-852.9593604158019
70488,15263,70488,23273,70488.0,57534.0,-301.37361130263076,-241.14763144832222,-864.1994525061316
70488,15277,70488,23276,70488.0,57532.0,-306.9698187931832,-244.04491153565658,-875.3843475208964
70488,15251,70488,23286,70488.0,57528.0,-312.53590789443643,-246.9245974029172,-886.5165117187723
70499,15258,70499,23301,70499.0,57557.0,-318.0729835463521,-249.78773388624563,-897.5992334841571
70499,15262,70499,23315,70499.0,57516.0,-323.58269488054566,-252.635925975232,-908.6362424160504
70499,15282,70499,23296,70499.0,57492.0,-329.0670776837477,-255.4709044684986,-919.6314194718075
70499,15262,70499,23303,70499.0,57495.0,-334.528199594639,-258.2942642394834,-930.5889036319786
70499,15256,70499,23293,70499.0,57508.0,-339.96786498592945,-261.10742565391007,-941.5132549798191
70499,15259,70499,23321,70499.0,57550.0,-345.38755148599336,-263.91161064732063,-952.4091559937312
70509,15262,70509,23322,70509.0,57478.0,-350.7883959509851,-266.70762902385417,-963.2807359082717
70509,15234,70509,23272,70509.0,57472.0,-356.17110234825066,-269.4956105288681,-974.1311979704153
70509,15207,70509,23242,70509.0,57439.0,-361.5359981720255,-272.2751643158998,-984.9630975431737
70509,15196,70509,23254,70509.0,57447.0,-366.88340936050867,-275.0460528209373,-995.7788196653144
70509,15202,70509,23252,70509.0,57407.0,-372.21411085476734,-277.80877900672675,-1006.580847191532
70509,15200,70509,23252,70509.0,57420.0,-377.5295168485196,-280.56471461449934,-1017.3718983585104
70520,15199,70520,23270,70520.0,57388.0,-382.83159653624045,-283.3159657047398,-1028.1550328585317
70520,15198,70520,23264,70520.0,57419.0,-388.1227095922308,-286.0651454364766,-1038.9336575275797
70520,15211,70520,23275,70520.0,57399.0,-393.40543215070113,-288.81510056645084,-1049.7113404846802
70520,15195,70520,23294,70520.0,57399.0,-398.6823367881506,-291.5686259914676,-1060.4914902813732
70520,15212,70520,23306,70520.0,57378.0,-403.95576892741906,-294.3280802279836,-1071.2771164898231
70520,15210,70520,23301,70520.0,57383.0,-409.2276337511483,-297.0949057923916,-1082.070750549841
70530,15175,70530,23281,70530.0,57309.0,-414.49920974323476,-299.8693033298272,-1092.874512615106
70530,15173,70530,23237,70530.0,57314.0,-419.77118510024394,-302.6503225317775,-1103.6904720482073
70530,15161,70530,23230,70530.0,57274.0,-425.04393518556236,-305.43640626200545,-1114.521250899754
70530,15148,70530,23172,70530.0,57288.0,-430.31778803796993,-308.2261855428692,-1125.3705100777222
70530,15122,70530,23215,70530.0,57300.0,-435.5932455403245,-311.01925831124555,-1136.243069200926
70530,15160,70530,23195,70530.0,57306.0,-440.8712067806471,-313.81664639725614,-1147.1446033546601
70540,15153,70540,23243,70540.0,57265.0,-446.1529507427154,-316.6207364562949,-1158.0811614673134
70540,15129,70540,23245,70540.0,57295.0,-451.4398479430549,-319.4348141027357,-1169.0589007562749
70540,15122,70540,23235,70540.0,57269.0,-456.7332300039845,-322.2624744945388,-1180.0839824134903
70540,15128,70540,23262,70540.0,57274.0,-462.03453652021847,-325.10719056716147,-1191.1623875140185
70540,15128,70540,23260,70540.0,57286.0,-467.34539109778694,-327.9720205944004,-1202.2996671190795
70540,15118,70540,23219,70540.0,57268.0,-472.66748509644975,-330.8593699734189,-1213.5006284090794
70551,15114,70551,23222,70551.0,57234.0,-478.0024633016237,-333.7710560546419,-1224.7690720251114
70551,15095,70551,23184,70551.0,57151.0,-483.3519349200046,-336.70873260178155,-1236.108001399125
70551,15096,70551,23182,70551.0,57144.0,-488.7175855621071,-339.6744127587794,-1247.520496199884
70551,15096,70551,23211,70551.0,57167.0,-494.10128290270694,-342.6708577362889,-1259.0106932663932
70551,15089,70551,23208,70551.0,57130.0,-499.5050707313821,-345.7015842546883,-1270.5841504288012
70551,15089,70551,23200,70551.0,57174.0,-504.9310857368213,-348.7705554129414,-1282.2476497421358
70561,15076,70561,23222,70561.0,57161.0,-510.38149612257115,-351.88191509396177,-1294.0087900578953
70561,15097,70561,23204,70561.0,57164.0,-515.8584498448686,-355.0398163753565,-1305.8754476464444
70561,15071,70561,23231,70561.0,57161.0,-521.3639575271116,-358.248222392154,-1317.8552746249338
70561,15083,70561,23227,70561.0,57131.0,-526.8997565295197,-361.5106572599113,-1329.955400888758
70561,15073,70561,23235,70561.0,57136.0,-532.4672330126959,-364.82989883920254,-1342.182339304644
70561,15048,70561,23182,70561.0,57088.0,-538.0674019410899,-368.2077892949145,-1354.5420554866573
70571,15024,70571,23208,70571.0,57109.0,-543.7010603337201,-371.6453920419994,-1367.040129090717
70571,15024,70571,23157,70571.0,57052.0,-549.3691663440227,-375.14336954622127,-1379.6819254846814
70571,15037,70571,23176,70571.0,57067.0,-555.0731507006906,-378.70235123726525,-1392.4727695163515
70571,15042,70571,23159,70571.0,57028.0,-560.8148690610352,-382.32322472476665,-1405.418137393353
70571,15028,70571,23209,70571.0,57066.0,-566.5963024883199,-386.0071944671656,-1418.52374305416
70571,15028,70571,23210,70571.0,57053.0,-572.4193257437669,-389.7554216830787,-1431.7953306475094
70582,15020,70582,23173,70582.0,57072.0,-578.2856465423877,-393.56847212694623,-1445.2381668682806
70582,15014,70582,23164,70582.0,57015.0,-584.1968044100036,-397.4461383372322,-1458.8565284329263
70582,15016,70582,23143,70582.0,57031.0,-590.154158257169,-401.38778002477585,-1472.6535204674778
70582,15021,70582,23191,70582.0,57022.0,-596.1588140521712,-405.3926867952262,-1486.631116392911
70582,14992,70582,23197,70582.0,57005.0,-602.2114986219897,-409.45996134203773,-1500.790075177286
70582,14985,70582,23146,70582.0,56953.0,-608.3125576338905,-413.588058722994,-1515.1298552908506
70592,14974,70592,23139,70592.0,56973.0,-614.4621546355015,-417.7746718396643,-1529.6488127068546
70592,14965,70592,23141,70592.0,56919.0,-620.6604991246472,-422.01713316263476,-1544.3445008290737
70592,14970,70592,23110,70592.0,56923.0,-626.9079680523707,-426.3128207737738,-1559.2138720478176
70592,14948,70592,23098,70592.0,56919.0,-633.2051308693528,-430.6594413119277,-1574.253407308321
70592,14984,70592,23135,70592.0,56878.0,-639.5526963168952,-435.0552971585484,-1589.4591292664506
70592,14957,70592,23174,70592.0,56901.0,-645.951326305305,-439.4991696190382,-1604.826557832565
70602,14966,70602,23114,70602.0,56910.0,-652.4013715000991,-443.98970280546894,-1620.3505677586427
70602,14948,70602,23140,70602.0,56908.0,-658.9027188273533,-448.52495406835044,-1636.0249156895788
70602,14952,70602,23170,70602.0,56880.0,-665.4547670792213,-453.10232554096535,-1651.8416311274705
70602,14959,70602,23146,70602.0,56882.0,-672.0563808699314,-457.7183243890603,-1667.7906701896882
70602,14934,70602,23137,70602.0,56870.0,-678.7057622516093,-462.3681842329589,-1683.859783854933
70602,14925,70602,23088,70602.0,56813.0,-685.4003877593302,-467.04589426094503,-1700.0344553171803
70613,14902,70613,23096,70613.0,56786.0,-692.1371627225624,-471.74468273265705,-1716.2981173095675
70613,14903,70613,23080,70613.0,56784.0,-698.9126978082982,-476.4575604369134,-1732.6326721243263
70613,14903,70613,23081,70613.0,56771.0,-705.7234974265809,-481.17762480598657,-1749.0188574991369
70613,14905,70613,23103,70613.0,56801.0,-712.5659407066976,-485.89809455183376,-1765.4361574168477
70613,14891,70613,23066,70613.0,56772.0,-719.4361239634864,-490.61216611351267,-1781.8623535566705
70613,14899,70613,23118,70613.0,56766.0,-726.3297226224427,-495.3128236780274,-1798.273023646398
70623,14896,70623,23116,70623.0,56761.0,-733.2418767795958,-499.9925503812259,-1814.641242428343
70623,14877,70623,23100,70623.0,56740.0,-740.16705601656,-504.64285997212676,-1830.9374192511732
70623,14890,70623,23110,70623.0,56776.0,-747.0989764834641,-509.2539446517189,-1847.129072813672
70623,14860,70623,23083,70623.0,56723.0,-754.0305845960356,-513.8146154286328,-1863.1804671201612
70623,14866,70623,23081,70623.0,56660.0,-760.95407921852,-518.3123997213709,-1879.0524274246918
70623,14823,70623,23075,70623.0,56676.0,-767.8610373187477,-522.7337135956212,-1894.702733968383
70633,14848,70633,23007,70633.0,56624.0,-774.7426453694391,-527.0641373689139,-1910.0867466928983
70633,14837,70633,23048,70633.0,56594.0,-781.5898445125606,-531.2888962026202,-1925.1578454024445
70633,14835,70633,23038,70633.0,56575.0,-788.3932481102769,-535.3932992479893,-1939.8678851332008
70633,14838,70633,23040,70633.0,56650.0,-795.1429635174976,-539.3627573607416,-1954.1675063341174
70633,14838,70633,23010,70633.0,56599.0,-801.8284256386914,-543.1826348454521,-1968.005777271506
70633,14851,70633,23067,70633.0,56584.0,-808.4381697382693,-546.8382352120138,-1981.3295223834266
70644,14822,70644,23044,70644.0,56569.0,-814.9595640868552,-550.3146441701929,-1994.0831214147897
70644,14815,70644,23023,70644.0,56575.0,-821.3786970939852,-553.5963999844296,-2006.2086758229764
70644,14819,70644,23061,70644.0,56557.0,-827.6804780249512,-556.667366061518,-2017.646036300167
70644,14806,70644,23070,70644.0,56558.0,-833.848733190041,-559.510638305589,-2028.3326791180125
70644,14789,70644,23010,70644.0,56482.0,-839.8662252393092,-562.1082631326367,-2038.203728702055
70644,14761,70644,22986,70644.0,56498.0,-845.7148045270199,-564.4413191665859,-2047.1923632067985
70654,14751,70654,22975,70654.0,56438.0,-851.3757821437148,-566.4906424671219,-2055.230485783899
70654,14767,70654,22974,70654.0,56440.0,-856.8303106842291,-568.2376150864309,-2062.2493823983727
70654,14741,70654,23010,70654.0,56467.0,-862.0595244343092,-569.6644974699265,-2068.1801923218773
70654,14780,70654,23014,70654.0,56467.0,-867.0444557726653,-570.7542364916324,-2072.9539405539
70654,14766,70654,23045,70654.0,56439.0,-871.7658032767933,-571.489931833901,-2076.5012295108377
70654,14744,70654,22997,70654.0,56453.0,-876.2036513110272,-571.8543235142884,-2078.752110285807
70664,14748,70664,22988,70664.0,56425.0,-880.3374129016413,-571.8297078783165,-2079.636247028263
70664,14764,70664,23026,70664.0,56411.0,-884.1459419037401,-571.3982603566753,-2079.0832067110646
70664,14746,70664,23046,70664.0,56420.0,-887.607483236377,-570.5421382055993,-2077.0228603640753
70664,14727,70664,22997,70664.0,56404.0,-890.6995711502697,-569.2431553634516,-2073.385780669829
70664,14712,70664,22980,70664.0,56361.0,-893.3992020492631,-567.4827241355327,-2068.103638181367
70664,14710,70664,22966,70664.0,56373.0,-895.6832239016476,-565.2424346334897,-2061.1098452916563
70675,14698,70675,22980,70675.0,56347.0,-897.5286819208529,-562.504774729496,-2052.3403692040956
70675,14703,70675,22955,70675.0,56331.0,-898.9130362628123,-559.2535620834013,-2041.7344893879995
70675,14715,70675,22999,70675.0,56361.0,-899.8142504547288,-555.4741393940922,-2029.235509670408
70675,14715,70675,22999,70675.0,56356.0,-900.2107108081709,-551.1533576791351,-2014.7913034683493
70675,14693,70675,23002,70675.0,56350.0,-900.0811009758704,-546.2793480561334,-1998.354643391262
70675,14720,70675,23021,70675.0,56403.0,-899.4044266281257,-540.8413091087161,-1979.8835152141473
70685,14708,70685,23017,70685.0,56445.0,-898.1600897520217,-534.8294093849389,-1959.3412437022523
70685,14714,70685,23023,70685.0,56436.0,-896.3278675437874,-528.2347446669557,-1936.6962393886945
70685,14707,70685,23017,70685.0,56412.0,-893.8879119111482,-521.0494009220399,-1911.9219138916
70685,14705,70685,23018,70685.0,56396.0,-890.8208613054794,-513.2666515526926,-1884.9973577346034
70685,14687,70685,23010,70685.0,56451.0,-887.1080554044324,-504.88124669960666,-1855.9084961733688
70685,14691,70685,22991,70685.0,56476.0,-882.7318633852315,-495.88980897491894,-1824.648928365421
70695,14678,70695,22968,70695.0,56432.0,-877.6760697221473,-486.2914228071327,-1791.2203228267265
70695,14697,70695,23039,70695.0,56515.0,-871.9262067671979,-476.0882778603053,-1755.6329582678245
70695,14703,70695,23061,70695.0,56607.0,-865.469737494167,-465.2858262163401,-1717.906225583922
70695,14695,70695,23071,70695.0,56633.0,-858.2960989880298,-453.8922933727936,-1678.0683378346362
70695,14723,70695,23099,70695.0,56698.0,-850.3967426712029,-441.91811154643403,-1636.1555673292726
70695,14728,70695,23099,70695.0,56711.0,-841.7651635111301,-429.37563524296695,-1592.211812320687
70706,14747,70706,23143,70706.0,56816.0,-832.3968132509544,-416.27899102756203,-1546.288508323622
70706,14742,70706,23157,70706.0,56861.0,-822.2889889398415,-402.643868845121,-1498.444431345646
70706,14717,70706,23140,70706.0,56890.0,-811.4409235646451,-388.4872928847478,-1448.7453083900778
70706,14746,70706,23118,70706.0,56906.0,-799.8541780282612,-373.8277357489226,-1397.2637352061088
70706,14774,70706,23140,70706.0,56992.0,-787.5330309354501,-358.6857311976001,-1344.079611641564
70706,14778,70706,23149,70706.0,57051.0,-774.4845038840393,-343.0845457137604,-1289.2805316683198
70716,14794,70716,23170,70716.0,57132.0,-760.718196158808,-327.0505156142809,-1232.9616903838123
70716,14825,70716,23231,70716.0,57230.0,-746.2462058482981,-310.6130327558426,-1175.225418474776
70716,14848,70716,23271,70716.0,57320.0,-731.0830196978336,-293.8041334599422,-1116.1804543886883
70716,14858,70716,23302,70716.0,57413.0,-715.2452863108257,-276.65773220778016,-1055.9409913786133
70716,14877,70716,23311,70716.0,57485.0,-698.7516503163246,-259.2088916766148,-994.6257003028941
70716,14898,70716,23342,70716.0,57574.0,-681.6227238646576,-241.4934356321635,-932.3569207902367
70726,14937,70726,23384,70726.0,57680.0,-663.8810390201847,-223.54775379207052,-869.2599622935904
70726,14943,70726,23352,70726.0,57786.0,-645.5508711019091,-205.40860524962326,-805.4622560891635
70726,14957,70726,23368,70726.0,57803.0,-626.658079972952,-187.11316414890527,-741.0924128568488
70726,14972,70726,23381,70726.0,57894.0,-607.2301546734611,-168.69945414857924,-676.2797018157783
70726,15007,70726,23441,70726.0,57952.0,-587.2963613946739,-150.2067110809206,-611.1540626027904
70726,15025,70726,23442,70726.0,58044.0,-566.8877712916093,-131.67528603970823,-545.8461519169156
70737,15072,70737,23513,70737.0,58129.0,-546.0371165908796,-113.14624345108001,-480.48712120634957
70737,15094,70737,23536,70737.0,58267.0,-524.7785205322613,-94.6608329349221,-415.20805438113655
70737,15129,70737,23596,70737.0,58342.0,-503.1471628205264,-76.2598073254324,-350.1389823823274
70737,15150,70737,23591,70737.0,58444.0,-481.1789847176665,-57.98270694631674,-285.407695002473
70737,15186,70737,23636,70737.0,58490.0,-458.9104751361216,-39.86736381729196,-221.13879097376707
70737,15230,70737,23662,70737.0,58644.0,-436.37844550309103,-21.949622493646984,-157.45302695226542
70747,15218,70747,23651,70747.0,58643.0,-413.6197679306589,-4.263128586070366,-94.46668007204107
70747,15247,70747,23685,70747.0,58704.0,-390.67130215584285,13.160723108188051,-32.291108366316166
70747,15266,70747,23670,70747.0,58778.0,-367.57010314518647,30.292611124032362,28.967118300894526
70747,15300,70747,23690,70747.0,58877.0,-344.3536248455084,47.105000917010955,89.20598586005076
70747,15331,70747,23685,70747.0,58922.0,-321.05971650432446,63.571794999252404,148.32827231695205
70747,15352,70747,23731,70747.0,59010.0,-297.7264831975087,79.66801361251152,206.24200100967232
70758,15397,70758,23801,70758.0,59081.0,-274.3921165940503,95.36982855942955,262.8608165052958
70758,15415,70758,23782,70758.0,59197.0,-251.0947028185825,110.6551108759935,318.1044884864541
70758,15456,70758,23840,70758.0,59217.0,-227.87199808017323,125.50408027439914,371.8996597504997
70758,15487,70758,23793,70758.0,59250.0,-204.7611910717066,139.899595660118,424.1803835577939
70758,15525,70758,23858,70758.0,59352.0,-181.79862056246583,153.82709950319907,474.888116768047
70758,15569,70758,23874,70758.0,59405.0,-159.01941055451863,167.27455255656622,523.9716930235168
70768,15572,70768,23851,70768.0,59426.0,-136.4570845637724,180.23257390831196,571.387634053898
70768,15604,70768,23843,70768.0,59439.0,-114.14333800108608,192.69441034876348,617.1002280542809
70768,15612,70768,23855,70768.0,59473.0,-92.10805256398305,204.65543989797771,661.0809940700688
70768,15643,70768,23848,70768.0,59495.0,-70.37941804478544,216.11258208368872,703.3078917565244
70768,15646,70768,23853,70768.0,59575.0,-48.98405534994015,227.0638802361724,743.7647327887694
70768,15672,70768,23876,70768.0,59553.0,-27.94716612064201,237.50819519733687,782.440920122039
70778,15708,70778,23880,70778.0,59636.0,-7.292667613126014,247.44505503585702,819.3312808883038
70778,15740,70778,23927,70778.0,59672.0,12.956855950213253,256.8747316392611,854.4359184053337
70778,15767,70778,23917,70778.0,59712.0,32.78042276232975,265.798505748578,887.7603162009364
70778,15779,70778,23941,70778.0,59715.0,52.15894392921507,274.2189605518819,919.3155301345653
70778,15823,70778,23967,70778.0,59816.0,71.07539814977713,282.14018844128736,949.1182175034571
70778,15825,70778,23982,70778.0,59767.0,89.51496404974898,289.56804643651947,977.1907011047153
70789,15845,70789,23963,70789.0,59797.0,107.46512084031076,296.510454069154,1003.5609341554855
70789,15843,70789,23940,70789.0,59777.0,124.91558421851528,302.9773753394926,1028.2619565678328
70789,15861,70789,23901,70789.0,59794.0,141.85806375323102,308.9802537895912,1051.3310197745914
70789,15862,70789,23935,70789.0,59814.0,158.2859574477867,314.5311351304348,1072.8087999878462
70789,15895,70789,23956,70789.0,59839.0,174.19409101221117,319.64207406121216,1092.7389030970307
70789,15921,70789,23990,70789.0,59841.0,189.5786295594611,324.3252255953312,1111.1676497860662
70799,15943,70799,23967,70799.0,59866.0,204.43723272746365,328.59334123216934,1128.1439310258816
70799,15953,70799,23974,70799.0,59878.0,218.7693096687982,332.4600786532834,1143.7190393614137
70799,15979,70799,23994,70799.0,59898.0,232.57618577840924,335.93998084408975,1157.9465614380042
70799,15966,70799,24025,70799.0,59914.0,245.86114475228158,339.04852489412906,1170.8823543994508
70799,15997,70799,23990,70799.0,59896.0,258.62934998395076,341.80242416291446,1182.5845032437783
70799,15995,70799,23987,70799.0,59892.0,270.8877038843673,344.21977249531596,1193.1130630598386
70809,15995,70809,23990,70809.0,59850.0,282.6447117454302,346.3197850765898,1202.5294486862522
70809,16006,70809,23936,70809.0,59857.0,293.91027707570333,348.12235997808386,1210.8955406936252
70809,16006,70809,23938,70809.0,59869.0,304.6954261155472,349.6475002543083,1218.27281737255
70809,16000,70809,23917,70809.0,59857.0,315.012030024459,350.91457369730676,1224.7218284652113
70809,16022,70809,23961,70809.0,59871.0,324.872510225149,351.9417576912423,1230.3019398585652
70809,16054,70809,23978,70809.0,59908.0,334.2896661633167,352.74602269877823,1235.0712137241312
70820,16047,70820,24003,70820.0,59894.0,343.27678900665,353.34363760284214,1239.0865314700413
70820,16069,70820,23977,70820.0,59891.0,351.8478686179868,353.75079565451574,1242.403793709063
70820,16068,70820,24006,70820.0,59917.0,360.01766671702774,353.9839557509266,1245.0779120849984
70820,16062,70820,23980,70820.0,59924.0,367.8016638742864,354.05991470454114,1247.1627874524102
70820,16067,70820,23986,70820.0,59921.0,375.2158778393084,353.99577591493073,1248.7114729842297
70820,16093,70820,23968,70820.0,59897.0,382.2766377033313,353.8088078300367,1249.776259407321
70830,16076,70830,23939,70830.0,59863.0,389.00049956498583,353.5161451017194,1250.4083710254247
70830,16074,70830,23945,70830.0,59874.0,395.40418984712585,353.13433188277963,1250.657313344868
70830,16075,70830,23943,70830.0,59874.0,401.50435717258154,352.678872663168,1250.570265282105
70830,16090,70830,23888,70830.0,59848.0,407.3172638047495,352.16390142205046,1250.1917653048342
70830,16089,70830,23955,70830.0,59883.0,412.85863872912705,351.6018350360647,1249.5635321403345
70830,16103,70830,23989,70830.0,59880.0,418.14366554629487,351.0033120249618,1248.7243983801056
70840,16108,70840,23972,70840.0,59912.0,423.187007532198,350.3777987148169,1247.7105236034542
70840,16117,70840,23955,70840.0,59888.0,428.0028572342834,349.7342634497753,1246.5557643422537
70840,16135,70840,23967,70840.0,59892.0,432.6050242964899,349.0812709511807,1245.2918941357252
70840,16154,70840,24031,70840.0,59888.0,437.0071116474596,348.42693770082246,1243.9485653242075
70840,16118,70840,23963,70840.0,59909.0,441.2227188935517,347.7792904254896,1242.5532179763732
70840,16140,70840,23941,70840.0,59873.0,445.26541748895727,347.1465154186624,1241.1310948685295
70851,16130,70851,23928,70851.0,59881.0,449.1484952219116,346.5364751359822,1239.7051815227337
70851,16115,70851,23934,70851.0,59816.0,452.88469826280823,345.95593095217635,1238.2958499080485
70851,16122,70851,23921,70851.0,59866.0,456.48595213742635,345.41009513932266,1236.920267806246
70851,16135,70851,23964,70851.0,59896.0,459.9630753855471,344.90253816418084,1235.592052813969
70851,16150,70851,23960,70851.0,59916.0,463.32571218080534,344.4353944747621,1234.3216379111946
70851,16156,70851,23963,70851.0,59923.0,466.582507849565,344.0097654733347,1233.117068882586
70861,16166,70861,23965,70861.0,59912.0,469.7413407954689,343.62602009323166,1231.9846079210884
70861,16156,70861,23970,70861.0,59931.0,472.8094688892968,343.28390996839204,1230.9289711330243
70861,16163,70861,23976,70861.0,59952.0,475.7935313816844,342.9826590553991,1229.953466871366
70861,16175,70861,23999,70861.0,59942.0,478.6994728883793,342.72113699582366,1229.060277590777
70861,16186,70861,23967,70861.0,59901.0,481.5325612514657,342.4980919578619,1228.2506564385337
70861,16168,70861,23955,70861.0,59905.0,484.2974990861851,342.3121981230858,1227.5246621027184
70871,16188,70871,23962,70871.0,59874.0,486.9984426626836,342.16177417621816,1226.8805614026298
70871,16168,70871,23933,70871.0,59896.0,489.6388996406064,342.0444136672301,1226.3142861602958
70871,16176,70871,23951,70871.0,59886.0,492.2215864740672,341.9566993219501,1225.8191285792648
70871,16200,70871,23959,70871.0,59937.0,494.7483101365848,341.8940337641141,1225.3857501479708
70871,16214,70871,23970,70871.0,59928.0,497.2200541917856,341.8507122327716,1225.0025305968777
70871,16214,70871,23989,70871.0,59950.0,499.6372974841079,341.82022125422486,1224.6560811476745
70882,16212,70882,24003,70882.0,59975.0,502.0002820962634,341.7956420270678,1224.3317139846872
70882,16225,70882,24003,70882.0,60036.0,504.30907877807306,341.7700858724144,1224.0140221796732
70882,16232,70882,24074,70882.0,59994.0,506.5636056651622,341.7371700620692,1223.6877081514926
70882,16217,70882,24006,70882.0,60017.0,508.7636933773914,341.6915929282948,1223.3382341483598
70882,16216,70882,24015,70882.0,59995.0,510.9090467467536,341.6294785898337,1222.9519552586703
70882,16221,70882,23958,70882.0,59967.0,512.9990485429537,341.54807053090764,1222.5159054136195
70892,16211,70892,23964,70892.0,59949.0,515.0325630603554,341.44497248739924,1222.0173278967575
70892,16225,70892,23963,70892.0,59989.0,517.0078104211364,341.31742647892315,1221.4431005453332
70892,16224,70892,23971,70892.0,59955.0,518.9223015169898,341.1619397271416,1220.7794648571119
70892,16254,70892,23982,70892.0,60032.0,520.7728984085904,340.97428281725837,1220.0121565727577
70892,16245,70892,24029,70892.0,60015.0,522.556030619961,340.74976612633174,1219.1268390188875
70892,16267,70892,24013,70892.0,60024.0,524.267964218935,340.4837764382568,1218.1096980104671
70902,16247,70902,24021,70902.0,60036.0,525.9049861851363,340.17233306872333,1216.9478648590136
70902,16285,70902,24026,70902.0,60031.0,527.46349204301,339.8123661569305,1215.62961329005
70902,16288,70902,24031,70902.0,60062.0,528.9401367532154,339.40182652906594,1214.1445532934697
70902,16276,70902,23992,70902.0,60036.0,530.332101594771,338.9397385357015,1212.4838769261896
70902,16275,70902,23974,70902.0,60033.0,531.6372241808729,338.4259652270516,1210.640500577138
70902,16258,70902,23957,70902.0,60048.0,532.8538399215929,337.8606069778067,1208.6090007711857
70913,16257,70913,23982,70913.0,60028.0,533.9804705959644,337.2433937955169,1206.3855218309902
70913,16260,70913,23971,70913.0,60007.0,535.0155179429834,336.57343963383124,1203.967694026733
70913,16286,70913,24031,70913.0,60029.0,535.9571262460653,335.84941134020744,1201.3544044935663
70913,16291,70913,24009,70913.0,60039.0,536.8033374124796,335.0700131032291,1198.5456395595459
70913,16280,70913,24026,70913.0,60021.0,537.552390876754,334.2345435910125,1195.5426231561269
70913,16299,70913,24010,70913.0,60018.0,538.202897211907,333.34321011661433,1192.3479659694337
70923,16305,70923,24006,70923.0,60024.0,538.7539138362333,332.39715532703445,1188.9656107800988
70923,16310,70923,24014,70923.0,60066.0,539.2051090416536,331.39835628192094,1185.4008612758957
70923,16294,70923,24022,70923.0,60016.0,539.5569314012602,330.3495800440272,1181.660696581536
70923,16304,70923,23968,70923.0,59984.0,539.8106085033462,329.2543916713367,1177.7539240924855
70923,16278,70923,23944,70923.0,59996.0,539.9679972597274,328.1168441838289,1173.6907656455649
70923,16291,70923,23963,70923.0,59961.0,540.0313687242775,326.94077147066463,1169.4822572060907
70933,16296,70933,23972,70933.0,59940.0,540.0032265279768,325.729272915927,1165.1397956630528
70933,16284,70933,24006,70933.0,59976.0,539.8862640938886,324.48480853439395,1160.6747413176688
70933,16295,70933,23955,70933.0,59977.0,539.6833796048991,323.2096131024078,1156.0982942642515
70933,16297,70933,23985,70933.0,59946.0,539.3976697137692,321.90589696403396,1151.4217373897259
70933,16290,70933,23983,70933.0,59995.0,539.0324605904265,320.57578891582415,1146.6566510045063
70933,16288,70933,23996,70933.0,59970.0,538.5913215671122,319.2213975086661,1141.8150724295517
70944,16308,70944,23988,70944.0,59984.0,538.0780309191333,317.84504736096414,1136.9097802729632
70944,16317,70944,24024,70944.0,59979.0,537.4966697297034,316.4495224439494,1131.9545431307488
70944,16297,70944,24011,70944.0,59946.0,536.8518599058199,315.0383688765715,1126.9641967072303
70944,16282,70944,23945,70944.0,59894.0,536.1488345601098,313.6160891678471,1121.9543930840784
70944,16276,70944,23936,70944.0,59899.0,535.3931726416267,312.1877421002435,1116.9408982172117
70944,16285,70944,23959,70944.0,59869.0,534.5904425196961,310.75811810612964,1111.9387852441123
70954,16267,70954,23944,70954.0,59925.0,533.7460052862622,309.3312610180508,1106.9620006994098
70954,16274,70954,23983,70954.0,59922.0,532.8649168896305,307.910534368698,1102.0235055290186
70954,16308,70954,23972,70954.0,59903.0,531.9519005968039,306.49893664804506,1097.1357820086673
70954,16292,70954,23993,70954.0,59897.0,531.011553542139,305.0994893417363,1092.3111455740254
70954,16284,70954,23963,70954.0,59911.0,530.0486415004532,303.7155337275485,1087.5617033052768
70954,16281,70954,23974,70954.0,59882.0,529.0681316312271,302.3507906209042,1082.8992946037495
70965,16302,70965,23986,70965.0,59911.0,528.0750622014956,301.0092922403327,1078.3355148554913
70965,16278,70965,23991,70965.0,59886.0,527.0745405429305,299.69545725003593,1073.8817630113533
70965,16277,70965,23924,70965.0,59839.0,526.0717719431118,298.41420361526383,1069.549201404554
70965,16249,70965,23924,70965.0,59826.0,525.0718784853625,297.1706195080717,1065.3483299533157
70965,16268,70965,23941,70965.0,59845.0,524.0795582649657,295.9692811526313,1061.2883099830283
70965,16265,70965,23948,70965.0,59854.0,523.09884790365,294.8139034918604,1057.3766484976377
70975,16253,70975,23901,70975.0,59795.0,522.133087376382,293.7074024574096,1053.6192790359928
70975,16287,70975,23939,70975.0,59861.0,521.1849635751486,292.6518425588996,1050.020547109289
70975,16278,70975,23967,70975.0,59832.0,520.2566466675647,291.6483486233438,1046.583168834035
70975,16276,70975,23961,70975.0,59858.0,519.3500333277796,290.6974409999733,1043.3084742711396
70975,16273,70975,23957,70975.0,59860.0,518.466876182415,289.79955539174955,1040.196763364777
70975,16300,70975,23968,70975.0,59898.0,517.608795361409,288.9552858839026,1037.2476874131225
70985,16275,70985,23995,70985.0,59875.0,516.7773845862041,288.1655090002781,1034.4607552168713
70985,16292,70985,23933,70985.0,59879.0,515.9743510307137,287.431585065581,1031.8357493960089
70985,16258,70985,23907,70985.0,59802.0,515.2015006973138,286.75523007731,1029.3726946888412
70985,16266,70985,23927,70985.0,59814.0,514.460544968987,286.1378496040644,1027.0712527710332
70985,16259,70985,23921,70985.0,59819.0,513.7528314916544,285.57993975262934,1024.9299301311291
70985,16264,70985,23915,70985.0,59806.0,513.0791592087248,285.0809457426605,1022.945667686837
70996,16280,70996,23908,70996.0,59851.0,512.4397665506456,284.6392461877898,1021.1138688606029
70996,16273,70996,23922,70996.0,59843.0,511.8344704935127,284.2520526361927,1019.4286901508174
70996,16266,70996,23963,70996.0,59846.0,511.26281886536543,283.91546726886264,1017.8834648254433
70996,16268,70996,23946,70996.0,59834.0,510.724094007774,283.6248870494022,1016.4709705306557
70996,16271,70996,23971,70996.0,59850.0,510.21722649509957,283.3755176715005,1015.1834499589698
70996,16288,70996,24012,70996.0,59885.0,509.7408071408007,283.1628153113369,1014.0126924130192
71005,16266,71005,23953,71005.0,59879.0,509.2932175626094,282.9829494232291,1012.950423406116
71005,16257,71005,23958,71005.0,59883.0,508.87266686154976,282.83300137581494,1011.988806259509
71005,16263,71005,23906,71005.0,59823.0,508.477004949876,282.710565138301,1011.1206046697263
71005,16272,71005,23927,71005.0,59788.0,508.1035331728496,282.6130334360654,1010.3387029411643
71005,16270,71005,23920,71005.0,59832.0,507.74902478612734,282.5370409876367,1009.6352067325536
71005,16256,71005,23925,71005.0,59811.0,507.40981574050767,282.47825919184845,1009.0008551186623
71015,16305,71015,23941,71015.0,59855.0,507.08184647871605,282.43144523937383,1008.425068024049
71015,16305,71015,23940,71015.0,59857.0,506.7608855645134,282.39061222337574,1007.8963338664479
71015,16272,71015,23966,71015.0,59870.0,506.4429352721151,282.3492900604257,1007.4027009721974
71015,16275,71015,24003,71015.0,59875.0,506.12433357765667,282.3009340747082,1006.9322253970618
71015,16310,71015,24004,71015.0,59895.0,505.80154256210375,282.2395623962318,1006.4733087491109
71015,16301,71015,24021,71015.0,59880.0,505.4711778422854,282.16045238326285,1006.014993176212
71026,16289,71026,23965,71026.0,59853.0,505.130289262773,282.0605259133058,1005.5470884181295
71026,16282,71026,23941,71026.0,59814.0,504.77642547812826,281.9381342994392,1005.0598580751998
71026,16267,71026,23918,71026.0,59819.0,504.4073955007421,281.7922753140067,1004.543299830159
71026,16250,71026,23876,71026.0,59828.0,504.02090943076956,281.6216106993607,1003.9864773059635
71026,16253,71026,23940,71026.0,59831.0,503.6141814166345,281.42366871720935,1003.377286373041
71026,16269,71026,23966,71026.0,59872.0,503.18364265699165,281.1946709360996,1002.7026319778959
71036,16292,71036,23945,71036.0,59831.0,502.7249851224708,280.93009261932144,1001.9487973211214
71036,16293,71036,23960,71036.0,59858.0,502.23353408820816,280.62527483810607,1001.1017103405602
71036,16292,71036,23965,71036.0,59872.0,501.70467033945204,280.2756452552908,1000.1470371086222
71036,16281,71036,23963,71036.0,59903.0,501.13403304194424,279.8768249735016,999.0704466256657
71036,16302,71036,24011,71036.0,59890.0,500.51751961284003,279.4248563433673,997.8581547243682
71036,16298,71036,23975,71036.0,59916.0,499.8513134352663,278.91657413010313,996.4974338644251
71046,16275,71046,23956,71046.0,59857.0,499.1319759752988,278.3498631496994,994.9768484334893
71046,16285,71046,23930,71046.0,59848.0,498.35638891056533,277.7234118978648,993.2860601357443
71046,16281,71046,23946,71046.0,59860.0,497.5215686432321,277.0361241398516,991.4152807405317
71046,16271,71046,23920,71046.0,59865.0,496.62455364755107,276.2866701540468,989.3548845298156
71046,16271,71046,23947,71046.0,59832.0,495.6623242759816,275.47329504625856,987.0953811124187
71046,16293,71046,23934,71046.0,59872.0,494.63173083625014,274.59379311366285,984.6274210754527
71057,16278,71057,23966,71057.0,59898.0,493.52957169707247,273.64564022026195,981.9418954890616
71057,16307,71057,23958,71057.0,59864.0,492.35279926207664,272.62627008650264,979.0303724083119
71057,16285,71057,23954,71057.0,59891.0,491.0987304658771,271.5333670765103,975.8855225807849
71057,16297,71057,24008,71057.0,59888.0,489.7651951048586,270.3651087783317,972.5012917797679
71057,16291,71057,23975,71057.0,59910.0,488.35058768368646,269.12052034394094,968.8731154559207
71057,16277,71057,23965,71057.0,59848.0,486.85384915450396,267.79982933787375,964.9981819689956
71067,16267,71067,23948,71067.0,59821.0,485.2743482450519,266.40441637897453,960.8752790891313
71067,16266,71067,23932,71067.0,59821.0,483.61164217419554,264.9364060895467,956.5041085077632
71067,16252,71067,23933,71067.0,59813.0,481.8652341534155,263.39822817658666,951.8846067113981
71067,16263,71067,23906,71067.0,59786.0,480.03440459255535,261.7922639339576,947.0166122184883
71067,16272,71067,23911,71067.0,59811.0,478.1181666205413,260.12053357024854,941.8996849090086
71067,16270,71067,23935,71067.0,59824.0,476.11540260809846,258.3844829769274,936.5330895945893
71077,16263,71077,23947,71077.0,59816.0,474.0250562519068,256.585098552527,930.916109784724
71077,16284,71077,23945,71077.0,59819.0,471.84624466432956,254.72333182015063,925.0484589395631
71077,16281,71077,23922,71077.0,59844.0,469.57839775667816,252.80044322382875,918.9305868525662
71077,16263,71077,23956,71077.0,59782.0,467.22145327333607,250.81806472006173,912.5639358049252
71077,16271,71077,23930,71077.0,59786.0,464.77591119202685,248.77821182399543,905.9509481471105
71077,16242,71077,23947,71077.0,59739.0,462.24270701645037,246.68339278672033,899.0946572907669
71088,16251,71088,23889,71088.0,59727.0,459.6230112025262,244.53660639439943,891.9980866666715
71088,16243,71088,23878,71088.0,59719.0,456.9180356384585,242.34098141536754,884.6636872595033
71088,16234,71088,23875,71088.0,59735.0,454.1289179725575,240.09913045640482,877.0930099270348
71088,16240,71088,23899,71088.0,59743.0,451.25665744232913,237.81267549338537,869.2867925362632
71088,16218,71088,23881,71088.0,59716.0,448.30204550442033,235.48223438810243,861.2453141314382
71088,16237,71088,23903,71088.0,59746.0,445.26559528056794,233.10763763584626,852.9686943326124
71098,16236,71098,23891,71098.0,59730.0,442.1475446710999,230.6881264038334,844.4571278291864
71098,16243,71098,23920,71098.0,59708.0,438.94801811381603,228.22256019365062,835.7111349056191
71098,16232,71098,23938,71098.0,59747.0,435.6672518628297,225.70976164134873,826.7317268008065
71098,16241,71098,23893,71098.0,59743.0,432.3057350482351,223.14894991665363,817.5206558692943
71098,16222,71098,23894,71098.0,59678.0,428.86426448191236,220.5398883663379,808.0808010969539
71098,16215,71098,23863,71098.0,59676.0,425.34391319158294,217.88257036153868,798.4161546470549
71108,16189,71108,23878,71108.0,59630.0,421.74584587449056,215.1767671532082,788.5312717286494
71108,16205,71108,23858,71108.0,59646.0,418.07102778293324,212.42173522674778,778.4306814943589
71108,16187,71108,23867,71108.0,59607.0,414.32001723559546,209.61609328539635,768.1185482159733
71108,16203,71108,23837,71108.0,59658.0,410.492934815923,206.7577393704395,757.598600806342
71108,16185,71108,23936,71108.0,59623.0,406.589530314269,203.8438769691705,746.8743690007753
71108,16201,71108,23905,71108.0,59625.0,402.6092684831849,200.8715144438488,735.9495783395037
71119,16198,71119,23893,71119.0,59638.0,398.5514477771844,197.83826180082488,724.8284468165646
71119,16190,71119,23876,71119.0,59596.0,394.41536423331286,194.74265992295497,713.5159012793835
71119,16214,71119,23929,71119.0,59586.0,390.2004780135622,191.58405245476075,702.0176790323613
71119,16187,71119,23878,71119.0,59588.0,385.90659274630974,188.36264594994526,690.3402153180508
71119,16195,71119,23872,71119.0,59555.0,381.53400518231507,185.079669257514,678.4905289771488
71119,16157,71119,23825,71119.0,59523.0,377.0834774374712,181.73711002068165,666.4761263139615
71129,16158,71129,23848,71129.0,59524.0,372.5559953850754,178.33710920005313,654.3047225912326
71129,16150,71129,23854,71129.0,59467.0,367.9524487635887,174.88154579938322,641.9838719785581
71129,16157,71129,23815,71129.0,59470.0,363.2734434368267,171.37200398197115,629.5205927258731
71129,16161,71129,23844,71129.0,59471.0,358.5193449408343,167.809792652642,616.9210439833661
71129,16158,71129,23832,71129.0,59455.0,353.69047437121924,164.19589198288668,604.190482720122
71129,16161,71129,23844,71129.0,59447.0,348.78732910112916,160.5310453965365,591.3334479226905
71139,16137,71139,23857,71139.0,59425.0,343.8107210581376,156.81601114739928,578.3538845303331
71139,16159,71139,23876,71139.0,59486.0,338.7618021845789,153.05193298556443,565.255281831026
71139,16138,71139,23846,71139.0,59471.0,333.6420843094168,149.24078535909422,552.0411944981456
71139,16132,71139,23845,71139.0,59408.0,328.4534958901743,145.38561181097577,538.7159660326625
71139,16108,71139,23796,71139.0,59372.0,323.19832177206536,141.4903581793294,525.2848429749513
71139,16112,71139,23800,71139.0,59340.0,317.87898340346817,137.55939359428902,511.7532895114054
71150,16088,71150,23779,71150.0,59358.0,312.49780716603095,133.59696401830664,498.12622477489083
71150,16080,71150,23772,71150.0,59318.0,307.0568252646502,129.60678663759109,484.4077209754515
71150,16110,71150,23783,71150.0,59335.0,301.55763541163356,125.5918234227399,470.60104482768276
71150,16095,71150,23805,71150.0,59333.0,296.0015033969169,121.55429849932855,456.70883369662886
71150,16105,71150,23804,71150.0,59331.0,290.3896882522109,117.49604017900148,442.73344479961565
71150,16070,71150,23813,71150.0,59330.0,284.7236742633826,113.41896543902999,428.6774227286261
71160,16083,71160,23764,71160.0,59314.0,279.0051539597408,109.32537489470155,414.54390914279753
71160,16076,71160,23815,71160.0,59317.0,273.2359259506312,105.21793879789661,400.3369459687848
71160,16066,71160,23766,71160.0,59278.0,267.4178957589039,101.09962087818386,386.0616760453936
71160,16062,71160,23738,71160.0,59246.0,261.55312090379863,96.97360065091695,371.72433179380334
71160,16049,71160,23743,71160.0,59212.0,255.6437868417288,92.84291077805472,357.3318923444107
71160,16030,71160,23746,71160.0,59183.0,249.69210762576384,88.70998568238684,342.8915202228633
71170,16024,71170,23708,71170.0,59157.0,243.7001390707139,84.57647951857513,328.4099939105881
71170,16033,71170,23737,71170.0,59127.0,237.66959541991895,80.4431733142111,313.8932170004018
71170,16044,71170,23747,71170.0,59147.0,231.60188396094526,76.30993884828166,299.34587051363246
71170,16044,71170,23775,71170.0,59157.0,225.49841014849991,72.17606279653754,284.77143686686
71170,16012,71170,23756,71170.0,59161.0,219.360902243048,68.04085019322622,270.1727127068649
71170,16004,71170,23761,71170.0,59144.0,213.19143971479252,63.90409640942639,255.552506932391
71181,16019,71181,23746,71181.0,59133.0,206.99225011319317,59.76624957565113,240.91412917438265
71181,16014,71181,23775,71181.0,59147.0,200.76566288717942,55.628447608421624,226.26165446514824
71181,16000,71181,23739,71181.0,59061.0,194.51429293608112,51.4926362420903,211.60007933154498
71181,15979,71181,23713,71181.0,59046.0,188.24113001842719,47.3616020821091,196.9351222813366
71181,15970,71181,23688,71181.0,59020.0,181.94937203436106,43.238615035835664,182.2725774527746
71181,15943,71181,23654,71181.0,59020.0,175.64212148408959,39.126744793425814,167.6177352687953
71191,15935,71191,23660,71191.0,58970.0,169.3220461869824,35.02814672347009,152.97515120767468
71191,15929,71191,23685,71191.0,58993.0,162.99106285181549,30.94362874446975,138.34852776826062
71191,15945,71191,23694,71191.0,58964.0,156.65019114525907,26.872754094635695,123.74066293447027
71191,15950,71191,23701,71191.0,58975.0,150.29970569029527,22.814346406464864,109.15359250857875
71191,15952,71191,23715,71191.0,58947.0,143.93951512744252,18.767032824097214,94.58883514896593
71191,15952,71191,23692,71191.0,58950.0,137.56956180413704,14.729653176647759,80.04759635491064
71202,15944,71202,23748,71202.0,58945.0,131.19010852224972,10.701565599502402,65.53095157831501
71202,15922,71202,23686,71202.0,58934.0,124.80186174646718,6.682955891217915,51.040093411076896
71202,15938,71202,23696,71202.0,58906.0,118.40593935580637,2.6750109848344437,36.57656995132902
71202,15903,71202,23631,71202.0,58891.0,112.00380433611417,-1.320345008311449,22.142336215460773
71202,15892,71202,23648,71202.0,58803.0,105.59716640012903,-5.301077340774782,7.7394910469803335
71202,15893,71202,23626,71202.0,58853.0,99.18776244431143,-9.265649354480047,-6.6302904231826005
71212,15876,71212,23639,71212.0,58822.0,92.77715340051452,-13.213342270599412,-20.966187660895002
71212,15871,71212,23629,71212.0,58801.0,86.36663658890836,-17.144300255714825,-35.2681910512822
71212,15841,71212,23653,71212.0,58850.0,79.9571318617779,-21.0594181629381,-49.53685082013487
71212,15889,71212,23651,71212.0,58836.0,73.5490475671225,-24.960082064981634,-63.77284284788834
71212,15864,71212,23673,71212.0,58776.0,67.14238736011123,-28.84777469800619,-77.97637160708098
71212,15876,71212,23631,71212.0,58822.0,60.737109987584745,-32.72370362788581,-92.14691007056308
71222,15878,71222,23655,71222.0,58779.0,54.33346276658989,-36.588664587232074,-106.2831895734214
71222,15856,71222,23666,71222.0,58739.0,47.932201731568114,-40.443032691162045,-120.38311788193573
71222,15842,71222,23628,71222.0,58719.0,41.53466403358743,-44.28662652104853,-134.4439493089202
71222,15817,71222,23593,71222.0,58671.0,35.14258530765591,-48.118716243888485,-148.46282027282552
71222,15800,71222,23624,71222.0,58696.0,28.757726724200324,-51.93844087937839,-162.43727802391822
71222,15798,71222,23594,71222.0,58664.0,22.381479639848862,-55.74520166058193,-176.36550716585134
71233,15799,71233,23594,71233.0,58646.0,16.01462183331745,-59.538762358335646,-190.24629047961673
