c_ts,c_val,d_ts,d_val,e_ts,e_val,c_val_filtered,d_val_filtered,e_val_filtered
448701.0,10103.0,448701.0,13717.0,448701.0,28580.0,-453.5635032270868,-513.6096048946907,-831.0528163023006
448701.0,10083.0,448701.0,13652.0,448701.0,28536.0,-463.68700538466106,-527.0574311074515,-850.2818439462676
448701.0,10068.0,448701.0,13665.0,448701.0,28530.0,-474.0451170136678,-540.6269104216818,-869.7736241446964
448701.0,10064.0,448701.0,13637.0,448701.0,28495.0,-484.6258187525351,-554.2830507988571,-889.4825116196107
448711.0,10060.0,448711.0,13662.0,448711.0,28488.0,-495.4167998914096,-567.9905406655686,-909.3610133239047
448711.0,10055.0,448711.0,13638.0,448711.0,28476.0,-506.40543110826866,-581.7135829576121,-929.3599013550171
448711.0,10054.0,448711.0,13642.0,448711.0,28447.0,-517.578631309058,-595.4155980235524,-949.4282132123197
448711.0,10034.0,448711.0,13611.0,448711.0,28447.0,-528.922724095184,-609.0590191567884,-969.5132199130761
448711.0,10006.0,448711.0,13596.0,448711.0,28413.0,-540.4234178467029,-622.6052891979002,-989.5604162300356
448711.0,10012.0,448711.0,13566.0,448711.0,28411.0,-552.0659766447266,-636.0150573977273,-1009.5135165412192
448721.0,10025.0,448721.0,13589.0,448721.0,28406.0,-563.8353396466252,-649.2484260064049,-1029.3144115077573
448721.0,9999.0,448721.0,13589.0,448721.0,28373.0,-575.7159485666368,-662.2649422769629,-1048.903036806605
448721.0,9982.0,448721.0,13576.0,448721.0,28359.0,-587.6915245709682,-675.0232542013217,-1068.2172812675003
448721.0,9962.0,448721.0,13536.0,448721.0,28323.0,-599.7451229327654,-687.4808137715819,-1087.1930921817209
448721.0,9961.0,448721.0,13515.0,448721.0,28302.0,-611.8593627621659,-699.5940055167672,-1105.7647393139973
448721.0,9954.0,448721.0,13533.0,448721.0,28288.0,-624.0165551070103,-711.3185316970968,-1123.8651243322304
448732.0,9968.0,448732.0,13523.0,448732.0,28289.0,-636.1986105842884,-722.6095637993739,-1141.425973854146
448732.0,9949.0,448732.0,13519.0,448732.0,28274.0,-648.3867675884878,-733.4215484354725,-1158.3777968541654
448732.0,9935.0,448732.0,13486.0,448732.0,28240.0,-660.5613318929628,-743.7080232440892,-1174.6497583915752
448732.0,9905.0,448732.0,13481.0,448732.0,28224.0,-672.7016508611551,-753.4217012814877,-1190.169749155275
448732.0,9900.0,448732.0,13465.0,448732.0,28208.0,-684.7863309983586,-762.5147282638611,-1204.8646612080763
448732.0,9906.0,448732.0,13472.0,448732.0,28203.0,-696.7934526152067,-770.9388834834654,-1218.6606334595815
448742.0,9896.0,448742.0,13450.0,448742.0,28194.0,-708.7005455164702,-778.6456389227949,-1231.4831356620452
448742.0,9880.0,448742.0,13457.0,448742.0,28162.0,-720.4844053474754,-785.5861691911205,-1243.2569904526802
448742.0,9882.0,448742.0,13431.0,448742.0,28153.0,-732.1209800047583,-791.7114049183891,-1253.9065260789198
448742.0,9864.0,448742.0,13411.0,448742.0,28144.0,-743.5853349565671,-796.9722020133856,-1263.355866281136
448742.0,9842.0,448742.0,13389.0,448742.0,28108.0,-754.8516557523953,-801.3197174123118,-1271.5292262092755
448742.0,9851.0,448742.0,13424.0,448742.0,28108.0,-765.8933350715644,-804.70584921715,-1278.3512532473756
448752.0,9843.0,448752.0,13402.0,448752.0,28098.0,-776.6830237205913,-807.0834028130824,-1283.74741923692
448752.0,9832.0,448752.0,13380.0,448752.0,28092.0,-787.1925290627559,-808.4060614175414,-1287.6443107025655
448752.0,9810.0,448752.0,13389.0,448752.0,28063.0,-797.3927317555443,-808.6285612560516,-1289.9698640053216
448752.0,9797.0,448752.0,13356.0,448752.0,28055.0,-807.2536937223633,-807.7070809534654,-1290.6537521854139
448752.0,9785.0,448752.0,13359.0,448752.0,28057.0,-816.7448935384723,-805.5996725583225,-1289.627899508859
448752.0,9792.0,448752.0,13363.0,448752.0,28061.0,-825.8354121081348,-802.2666951350602,-1286.8268871844157
448763.0,9794.0,448763.0,13376.0,448763.0,28055.0,-834.4939239089211,-797.6711004943589,-1282.1881735189531
448763.0,9781.0,448763.0,13370.0,448763.0,28047.0,-842.6885150386249,-791.7785055550878,-1275.6523087066294
448763.0,9761.0,448763.0,13357.0,448763.0,28045.0,-850.3865557341278,-784.5572832352323,-1267.1632980457834
448763.0,9753.0,448763.0,13354.0,448763.0,28035.0,-857.554804456846,-775.9788874927946,-1256.669095260244
448763.0,9760.0,448763.0,13347.0,448763.0,28034.0,-864.1596171035224,-766.0183690106782,-1244.1221690373222
448763.0,9753.0,448763.0,13365.0,448763.0,28045.0,-870.1670215915991,-754.6548901862814,-1229.4800898129292
448773.0,9757.0,448773.0,13377.0,448773.0,28054.0,-875.5426366437118,-741.8720763018596,-1212.7060330952936
448773.0,9731.0,448773.0,13365.0,448773.0,28047.0,-880.2516058606302,-727.6582177071335,-1193.7691966398236
448773.0,9726.0,448773.0,13395.0,448773.0,28046.0,-884.2587019953721,-712.0065056707994,-1172.6453127645814
448773.0,9719.0,448773.0,13381.0,448773.0,28067.0,-887.5285904101024,-694.9153528653087,-1149.3173235718632
448773.0,9721.0,448773.0,13425.0,448773.0,28097.0,-890.0260788105784,-676.3886954876322,-1123.7759911663584
448773.0,9728.0,448773.0,13448.0,448773.0,28113.0,-891.7162228542813,-656.4361576603973,-1096.0202511545374
448783.0,9735.0,448783.0,13471.0,448783.0,28143.0,-892.564280672015,-635.0729990550988,-1066.0574230401053
448783.0,9705.0,448783.0,13489.0,448783.0,28179.0,-892.5356388540854,-612.319993153186,-1033.903419199585
448783.0,9698.0,448783.0,13493.0,448783.0,28188.0,-891.5959599393716,-588.2034724224305,-999.5829562390675
448783.0,9700.0,448783.0,13528.0,448783.0,28245.0,-889.7115929963464,-562.7555721105272,-963.1298005863604
448783.0,9698.0,448783.0,13557.0,448783.0,28295.0,-886.8499691267987,-536.0144896622471,-924.5869604887941
448783.0,9701.0,448783.0,13625.0,448783.0,28354.0,-882.9798291704745,-508.0245037248565,-884.0066088012682
448794.0,9701.0,448794.0,13630.0,448794.0,28395.0,-878.0713777484223,-478.8356968606914,-841.4497877831723
448794.0,9692.0,448794.0,13665.0,448794.0,28446.0,-872.0964658362639,-448.50368004182917,-796.9861552707862
448794.0,9699.0,448794.0,13711.0,448794.0,28487.0,-865.028851394511,-417.08955205512905,-750.6938936921424
448794.0,9706.0,448794.0,13767.0,448794.0,28570.0,-856.8444883668922,-384.6598532166793,-702.6596825260266
448794.0,9720.0,448794.0,13820.0,448794.0,28657.0,-847.5217214421556,-351.2862301191325,-652.9784584674244
448794.0,9716.0,448794.0,13881.0,448794.0,28719.0,-837.0413853273121,-317.04486996981905,-601.752800617436
448804.0,9714.0,448804.0,13926.0,448804.0,28804.0,-825.3869650532843,-282.0158661247111,-549.0921561867631
448804.0,9719.0,448804.0,13980.0,448804.0,28867.0,-812.5449251833863,-246.282629732271,-495.112160407469
448804.0,9730.0,448804.0,13991.0,448804.0,28956.0,-798.5051153597533,-209.931476439755,-439.93404306585023
448804.0,9755.0,448804.0,14101.0,448804.0,29045.0,-783.2610725059842,-173.05138748743082,-383.68399851651793
448804.0,9759.0,448804.0,14167.0,448804.0,29138.0,-766.8101572709388,-135.73355991548004,-326.49240192817933
448804.0,9780.0,448804.0,14233.0,448804.0,29239.0,-749.1536321730182,-98.07045766332243,-268.4928454200989
448815.0,9784.0,448815.0,14254.0,448815.0,29310.0,-730.2968049709856,-60.15478762092255,-209.82109915631668
448815.0,9804.0,448815.0,14322.0,448815.0,29379.0,-710.249251379882,-22.078911671084143,-150.61421568919195
448815.0,9824.0,448815.0,14382.0,448815.0,29474.0,-689.0250582650905,16.065462075282653,-91.00991077541926
448815.0,9871.0,448815.0,14424.0,448815.0,29555.0,-666.6429595029929,54.18768824965889,-31.14603004919445
448815.0,9881.0,448815.0,14495.0,448815.0,29632.0,-643.126270955346,92.1986963693272,28.840089085894192
448815.0,9911.0,448815.0,14521.0,448815.0,29703.0,-618.5027615593314,130.0114593306772,88.8122393365702
448825.0,9931.0,448825.0,14574.0,448825.0,29787.0,-592.8046500042631,167.54134625616348,148.63583016925986
448825.0,9949.0,448825.0,14611.0,448825.0,29857.0,-566.0687240677183,204.70632001361957,208.17831851559924
448825.0,9991.0,448825.0,14665.0,448825.0,29951.0,-538.3364965660721,241.42707119222814,267.3096809825529
448825.0,10036.0,448825.0,14730.0,448825.0,30026.0,-509.6542591094258,277.627257137259,325.9029743558772
448825.0,10068.0,448825.0,14748.0,448825.0,30116.0,-480.0729149366563,313.2338809912068,383.834990628764
448825.0,10116.0,448825.0,14803.0,448825.0,30165.0,-449.6476884913431,348.1776209595474,440.98690340604617
448835.0,10153.0,448835.0,14834.0,448835.0,30217.0,-418.4378416312198,382.3929826466119,497.24468706265225
448835.0,10193.0,448835.0,14871.0,448835.0,30309.0,-386.5064048015529,415.81838194046225,552.4992517928501
448835.0,10255.0,448835.0,14922.0,448835.0,30379.0,-353.9198949452033,448.39624151845226,606.6466220396906
448835.0,10294.0,448835.0,14956.0,448835.0,30491.0,-320.74794525506275,480.0731454678953,659.5884815860625
448835.0,10349.0,448835.0,15008.0,448835.0,30528.0,-287.06284056904104,510.80009031441966,711.233005700266
448835.0,10398.0,448835.0,15039.0,448835.0,30578.0,-252.93904924608313,540.532787642532,761.4955646063197
448846.0,10449.0,448846.0,15052.0,448846.0,30611.0,-218.4527633515291,569.2319004957183,810.298924838814
448846.0,10504.0,448846.0,15096.0,448846.0,30685.0,-183.68141843506118,596.8630854733622,857.573076695747
448846.0,10559.0,448846.0,15114.0,448846.0,30740.0,-148.70318436618913,623.3969146548552,903.255149680253
448846.0,10626.0,448846.0,15152.0,448846.0,30807.0,-113.59638829674054,648.8088504829263,947.2896347423844
448846.0,10685.0,448846.0,15169.0,448846.0,30832.0,-78.4388267497826,673.0792745634242,989.6287372738038
448846.0,10724.0,448846.0,15184.0,448846.0,30855.0,-43.307033111060946,696.1934740417603,1030.232514576672
448856.0,10773.0,448856.0,15213.0,448856.0,30898.0,-8.275688239123497,718.14153155534,1069.068641509662
448856.0,10806.0,448856.0,15206.0,448856.0,30951.0,26.582735188853803,738.9181394810382,1106.112074767215
448856.0,10868.0,448856.0,15242.0,448856.0,30966.0,61.19820426899332,758.5223590426754,1141.344920406117
448856.0,10919.0,448856.0,15237.0,448856.0,30999.0,95.50342192873154,776.9573548135322,1174.7563678268145
448856.0,10955.0,448856.0,15285.0,448856.0,31027.0,129.43425447705943,794.2302017901188,1206.3424783074665
448856.0,10994.0,448856.0,15260.0,448856.0,31058.0,162.9301228328343,810.3517892259372,1236.1059296355288
448866.0,11025.0,448866.0,15269.0,448866.0,31049.0,195.9342016572939,825.3366388680092,1264.055771614647
448866.0,11052.0,448866.0,15285.0,448866.0,31076.0,228.39345263834582,839.2025097568749,1290.207022379136
448866.0,11099.0,448866.0,15300.0,448866.0,31112.0,260.2585787663061,851.970023879295,1314.5801618992168
448866.0,11144.0,448866.0,15312.0,448866.0,31148.0,291.48404703053245,863.6625266207818,1337.2008763529466
448866.0,11184.0,448866.0,15319.0,448866.0,31144.0,322.02829851238766,874.306061957444,1358.1000992569782
448866.0,11192.0,448866.0,15315.0,448866.0,31152.0,351.8540036671494,883.9292896202062,1377.313955930941
448877.0,11220.0,448877.0,15297.0,448877.0,31139.0,380.9280848700737,892.5632320891978,1394.8833512665892
448877.0,11248.0,448877.0,15314.0,448877.0,31166.0,409.2214912499911,900.2408322843332,1410.8533453508833
448877.0,11303.0,448877.0,15328.0,448877.0,31175.0,436.709026397805,906.9965516602567,1425.272631331895
448877.0,11324.0,448877.0,15333.0,448877.0,31173.0,463.369448457986,912.8662464455999,1438.1932375284046
448877.0,11339.0,448877.0,15313.0,448877.0,31171.0,489.1856774781369,917.8871691382401,1449.670253893858
448877.0,11363.0,448877.0,15294.0,448877.0,31154.0,514.1448051264956,922.0977359030655,1459.7613787893733
448887.0,11365.0,448887.0,15327.0,448887.0,31177.0,538.2378668607269,925.5370526018116,1468.5263470295324
448887.0,11389.0,448887.0,15296.0,448887.0,31175.0,561.4595004200364,928.2445503461483,1476.0264720967175
448887.0,11415.0,448887.0,15352.0,448887.0,31175.0,583.8076083157241,930.2598932365931,1482.3243977400407
448887.0,11444.0,448887.0,15338.0,448887.0,31180.0,605.2831783051399,931.6231185646268,1487.4839072286327
448887.0,11438.0,448887.0,15326.0,448887.0,31177.0,625.8902437109855,932.3748807009149,1491.5696991960008
448887.0,11464.0,448887.0,15285.0,448887.0,31155.0,645.6357508330984,932.5563987026856,1494.6471239713364
448897.0,11478.0,448897.0,15301.0,448897.0,31144.0,664.5292928545773,932.2089383600944,1496.7817710555503
448897.0,11501.0,448897.0,15301.0,448897.0,31160.0,682.5829043014792,931.3732644779695,1498.0389481353939
448897.0,11523.0,448897.0,15324.0,448897.0,31166.0,699.8109967011937,930.0894890697707,1498.4833530803057
448897.0,11523.0,448897.0,15297.0,448897.0,31164.0,716.2303460122021,928.3972291533373,1498.1790562158885
448897.0,11529.0,448897.0,15291.0,448897.0,31129.0,731.8599775615071,926.3356822749527,1497.189497346879
448897.0,11546.0,448897.0,15275.0,448897.0,31125.0,746.7208912889334,923.9434120625526,1495.5771797618231
448908.0,11544.0,448908.0,15275.0,448908.0,31133.0,760.8357562078093,921.2579943225737,1493.4031765494135
448908.0,11575.0,448908.0,15296.0,448908.0,31130.0,774.2286806674247,918.3157936162397,1490.726825647479
448908.0,11570.0,448908.0,15288.0,448908.0,31148.0,786.9250718569635,915.152016834963,1487.605727007308
448908.0,11579.0,448908.0,15273.0,448908.0,31134.0,798.9515250891441,911.8008908211524,1484.0958881784597
448908.0,11576.0,448908.0,15270.0,448908.0,31110.0,810.3356165771222,908.2956654095068,1480.2517958670148
448908.0,11585.0,448908.0,15246.0,448908.0,31100.0,821.1055907559621,904.6684003087465,1476.1262072625848
448918.0,11612.0,448918.0,15243.0,448918.0,31111.0,831.2900970898845,900.949660222382,1471.7697706808162
448918.0,11606.0,448918.0,15241.0,448918.0,31094.0,840.9181029522135,897.1682143154451,1467.2307935682086
448918.0,11624.0,448918.0,15273.0,448918.0,31099.0,850.0188986837047,893.3509252251287,1462.5551845687248
448918.0,11627.0,448918.0,15254.0,448918.0,31095.0,858.6220542595338,889.5229521573806,1457.7864203622485
448918.0,11627.0,448918.0,15227.0,448918.0,31061.0,866.7573266209106,885.707989951029,1452.9654669867123
448918.0,11622.0,448918.0,15223.0,448918.0,31074.0,874.4544944583511,881.9281486708426,1448.1305692453936
448928.0,11620.0,448928.0,15242.0,448928.0,31071.0,881.7430648494355,878.2036247439313,1443.3169979464772
448928.0,11649.0,448928.0,15236.0,448928.0,31093.0,888.6519661462219,874.5526182641154,1438.5570289677344
448928.0,11661.0,448928.0,15223.0,448928.0,31083.0,895.2094609150527,870.9914816475907,1433.8801853871198
448928.0,11650.0,448928.0,15229.0,448928.0,31064.0,901.4432779969875,867.5347772812211,1429.3134704574954
448928.0,11646.0,448928.0,15227.0,448928.0,31066.0,907.3806349351132,864.1952294689115,1424.8813496480925
448928.0,11652.0,448928.0,15220.0,448928.0,31045.0,913.0479940488358,860.9837219848251,1420.6055355218962
448939.0,11661.0,448939.0,15222.0,448939.0,31073.0,918.470779959614,857.9093124913779,1416.504799294412
448939.0,11679.0,448939.0,15250.0,448939.0,31060.0,923.673280326628,854.979281684375,1412.5949642018995
448939.0,11676.0,448939.0,15231.0,448939.0,31068.0,928.6787168317974,852.1993463898414,1408.889055789959
448939.0,11676.0,448939.0,15205.0,448939.0,31053.0,933.5093136150747,849.5738522179702,1405.3974224297986
448939.0,11662.0,448939.0,15210.0,448939.0,31044.0,938.1861924190855,847.1056258424014,1402.127698148004
448939.0,11681.0,448939.0,15225.0,448939.0,31065.0,942.7291119417441,844.795681043556,1399.0846762439655
448949.0,11668.0,448949.0,15217.0,448949.0,31066.0,947.1562267824322,842.643179123956,1396.270307965021
448949.0,11698.0,448949.0,15238.0,448949.0,31073.0,951.4839726052012,840.6456153329652,1393.6839110823382
448949.0,11716.0,448949.0,15242.0,448949.0,31069.0,955.7271295523615,838.7990653828335,1391.3224102175216
448949.0,11705.0,448949.0,15220.0,448949.0,31067.0,959.8990633781923,837.0984233285413,1389.1804571629627
448949.0,11696.0,448949.0,15210.0,448949.0,31070.0,964.011876694457,835.5374305894079,1387.2504454617947
448949.0,11704.0,448949.0,15223.0,448949.0,31075.0,968.0762513353409,834.1084497333799,1385.5225104894496
448959.0,11710.0,448959.0,15248.0,448959.0,31079.0,972.1011919205516,832.8023454744617,1383.9845921860303
448959.0,11734.0,448959.0,15268.0,448959.0,31091.0,976.0939556197782,831.6087726417628,1382.6225688549584
448959.0,11723.0,448959.0,15235.0,448959.0,31081.0,980.0601759256454,830.5166690421736,1381.420419920545
448959.0,11720.0,448959.0,15228.0,448959.0,31074.0,984.0039575935496,829.5144516662943,1380.3603047738422
448959.0,11731.0,448959.0,15226.0,448959.0,31079.0,987.9277826944533,828.5897708870921,1379.422481325384
448959.0,11725.0,448959.0,15226.0,448959.0,31104.0,991.8323470504367,827.7291832505448,1378.585232813276
448970.0,11756.0,448970.0,15248.0,448970.0,31107.0,995.7164989925561,826.9180468198906,1377.8250342109668
448970.0,11768.0,448970.0,15260.0,448970.0,31126.0,999.5773633938529,826.1406901040617,1377.1169164392518
448970.0,11771.0,448970.0,15245.0,448970.0,31118.0,1003.4106348256437,825.3807376677099,1376.4348227223265
448970.0,11760.0,448970.0,15239.0,448970.0,31108.0,1007.2108051782412,824.6212954415572,1375.751798019714
448970.0,11769.0,448970.0,15231.0,448970.0,31117.0,1010.9711316086983,823.8448404358763,1375.0399577362941
448970.0,11792.0,448970.0,15279.0,448970.0,31133.0,1014.6835149878511,823.0330784882054,1374.2704146711349
448980.0,11794.0,448980.0,15279.0,448980.0,31155.0,1018.3385622691671,822.1671530955982,1373.4134362869133
448980.0,11810.0,448980.0,15272.0,448980.0,31153.0,1021.925812805817,821.22813509152,1372.4388393052523
448980.0,11795.0,448980.0,15255.0,448980.0,31145.0,1025.4339164297737,820.1973040344543,1371.3163493855836
448980.0,11815.0,448980.0,15272.0,448980.0,31157.0,1028.8506624457532,819.056060020961,1370.0157285374808
448980.0,11828.0,448980.0,15262.0,448980.0,31151.0,1032.1629752601507,817.7857842527575,1368.506778502056
448980.0,11829.0,448980.0,15287.0,448980.0,31184.0,1035.3570348913604,816.3678735939488,1366.759429523998
448990.0,11846.0,448990.0,15306.0,448990.0,31197.0,1038.4184721922256,814.7839780530686,1364.7440429849873
448990.0,11851.0,448990.0,15287.0,448990.0,31189.0,1041.332542093179,813.0163932200002,1362.4318863704625
448990.0,11856.0,448990.0,15284.0,448990.0,31192.0,1044.08428747257,811.0483390935069,1359.7955062989183
448990.0,11855.0,448990.0,15281.0,448990.0,31168.0,1046.6586556804448,808.8639356403086,1356.8088082871175
448990.0,11858.0,448990.0,15291.0,448990.0,31182.0,1049.040515583662,806.4480860949725,1353.4469291350977
448990.0,11869.0,448990.0,15308.0,448990.0,31199.0,1051.214632284891,803.7865396931799,1349.686153717962
449000.0,11879.0,449000.0,15303.0,449000.0,31212.0,1053.1657113111555,800.8661646820203,1345.5041259068453
449000.0,11883.0,449000.0,15296.0,449000.0,31203.0,1054.878547169101,797.6752377889591,1340.8802855782847
449000.0,11895.0,449000.0,15289.0,449000.0,31190.0,1056.3382079554103,794.2035421287454,1335.7961863759724
449000.0,11891.0,449000.0,15282.0,449000.0,31197.0,1057.5301958021805,790.442286068627,1330.2355431080787
449000.0,11893.0,449000.0,15286.0,449000.0,31201.0,1058.4405451891803,786.3839931380603,1324.1842157948795
449000.0,11909.0,449000.0,15292.0,449000.0,31230.0,1059.055865663392,782.0224907627933,1317.6304020705702
449010.0,11924.0,449010.0,15301.0,449010.0,31208.0,1059.363465006745,777.3530648477259,1310.5650626788333
449010.0,11926.0,449010.0,15311.0,449010.0,31222.0,1059.3516342330872,772.3727642162744,1302.9823436641286
449010.0,11914.0,449010.0,15269.0,449010.0,31173.0,1059.0099228071863,767.0806931575617,1294.879756747659
449010.0,11896.0,449010.0,15240.0,449010.0,31162.0,1058.3291616171996,761.4779602848331,1286.2580189132113
449010.0,11929.0,449010.0,15269.0,449010.0,31165.0,1057.3012745138483,755.56724326064,1277.1206686606834
449010.0,11934.0,449010.0,15275.0,449010.0,31183.0,1055.9192450075561,749.3525258781533,1267.4738676982654
449021.0,11917.0,449021.0,15265.0,449021.0,31130.0,1054.1773658799702,742.8393312084485,1257.3265478342041
449021.0,11914.0,449021.0,15246.0,449021.0,31136.0,1052.0714117147254,736.0350337978017,1246.6904920542254
449021.0,11915.0,449021.0,15233.0,449021.0,31115.0,1049.5985544208067,728.948858132329,1235.5801430759811
449021.0,11913.0,449021.0,15226.0,449021.0,31109.0,1046.7572525897117,721.5916622923257,1224.0124122016414
449021.0,11921.0,449021.0,15229.0,449021.0,31111.0,1043.5472665582724,713.9757675583826,1212.006647876105
449021.0,11906.0,449021.0,15218.0,449021.0,31078.0,1039.9697445876436,706.1149530185594,1199.584696621041
449031.0,11908.0,449031.0,15202.0,449031.0,31063.0,1036.0272749328183,698.0245176394383,1186.7708958440346
449031.0,11909.0,449031.0,15216.0,449031.0,31050.0,1031.723881504647,689.7212940023098,1173.591900677194
449031.0,11896.0,449031.0,15156.0,449031.0,31026.0,1027.0650358944326,681.2236091608941,1160.0764695287824
449031.0,11888.0,449031.0,15150.0,449031.0,31000.0,1022.0576572993492,672.5510585112016,1146.2552681985662
449031.0,11887.0,449031.0,15175.0,449031.0,30988.0,1016.7100354134283,663.7241204149575,1132.1606167509944
449031.0,11897.0,449031.0,15156.0,449031.0,30972.0,1011.0317893891681,654.7640561623734,1117.826242914888
449041.0,11862.0,449041.0,15151.0,449041.0,30966.0,1005.0339334319369,645.693151275815,1103.2871644120376
449041.0,11872.0,449041.0,15099.0,449041.0,30927.0,998.7288807476102,636.5348057013482,1088.5796546019928
449041.0,11850.0,449041.0,15086.0,449041.0,30898.0,992.1303146573599,627.3132030117991,1073.7410859146046
449041.0,11839.0,449041.0,15094.0,449041.0,30868.0,985.2530377836516,618.0527946414503,1058.8095304986562
449041.0,11849.0,449041.0,15082.0,449041.0,30858.0,978.11284743583,608.7780375204586,1043.823272706799
449041.0,11834.0,449041.0,15102.0,449041.0,30873.0,970.7265055240316,599.5135118139273,1028.8205397937143
449052.0,11816.0,449052.0,15062.0,449052.0,30818.0,963.1117883245098,590.2841832213041,1013.8395507758373
449052.0,11785.0,449052.0,15009.0,449052.0,30797.0,955.2873828269816,581.1154225077228,998.9185321121533
449052.0,11775.0,449052.0,14990.0,449052.0,30799.0,947.2725319521792,572.0324779020889,984.0954480275993
449052.0,11789.0,449052.0,15003.0,449052.0,30761.0,939.0866729083616,563.059707150838,969.407731609986
449052.0,11779.0,449052.0,15020.0,449052.0,30762.0,930.7493716248534,554.2202605278027,954.8921813977604
449052.0,11786.0,449052.0,15015.0,449052.0,30713.0,922.280538468174,545.5363860302999,940.5848380894987
449062.0,11744.0,449062.0,14972.0,449062.0,30697.0,913.7006331902182,537.0298521037193,926.5207147144198
449062.0,11719.0,449062.0,14939.0,449062.0,30665.0,905.0305731180069,528.7219083870891,912.7333831469936
449062.0,11709.0,449062.0,14918.0,449062.0,30667.0,896.2913074969867,520.6327149683456,899.2545676146217
449062.0,11703.0,449062.0,14930.0,449062.0,30646.0,887.5033689674452,512.7806988499786,886.1139302968794
449062.0,11699.0,449062.0,14924.0,449062.0,30639.0,878.6866848209165,505.18228421993405,873.3390398958527
449062.0,11686.0,449062.0,14930.0,449062.0,30605.0,869.8605927343867,497.85201212382344,860.955352224753
449072.0,11685.0,449072.0,14899.0,449072.0,30609.0,861.043896416289,490.802747471736,848.9860906168024
449072.0,11667.0,449072.0,14905.0,449072.0,30563.0,852.2548998255368,484.04571994121085,837.4520597330961
449072.0,11656.0,449072.0,14900.0,449072.0,30561.0,843.511395069172,477.59044490304916,826.3714021369665
449072.0,11654.0,449072.0,14903.0,449072.0,30574.0,834.8305973143486,471.4447364951721,815.7593738639002
449072.0,11634.0,449072.0,14904.0,449072.0,30557.0,826.2290868500082,465.6148631274401,805.6283731506043
449072.0,11632.0,449072.0,14881.0,449072.0,30532.0,817.7227719069253,460.10571159609134,795.988132783741
449083.0,11606.0,449083.0,14874.0,449083.0,30537.0,809.3268150354068,454.92079770456377,786.8457397268783
449083.0,11602.0,449083.0,14862.0,449083.0,30519.0,801.0554982414495,450.0620948989828,778.2055262294107
449083.0,11578.0,449083.0,14877.0,449083.0,30529.0,792.9220405576262,445.5298629391766,770.069054794922
449083.0,11604.0,449083.0,14877.0,449083.0,30538.0,784.9384606786743,441.32267486551615,762.4352596014525
449083.0,11580.0,449083.0,14861.0,449083.0,30519.0,777.1156258942308,437.43759975350116,755.3007220577614
449083.0,11569.0,449083.0,14870.0,449083.0,30519.0,769.4634080033688,433.8703227379129,748.6599105321492
449093.0,11548.0,449093.0,14850.0,449093.0,30501.0,761.9906767029593,430.6151376394099,742.5052305569126
449093.0,11563.0,449093.0,14834.0,449093.0,30508.0,754.7051341766487,427.6648467348973,736.8269666323638
449093.0,11532.0,449093.0,14881.0,449093.0,30515.0,747.6132253484188,425.0106285675166,731.6132899133195
449093.0,11543.0,449093.0,14853.0,449093.0,30513.0,740.7201377175793,422.6421188980503,726.8504292278169
449093.0,11544.0,449093.0,14878.0,449093.0,30505.0,734.0298278305122,420.5477212700529,722.5229086679562
449093.0,11528.0,449093.0,14852.0,449093.0,30487.0,727.54513695436,418.7148419384609,718.6136437509668
449103.0,11516.0,449103.0,14847.0,449103.0,30502.0,721.2678966599781,417.12990989620994,715.1038642682105
449103.0,11495.0,449103.0,14850.0,449103.0,30484.0,715.1988400621202,415.7782329972388,711.9730363886691
449103.0,11531.0,449103.0,14850.0,449103.0,30486.0,709.3374400799088,414.64385453592377,709.1988534292049
449103.0,11503.0,449103.0,14895.0,449103.0,30518.0,703.681962060922,413.70963336666097,706.7572838117496
449103.0,11505.0,449103.0,14882.0,449103.0,30517.0,698.2296801912005,412.95763509648987,704.6228266801639
449103.0,11489.0,449103.0,14868.0,449103.0,30517.0,692.9769602579624,412.3695839584947,702.7689516636475
449114.0,11488.0,449114.0,14860.0,449114.0,30509.0,687.919182542385,411.92696714959135,701.168403857258
449114.0,11492.0,449114.0,14886.0,449114.0,30511.0,683.0506850694471,411.61086102685823,699.7932615435137
449114.0,11487.0,449114.0,14901.0,449114.0,30554.0,678.3648204541735,411.40195330948006,698.6149944255546
449114.0,11490.0,449114.0,14897.0,449114.0,30539.0,673.8540961695492,411.28089343754414,697.6047883771977
449114.0,11492.0,449114.0,14895.0,449114.0,30549.0,669.5103336890074,411.2286438656189,696.7340081085491
449114.0,11477.0,449114.0,14889.0,449114.0,30523.0,665.3248143625995,411.22658601826095,695.9744323793548
449124.0,11468.0,449124.0,14870.0,449124.0,30534.0,661.288329315835,411.25641389962163,695.2981857797727
449124.0,11492.0,449124.0,14889.0,449124.0,30525.0,657.3911417457439,411.2999272634221,694.677574408106
449124.0,11470.0,449124.0,14901.0,449124.0,30535.0,653.623052139405,411.3389313552939,694.0850044336353
449124.0,11480.0,449124.0,14904.0,449124.0,30560.0,649.9735667273445,411.3554097600994,693.4930674112447
449124.0,11460.0,449124.0,14927.0,449124.0,30560.0,646.4319812931348,411.3318616586248,692.8748397820005
449124.0,11450.0,449124.0,14888.0,449124.0,30543.0,642.9873219884045,411.25158753335677,692.2042416139428
449134.0,11461.0,449134.0,14901.0,449134.0,30542.0,639.628208257447,411.0987356789376,691.4561478429255
449134.0,11470.0,449134.0,14899.0,449134.0,30556.0,636.3428223841023,410.8581323159709,690.6062832085365
449134.0,11451.0,449134.0,14929.0,449134.0,30568.0,633.1190791182732,410.51522770954665,689.6312437027293
449134.0,11463.0,449134.0,14922.0,449134.0,30561.0,629.9447954134675,410.0563429395313,688.5087444751862
449134.0,11448.0,449134.0,14893.0,449134.0,30561.0,626.8077412633843,409.46894863518696,687.217862219763
449134.0,11439.0,449134.0,14889.0,449134.0,30530.0,623.6956286929089,408.7415997015356,685.7390602675912
449145.0,11445.0,449145.0,14893.0,449145.0,30534.0,620.596045368737,407.86359120062906,684.0539667048163
449145.0,11449.0,449145.0,14890.0,449145.0,30549.0,617.496422269426,406.8247202653306,682.1451064943403
449145.0,11461.0,449145.0,14936.0,449145.0,30549.0,614.38417747446,405.61535069315016,679.9958877053782
449145.0,11463.0,449145.0,14905.0,449145.0,30558.0,611.2470142140303,404.2267542390814,677.5908464606988
449145.0,11447.0,449145.0,14885.0,449145.0,30531.0,608.0732137074145,402.65141119030216,674.9158779313861
449145.0,11432.0,449145.0,14883.0,449145.0,30535.0,604.8517248582202,400.8828900420267,671.9582575731217
449155.0,11441.0,449155.0,14873.0,449155.0,30524.0,601.5720289214843,398.91547246135764,668.7064975782872
449155.0,11454.0,449155.0,14897.0,449155.0,30538.0,598.2240547240748,396.7439406340114,665.1502453722677
449155.0,11455.0,449155.0,14906.0,449155.0,30536.0,594.798367385357,394.3636870528315,661.2803580881143
449155.0,11421.0,449155.0,14871.0,449155.0,30516.0,591.2864365833601,391.77100525363926,657.0890663308214
449155.0,11432.0,449155.0,14863.0,449155.0,30521.0,587.6806507541511,388.9631629710656,652.5700312213511
449155.0,11407.0,449155.0,14876.0,449155.0,30506.0,583.9741119009682,385.93815664559287,647.7182767540397
449165.0,11410.0,449165.0,14870.0,449165.0,30491.0,580.160437915223,382.69454604146506,642.530096831287
449165.0,11406.0,449165.0,14867.0,449165.0,30495.0,576.2336373919691,379.231532960534,637.0029351105093
449165.0,11410.0,449165.0,14871.0,449165.0,30501.0,572.1880875015709,375.54907970096065,631.135322776968
449165.0,11402.0,449165.0,14859.0,449165.0,30490.0,568.0186252279166,371.647984310386,624.9269997918893
449165.0,11393.0,449165.0,14838.0,449165.0,30478.0,563.7206408475549,367.52988632298525,618.3790860929372
449165.0,11386.0,449165.0,14831.0,449165.0,30450.0,559.2900766750325,363.1971037904823,611.4940720466692
449176.0,11380.0,449176.0,14844.0,449176.0,30461.0,554.7233555055716,358.6524067867623,604.2756240651975
449176.0,11396.0,449176.0,14838.0,449176.0,30437.0,550.0173582834836,353.8989863461732,596.728409699637
449176.0,11375.0,449176.0,14832.0,449176.0,30452.0,545.169536105361,348.940614696352,588.8580716072299
449176.0,11354.0,449176.0,14813.0,449176.0,30416.0,540.1780069004953,343.78174573790375,580.6712834551325
449176.0,11345.0,449176.0,14805.0,449176.0,30398.0,535.0414122356892,338.4274261275224,572.17570948711
449176.0,11350.0,449176.0,14780.0,449176.0,30376.0,529.7586496560623,332.8830714592047,563.3797380164918
449186.0,11348.0,449186.0,14796.0,449186.0,30385.0,524.3287801154502,327.1542227321909,554.2921403750146
449186.0,11351.0,449186.0,14797.0,449186.0,30371.0,518.7511611233867,321.24646708860456,544.921938365606
449186.0,11343.0,449186.0,14792.0,449186.0,30361.0,513.0256558800336,315.1656137066362,535.2784839803768
449186.0,11331.0,449186.0,14773.0,449186.0,30350.0,507.1527828254533,308.91791419767856,525.3715426446051
449186.0,11307.0,449186.0,14753.0,449186.0,30340.0,501.13370644093203,302.51006220794346,515.2113048010955
449186.0,11301.0,449186.0,14737.0,449186.0,30324.0,494.97004499830047,295.9489497586707,504.8083761067818
449196.0,11307.0,449196.0,14747.0,449196.0,30337.0,488.66365306860683,289.24137640863546,494.17379852358295
449196.0,11300.0,449196.0,14763.0,449196.0,30322.0,482.2165932508323,282.3939983836313,483.3191909982128
449196.0,11294.0,449196.0,14753.0,449196.0,30281.0,475.63127682099287,275.4136247070906,472.25692437119744
449196.0,11269.0,449196.0,14714.0,449196.0,30264.0,468.91055466963564,268.30754036364675,461.0000245522417
449196.0,11258.0,449196.0,14725.0,449196.0,30227.0,462.057618809571,261.08348592939666,449.56175296586673
449196.0,11258.0,449196.0,14707.0,449196.0,30243.0,455.075795308176,253.74943711349056,437.9551633558764
449207.0,11264.0,449207.0,14714.0,449207.0,30236.0,447.9684612670671,246.31352394327723,426.1929461721419
449207.0,11255.0,449207.0,14694.0,449207.0,30229.0,440.739192995924,238.78409540435172,414.2876228497038
449207.0,11234.0,449207.0,14704.0,449207.0,30197.0,433.3919631323006,231.16979975137087,402.2518042193864
449207.0,11220.0,449207.0,14675.0,449207.0,30183.0,425.9311477882246,223.47964783586775,390.09820908013967
449207.0,11214.0,449207.0,14641.0,449207.0,30168.0,418.3613557339106,215.72294988717266,377.83948097009784
449207.0,11212.0,449207.0,14648.0,449207.0,30162.0,410.6872919652759,207.90901212540922,365.4880354487566
449217.0,11204.0,449217.0,14659.0,449217.0,30146.0,402.9137749034708,200.04686003599005,353.05604675855704
449217.0,11191.0,449217.0,14650.0,449217.0,30146.0,395.0458261224434,192.14533405909577,340.55552691420826
449217.0,11175.0,449217.0,14618.0,449217.0,30111.0,387.0886928082283,184.2133489559656,327.9984158713046
449217.0,11163.0,449217.0,14588.0,449217.0,30077.0,379.0477562385512,176.25984503581628,315.3965245303053
449217.0,11156.0,449217.0,14585.0,449217.0,30074.0,370.9283969405915,168.29337833623924,302.7612350712402
449217.0,11158.0,449217.0,14578.0,449217.0,30087.0,362.73593575002604,160.3217198089834,290.10324762640084
449228.0,11131.0,449228.0,14592.0,449228.0,30075.0,354.47567892654627,152.35176274576963,277.43272099866215
449228.0,11141.0,449228.0,14585.0,449228.0,30047.0,346.1529639406027,144.38973211985137,264.75962696226964
449228.0,11123.0,449228.0,14595.0,449228.0,30031.0,337.7731814709888,136.44153574126642,252.0938887814641
449228.0,11098.0,449228.0,14548.0,449228.0,30025.0,329.34179164994225,128.51304452667796,239.44527326141758
449228.0,11102.0,449228.0,14552.0,449228.0,29996.0,320.86424533465504,120.61009324353358,226.82328289877523
449228.0,11087.0,449228.0,14536.0,449228.0,29984.0,312.3458668898337,112.73825617545117,214.23708221542756
449238.0,11089.0,449238.0,14565.0,449238.0,29981.0,303.79185817586006,104.90274357379644,201.69540534781902
449238.0,11078.0,449238.0,14539.0,449238.0,29964.0,295.2074053532084,97.10860489431343,189.20654780041684
449238.0,11046.0,449238.0,14506.0,449238.0,29918.0,286.59775071770605,89.36095937276491,176.77838541214612
449238.0,11040.0,449238.0,14495.0,449238.0,29925.0,277.9680897584269,81.66486926569075,164.41820170190329
449238.0,11026.0,449238.0,14514.0,449238.0,29912.0,269.32333778813575,74.02501141472374,152.13245487673373
449238.0,11023.0,449238.0,14510.0,449238.0,29912.0,260.66797441967924,66.44564278012615,139.92678782108464
449248.0,11018.0,449248.0,14485.0,449248.0,29899.0,252.00604465260392,58.93086383704974,127.8062424026167
449248.0,11013.0,449248.0,14472.0,449248.0,29895.0,243.34126582872545,51.48474256947952,115.77548767520773
449248.0,10987.0,449248.0,14455.0,449248.0,29853.0,234.6771411589342,44.111145122578705,103.83894847991303
449248.0,10982.0,449248.0,14421.0,449248.0,29847.0,226.01695220208285,36.81342678288172,92.00072702927685
449248.0,10978.0,449248.0,14462.0,449248.0,29834.0,217.36366458201405,29.594141011919078,80.26438411027311
449248.0,10983.0,449248.0,14465.0,449248.0,29827.0,208.71994515730046,22.45506188705383,68.63282059222843
449259.0,10952.0,449259.0,14451.0,449259.0,29814.0,200.08831887557403,15.397627119639424,57.10832185616425
449259.0,10956.0,449259.0,14420.0,449259.0,29811.0,191.47126487330206,8.423317917777808,45.69265981334388
449259.0,10945.0,449259.0,14408.0,449259.0,29792.0,182.8712031651486,1.5335749446616092,34.38720183974738
449259.0,10934.0,449259.0,14409.0,449259.0,29769.0,174.2905114747207,-5.270529093474579,23.19296382755556
449259.0,10917.0,449259.0,14408.0,449259.0,29765.0,165.7315579584632,-11.988459580973881,12.110540521228813
449259.0,10912.0,449259.0,14412.0,449259.0,29767.0,157.1966586748514,-18.62012157927734,1.1400405947508716
449269.0,10913.0,449269.0,14403.0,449269.0,29747.0,148.68804066731434,-25.16563050011098,-9.718811656947537
449269.0,10881.0,449269.0,14388.0,449269.0,29727.0,140.2078834361157,-31.625131984818495,-20.466537539570936
449269.0,10878.0,449269.0,14336.0,449269.0,29721.0,131.75830920565534,-37.99886931494177,-31.103920344269
449269.0,10863.0,449269.0,14365.0,449269.0,29692.0,123.3412551308877,-44.28755703871684,-41.632124267113795
449269.0,10861.0,449269.0,14367.0,449269.0,29712.0,114.9583710553735,-50.49268034639033,-52.05277822934727
449269.0,10843.0,449269.0,14384.0,449269.0,29720.0,106.61101156209952,-56.616313405027086,-62.36785659683687
449279.0,10850.0,449279.0,14358.0,449279.0,29673.0,98.30026762000216,-62.66065290995721,-72.57933449226903
449279.0,10824.0,449279.0,14333.0,449279.0,29666.0,90.02701956479848,-68.62777272210428,-82.68900619782778
449279.0,10817.0,449279.0,14314.0,449279.0,29636.0,81.79196078153757,-74.51981606331378,-92.69869527071592
449279.0,10818.0,449279.0,14330.0,449279.0,29634.0,73.59555967702636,-80.33937628698959,-102.6105810914803
449279.0,10822.0,449279.0,14324.0,449279.0,29640.0,65.43810562312399,-86.08964724489249,-112.42735239621925
449279.0,10800.0,449279.0,14334.0,449279.0,29634.0,57.31990968086336,-91.77424602896406,-122.15208856309926
449290.0,10799.0,449290.0,14327.0,449290.0,29629.0,49.24147593201451,-97.3969144084125,-131.78796166349252
449290.0,10771.0,449290.0,14309.0,449290.0,29585.0,41.20351186071434,-102.9612951519855,-141.33803643509611
449290.0,10751.0,449290.0,14294.0,449290.0,29593.0,33.206785859745196,-108.4709146616566,-150.8053522396201
449290.0,10758.0,449290.0,14297.0,449290.0,29571.0,25.251892548138358,-113.92934549488518,-160.19313715536555
449290.0,10753.0,449290.0,14318.0,449290.0,29544.0,17.33913229301163,-119.3402754617315,-169.50495983228586
449290.0,10745.0,449290.0,14292.0,449290.0,29582.0,9.468624313005762,-124.7073071208099,-178.74481496014369
449300.0,10722.0,449300.0,14278.0,449300.0,29550.0,1.6404530013758176,-130.03374457124687,-187.91702486289864
449300.0,10715.0,449300.0,14262.0,449300.0,29520.0,-6.1453549116226895,-135.3226770570409,-197.02601780776786
449300.0,10703.0,449300.0,14253.0,449300.0,29517.0,-13.888965699541927,-140.5772641644145,-206.07637144837145
449300.0,10694.0,449300.0,14231.0,449300.0,29513.0,-21.590842803218266,-145.80101406903543,-215.07305245709676
449300.0,10709.0,449300.0,14270.0,449300.0,29537.0,-29.25174088927895,-150.99795152041725,-224.02140698461562
449300.0,10691.0,449300.0,14260.0,449300.0,29517.0,-36.87254527102925,-156.17249736423855,-232.9268046531247
449310.0,10661.0,449310.0,14252.0,449310.0,29479.0,-44.45409833295014,-161.32909185643825,-241.79429006894077
449310.0,10653.0,449310.0,14232.0,449310.0,29475.0,-51.997280065527434,-166.47195423340918,-250.62862214725135
449310.0,10649.0,449310.0,14229.0,449310.0,29466.0,-59.503267808674536,-171.60515446355475,-259.4345675256576
449310.0,10660.0,449310.0,14224.0,449310.0,29466.0,-66.97363114517066,-176.7327805091113,-268.2170391242912
449310.0,10647.0,449310.0,14244.0,449310.0,29449.0,-74.4101526283714,-181.85895812224044,-276.98101898981497
449310.0,10639.0,449310.0,14216.0,449310.0,29457.0,-81.81457464659059,-186.98767650047364,-285.7314312139207
449321.0,10620.0,449321.0,14211.0,449321.0,29422.0,-89.1884909343089,-192.12263418621012,-294.47304369630126
449321.0,10609.0,449321.0,14202.0,449321.0,29410.0,-96.53341505858236,-197.26729126713383,-303.2104876420806
449321.0,10609.0,449321.0,14216.0,449321.0,29416.0,-103.85090440948193,-202.42496586366394,-311.9484088096657
449321.0,10600.0,449321.0,14214.0,449321.0,29413.0,-111.14259596438558,-207.59873599565037,-320.6915095407454
449321.0,10601.0,449321.0,14184.0,449321.0,29407.0,-118.41011937594874,-212.79123374462074,-329.444351909052
449321.0,10580.0,449321.0,14193.0,449321.0,29390.0,-125.65497840252851,-218.00460279433952,-338.2111242139131
449331.0,10582.0,449331.0,14169.0,449331.0,29375.0,-132.87849372433186,-223.24062938650093,-346.9955649549536
449331.0,10557.0,449331.0,14153.0,449331.0,29361.0,-140.08181924348423,-228.50090901106353,-355.801044158217
449331.0,10551.0,449331.0,14152.0,449331.0,29358.0,-147.26601766281158,-233.78705889200415,-364.6306845613075
449331.0,10556.0,449331.0,14159.0,449331.0,29360.0,-154.43214673960517,-239.1008831258829,-373.4873768445268
449331.0,10559.0,449331.0,14188.0,449331.0,29342.0,-161.58120238083677,-244.44424757659453,-382.3736483371857
449331.0,10539.0,449331.0,14146.0,449331.0,29321.0,-168.7138922420669,-249.8186847097271,-391.2915470086532
449341.0,10506.0,449341.0,14141.0,449341.0,29302.0,-175.83051907624315,-255.22513507968154,-400.2427248257211
449341.0,10517.0,449341.0,14125.0,449341.0,29299.0,-182.93115392467178,-260.664078389776,-409.228659702198
449341.0,10496.0,449341.0,14130.0,449341.0,29315.0,-190.0158664153439,-266.1357910141397,-418.25074885940944
449341.0,10503.0,449341.0,14129.0,449341.0,29281.0,-197.08477539300793,-271.6404223614652,-427.31014403578615
449341.0,10480.0,449341.0,14106.0,449341.0,29273.0,-204.1379927349402,-277.17792245252963,-436.4075733756797
449341.0,10471.0,449341.0,14116.0,449341.0,29259.0,-211.17561213084355,-282.7480048674255,-445.54338471704693
449352.0,10470.0,449352.0,14086.0,449352.0,29235.0,-218.1977711589692,-288.35019566012704,-454.71770704946266
449352.0,10458.0,449352.0,14098.0,449352.0,29239.0,-225.20468749661472,-293.98390956407525,-463.93059859228435
449352.0,10441.0,449352.0,14077.0,449352.0,29232.0,-232.1966449791645,-299.64851505530214,-473.1821066139602
449352.0,10456.0,449352.0,14089.0,449352.0,29241.0,-239.1739962866692,-305.3433457958338,-482.4721357850443
449352.0,10426.0,449352.0,14072.0,449352.0,29205.0,-246.13713165976696,-311.0676443143892,-491.8002039945851
449352.0,10423.0,449352.0,14057.0,449352.0,29193.0,-253.08643185102517,-316.8205168739403,-501.16535074632964
449362.0,10417.0,449362.0,14066.0,449362.0,29181.0,-260.0223064884897,-322.60097443101654,-510.5662892229009
449362.0,10402.0,449362.0,14041.0,449362.0,29175.0,-266.945247012575,-328.407990911753,-520.0015855147326
449362.0,10422.0,449362.0,14072.0,449362.0,29148.0,-273.8557909667883,-334.24047360576776,-529.4697274450111
449362.0,10395.0,449362.0,14052.0,449362.0,29152.0,-280.7543773935205,-340.0970971452813,-538.9691781542965
449362.0,10373.0,449362.0,14029.0,449362.0,29161.0,-287.6412268878121,-345.9761022952507,-548.4983740231878
449362.0,10387.0,449362.0,14023.0,449362.0,29150.0,-294.5164142676904,-351.87531863733125,-558.0555030670623
449372.0,10358.0,449372.0,13992.0,449372.0,29123.0,-301.37998612597505,-357.7924354911245,-567.6382075443278
449372.0,10351.0,449372.0,14013.0,449372.0,29122.0,-308.2319998168076,-363.7252904390434,-577.2435022591292
449372.0,10361.0,449372.0,14032.0,449372.0,29109.0,-315.0725708975051,-369.67191244594324,-586.8678519766509
449372.0,10351.0,449372.0,14019.0,449372.0,29106.0,-321.90183188881576,-375.63018203351805,-596.5071793721606
449372.0,10339.0,449372.0,14007.0,449372.0,29076.0,-328.7197598562276,-381.59740201821387,-606.156813750687
449372.0,10321.0,449372.0,13984.0,449372.0,29064.0,-335.5260933979017,-387.5701816076513,-615.8115445943488
449383.0,10309.0,449383.0,13959.0,449383.0,29032.0,-342.32043820621857,-393.54466430272043,-625.4658408027719
449383.0,10313.0,449383.0,13963.0,449383.0,29034.0,-349.1024215775866,-399.5169034146586,-635.1141427055268
449383.0,10302.0,449383.0,13972.0,449383.0,29021.0,-355.8717279167954,-405.4831040235198,-644.7510610812274
449383.0,10300.0,449383.0,13963.0,449383.0,29038.0,-362.6280071559545,-411.4395473472604,-654.3713497997378
449383.0,10280.0,449383.0,13944.0,449383.0,28994.0,-369.3707876438476,-417.3823898997455,-663.9697069062254
449383.0,10276.0,449383.0,13950.0,449383.0,28995.0,-376.0994825646774,-423.3076127872839,-673.5406674056414
449393.0,10251.0,449393.0,13909.0,449393.0,28987.0,-382.8134858573277,-429.21112127126844,-683.0786789914564
449393.0,10265.0,449393.0,13934.0,449393.0,28967.0,-389.5122928973834,-435.088905684824,-692.5781625753614
449393.0,10255.0,449393.0,13947.0,449393.0,28976.0,-396.19551644585795,-440.9370817023365,-702.033480899822
449393.0,10249.0,449393.0,13932.0,449393.0,28957.0,-402.862753362504,-446.7516137941543,-711.4388579161812
449393.0,10235.0,449393.0,13893.0,449393.0,28927.0,-409.5134538794224,-452.5280215069499,-720.7883118506659
449393.0,10224.0,449393.0,13901.0,449393.0,28917.0,-416.1469168992329,-458.2614896376932,-730.0757680938511
449403.0,10218.0,449403.0,13888.0,449403.0,28920.0,-422.7623647937759,-463.94718412377745,-739.2952873505976
449403.0,10217.0,449403.0,13876.0,449403.0,28910.0,-429.35898844798794,-469.5804176304657,-748.4411198574578
449403.0,10204.0,449403.0,13889.0,449403.0,28905.0,-435.9359079366453,-475.1566811812602,-757.5075595545727
449403.0,10198.0,449403.0,13890.0,449403.0,28884.0,-442.49210957500384,-480.6715622216144,-766.4888048217581
449403.0,10180.0,449403.0,13855.0,449403.0,28855.0,-449.02644639526136,-486.12056545501025,-775.3789858420269
449403.0,10172.0,449403.0,13836.0,449403.0,28839.0,-455.5377182743657,-491.49913610732585,-784.172413423312
449414.0,10165.0,449414.0,13841.0,449414.0,28845.0,-462.02478318323665,-496.80299099933484,-792.8638976902421
449414.0,10169.0,449414.0,13852.0,449414.0,28840.0,-468.48660043603854,-502.0283669966524,-801.4488535098728
449414.0,10163.0,449414.0,13845.0,449414.0,28846.0,-474.92213717293214,-507.1719117501983,-809.92311996782
449414.0,10145.0,449414.0,13806.0,449414.0,28828.0,-481.3302190626457,-512.2304880289847,-818.2826721354654
449414.0,10128.0,449414.0,13795.0,449414.0,28780.0,-487.70950739703414,-517.2013045943447,-826.5235025181537
449414.0,10119.0,449414.0,13808.0,449414.0,28801.0,-494.05865725898684,-522.0822968162772,-834.641834216236
449424.0,10130.0,449424.0,13823.0,449424.0,28792.0,-500.37647669781813,-526.8722673817825,-842.6343765388817
449424.0,10115.0,449424.0,13816.0,449424.0,28794.0,-506.6618967278889,-531.5706050283552,-850.4982589253796
449424.0,10105.0,449424.0,13817.0,449424.0,28778.0,-512.9138331406459,-536.1768929980789,-858.2307829202498
449424.0,10092.0,449424.0,13808.0,449424.0,28747.0,-519.1311526585642,-540.6906784165166,-865.8293241894835
449424.0,10077.0,449424.0,13765.0,449424.0,28724.0,-525.3127778725185,-545.1114714213116,-873.2915344240466
449424.0,10068.0,449424.0,13776.0,449424.0,28734.0,-531.4578460048347,-549.4390145309962,-880.615721793072
449434.0,10079.0,449434.0,13776.0,449434.0,28732.0,-537.5658183242574,-553.6736178731921,-887.8010538478875
449434.0,10066.0,449434.0,13803.0,449434.0,28689.0,-543.6364269143941,-557.8161717258131,-894.8475100778437
449434.0,10056.0,449434.0,13775.0,449434.0,28718.0,-549.6695235752088,-561.8678201730023,-901.7558877041715
449434.0,10039.0,449434.0,13741.0,449434.0,28689.0,-555.6650372891024,-565.8297471398099,-908.5278748810613
449434.0,10044.0,449434.0,13742.0,449434.0,28684.0,-561.6230625205126,-569.7034147557545,-915.1660314072533
449434.0,10041.0,449434.0,13746.0,449434.0,28689.0,-567.5438962192867,-573.4909787830245,-921.6737639157413
449445.0,10041.0,449445.0,13748.0,449445.0,28678.0,-573.4279182941714,-577.1954216761638,-928.0552893906797
449445.0,10023.0,449445.0,13750.0,449445.0,28671.0,-579.2754187602952,-580.8203971316755,-934.3155261932898
449445.0,10008.0,449445.0,13722.0,449445.0,28660.0,-585.0865496395367,-584.3700673297947,-940.460029839423
449445.0,9994.0,449445.0,13717.0,449445.0,28647.0,-590.861462318853,-587.8491492904234,-946.4950300367668
449445.0,9988.0,449445.0,13746.0,449445.0,28647.0,-596.6005251293562,-591.2630771188433,-952.4275101162859
449445.0,9974.0,449445.0,13716.0,449445.0,28632.0,-602.304493646894,-594.6179744080281,-958.2652638988845
449455.0,9993.0,449455.0,13730.0,449455.0,28642.0,-607.9745689434278,-597.9204791211808,-964.016893345944
449455.0,9988.0,449455.0,13751.0,449455.0,28625.0,-613.612268889163,-601.1775947989399,-969.6917426964212
449455.0,9981.0,449455.0,13735.0,449455.0,28643.0,-619.2191468740211,-604.3964363392606,-975.2997748863704
449455.0,9947.0,449455.0,13708.0,449455.0,28593.0,-624.7966230113501,-607.5839773849217,-980.8514607822613
449455.0,9942.0,449455.0,13678.0,449455.0,28603.0,-630.3461281252643,-610.7471977631687,-986.3578428057458
449455.0,9960.0,449455.0,13679.0,449455.0,28601.0,-635.869360128981,-613.893612537191,-991.8307361852046
449466.0,9961.0,449466.0,13733.0,449466.0,28612.0,-641.3682601475231,-617.0316441309834,-997.2827538015777
449466.0,9955.0,449466.0,13716.0,449466.0,28612.0,-646.8446820242781,-620.1703799224566,-1002.7270469909761
449466.0,9916.0,449466.0,13708.0,449466.0,28578.0,-652.3001477545789,-623.3189983555762,-1008.177022959853
449466.0,9914.0,449466.0,13702.0,449466.0,28579.0,-657.7359721108676,-626.4864886120541,-1013.6463196880743
449466.0,9909.0,449466.0,13686.0,449466.0,28568.0,-663.1535864192373,-629.6817323568307,-1019.1489974140131
449466.0,9903.0,449466.0,13646.0,449466.0,28609.0,-668.55472145946,-632.9137610853903,-1024.6995941344658
449476.0,9901.0,449476.0,13710.0,449476.0,28570.0,-673.9413948013379,-636.1920835495058,-1030.312852413202
449476.0,9901.0,449476.0,13702.0,449476.0,28586.0,-679.3158239457332,-639.5266842951715,-1036.0033760675935
449476.0,9883.0,449476.0,13675.0,449476.0,28557.0,-684.6803259195141,-642.9275938442854,-1041.785505652822
449476.0,9888.0,449476.0,13668.0,449476.0,28540.0,-690.0372619435858,-646.404651481589,-1047.6734062033229
449476.0,9867.0,449476.0,13663.0,449476.0,28549.0,-695.3890432914883,-649.9677031712063,-1053.6812655821477
449476.0,9870.0,449476.0,13661.0,449476.0,28570.0,-700.7381618372139,-653.6268315648528,-1059.823362157183
449486.0,9876.0,449486.0,13673.0,449486.0,28536.0,-706.0871865281954,-657.3923830304344,-1066.1138212356673
449486.0,9860.0,449486.0,13662.0,449486.0,28534.0,-711.4386528513489,-661.2748318489585,-1072.5663674029468
449486.0,9849.0,449486.0,13671.0,449486.0,28509.0,-716.7949423503364,-665.2845885039483,-1079.1943778926616
449486.0,9829.0,449486.0,13654.0,449486.0,28514.0,-722.1583342489969,-669.4318549369524,-1086.0110888141203
449486.0,9832.0,449486.0,13663.0,449486.0,28524.0,-727.531194701743,-673.7265486957635,-1093.0296745305754
449486.0,9835.0,449486.0,13665.0,449486.0,28535.0,-732.916093130638,-678.1782268409912,-1100.2630358397707
449497.0,9842.0,449497.0,13677.0,449497.0,28506.0,-738.3156937945643,-682.7958959643576,-1107.7233977199971
449497.0,9805.0,449497.0,13655.0,449497.0,28493.0,-743.7325358380767,-687.5877322973047,-1115.4220784743998
449497.0,9803.0,449497.0,13629.0,449497.0,28473.0,-749.1690032705667,-692.5609625626271,-1123.3696039209576
449497.0,9783.0,449497.0,13625.0,449497.0,28481.0,-754.6275495541436,-697.7220732741514,-1131.575941629789
449497.0,9788.0,449497.0,13634.0,449497.0,28482.0,-760.1109399475484,-703.0771134980221,-1140.0505513086064
449497.0,9793.0,449497.0,13629.0,449497.0,28478.0,-765.6223152250747,-708.6317488552303,-1148.8021781603304
449507.0,9792.0,449507.0,13655.0,449507.0,28442.0,-771.1650382309314,-714.391032166078,-1157.8386155654748
449507.0,9758.0,449507.0,13611.0,449507.0,28439.0,-776.7424891149866,-720.3590787616823,-1167.1667120344664
449507.0,9765.0,449507.0,13578.0,449507.0,28429.0,-782.3580661559237,-726.5389903340122,-1176.792559443343
449507.0,9766.0,449507.0,13592.0,449507.0,28433.0,-788.0153151630318,-732.9332153971919,-1186.721568891684
449507.0,9769.0,449507.0,13599.0,449507.0,28437.0,-793.7178837902098,-739.543907110476,-1196.9583064916387
449507.0,9759.0,449507.0,13612.0,449507.0,28419.0,-799.4692925546088,-746.3728007840045,-1207.5061840300532
449517.0,9754.0,449517.0,13593.0,449517.0,28392.0,-805.2727410066524,-753.4207830146902,-1218.3672370873185
449517.0,9729.0,449517.0,13572.0,449517.0,28397.0,-811.1310663165377,-760.6876057126522,-1229.542140260401
449517.0,9723.0,449517.0,13558.0,449517.0,28357.0,-817.046864293928,-768.171949388298,-1241.030331931115
449517.0,9715.0,449517.0,13541.0,449517.0,28370.0,-823.0226877525862,-775.8717001190744,-1252.830114991552
449517.0,9728.0,449517.0,13565.0,449517.0,28365.0,-829.0611379766989,-783.7841569156584,-1264.9386606902483
449517.0,9711.0,449517.0,13547.0,449517.0,28361.0,-835.1647561154483,-791.905969206138,-1277.351802326689
449528.0,9702.0,449528.0,13545.0,449528.0,28323.0,-841.3358621546168,-800.2328874984029,-1290.0637605485506
449528.0,9692.0,449528.0,13533.0,449528.0,28317.0,-847.5765275672325,-808.7595823198834,-1303.0670958517421
449528.0,9681.0,449528.0,13509.0,449528.0,28308.0,-853.8886593087014,-817.479624665388,-1316.3528399022757
449528.0,9693.0,449528.0,13514.0,449528.0,28273.0,-860.2740514058803,-826.3855755095224,-1329.910579263928
449528.0,9678.0,449528.0,13503.0,449528.0,28293.0,-866.7343069405821,-835.4690611443426,-1343.7284756309996
449528.0,9672.0,449528.0,13522.0,449528.0,28266.0,-873.2706890588304,-844.7206767327602,-1357.7932026657472
449538.0,9667.0,449538.0,13488.0,449538.0,28251.0,-879.8840385688866,-854.1297325161726,-1372.0897795876353
449538.0,9650.0,449538.0,13464.0,449538.0,28219.0,-886.5747682077085,-863.6841101134049,-1386.601512413387
449538.0,9644.0,449538.0,13451.0,449538.0,28205.0,-893.3428991463336,-873.3704437716929,-1401.31015261347
449538.0,9635.0,449538.0,13457.0,449538.0,28202.0,-900.1881316260439,-883.1744164935936,-1416.1960855181487
449538.0,9641.0,449538.0,13462.0,449538.0,28191.0,-907.1098687758738,-893.080793034921,-1431.2383345478931
449538.0,9632.0,449538.0,13454.0,449538.0,28177.0,-914.1071187442354,-903.073143691079,-1446.4143859499434
449548.0,9619.0,449548.0,13436.0,449548.0,28166.0,-921.1783439719758,-913.1335264979209,-1461.6999986425317
449548.0,9592.0,449548.0,13416.0,449548.0,28137.0,-928.3214357276897,-923.2423793229582,-1477.069101083108
449548.0,9586.0,449548.0,13391.0,449548.0,28138.0,-935.5338969276914,-933.378664926731,-1492.493773922852
449548.0,9604.0,449548.0,13405.0,449548.0,28123.0,-942.8130370070662,-943.520107728605,-1507.9442201294512
449548.0,9587.0,449548.0,13383.0,449548.0,28127.0,-950.1559077435027,-953.6432841565816,-1523.3886000359107
449548.0,9593.0,449548.0,13391.0,449548.0,28068.0,-957.5590408334251,-963.723514683989,-1538.7928273959415
449559.0,9555.0,449559.0,13340.0,449559.0,28051.0,-965.0182746861437,-973.7347647301787,-1554.1206290108432
449559.0,9543.0,449559.0,13343.0,449559.0,28047.0,-972.5288385186608,-983.6497636666044,-1569.3338831954247
449559.0,9546.0,449559.0,13343.0,449559.0,28024.0,-980.0856129364627,-993.440241583282,-1584.3928557708405
449559.0,9548.0,449559.0,13346.0,449559.0,28015.0,-987.6832635950921,-1003.0769487591908,-1599.2561951781097
449559.0,9551.0,449559.0,13348.0,449559.0,28011.0,-995.3160760912938,-1012.5293757788692,-1613.8808498937544
449559.0,9514.0,449559.0,13290.0,449559.0,27991.0,-1002.9777007005274,-1021.765486896112,-1628.2219418657653
449569.0,9520.0,449569.0,13308.0,449569.0,27955.0,-1010.6610985631637,-1030.7517853573609,-1642.2326742650566
449569.0,9510.0,449569.0,13279.0,449569.0,27944.0,-1018.3586510753306,-1039.4535963688472,-1655.8644530913334
449569.0,9498.0,449569.0,13284.0,449569.0,27949.0,-1026.062202008118,-1047.835234875301,-1669.0670986754053
449569.0,9494.0,449569.0,13274.0,449569.0,27934.0,-1033.7630265298526,-1055.8600147476168,-1681.7888390195435
449569.0,9504.0,449569.0,13273.0,449569.0,27933.0,-1041.4517739408338,-1063.490185529065,-1693.9760865990193
449569.0,9493.0,449569.0,13263.0,449569.0,27908.0,-1049.1182913132957,-1070.6868282832154,-1705.573228981255
449579.0,9464.0,449579.0,13239.0,449579.0,27875.0,-1056.7514234558403,-1077.4098089039976,-1716.5226070139752
449579.0,9458.0,449579.0,13209.0,449579.0,27855.0,-1064.339038449381,-1083.6179378777736,-1726.7647694004957
449579.0,9450.0,449579.0,13222.0,449579.0,27843.0,-1071.8682325696996,-1089.2693317218002,-1736.238890171765
449579.0,9459.0,449579.0,13223.0,449579.0,27846.0,-1079.3254276196767,-1094.3216718462188,-1744.8830696764276
449579.0,9446.0,449579.0,13212.0,449579.0,27833.0,-1086.696251806859,-1098.732157795931,-1752.6343854630538
449579.0,9441.0,449579.0,13209.0,449579.0,27809.0,-1093.9653482901754,-1102.4573707543545,-1759.4288488569969
449590.0,9428.0,449590.0,13179.0,449590.0,27806.0,-1101.1162717361394,-1105.4533036820258,-1765.2014938986017
449590.0,9411.0,449590.0,13171.0,449590.0,27795.0,-1108.1315077855852,-1107.6756121100461,-1769.88657642613
449590.0,9418.0,449590.0,13180.0,449590.0,27784.0,-1114.9925572749412,-1109.0799635615112,-1773.4177376708033
449590.0,9415.0,449590.0,13189.0,449590.0,27774.0,-1121.6799481650378,-1109.6222097819975,-1775.7281506768277
449590.0,9404.0,449590.0,13166.0,449590.0,27749.0,-1128.173106969407,-1109.2583204750076,-1776.750748827708
449590.0,9388.0,449590.0,13144.0,449590.0,27752.0,-1134.4502461388238,-1107.9444199532497,-1776.4185629203885
449600.0,9375.0,449600.0,13137.0,449600.0,27736.0,-1140.4884218704656,-1105.6371689494404,-1774.665085978464
449600.0,9374.0,449600.0,13136.0,449600.0,27730.0,-1146.2636962629042,-1102.2942906287972,-1771.4245951106068
449600.0,9364.0,449600.0,13134.0,449600.0,27721.0,-1151.7512487309305,-1097.8749568537173,-1766.6324791043653
449600.0,9361.0,449600.0,13166.0,449600.0,27716.0,-1156.9253949544827,-1092.339951065554,-1760.2256062540373
449600.0,9348.0,449600.0,13143.0,449600.0,27711.0,-1161.7595849934241,-1085.6516354087812,-1752.1427041498564
449600.0,9339.0,449600.0,13112.0,449600.0,27696.0,-1166.2264481807174,-1077.7739985892772,-1742.3247676288747
449610.0,9329.0,449610.0,13122.0,449610.0,27697.0,-1170.2979018411852,-1068.6731175696013,-1730.7155434065417
449610.0,9328.0,449610.0,13112.0,449610.0,27671.0,-1173.9452801974312,-1058.317839981934,-1717.262109477636
449610.0,9327.0,449610.0,13147.0,449610.0,27715.0,-1177.1394034205011,-1046.680255271079,-1701.91547621784
449610.0,9334.0,449610.0,13143.0,449610.0,27699.0,-1179.8505351345266,-1033.7358483097687,-1684.6310206578582
449610.0,9320.0,449610.0,13127.0,449610.0,27699.0,-1182.0482616984696,-1019.4635670871612,-1665.3687716948916
449610.0,9303.0,449610.0,13144.0,449610.0,27695.0,-1183.7014480295904,-1003.8461128634657,-1644.0938532570099
449621.0,9310.0,449621.0,13138.0,449621.0,27703.0,-1184.7783761849391,-986.870423109426,-1620.7771494380747
449621.0,9306.0,449621.0,13147.0,449621.0,27730.0,-1185.246919974647,-968.528129220258,-1595.3959397545987
449621.0,9304.0,449621.0,13189.0,449621.0,27745.0,-1185.074598780499,-948.8159064449419,-1567.9343253430834
449621.0,9303.0,449621.0,13187.0,449621.0,27758.0,-1184.228578399427,-927.735627250416,-1538.3835034859453
449621.0,9283.0,449621.0,13209.0,449621.0,27771.0,-1182.675739360158,-905.2943910761637,-1506.7420933421274
449621.0,9271.0,449621.0,13213.0,449621.0,27798.0,-1180.3828987685924,-881.5046773069841,-1473.0165839872973
449631.0,9278.0,449631.0,13228.0,449631.0,27833.0,-1177.3171705589527,-856.38466372632,-1437.2217611133426
449631.0,9287.0,449631.0,13264.0,449631.0,27885.0,-1173.4462466572622,-829.9585704022816,-1399.3809361032802
449631.0,9262.0,449631.0,13326.0,449631.0,27927.0,-1168.7384989300338,-802.2567875884049,-1359.5259142594484
449631.0,9284.0,449631.0,13350.0,449631.0,27972.0,-1163.1630931884847,-773.315604716343,-1317.6968046345767
449631.0,9264.0,449631.0,13370.0,449631.0,27991.0,-1156.6901931689526,-743.1767884131445,-1273.941891017638
449631.0,9269.0,449631.0,13387.0,449631.0,28045.0,-1149.2911826288637,-711.887447515227,-1228.3177165742359
449641.0,9252.0,449641.0,13426.0,449641.0,28094.0,-1140.9389571109082,-679.5002201521961,-1180.88926926782
449641.0,9281.0,449641.0,13491.0,449641.0,28172.0,-1131.608272128844,-646.0734130547156,-1131.729988975324
449641.0,9281.0,449641.0,13551.0,449641.0,28242.0,-1121.2759584162063,-611.6707412757034,-1080.9214444334673
449641.0,9286.0,449641.0,13595.0,449641.0,28300.0,-1109.9209625514993,-576.3606866746702,-1028.5527727515798
449641.0,9294.0,449641.0,13615.0,449641.0,28355.0,-1097.5243978636838,-540.2158717785977,-974.7201480060356
449641.0,9294.0,449641.0,13673.0,449641.0,28431.0,-1084.069701410181,-503.3127625061845,-919.5264338818622
449652.0,9298.0,449652.0,13743.0,449652.0,28510.0,-1069.5428632305807,-465.73149705868263,-863.0808573750757
449652.0,9308.0,449652.0,13814.0,449652.0,28611.0,-1053.9327081688045,-427.5554054279419,-805.4984513090176
449652.0,9336.0,449652.0,13872.0,449652.0,28710.0,-1037.231137619457,-388.8701643147501,-746.8991629699194
449652.0,9336.0,449652.0,13912.0,449652.0,28769.0,-1019.4332283444844,-349.76292677506996,-687.4067627573967
449652.0,9347.0,449652.0,13954.0,449652.0,28841.0,-1000.5372958739874,-310.3217354807702,-627.1479233630503
449652.0,9368.0,449652.0,14010.0,449652.0,28935.0,-980.5450663294185,-270.63522689712545,-566.2516354696163
449662.0,9380.0,449662.0,14085.0,449662.0,29007.0,-959.4618777933096,-230.79234223258226,-504.8486846963924
449662.0,9393.0,449662.0,14125.0,449662.0,29099.0,-937.296834262495,-190.88181361324695,-443.0709953886641
449662.0,9421.0,449662.0,14192.0,449662.0,29188.0,-914.062962598754,-150.991535934112,-381.05089773208636
449662.0,9428.0,449662.0,14241.0,449662.0,29267.0,-889.7773661051442,-111.20800162993032,-318.9203422581546
449662.0,9449.0,449662.0,14265.0,449662.0,29341.0,-864.4613823951846,-71.61584814132209,-256.81013233951523
449662.0,9479.0,449662.0,14322.0,449662.0,29412.0,-838.140775350621,-32.297608369428076,-194.84931206837246
449673.0,9518.0,449673.0,14367.0,449673.0,29494.0,-810.8458390481289,6.666393261198323,-133.1647032626771
449673.0,9546.0,449673.0,14445.0,449673.0,29596.0,-782.611303535519,45.19828512442268,-71.88040528982515
449673.0,9590.0,449673.0,14494.0,449673.0,29653.0,-753.4761183751989,83.22318343017469,-11.117115991611854
449673.0,9592.0,449673.0,14509.0,449673.0,29700.0,-723.483264608018,120.66980800566512,49.00850162447375
449673.0,9641.0,449673.0,14529.0,449673.0,29765.0,-692.6797173215314,157.47074007138679,108.38406275463115
449673.0,9688.0,449673.0,14582.0,449673.0,29826.0,-661.1164623138941,193.56222515812942,166.90141716999972
449683.0,9715.0,449683.0,14631.0,449683.0,29910.0,-628.8483326023676,228.8839827355913,224.4566905494836
449683.0,9763.0,449683.0,14682.0,449683.0,29994.0,-595.9337177644247,263.3793828193369,280.95061665183437
449683.0,9806.0,449683.0,14711.0,449683.0,30027.0,-562.434300161988,296.99584782588715,336.2890807192001
449683.0,9870.0,449683.0,14726.0,449683.0,30089.0,-528.4147210445116,329.6851334299431,390.3835211518822
449683.0,9878.0,449683.0,14765.0,449683.0,30156.0,-493.94214013217857,361.4033140631294,443.15104072346503
449683.0,9945.0,449683.0,14796.0,449683.0,30231.0,-459.0858889597144,392.1106324692644,494.51455400068517
449693.0,9993.0,449693.0,14838.0,449693.0,30302.0,-423.91721985520593,421.77147175488494,544.4032266187667
449693.0,10066.0,449693.0,14874.0,449693.0,30329.0,-388.5088649906235,450.35450586644447,592.7530348685593
449693.0,10099.0,449693.0,14913.0,449693.0,30382.0,-352.9343505837435,477.8329588191442,639.5070957615856
449693.0,10142.0,449693.0,14908.0,449693.0,30419.0,-317.2673532930364,504.18483405550796,684.6156745326152
449693.0,10188.0,449693.0,14918.0,449693.0,30472.0,-281.5812967777496,529.3928638614909,728.0360980821024
449693.0,10271.0,449693.0,14966.0,449693.0,30506.0,-245.949003906688,553.4441714618899,769.732739896124
449704.0,10305.0,449704.0,14997.0,449704.0,30550.0,-210.44211285022834,576.3300753883148,809.6770434286261
449704.0,10352.0,449704.0,15011.0,449704.0,30602.0,-175.13036803026523,598.0462530796049,847.8475648678673
449704.0,10392.0,449704.0,15007.0,449704.0,30605.0,-140.08110538466428,618.5928997300341,884.2300382404837
449704.0,10434.0,449704.0,14999.0,449704.0,30645.0,-105.35894790540476,637.9745040936516,918.8173158217971
449704.0,10460.0,449704.0,15029.0,449704.0,30663.0,-71.02558784869632,656.19931612246,951.6091114674455
449704.0,10521.0,449704.0,15038.0,449704.0,30691.0,-37.13962316838797,673.2788887850897,982.6117130513076
449714.0,10560.0,449714.0,15072.0,449714.0,30696.0,-3.7563348699152357,689.2279305828326,1011.8377206927582
449714.0,10603.0,449714.0,15098.0,449714.0,30721.0,29.072679585031437,704.0644258969014,1039.3057154653213
449714.0,10636.0,449714.0,15061.0,449714.0,30734.0,61.29988504687549,717.8098102031715,1065.0398804502638
449714.0,10651.0,449714.0,15054.0,449714.0,30728.0,92.88202927353575,730.4887948317564,1089.0696200900336
449714.0,10683.0,449714.0,15050.0,449714.0,30736.0,123.7801380867005,742.128696900533,1111.4290799323521
449714.0,10739.0,449714.0,15099.0,449714.0,30748.0,153.95942612919634,752.7587734910906,1132.156555707225
449724.0,10743.0,449724.0,15101.0,449724.0,30799.0,183.38935924066413,762.4100752409331,1151.2940597985357
449724.0,10785.0,449724.0,15096.0,449724.0,30772.0,212.0437886328125,771.1156666322522,1168.8872219683412
449724.0,10785.0,449724.0,15071.0,449724.0,30774.0,239.90092917647144,778.9106453344016,1184.9852032349224
449724.0,10813.0,449724.0,15100.0,449724.0,30751.0,266.9431684856419,785.8317814463155,1199.6402207403362
449724.0,10825.0,449724.0,15073.0,449724.0,30780.0,293.1567884592811,791.9171154932901,1212.9068236874846
449724.0,10851.0,449724.0,15079.0,449724.0,30782.0,318.5316889026452,797.2056779170221,1224.8413557923789
449735.0,10876.0,449735.0,15114.0,449735.0,30795.0,343.0611966527522,801.7372782419382,1235.501754276664
449735.0,10901.0,449735.0,15099.0,449735.0,30781.0,366.7419908976874,805.5525103906198,1244.9474690713598
449735.0,10905.0,449735.0,15051.0,449735.0,30762.0,389.57408217628506,808.6928170369185,1253.2392150197195
449735.0,10912.0,449735.0,15056.0,449735.0,30767.0,411.56067517898305,811.2001118292733,1260.4384782620903
449735.0,10915.0,449735.0,15058.0,449735.0,30770.0,432.70781821795674,813.1160998104365,1266.606993409403
449735.0,10950.0,449735.0,15070.0,449735.0,30766.0,453.02397890794214,814.4818896589234,1271.8064222531389
449745.0,10961.0,449745.0,15056.0,449745.0,30777.0,472.5197907408167,815.3379793824856,1276.0981996432922
449745.0,10975.0,449745.0,15058.0,449745.0,30755.0,491.20800064337334,815.724286295469,1279.543413003834
449745.0,10985.0,449745.0,15041.0,449745.0,30757.0,509.10341885572575,815.6800439085916,1282.2026143412024
449745.0,10993.0,449745.0,15023.0,449745.0,30730.0,526.2227654898181,815.2435624191471,1284.135502064052
449745.0,11009.0,449745.0,15057.0,449745.0,30765.0,542.5844699584204,814.4519466516158,1285.400573871771
449745.0,11026.0,449745.0,15012.0,449745.0,30757.0,558.2085117832805,813.3409543722798,1286.0549936565626
449755.0,11026.0,449755.0,15047.0,449755.0,30735.0,573.1163325476182,811.9449735440201,1286.1546705311941
449755.0,11039.0,449755.0,15045.0,449755.0,30741.0,587.330733355662,810.2970424891687,1285.7542223178998
449755.0,11026.0,449755.0,15016.0,449755.0,30722.0,600.8756660437057,808.4289624415342,1284.9067407445075
449755.0,11041.0,449755.0,15004.0,449755.0,30711.0,613.7759153878017,806.3712727397949,1283.6635265779946
449755.0,11049.0,449755.0,15031.0,449755.0,30702.0,626.0567707027949,804.1529844263434,1282.0738031030073
449755.0,11077.0,449755.0,15050.0,449755.0,30737.0,637.7438580539247,801.8015326735455,1280.1844993829295
449766.0,11071.0,449766.0,15006.0,449766.0,30735.0,648.8631747662425,799.343098878772,1278.0403647982598
449766.0,11074.0,449766.0,15011.0,449766.0,30712.0,659.441129105893,796.8027794212804,1275.6843182304947
449766.0,11082.0,449766.0,15003.0,449766.0,30700.0,669.5044163269822,794.2043776252011,1273.1575690360303
449766.0,11074.0,449766.0,15008.0,449766.0,30697.0,679.0797949929934,791.5701884591161,1270.4993869997081
449766.0,11099.0,449766.0,15017.0,449766.0,30693.0,688.1938821139672,788.9210099565739,1267.7468376622705
449766.0,11086.0,449766.0,14990.0,449766.0,30681.0,696.8730188560755,786.2762673100286,1264.9346537724941
449776.0,11116.0,449776.0,15012.0,449776.0,30687.0,705.1432120384188,783.6540729024729,1262.0951647686
449776.0,11092.0,449776.0,14977.0,449776.0,30669.0,713.0301019996045,781.0711892694803,1259.258238647113
449776.0,11094.0,449776.0,14972.0,449776.0,30655.0,720.5588406447844,778.5429025024362,1256.4511906550424
449776.0,11110.0,449776.0,14992.0,449776.0,30677.0,727.7538363504527,776.0828197199481,1253.6986355820743
449776.0,11133.0,449776.0,14998.0,449776.0,30663.0,734.6386037169916,773.702841056769,1251.0224487174637
449776.0,11127.0,449776.0,14964.0,449776.0,30658.0,741.2358934465003,771.4133664429281,1248.441873128587
449786.0,11102.0,449786.0,14968.0,449786.0,30651.0,747.5678101723406,769.223346211331,1245.9735560177435
449786.0,11115.0,449786.0,14969.0,449786.0,30645.0,753.6555957361725,767.1400821075886,1243.6314588964037
449786.0,11114.0,449786.0,14930.0,449786.0,30634.0,759.5192492181825,765.1690293563371,1241.426738179978
449786.0,11129.0,449786.0,14969.0,449786.0,30653.0,765.1773230241092,763.3136197894144,1239.3676564666614
449786.0,11146.0,449786.0,14980.0,449786.0,30667.0,770.646959146351,761.5752232384697,1237.459665802645
449786.0,11145.0,449786.0,14998.0,449786.0,30665.0,775.9440698868607,759.9535101644634,1235.705739568003
449797.0,11157.0,449797.0,14955.0,449797.0,30625.0,781.0835309460904,758.446954417566,1234.106665438119
449797.0,11135.0,449797.0,14947.0,449797.0,30638.0,786.079246727081,757.0529256841272,1232.660959339985
449797.0,11137.0,449797.0,14964.0,449797.0,30661.0,790.9440104741416,755.767371670059,1231.3646229890437
449797.0,11157.0,449797.0,14977.0,449797.0,30634.0,795.6892559388041,754.5846365121812,1230.2111801571834
449797.0,11169.0,449797.0,14969.0,449797.0,30669.0,800.3249855078564,753.4976644685181,1229.1919027601102
449797.0,11152.0,449797.0,14993.0,449797.0,30671.0,804.859922996068,752.4983199161633,1228.2960488864903
449807.0,11162.0,449807.0,14966.0,449807.0,30661.0,809.3015872245162,751.5776235345722,1227.5111737610473
449807.0,11161.0,449807.0,14966.0,449807.0,30656.0,813.6561849184254,750.7258381529697,1226.823350066438
449807.0,11165.0,449807.0,14976.0,449807.0,30648.0,817.928504818791,749.9323883626997,1226.2171320817474
449807.0,11178.0,449807.0,14996.0,449807.0,30653.0,822.1218998304087,749.1858590804325,1225.6754158690385
449807.0,11186.0,449807.0,14973.0,449807.0,30687.0,826.2383611015196,748.4742231597673,1225.1794408802368
449807.0,11189.0,449807.0,14992.0,449807.0,30670.0,830.2786717857471,747.7850616449927,1224.709065080919
449817.0,11183.0,449817.0,14968.0,449817.0,30652.0,834.2425270944086,747.1056151576146,1224.2430753987617
449817.0,11179.0,449817.0,14940.0,449817.0,30672.0,838.1285052633659,746.4226607468571,1223.7592083294287
449817.0,11194.0,449817.0,14986.0,449817.0,30687.0,841.9339359923551,745.7222368809211,1223.2341019718262
449817.0,11205.0,449817.0,14973.0,449817.0,30681.0,845.6548586591953,744.9895367576962,1222.64351615077
449817.0,11215.0,449817.0,14992.0,449817.0,30685.0,849.2861776546317,744.2091687125408,1221.962649366791
449817.0,11203.0,449817.0,14975.0,449817.0,30692.0,852.8218773540973,743.3654786199392,1221.1663266996318
449828.0,11211.0,449828.0,14966.0,449828.0,30674.0,856.2550965435059,742.4426595594371,1220.2291060120644
449828.0,11212.0,449828.0,14952.0,449828.0,30700.0,859.5780705897571,741.4246209198097,1219.1253498141411
449828.0,11227.0,449828.0,15015.0,449828.0,30713.0,862.7821115723198,740.2948461346642,1217.8293728917915
449828.0,11236.0,449828.0,14996.0,449828.0,30717.0,865.8577257912361,739.036642290424,1216.3158102117675
449828.0,11241.0,449828.0,14981.0,449828.0,30705.0,868.7948325064449,737.6336485737189,1214.5600339151363
449828.0,11233.0,449828.0,15017.0,449828.0,30689.0,871.5829546973401,736.0701022126214,1212.538314635828
449838.0,11226.0,449838.0,14974.0,449838.0,30693.0,874.211242532379,734.3309029118919,1210.227705679487
449838.0,11245.0,449838.0,14974.0,449838.0,30708.0,876.6683602451492,732.4016159276188,1207.6059240337845
449838.0,11255.0,449838.0,15002.0,449838.0,30706.0,878.9424694978857,730.268347488465,1204.6514738243068
449838.0,11264.0,449838.0,15008.0,449838.0,30713.0,881.0214411423373,727.9177945652018,1201.3439481778466
449838.0,11278.0,449838.0,15034.0,449838.0,30722.0,882.8931783849819,725.3376920453892,1197.6643422178315
449838.0,11260.0,449838.0,14976.0,449838.0,30705.0,884.5458898496044,722.5173056127294,1193.5953353505763
449848.0,11260.0,449848.0,14971.0,449848.0,30684.0,885.968181385625,719.4474809844395,1189.1214301265204
449848.0,11277.0,449848.0,14980.0,449848.0,30708.0,887.1489852174665,716.120255924813,1184.2288814535104
449848.0,11279.0,449848.0,14992.0,449848.0,30694.0,888.0775736986008,712.5286039986236,1178.9056716522878
449848.0,11286.0,449848.0,14992.0,449848.0,30711.0,888.7437571915032,708.6666159057359,1173.1417159572816
449848.0,11291.0,449848.0,14990.0,449848.0,30704.0,889.1381186888927,704.5298454217775,1166.9291794503806
449848.0,11288.0,449848.0,14975.0,449848.0,30681.0,889.2521984847272,700.1155287175324,1160.262741829683
449859.0,11274.0,449859.0,14961.0,449859.0,30689.0,889.0785867006063,695.4225942257453,1153.1396928880888
449859.0,11278.0,449859.0,14979.0,449859.0,30691.0,888.6108693014698,690.4515562350912,1145.559956010629
449859.0,11289.0,449859.0,14962.0,449859.0,30673.0,887.8435411701905,685.2045087841225,1137.5262360772795
449859.0,11296.0,449859.0,14980.0,449859.0,30665.0,886.7720908455583,679.6852866207714,1129.0441865390655
449859.0,11285.0,449859.0,14960.0,449859.0,30650.0,885.3932348410896,673.8996778059723,1120.1224296334628
449859.0,11261.0,449859.0,14912.0,449859.0,30624.0,883.7050345594197,667.8554874870713,1110.7724599115018
449869.0,11260.0,449869.0,14905.0,449869.0,30596.0,881.7067279405302,661.562217902911,1101.0084247277005
449869.0,11273.0,449869.0,14917.0,449869.0,30597.0,879.3984742334019,655.0305505536376,1090.846791442701
449869.0,11273.0,449869.0,14930.0,449869.0,30594.0,876.7813336898936,648.272186754154,1080.3061275405782
449869.0,11273.0,449869.0,14896.0,449869.0,30575.0,873.8574821770522,641.3001150336843,1069.407142885003
449869.0,11248.0,449869.0,14908.0,449869.0,30564.0,870.6303874712181,634.1288476410128,1058.1728134025393
449869.0,11243.0,449869.0,14860.0,449869.0,30519.0,867.1047569334127,626.7743909812275,1046.6283446995653
449879.0,11232.0,449879.0,14876.0,449879.0,30499.0,863.2863151429939,619.2540466519062,1034.8008817786326
449879.0,11251.0,449879.0,14847.0,449879.0,30503.0,859.181644067492,611.5861943411813,1022.7190996306526
449879.0,11252.0,449879.0,14854.0,449879.0,30487.0,854.7982778385514,603.7901734053764,1010.4130016700001
449879.0,11233.0,449879.0,14848.0,449879.0,30459.0,850.1449770430924,595.8862847932992,997.9139655608424
449879.0,11217.0,449879.0,14804.0,449879.0,30425.0,845.2318686080976,587.895817576543,985.254689408682
449879.0,11203.0,449879.0,14783.0,449879.0,30393.0,840.0702951685986,579.8408606305082,972.4688410020551
449890.0,11191.0,449890.0,14768.0,449890.0,30382.0,834.6725314430071,571.7438218786729,959.5905608284828
449890.0,11206.0,449890.0,14784.0,449890.0,30365.0,829.0515878373361,563.6270065165013,946.6540788394236
449890.0,11184.0,449890.0,14793.0,449890.0,30380.0,823.2212121883787,555.5126157385989,933.6936098080386
449890.0,11182.0,449890.0,14748.0,449890.0,30348.0,817.1959880398834,547.4230519189116,920.7435160536331
449890.0,11160.0,449890.0,14735.0,449890.0,30294.0,810.9913347299826,539.3810296648601,907.8384288185521
449890.0,11142.0,449890.0,14697.0,449890.0,30269.0,804.6233582255601,531.4092451257546,895.0129264887155
449900.0,11131.0,449900.0,14696.0,449900.0,30267.0,798.1085987522738,523.5298537638732,882.3009101999596
449900.0,11122.0,449900.0,14700.0,449900.0,30253.0,791.4637718409601,515.7641019144061,869.7352180720798
449900.0,11137.0,449900.0,14699.0,449900.0,30234.0,784.7056560608514,508.1322976027132,857.3475984003
449900.0,11094.0,449900.0,14679.0,449900.0,30229.0,777.8511511848752,500.654008627096,845.1687655164619
449900.0,11088.0,449900.0,14645.0,449900.0,30190.0,770.9172674461225,493.348129049943,833.2283834885448
449900.0,11075.0,449900.0,14638.0,449900.0,30159.0,763.920897608299,486.23262121003745,821.5548896437456
449911.0,11088.0,449911.0,14637.0,449911.0,30159.0,756.8786161713259,479.3241491838006,810.175128624415
449911.0,11070.0,449911.0,14641.0,449911.0,30151.0,749.8067257522,472.63794107740597,799.1140631895136
449911.0,11060.0,449911.0,14643.0,449911.0,30142.0,742.7214043971043,466.1879443700446,788.3947814794535
449911.0,11055.0,449911.0,14611.0,449911.0,30096.0,735.638748900566,459.9870532281858,778.0385813745186
449911.0,11009.0,449911.0,14582.0,449911.0,30089.0,728.5746751567476,454.04708758948857,768.0648094277699
449911.0,11010.0,449911.0,14576.0,449911.0,30071.0,721.5446446677693,448.378416341999,758.4905083239412
449921.0,11009.0,449921.0,14584.0,449921.0,30057.0,714.5633259779759,442.98954396611924,749.3301434183841
449921.0,11022.0,449921.0,14578.0,449921.0,30082.0,707.6445163552336,437.88700838632684,740.5955353004508
449921.0,10990.0,449921.0,14591.0,449921.0,30063.0,700.80135764832,433.0755573786514,732.2960444576144
449921.0,10987.0,449921.0,14568.0,449921.0,30031.0,694.0464937456521,428.558386782035,724.4388437331576
449921.0,10971.0,449921.0,14566.0,449921.0,30013.0,687.391997192314,424.33726631651393,717.0288897171565
449921.0,10957.0,449921.0,14528.0,449921.0,30014.0,680.8492082398302,420.4124415979374,710.0685968847547
449931.0,10955.0,449931.0,14577.0,449931.0,30021.0,674.4285972438458,416.78241347753,703.557639302594
449931.0,10945.0,449931.0,14563.0,449931.0,30017.0,668.1396824236577,413.4439448015566,697.4930821969566
449931.0,10935.0,449931.0,14562.0,449931.0,29989.0,661.9910147878379,410.3923816575769,691.8696167355931
449931.0,10920.0,449931.0,14537.0,449931.0,29991.0,655.9901530168586,407.6218885125403,686.6796006282103
449931.0,10906.0,449931.0,14539.0,449931.0,29995.0,650.1435551725475,405.12535859141474,681.9129634025434
449931.0,10904.0,449931.0,14521.0,449931.0,29987.0,644.4564213939116,402.894179795206,677.5572376607796
449942.0,10905.0,449942.0,14557.0,449942.0,29996.0,638.932606770772,400.91809923539313,673.5977328297253
449942.0,10916.0,449942.0,14555.0,449942.0,29997.0,633.5747175551617,399.18536677428386,670.0177485947763
449942.0,10906.0,449942.0,14549.0,449942.0,29996.0,628.3843764176175,397.6831032596427,666.7988203931669
449942.0,10873.0,449942.0,14537.0,449942.0,29999.0,623.3624360754923,396.3975518210207,663.9209610746101
449942.0,10873.0,449942.0,14529.0,449942.0,29995.0,618.5089004159918,395.31403455354297,661.3628547998669
449942.0,10871.0,449942.0,14564.0,449942.0,30001.0,613.822674509177,394.41683966508225,659.1020200088294
449952.0,10884.0,449952.0,14579.0,449952.0,30016.0,609.3014956385834,393.68940180547145,657.1150048784043
449952.0,10871.0,449952.0,14581.0,449952.0,30007.0,604.9421243097681,393.1148307222243,655.3776706328821
449952.0,10866.0,449952.0,14551.0,449952.0,30006.0,600.740568651486,392.6763779574762,653.8654642979678
449952.0,10843.0,449952.0,14541.0,449952.0,29996.0,596.6921338685656,392.357447501947,652.5535319194257
449952.0,10856.0,449952.0,14541.0,449952.0,29996.0,592.7913110400848,392.1412501081421,651.4166932743905
449952.0,10852.0,449952.0,14559.0,449952.0,30005.0,589.0317118336203,392.01052880572604,650.4294164900771
449962.0,10862.0,449962.0,14595.0,449962.0,30020.0,585.4061970444984,391.9476819819575,649.5659370662926
449962.0,10853.0,449962.0,14569.0,449962.0,30017.0,581.9071242869347,391.9352441084413,648.8005565272258
449962.0,10842.0,449962.0,14559.0,449962.0,30011.0,578.5265390011538,391.95627946012166,648.1079515384805
449962.0,10833.0,449962.0,14554.0,449962.0,30011.0,575.25619771624,391.9943433309515,647.4633162282134
449962.0,10835.0,449962.0,14556.0,449962.0,30006.0,572.0874764412713,392.0332258062307,646.8423709068932
449962.0,10833.0,449962.0,14585.0,449962.0,30019.0,569.0113263483925,392.0568712251704,646.221377621833
449973.0,10843.0,449973.0,14582.0,449973.0,30011.0,566.0183640460542,392.04960944641,645.5772402306554
449973.0,10841.0,449973.0,14561.0,449973.0,30015.0,563.0990764958867,391.9964869422035,644.8876492841778
449973.0,10822.0,449973.0,14557.0,449973.0,30011.0,560.2440275452497,391.8833319314109,644.1311894898382
449973.0,10817.0,449973.0,14555.0,449973.0,29997.0,557.4438963879923,391.69653986687786,643.2873760707007
449973.0,10817.0,449973.0,14553.0,449973.0,30004.0,554.6893583757562,391.4228731749243,642.3366126155677
449973.0,10822.0,449973.0,14578.0,449973.0,30002.0,551.971022994929,391.04944365637687,641.260141911113
449983.0,10821.0,449983.0,14587.0,449983.0,30008.0,549.2795385909824,390.5639346401136,640.040101692282
449983.0,10816.0,449983.0,14570.0,449983.0,29995.0,546.6057690273244,389.95497628184427,638.6596515119597
449983.0,10808.0,449983.0,14554.0,449983.0,29995.0,543.9409090129612,389.21234048814705,637.1030438099394
449983.0,10804.0,449983.0,14539.0,449983.0,29985.0,541.2764958938508,388.32675952977127,635.3556012724086
449983.0,10807.0,449983.0,14562.0,449983.0,29982.0,538.6043869975643,387.28960342615386,633.403653605583
449983.0,10791.0,449983.0,14566.0,449983.0,29989.0,535.9167716101621,386.0927988845897,631.234503002844
449993.0,10802.0,449993.0,14544.0,449993.0,29972.0,533.2061955867424,384.72901840487356,628.836459219879
449993.0,10787.0,449993.0,14530.0,449993.0,29969.0,530.4655867045014,383.1917593497035,626.198873835739
449993.0,10779.0,449993.0,14535.0,449993.0,29957.0,527.6882729031227,381.47513917648257,623.3120809846324
449993.0,10764.0,449993.0,14543.0,449993.0,29958.0,524.8679086441667,379.57370452695704,620.1672954937607
449993.0,10760.0,449993.0,14534.0,449993.0,29953.0,521.9982974630561,377.482478997399,616.7565679002624
449993.0,10761.0,449993.0,14560.0,449993.0,29947.0,519.0732343664043,375.1971566728859,613.0728107954463
450003.0,10764.0,450003.0,14509.0,450003.0,29943.0,516.0864856511669,372.71428575663714,609.1098441337831
450003.0,10764.0,450003.0,14516.0,450003.0,29925.0,513.0319164638277,370.03124612964496,604.8624030687754
450003.0,10745.0,450003.0,14504.0,450003.0,29907.0,509.9036448756526,367.1459784530384,600.3260457776722
450003.0,10742.0,450003.0,14502.0,450003.0,29910.0,506.6960668434198,364.0567381003526,595.4969573964474
450003.0,10769.0,450003.0,14521.0,450003.0,29898.0,503.4038230736738,360.76206219277253,590.3717938917439
450003.0,10746.0,450003.0,14509.0,450003.0,29911.0,500.0219447441332,357.260935626427,584.9476914623203
450013.0,10743.0,450013.0,14502.0,450013.0,29898.0,496.54609325624943,353.553020546271,579.2224233614256
450013.0,10729.0,450013.0,14476.0,450013.0,29872.0,492.97261085574587,349.6387084729383,573.1945544730343
450013.0,10714.0,450013.0,14477.0,450013.0,29860.0,489.29838225908145,345.5189323557766,566.8633852667538
450013.0,10704.0,450013.0,14435.0,450013.0,29877.0,485.5206288269853,341.1948640099638,560.2287600524689
450013.0,10712.0,450013.0,14482.0,450013.0,29841.0,481.63672240673986,336.66763452207897,553.2910248992685
450013.0,10700.0,450013.0,14474.0,450013.0,29847.0,477.64413833285414,331.9383285278035,546.0510906995048
450023.0,10704.0,450023.0,14456.0,450023.0,29827.0,473.54053957544454,327.00830696306184,538.5104131578921
450023.0,10689.0,450023.0,14432.0,450023.0,29805.0,469.32386866884906,321.8794089839306,530.6709078863898
450023.0,10675.0,450023.0,14445.0,450023.0,29798.0,464.9923604736563,316.5538002799634,522.5348066266298
450023.0,10662.0,450023.0,14429.0,450023.0,29796.0,460.5444272677015,311.0338036563228,514.1045051294072
450023.0,10680.0,450023.0,14450.0,450023.0,29791.0,455.97850931354304,305.3219566832728,505.3825685613905
450023.0,10678.0,450023.0,14431.0,450023.0,29783.0,451.29312165644717,299.4212295523971,496.3718943579387
450034.0,10652.0,450034.0,14420.0,450034.0,29757.0,446.48708101105353,293.33523103686196,487.0758583941781
450034.0,10648.0,450034.0,14384.0,450034.0,29741.0,441.55959708141404,287.0681899650647,477.49829462052026
450034.0,10647.0,450034.0,14359.0,450034.0,29732.0,436.51016156702514,280.6246109036832,467.64333031068145
450034.0,10641.0,450034.0,14388.0,450034.0,29728.0,431.33848784314466,274.0088143816264,457.5152670252136
450034.0,10634.0,450034.0,14395.0,450034.0,29737.0,426.0445782314257,267.22482291847183,447.11866702763086
450034.0,10621.0,450034.0,14375.0,450034.0,29713.0,420.6287832789595,260.27671413927766,436.45862477177246
450044.0,10607.0,450044.0,14363.0,450044.0,29693.0,415.0917680469433,253.16896931451615,425.5410006970765
450044.0,10601.0,450044.0,14339.0,450044.0,29648.0,409.4343995620595,245.9064711318764,414.37236014896166
450044.0,10602.0,450044.0,14336.0,450044.0,29648.0,403.65765457011196,238.4942861406282,402.9596172317828
450044.0,10604.0,450044.0,14356.0,450044.0,29661.0,397.7626669616817,230.937533243337,391.3097395554436
450044.0,10586.0,450044.0,14318.0,450044.0,29649.0,391.75089459818923,223.24149996690022,379.42986780086255
450044.0,10575.0,450044.0,14313.0,450044.0,29624.0,385.6242274108519,215.41178575920958,367.3276859528784
450054.0,10561.0,450054.0,14309.0,450054.0,29594.0,379.3849294650462,207.45424345699763,355.01157650772666
450054.0,10554.0,450054.0,14281.0,450054.0,29577.0,373.03549992316107,199.37486242502843,342.4904349303115
450054.0,10546.0,450054.0,14280.0,450054.0,29575.0,366.57857223104145,191.17967817207767,329.77341021772264
450054.0,10550.0,450054.0,14266.0,450054.0,29551.0,360.016908110196,182.87466170362438,316.86982019673763
450054.0,10534.0,450054.0,14287.0,450054.0,29561.0,353.3534903156209,174.46571388475178,303.78924125649644
450054.0,10519.0,450054.0,14265.0,450054.0,29536.0,346.5916108572055,165.95887187379208,290.5416892373645
450065.0,10520.0,450065.0,14251.0,450065.0,29522.0,339.73485542281094,157.36056148617382,277.1378102107858
450065.0,10496.0,450065.0,14212.0,450065.0,29494.0,332.78704460548613,148.67760184938635,263.58894320700483
450065.0,10487.0,450065.0,14221.0,450065.0,29473.0,325.75216824389537,139.91692773551853,249.90700799561432
450065.0,10487.0,450065.0,14215.0,450065.0,29463.0,318.6342904901866,131.0853470739176,236.10432480587417
450065.0,10483.0,450065.0,14235.0,450065.0,29454.0,311.43753475522504,122.18962888153851,222.19352344856213
450065.0,10467.0,450065.0,14193.0,450065.0,29422.0,304.1661949425484,113.23683436733455,208.1875798881564
450075.0,10446.0,450075.0,14167.0,450075.0,29391.0,296.8247967711105,104.23447207705419,194.09978759993317
450075.0,10423.0,450075.0,14160.0,450075.0,29400.0,289.417957266549,95.19025018993739,179.94357222157112
450075.0,10426.0,450075.0,14164.0,450075.0,29360.0,281.9501171512786,86.1117515419221,165.73236155647214
450075.0,10437.0,450075.0,14151.0,450075.0,29334.0,274.4254131145448,77.00639944246672,151.4795368002974
450075.0,10430.0,450075.0,14133.0,450075.0,29329.0,266.84786992780124,67.88159666261902,137.19827230072838
450075.0,10420.0,450075.0,14124.0,450075.0,29316.0,259.2217463221928,58.74476414929626,122.9013848378537
450085.0,10387.0,450085.0,14115.0,450085.0,29286.0,251.55171069709672,49.60327719906235,108.60135389311483
450085.0,10363.0,450085.0,14081.0,450085.0,29268.0,243.84268462019259,40.46438586891975,94.31033035408791
450085.0,10369.0,450085.0,14086.0,450085.0,29260.0,236.09948146116523,31.335074862482486,80.04003408518918
450085.0,10369.0,450085.0,14082.0,450085.0,29229.0,228.3265941510062,22.221935509797902,65.8016775802297
450085.0,10364.0,450085.0,14069.0,450085.0,29209.0,220.5283160689408,13.131217581527153,51.605909243259134
450085.0,10327.0,450085.0,14047.0,450085.0,29197.0,212.7089459913709,4.068945369543258,37.46268688845714
450096.0,10323.0,450096.0,14022.0,450096.0,29181.0,204.87275316537995,-4.959149064683061,23.381174202491252
450096.0,10316.0,450096.0,14040.0,450096.0,29169.0,197.02376307665787,-13.94783114902458,9.369750911051028
450096.0,10312.0,450096.0,14043.0,450096.0,29162.0,189.1656572113476,-22.892379911860985,-4.563898054505671
450096.0,10304.0,450096.0,14031.0,450096.0,29157.0,181.3018554864235,-31.78827750548652,-18.41261871462018
450096.0,10282.0,450096.0,13997.0,450096.0,29118.0,173.43561730538647,-40.6309062132911,-32.16959430046063
450096.0,10259.0,450096.0,13965.0,450096.0,29114.0,165.56999720427234,-49.41563759807707,-45.82828577308749
450106.0,10265.0,450106.0,13969.0,450106.0,29079.0,157.70765498046427,-58.13825323111507,-59.38254123176523
450106.0,10272.0,450106.0,13980.0,450106.0,29068.0,149.8507691212988,-66.79524586170965,-72.82675705071563
450106.0,10250.0,450106.0,13993.0,450106.0,29077.0,142.00121534132245,-75.38365308463023,-86.15596952296823
450106.0,10255.0,450106.0,13952.0,450106.0,29064.0,134.16080980538345,-83.90060575750232,-99.36572137019641
450106.0,10225.0,450106.0,13947.0,450106.0,29025.0,126.33141459990668,-92.34308910500852,-112.45178828120527
450106.0,10228.0,450106.0,13922.0,450106.0,29003.0,118.51492157868938,-100.70808052917687,-125.41014204077862
450117.0,10209.0,450117.0,13927.0,450117.0,28999.0,110.71319344489274,-108.99278697638874,-138.23719693560543
450117.0,10206.0,450117.0,13911.0,450117.0,28996.0,102.92803081212901,-117.19474518437084,-150.92996113540403
450117.0,10196.0,450117.0,13917.0,450117.0,28953.0,95.16118339541333,-125.3117747820528,-163.4859616262795
450117.0,10206.0,450117.0,13893.0,450117.0,28977.0,87.41442753149153,-133.34186932089938,-175.9031694533826
450117.0,10169.0,450117.0,13885.0,450117.0,28940.0,79.68970996789409,-141.28314268737893,-188.17995166639344
450117.0,10145.0,450117.0,13877.0,450117.0,28929.0,71.98915548776972,-149.13387751018297,-200.3149771851455
450127.0,10149.0,450127.0,13860.0,450127.0,28913.0,64.3148128349498,-156.89259872423634,-212.3072061609215
450127.0,10143.0,450127.0,13876.0,450127.0,28900.0,56.668424214002584,-164.55808735291117,-224.15596085706625
450127.0,10138.0,450127.0,13882.0,450127.0,28892.0,49.0514651916327,-172.12922730227177,-235.86094047379186
450127.0,10137.0,450127.0,13856.0,450127.0,28881.0,41.46533149376944,-179.60467306950534,-247.4221576821734
450127.0,10106.0,450127.0,13831.0,450127.0,28855.0,33.91148444026004,-186.98265005996814,-258.83985961699364
450127.0,10098.0,450127.0,13804.0,450127.0,28859.0,26.391435568430552,-194.2611567145911,-270.1145041630389
450137.0,10086.0,450137.0,13778.0,450137.0,28839.0,18.90657849040815,-201.43845112958672,-281.24674296236026
450137.0,10082.0,450137.0,13802.0,450137.0,28816.0,11.458048044832367,-208.51351260124267,-292.23737268163177
450137.0,10081.0,450137.0,13829.0,450137.0,28814.0,4.046726095793247,-215.48609769095282,-303.0873516611433
450137.0,10092.0,450137.0,13779.0,450137.0,28805.0,-3.326593918414005,-222.35632001551141,-313.7978353781342
450137.0,10048.0,450137.0,13765.0,450137.0,28785.0,-10.660964668841416,-229.12434065373753,-324.3701133221007
450137.0,10043.0,450137.0,13762.0,450137.0,28757.0,-17.95522391819884,-235.79055772420276,-334.8055767667481
450148.0,10040.0,450148.0,13758.0,450148.0,28749.0,-25.208179594863623,-242.35589241133255,-345.1058631078205
450148.0,10038.0,450148.0,13784.0,450148.0,28753.0,-32.418725298321874,-248.82175656547702,-355.2730188747213
450148.0,10018.0,450148.0,13751.0,450148.0,28735.0,-39.5857567585341,-255.18975041902172,-365.309458756647
450148.0,10011.0,450148.0,13737.0,450148.0,28727.0,-46.70810177805396,-261.46142429110193,-375.217795458723
450148.0,9985.0,450148.0,13733.0,450148.0,28693.0,-53.78459118986268,-267.63834505604507,-385.000775066144
450148.0,9984.0,450148.0,13721.0,450148.0,28688.0,-60.81422027797902,-273.7222872170421,-394.66140080848686
450158.0,9972.0,450158.0,13710.0,450158.0,28689.0,-67.79629344253294,-279.7153340209976,-404.2030933593935
450158.0,9983.0,450158.0,13724.0,450158.0,28689.0,-74.73043679126829,-285.61990070004845,-413.6296467549431
450158.0,9967.0,450158.0,13727.0,450158.0,28697.0,-81.61645035063543,-291.4386129920056,-422.94492518457184
450158.0,9960.0,450158.0,13703.0,450158.0,28657.0,-88.45412133604123,-297.17403681839414,-432.15250088691903
450158.0,9936.0,450158.0,13687.0,450158.0,28631.0,-95.24316443712348,-302.8285423602225,-441.2555548040664
450158.0,9946.0,450158.0,13708.0,450158.0,28648.0,-101.98329519984259,-308.40439756690284,-450.2571005949045
450168.0,9929.0,450168.0,13682.0,450168.0,28628.0,-108.67427259619103,-313.9038036564598,-459.16014133007604
450168.0,9932.0,450168.0,13671.0,450168.0,28619.0,-115.31582782100725,-319.3288239664331,-467.96756854390253
450168.0,9918.0,450168.0,13684.0,450168.0,28602.0,-121.90755420459874,-324.68140036303623,-476.68206460924443
450168.0,9897.0,450168.0,13655.0,450168.0,28589.0,-128.44885741589388,-329.96338631416586,-485.3061439349319
450168.0,9881.0,450168.0,13643.0,450168.0,28578.0,-134.93905299207734,-335.17657025684605,-493.84224385904474
450168.0,9872.0,450168.0,13645.0,450168.0,28582.0,-141.3775930017958,-340.32282074166005,-502.29276599729985
450179.0,9877.0,450179.0,13676.0,450179.0,28573.0,-147.7642397298211,-345.40414687836153,-510.6599849986868
450179.0,9871.0,450179.0,13653.0,450179.0,28569.0,-154.09903867055596,-350.4224129655379,-518.9458489201764
450179.0,9868.0,450179.0,13645.0,450179.0,28547.0,-160.38213941005034,-355.3789622327332,-527.1518107891209
450179.0,9852.0,450179.0,13616.0,450179.0,28532.0,-166.6136262969801,-360.27455640716823,-535.2788086713164
450179.0,9840.0,450179.0,13609.0,450179.0,28514.0,-172.79347223054623,-365.1096391595281,-543.3274022963559
450179.0,9835.0,450179.0,13615.0,450179.0,28510.0,-178.92160342379913,-369.88464008345113,-551.297958954886
450189.0,9827.0,450189.0,13615.0,450189.0,28504.0,-184.99796586494188,-374.60006015751173,-559.190749014579
450189.0,9811.0,450189.0,13598.0,450189.0,28492.0,-191.02254288799259,-379.2563487949685,-567.0059125944179
450189.0,9806.0,450189.0,13604.0,450189.0,28476.0,-196.99538861548973,-383.8537971001273,-574.7434026250763
450189.0,9792.0,450189.0,13564.0,450189.0,28452.0,-202.91669953658965,-388.39256874273747,-582.4030398833405
450189.0,9763.0,450189.0,13563.0,450189.0,28473.0,-208.7869282677628,-392.8728967743169,-589.984645601448
450189.0,9798.0,450189.0,13580.0,450189.0,28441.0,-214.6069273482538,-397.2953370999172,-597.4880614303759
450199.0,9775.0,450199.0,13576.0,450199.0,28456.0,-220.37792675676684,-401.660773016441,-604.913032481318
450199.0,9791.0,450199.0,13607.0,450199.0,28461.0,-226.1012662003347,-405.97007973473376,-612.2590283326376
450199.0,9763.0,450199.0,13577.0,450199.0,28413.0,-231.77811891574646,-410.2236613530413,-619.5250222537628
450199.0,9753.0,450199.0,13527.0,450199.0,28389.0,-237.40940324647812,-414.4212326242729,-626.7095018699129
450199.0,9732.0,450199.0,13539.0,450199.0,28392.0,-242.99590826930114,-418.5621389464161,-633.8108630816353
450199.0,9744.0,450199.0,13546.0,450199.0,28389.0,-248.53850190063758,-422.64585233908144,-640.8277582597818
450210.0,9739.0,450210.0,13537.0,450210.0,28389.0,-254.0381846830494,-426.67207476060196,-647.7590749728694
450210.0,9723.0,450210.0,13535.0,450210.0,28379.0,-259.4959568461975,-430.6405580628417,-654.6037193322634
450210.0,9713.0,450210.0,13512.0,450210.0,28366.0,-264.9127252692924,-434.55102105434594,-661.3604468422815
450210.0,9696.0,450210.0,13496.0,450210.0,28341.0,-270.28938185746904,-438.40327903404886,-668.0278541236855
450210.0,9701.0,450210.0,13515.0,450210.0,28332.0,-275.62694604762567,-442.1974785480336,-674.6045497673357
450210.0,9702.0,450210.0,13524.0,450210.0,28337.0,-280.92659737661506,-445.9341419125542,-681.0893606807175
450220.0,9701.0,450220.0,13529.0,450220.0,28334.0,-286.18952320370283,-449.61386365073577,-687.4813533882875
450220.0,9706.0,450220.0,13525.0,450220.0,28306.0,-291.41665643105796,-453.2368834636652,-693.7796986579949
450220.0,9661.0,450220.0,13500.0,450220.0,28328.0,-296.60847925271264,-456.80283523332525,-699.9835919781568
450220.0,9647.0,450220.0,13478.0,450220.0,28303.0,-301.765121585939,-460.3108238330375,-706.0922076548018
450220.0,9657.0,450220.0,13493.0,450220.0,28301.0,-306.88672381466426,-463.7597407147117,-712.1046015636124
450220.0,9656.0,450220.0,13483.0,450220.0,28294.0,-311.97364493071757,-467.1484843873236,-718.0196577015242
450230.0,9653.0,450230.0,13500.0,450230.0,28286.0,-317.0263238155575,-470.47589963980545,-723.8360805958516
450230.0,9646.0,450230.0,13472.0,450230.0,28273.0,-322.0450425710335,-473.7405893480278,-729.5523789698459
450230.0,9629.0,450230.0,13446.0,450230.0,28245.0,-327.0298084273934,-476.9408882973846,-735.1669297525823
450230.0,9619.0,450230.0,13451.0,450230.0,28227.0,-331.9803906503871,-480.0751387037259,-740.6782256917278
450230.0,9606.0,450230.0,13444.0,450230.0,28241.0,-336.89646590372877,-483.1420266628073,-746.0852054353486
450230.0,9619.0,450230.0,13464.0,450230.0,28242.0,-341.777740533729,-486.1406618566198,-751.3873645967609
450241.0,9620.0,450241.0,13447.0,450241.0,28229.0,-346.6238878905623,-489.07040663032967,-756.5845648657412
450241.0,9591.0,450241.0,13443.0,450241.0,28233.0,-351.4343391494176,-491.9306871987163,-761.6768042694445
450241.0,9569.0,450241.0,13429.0,450241.0,28202.0,-356.20824536912664,-494.7209772353359,-766.6641347742373
450241.0,9571.0,450241.0,13426.0,450241.0,28194.0,-360.94474437403824,-497.44092958014517,-771.5467535404551
450241.0,9571.0,450241.0,13437.0,450241.0,28214.0,-365.6432208342086,-500.0904840670529,-776.3251706914531
450241.0,9584.0,450241.0,13439.0,450241.0,28205.0,-370.30327018026946,-502.6698037518727,-781.0001824139642
450251.0,9558.0,450251.0,13431.0,450251.0,28204.0,-374.9244533949569,-505.17906787677384,-785.5726109255239
450251.0,9546.0,450251.0,13414.0,450251.0,28166.0,-379.50615030343647,-507.6183401305325,-790.0431371058208
450251.0,9547.0,450251.0,13414.0,450251.0,28187.0,-384.04764696931,-509.9876437428301,-794.4123977851805
450251.0,9534.0,450251.0,13401.0,450251.0,28155.0,-388.54826698903105,-512.287136154291,-798.6811594640602
450251.0,9539.0,450251.0,13406.0,450251.0,28152.0,-393.00738885897874,-514.5172416005893,-802.8504328543581
450251.0,9539.0,450251.0,13411.0,450251.0,28162.0,-397.4243656285563,-516.6786788697822,-806.9215707154661
450261.0,9518.0,450261.0,13427.0,450261.0,28160.0,-401.7983974554304,-518.7723214849552,-810.8962457440871
450261.0,9501.0,450261.0,13390.0,450261.0,28123.0,-406.128510889411,-520.7989590982304,-814.7763145473782
450261.0,9501.0,450261.0,13355.0,450261.0,28121.0,-410.41373193256675,-522.7593162445444,-818.563879299713
450261.0,9485.0,450261.0,13372.0,450261.0,28145.0,-414.6532869625946,-524.6545065162848,-822.2615126209365
450261.0,9484.0,450261.0,13387.0,450261.0,28130.0,-418.8467081038824,-526.4864546535418,-825.8722368181525
450261.0,9502.0,450261.0,13379.0,450261.0,28139.0,-422.99382890566835,-528.2578433170188,-829.399245267726
450272.0,9478.0,450272.0,13386.0,450272.0,28116.0,-427.09462582301694,-529.9718172090335,-832.8456896383776
450272.0,9469.0,450272.0,13362.0,450272.0,28097.0,-431.14905121717106,-531.6318208702662,-836.2146927298475
450272.0,9455.0,450272.0,13364.0,450272.0,28107.0,-435.15708251171236,-533.2416449310354,-839.5095463523103
450272.0,9464.0,450272.0,13368.0,450272.0,28097.0,-439.11888632207047,-534.8055613071556,-842.7338796315136
450272.0,9461.0,450272.0,13399.0,450272.0,28102.0,-443.0348466190877,-536.3282942534502,-845.8916418066492
450272.0,9457.0,450272.0,13393.0,450272.0,28088.0,-446.90542454342676,-537.8146773838256,-848.9870046379025
450282.0,9426.0,450282.0,13361.0,450282.0,28086.0,-450.73105223282994,-539.2692676875603,-852.0243178634015
450282.0,9435.0,450282.0,13350.0,450282.0,28064.0,-454.5122286182128,-540.6963555359321,-855.0081600702857
450282.0,9423.0,450282.0,13361.0,450282.0,28066.0,-458.2496957526416,-542.1003219633303,-857.9434828162033
450282.0,9434.0,450282.0,13397.0,450282.0,28082.0,-461.94447507231746,-543.4857987027278,-860.8357183347698
450282.0,9421.0,450282.0,13355.0,450282.0,28083.0,-465.5977534481824,-544.8574001295426,-863.6906523415498
450282.0,9404.0,450282.0,13364.0,450282.0,28067.0,-469.2107829186199,-546.2194600414637,-866.51413057388
450292.0,9415.0,450292.0,13367.0,450292.0,28050.0,-472.78490537180323,-547.5760685904058,-869.311926723099
450292.0,9402.0,450292.0,13347.0,450292.0,28072.0,-476.3215969059388,-548.9311663818771,-872.0898403792278
450292.0,9383.0,450292.0,13351.0,450292.0,28053.0,-479.82246099519193,-550.2885944232683,-874.8537435059615
450292.0,9398.0,450292.0,13361.0,450292.0,28063.0,-483.2892756478758,-551.6521625279772,-877.609470026025
450292.0,9401.0,450292.0,13354.0,450292.0,28051.0,-486.72400141546643,-553.0256105808312,-880.3627001073415
450292.0,9397.0,450292.0,13357.0,450292.0,28041.0,-490.12858627635194,-554.412466590014,-883.1189199121656
450303.0,9363.0,450303.0,13332.0,450303.0,28038.0,-493.50477172962655,-555.8159896115646,-885.883466745483
450303.0,9357.0,450303.0,13319.0,450303.0,28012.0,-496.8541995485648,-557.2393188557845,-888.6616594252093
450303.0,9361.0,450303.0,13348.0,450303.0,28028.0,-500.1787179520687,-558.6857337540055,-891.458973226138
450303.0,9362.0,450303.0,13338.0,450303.0,28040.0,-503.4805309656382,-560.1587132299154,-894.2811013745686
450303.0,9370.0,450303.0,13345.0,450303.0,28024.0,-506.7620715126046,-561.6617252627807,-897.1337673280309
450303.0,9363.0,450303.0,13333.0,450303.0,28001.0,-510.02574792175517,-563.1980259047173,-900.022532527749
450313.0,9334.0,450313.0,13301.0,450313.0,28012.0,-513.2737762670039,-564.7706760847072,-902.9528787133316
450313.0,9339.0,450313.0,13292.0,450313.0,27994.0,-516.5082542903143,-566.3828448998846,-905.9303926042288
450313.0,9334.0,450313.0,13328.0,450313.0,27998.0,-519.7313554141484,-568.0381969199566,-908.9608402792663
450313.0,9327.0,450313.0,13330.0,450313.0,28003.0,-522.9454039766927,-569.7409040155069,-912.0501513098011
450313.0,9334.0,450313.0,13323.0,450313.0,27996.0,-526.1528295958616,-571.495257307028,-915.2043165079655
450313.0,9317.0,450313.0,13305.0,450313.0,27977.0,-529.356093679262,-573.3053749134084,-918.4292739772645
450323.0,9316.0,450323.0,13305.0,450323.0,27971.0,-532.5576446674858,-575.1752542812856,-921.7309573122265
450323.0,9308.0,450323.0,13289.0,450323.0,27975.0,-535.7599403834743,-577.1089848042044,-925.1154571857074
450323.0,9315.0,450323.0,13285.0,450323.0,27976.0,-538.965468603497,-579.1109526313749,-928.5890694746165
450323.0,9309.0,450323.0,13314.0,450323.0,27970.0,-542.1766767281321,-581.185950511167,-932.158177110139
450323.0,9306.0,450323.0,13307.0,450323.0,27964.0,-545.3958428542126,-583.3390387240656,-935.829115204835
450323.0,9287.0,450323.0,13295.0,450323.0,27955.0,-548.6250055465067,-585.575239924008,-939.6081285323119
450334.0,9259.0,450334.0,13253.0,450334.0,27939.0,-551.8660797309049,-587.8994785409311,-943.5014272263529
450334.0,9271.0,450334.0,13269.0,450334.0,27937.0,-555.1211606660229,-590.3169285027614,-947.5153182357553
450334.0,9289.0,450334.0,13302.0,450334.0,27929.0,-558.3927245140417,-592.833331991784,-951.6563415021615
450334.0,9279.0,450334.0,13308.0,450334.0,27961.0,-561.6834562881642,-595.4547811130412,-955.9312629241645
450334.0,9274.0,450334.0,13315.0,450334.0,27923.0,-564.9959155654794,-598.1870978803162,-960.3468550900918
450334.0,9262.0,450334.0,13275.0,450334.0,27916.0,-568.3323859378585,-601.0353708744465,-964.9097124557535
450344.0,9247.0,450344.0,13260.0,450344.0,27913.0,-571.6949405007089,-604.0039903985585,-969.6263415713483
450344.0,9236.0,450344.0,13265.0,450344.0,27925.0,-575.0856241439384,-607.0970544713488,-974.5032934165981
450344.0,9250.0,450344.0,13286.0,450344.0,27912.0,-578.506635201216,-610.3186517258523,-979.5470624073555
450344.0,9244.0,450344.0,13279.0,450344.0,27913.0,-581.9603343743928,-613.6727175205433,-984.763877332667
450344.0,9230.0,450344.0,13282.0,450344.0,27903.0,-585.4491010996308,-617.1626857398062,-990.1595701956564
450344.0,9222.0,450344.0,13253.0,450344.0,27900.0,-588.9752740551846,-620.7912903096905,-995.7395166873179
450355.0,9206.0,450355.0,13241.0,450355.0,27882.0,-592.5412668021752,-624.5606600034962,-1001.508615725695
450355.0,9219.0,450355.0,13241.0,450355.0,27884.0,-596.1497208696809,-628.4726113326826,-1007.4713200283769
450355.0,9229.0,450355.0,13262.0,450355.0,27897.0,-599.8034938338437,-632.52882982234,-1013.6316244685007
450355.0,9216.0,450355.0,13261.0,450355.0,27886.0,-603.5054175478458,-636.7307028357534,-1019.9928724340651
450355.0,9212.0,450355.0,13241.0,450355.0,27880.0,-607.2580409473425,-641.07897793407,-1026.5574751778713
450355.0,9205.0,450355.0,13227.0,450355.0,27857.0,-611.0635495962276,-645.5736312348564,-1033.3267808270311
450365.0,9196.0,450365.0,13219.0,450365.0,27853.0,-614.9237951098706,-650.2140368134662,-1040.3011476152994
450365.0,9179.0,450365.0,13224.0,450365.0,27844.0,-618.8403655792438,-654.9991821580826,-1047.4800816572379
450365.0,9192.0,450365.0,13223.0,450365.0,27853.0,-622.8146888405212,-659.9277030397488,-1054.8622692584008
450365.0,9189.0,450365.0,13224.0,450365.0,27835.0,-626.8480430679614,-664.9977398526833,-1062.4454531836464
450365.0,9171.0,450365.0,13209.0,450365.0,27833.0,-630.9414301226437,-670.2067611772745,-1070.2262723256913
450365.0,9158.0,450365.0,13187.0,450365.0,27812.0,-635.0955261307301,-675.5515246192019,-1078.200196389355
450375.0,9148.0,450375.0,13197.0,450375.0,27803.0,-639.3108347295473,-681.0282154805408,-1086.3615718900046
450375.0,9155.0,450375.0,13222.0,450375.0,27816.0,-643.5878729664936,-686.6325023070921,-1094.703676402266
450375.0,9166.0,450375.0,13198.0,450375.0,27791.0,-647.9271631769324,-692.3592665893141,-1103.2186416044292
450375.0,9157.0,450375.0,13208.0,450375.0,27791.0,-652.3289903507659,-698.202229367975,-1111.8973020001774
450375.0,9121.0,450375.0,13167.0,450375.0,27772.0,-656.7931819852447,-704.15381085015,-1120.7291334934416
450375.0,9138.0,450375.0,13161.0,450375.0,27764.0,-661.3191735000398,-710.2052819276214,-1129.7022780655884
450386.0,9131.0,450386.0,13165.0,450386.0,27763.0,-665.9061730386129,-716.3470520145133,-1138.8035658509798
450386.0,9127.0,450386.0,13190.0,450386.0,27743.0,-670.553128187255,-722.5687494516002,-1148.018484400613
450386.0,9127.0,450386.0,13172.0,450386.0,27747.0,-675.2585755862833,-728.8589146758777,-1157.3311137725636
450386.0,9098.0,450386.0,13167.0,450386.0,27709.0,-680.02056572178,-735.2046060032175,-1166.7241007721814
450386.0,9095.0,450386.0,13135.0,450386.0,27705.0,-684.8367438947373,-741.5912846907474,-1176.178749756928
450386.0,9088.0,450386.0,13106.0,450386.0,27696.0,-689.704540884238,-748.0030586231137,-1185.6752002093535
450396.0,9082.0,450396.0,13130.0,450396.0,27695.0,-694.6213033867884,-754.4231029550143,-1195.192505498112
450396.0,9088.0,450396.0,13129.0,450396.0,27699.0,-699.5842874121074,-760.8338575232779,-1204.7085062109916
450396.0,9074.0,450396.0,13127.0,450396.0,27691.0,-704.590561266534,-767.2168153880972,-1214.199561473211
450396.0,9074.0,450396.0,13109.0,450396.0,27674.0,-709.6368951150697,-773.5522207956301,-1223.6402806302501
450396.0,9058.0,450396.0,13092.0,450396.0,27651.0,-714.7197120956823,-779.819002980956,-1233.0034301016801
450396.0,9055.0,450396.0,13077.0,450396.0,27638.0,-719.8351091859047,-785.994952521898,-1242.260066820265
450406.0,9053.0,450406.0,13085.0,450406.0,27638.0,-724.9788912732665,-792.056956764776,-1251.379737237629
450406.0,9057.0,450406.0,13097.0,450406.0,27625.0,-730.1465274885547,-797.981044096681,-1260.3305465293233
450406.0,9044.0,450406.0,13081.0,450406.0,27631.0,-735.3330076773998,-803.7421588861099,-1269.0790726738146
450406.0,9035.0,450406.0,13068.0,450406.0,27624.0,-740.5327205811395,-809.3139228568615,-1277.5901911959259
450406.0,9027.0,450406.0,13046.0,450406.0,27597.0,-745.7394530522338,-814.6686569087385,-1285.8269007004394
450406.0,9010.0,450406.0,13031.0,450406.0,27595.0,-750.9464760826454,-819.7776500713337,-1293.7502980640575
450417.0,9023.0,450417.0,13059.0,450417.0,27594.0,-756.1466328489894,-824.6114336367456,-1301.3196680551673
450417.0,9016.0,450417.0,13055.0,450417.0,27585.0,-761.3323176867887,-829.1397618866743,-1308.4924761483237
450417.0,9007.0,450417.0,13044.0,450417.0,27567.0,-766.4953280120524,-833.3313145326151,-1315.2242820390766
450417.0,9000.0,450417.0,13025.0,450417.0,27556.0,-771.6267472872414,-837.1535083789031,-1321.4687634396346
450417.0,8993.0,450417.0,13006.0,450417.0,27549.0,-776.7169382229123,-840.5726418313633,-1327.1778617098435
450417.0,8992.0,450417.0,13007.0,450417.0,27544.0,-781.7555574603346,-843.5542296195001,-1332.3019111827527
450427.0,8996.0,450427.0,13027.0,450427.0,27519.0,-786.7315009796405,-846.063229308078,-1336.7897233805709
450427.0,8978.0,450427.0,13022.0,450427.0,27552.0,-791.6327785448689,-848.0639522677179,-1340.5886641516017
450427.0,8976.0,450427.0,12996.0,450427.0,27528.0,-796.446426826763,-849.5198423719268,-1343.6446161015429
450427.0,8956.0,450427.0,13002.0,450427.0,27499.0,-801.1585465877836,-850.3934858206642,-1345.9018887321427
450427.0,8947.0,450427.0,12977.0,450427.0,27471.0,-805.7544400631703,-850.646861366698,-1347.303454446819
450427.0,8946.0,450427.0,13007.0,450427.0,27493.0,-810.2187801792422,-850.2415812108743,-1347.791506148439
450437.0,8949.0,450437.0,12996.0,450437.0,27497.0,-814.5356906589245,-849.1389497529142,-1347.307818171901
450437.0,8935.0,450437.0,12990.0,450437.0,27482.0,-818.6886828686687,-847.2998839353606,-1345.7937161149744
450437.0,8934.0,450437.0,12978.0,450437.0,27463.0,-822.6605733667764,-844.6849433245297,-1343.190052072126
450437.0,8927.0,450437.0,12966.0,450437.0,27431.0,-826.4334717302969,-841.2545926134103,-1339.4375473873808
450437.0,8921.0,450437.0,12921.0,450437.0,27443.0,-829.9887926709046,-836.9696715088994,-1334.477425908059
450437.0,8906.0,450437.0,12956.0,450437.0,27449.0,-833.3072869466499,-831.7920348232178,-1328.2519693073552
450448.0,8918.0,450448.0,12963.0,450448.0,27444.0,-836.3691078593943,-825.685042255921,-1320.704761616772
450448.0,8919.0,450448.0,12962.0,450448.0,27438.0,-839.1538026552689,-818.6136157728306,-1311.7808089867476
450448.0,8906.0,450448.0,12934.0,450448.0,27427.0,-841.6401728060816,-810.544205747048,-1301.4268137439349
450448.0,8892.0,450448.0,12916.0,450448.0,27416.0,-843.8061920393101,-801.4451486372916,-1289.5916470153752
450448.0,8892.0,450448.0,12945.0,450448.0,27406.0,-845.6291183912901,-791.2873302622959,-1276.2269568753613
450448.0,8893.0,450448.0,12967.0,450448.0,27425.0,-847.0856492159019,-780.0446295203335,-1261.2878003293874
450458.0,8891.0,450458.0,12943.0,450458.0,27447.0,-848.1519519138784,-767.6939492112367,-1244.7330821266492
450458.0,8894.0,450458.0,12970.0,450458.0,27421.0,-848.8035974435245,-754.215235496757,-1226.525757323742
450458.0,8886.0,450458.0,12948.0,450458.0,27428.0,-849.015488450819,-739.5917397070598,-1206.6331348575466
450458.0,8868.0,450458.0,12973.0,450458.0,27407.0,-848.7618718525082,-723.8103855238062,-1185.0275241384727
450458.0,8866.0,450458.0,12963.0,450458.0,27455.0,-848.016513583831,-706.8621388645529,-1161.6870051241358
450458.0,8836.0,450458.0,12998.0,450458.0,27465.0,-846.7530161033276,-688.7423302904472,-1136.5959422971525
450468.0,8872.0,450468.0,13032.0,450468.0,27502.0,-844.9451540278285,-669.4507966571582,-1109.7451299167533
450468.0,8860.0,450468.0,13030.0,450468.0,27504.0,-842.5670203037978,-648.9917834676993,-1081.1318058168727
450468.0,8840.0,450468.0,13023.0,450468.0,27507.0,-839.5929878075849,-627.373905415313,-1050.759843670803
450468.0,8844.0,450468.0,13035.0,450468.0,27550.0,-835.9978110048291,-604.6105009114185,-1018.6401966574454
450468.0,8838.0,450468.0,13070.0,450468.0,27594.0,-831.7569251590737,-580.720177940472,-984.7912888363493
450468.0,8863.0,450468.0,13112.0,450468.0,27633.0,-826.8466545108058,-555.7270792750969,-949.2390422156346
450479.0,8866.0,450479.0,13150.0,450479.0,27668.0,-821.2441784393028,-529.6607126400535,-912.0166704517367
450479.0,8845.0,450479.0,13154.0,450479.0,27711.0,-814.9274020791969,-502.55560812435544,-873.1645155874046
450479.0,8838.0,450479.0,13197.0,450479.0,27735.0,-807.8750518759033,-474.4511519890645,-832.729999603755
450479.0,8842.0,450479.0,13216.0,450479.0,27775.0,-800.0670655977478,-445.39161801290606,-790.7676955469328
450479.0,8853.0,450479.0,13268.0,450479.0,27853.0,-791.4849719060205,-415.4261684418288,-747.3394175263622
450479.0,8871.0,450479.0,13320.0,450479.0,27892.0,-782.1120253747947,-384.6086632330673,-702.514074848137
450489.0,8864.0,450489.0,13367.0,450489.0,27953.0,-771.9331582653581,-352.9972233853246,-656.367292326601
450489.0,8863.0,450489.0,13358.0,450489.0,27995.0,-760.9349843456695,-320.6537570799341,-608.9810697676446
450489.0,8862.0,450489.0,13418.0,450489.0,28073.0,-749.1060130893194,-287.6438191168202,-560.4435368627029
450489.0,8884.0,450489.0,13456.0,450489.0,28136.0,-736.4369593306242,-254.036700454318,-510.8486187036887
450489.0,8869.0,450489.0,13536.0,450489.0,28219.0,-722.9209706547207,-219.90525801290005,-460.29549169078155
450489.0,8917.0,450489.0,13591.0,450489.0,28312.0,-708.5537626987519,-185.32529631775446,-408.887820724024
450499.0,8913.0,450499.0,13644.0,450499.0,28342.0,-693.3336403207545,-150.37470099799737,-356.73287970717274
450499.0,8927.0,450499.0,13674.0,450499.0,28425.0,-677.2614189381153,-115.1326576333393,-303.9408495003005
450499.0,8930.0,450499.0,13721.0,450499.0,28493.0,-660.340446435932,-79.67917604273418,-250.62438496781192
450499.0,8943.0,450499.0,13783.0,450499.0,28586.0,-642.5767964456618,-44.094802104184396,-196.898119715779
450499.0,8974.0,450499.0,13861.0,450499.0,28672.0,-623.9794649125964,-8.460166439137083,-142.87788024246186
450499.0,8992.0,450499.0,13910.0,450499.0,28735.0,-604.5604058297799,27.144806681268733,-88.67972721970648
450510.0,8985.0,450510.0,13934.0,450510.0,28793.0,-584.3344726261191,62.641753538518174,-34.419115625445556
450510.0,9029.0,450510.0,13950.0,450510.0,28861.0,-563.3194773087932,97.95431528501524,19.78963372328326
450510.0,9045.0,450510.0,13995.0,450510.0,28924.0,-541.5362919983181,133.00807372684153,73.83367032326714
450510.0,9063.0,450510.0,14044.0,450510.0,28993.0,-519.0088081181848,167.7303776939383,127.60195782487654
450510.0,9091.0,450510.0,14110.0,450510.0,29048.0,-495.7638618411377,202.05048132020772,180.9856534971683
450510.0,9121.0,450510.0,14160.0,450510.0,29133.0,-471.83119787024225,235.90006539315198,233.87849655732487
450520.0,9135.0,450520.0,14179.0,450520.0,29182.0,-447.243391759137,269.2138769300386,286.1772473383736
450520.0,9165.0,450520.0,14211.0,450520.0,29242.0,-422.03578242308345,301.9301107533097,337.78213621275165
450520.0,9182.0,450520.0,14237.0,450520.0,29306.0,-396.24648056643844,333.9904299428729,388.5972062141816
450520.0,9219.0,450520.0,14287.0,450520.0,29369.0,-369.9163931918737,365.3398801325501,438.5306112757976
450520.0,9255.0,450520.0,14331.0,450520.0,29427.0,-343.0891678399611,395.9269767917656,487.4949865194569
450520.0,9290.0,450520.0,14348.0,450520.0,29466.0,-315.8109945214414,425.7039814398495,535.4078105977715
450530.0,9308.0,450530.0,14369.0,450530.0,29518.0,-288.1303428535477,454.6271013300983,582.191611139504
450530.0,9339.0,450530.0,14367.0,450530.0,29553.0,-260.09780492079193,482.65637332878225,627.7740018063871
450530.0,9373.0,450530.0,14418.0,450530.0,29604.0,-231.7660564563131,509.75531436048936,672.0876445413189
450530.0,9415.0,450530.0,14453.0,450530.0,29650.0,-203.18977078319307,535.8906958945795,715.0702304242723
450530.0,9461.0,450530.0,14491.0,450530.0,29719.0,-174.4253623863342,561.0326905527761,756.664590601873
450530.0,9507.0,450530.0,14507.0,450530.0,29734.0,-145.53055834564026,585.1552178763047,796.8189615723834
450541.0,9530.0,450541.0,14519.0,450541.0,29784.0,-116.56390306400203,608.236150233801,835.4872002602062
450541.0,9570.0,450541.0,14537.0,450541.0,29807.0,-87.58437048800852,630.2572562685182,872.6287947326589
450541.0,9604.0,450541.0,14558.0,450541.0,29845.0,-58.65112442669738,651.2040121223854,908.2087691956704
450541.0,9668.0,450541.0,14589.0,450541.0,29893.0,-29.823246973676078,671.065487451189,942.1976262460146
450541.0,9701.0,450541.0,14612.0,450541.0,29930.0,-1.1592671745365806,689.8344078913042,974.5714327510773
450541.0,9737.0,450541.0,14625.0,450541.0,29950.0,27.283418878638827,707.5073255280347,1005.3120219829802
450551.0,9777.0,450551.0,14607.0,450551.0,29973.0,55.449019854560106,724.0846709466055,1034.407094223665
450551.0,9811.0,450551.0,14631.0,450551.0,29983.0,83.28369450875721,739.5705088937386,1061.8500929864867
450551.0,9827.0,450551.0,14637.0,450551.0,30025.0,110.73583101971678,753.9721594390676,1087.6399705867307
450551.0,9880.0,450551.0,14656.0,450551.0,30042.0,137.75623172157714,767.2999739033562,1111.7810476759269
450551.0,9908.0,450551.0,14692.0,450551.0,30066.0,164.29830001869016,779.5673442475052,1134.2830274918722
450551.0,9946.0,450551.0,14652.0,450551.0,30088.0,190.31835047360687,790.7908282150192,1155.1610452903885
450562.0,9966.0,450562.0,14682.0,450562.0,30068.0,215.77593834280697,800.9901105240722,1174.4356170602425
450562.0,9969.0,450562.0,14646.0,450562.0,30073.0,240.6340197442721,810.187672083076,1192.132333234988
450562.0,10025.0,450562.0,14687.0,450562.0,30092.0,264.8589113877323,818.408383136725,1208.2813230549746
450562.0,10050.0,450562.0,14679.0,450562.0,30124.0,288.4203040336738,825.6792644919549,1222.9168692201367
450562.0,10068.0,450562.0,14706.0,450562.0,30090.0,311.291500765636,832.0294969731262,1236.0773317411197
450562.0,10081.0,450562.0,14669.0,450562.0,30099.0,333.4496280934758,837.4905102666019,1247.8049953804577
450572.0,10077.0,450572.0,14656.0,450572.0,30085.0,354.87556576497354,842.0958162998711,1258.1455986276796
450572.0,10104.0,450572.0,14644.0,450572.0,30088.0,375.5536445994453,845.8804748391017,1267.1477715293945
450572.0,10127.0,450572.0,14675.0,450572.0,30087.0,395.471349743597,848.8805261658638,1274.8625832767796
450572.0,10147.0,450572.0,14665.0,450572.0,30108.0,414.61923830615603,851.1327924262982,1281.3432526271026
450572.0,10154.0,450572.0,14666.0,450572.0,30095.0,432.9909989274778,852.6749736381075,1286.6450518936183
450572.0,10173.0,450572.0,14639.0,450572.0,30068.0,450.583449197734,853.545652660159,1290.8252166051568
450582.0,10154.0,450582.0,14637.0,450582.0,30041.0,467.3963881591869,853.7840358914439,1293.9425372822288
450582.0,10200.0,450582.0,14634.0,450582.0,30052.0,483.4323323326179,853.4295822579513,1296.0566638658709
450582.0,10201.0,450582.0,14621.0,450582.0,30049.0,498.69632146227036,852.5217236202088,1297.227541840837
450582.0,10211.0,450582.0,14639.0,450582.0,30052.0,513.1959092548166,851.0997198520008,1297.5152128839093
450582.0,10218.0,450582.0,14608.0,450582.0,30030.0,526.9411487239827,849.2026048200989,1296.9797818038394
450582.0,10223.0,450582.0,14610.0,450582.0,30018.0,539.9444504770846,846.869112716797,1295.6812665380482
450593.0,10217.0,450593.0,14583.0,450593.0,29997.0,552.22037231027,844.1374640860568,1293.6792543886124
450593.0,10218.0,450593.0,14592.0,450593.0,29994.0,563.7853275745724,841.0450710055609,1291.0324779141329
450593.0,10250.0,450593.0,14600.0,450593.0,29998.0,574.6572806546674,837.6283605405056,1287.7984947389407
450593.0,10257.0,450593.0,14600.0,450593.0,29975.0,584.855657714901,833.9228548979818,1284.0335564054108
450593.0,10249.0,450593.0,14582.0,450593.0,29968.0,594.4014579690327,829.9633816334101,1279.7925227517744
450593.0,10237.0,450593.0,14558.0,450593.0,29948.0,603.3172187922047,825.7841031306417,1275.1286621495076
450603.0,10239.0,450603.0,14540.0,450603.0,29945.0,611.6266761494093,821.4182326885871,1270.093386422817
450603.0,10253.0,450603.0,14552.0,450603.0,29932.0,619.3543624631225,816.8976324137618,1264.7360340836578
450603.0,10260.0,450603.0,14558.0,450603.0,29945.0,626.5254143604745,812.2526358810613,1259.1037710536164
450603.0,10245.0,450603.0,14541.0,450603.0,29923.0,633.1655490370867,807.5121815548711,1253.2416315638823
450603.0,10245.0,450603.0,14510.0,450603.0,29905.0,639.3009514161508,802.703918029263,1247.192562120081
450603.0,10254.0,450603.0,14502.0,450603.0,29895.0,644.9580186579634,797.8539786184062,1240.997286966085
450613.0,10242.0,450613.0,14507.0,450613.0,29888.0,650.1631412881047,792.9866024929414,1234.6940685381073
450613.0,10240.0,450613.0,14494.0,450613.0,29884.0,654.9425362850793,788.1239455533434,1228.318561943386
450613.0,10251.0,450613.0,14496.0,450613.0,29880.0,659.3220503296928,783.2860924021885,1221.9038067509314
450613.0,10253.0,450613.0,14496.0,450613.0,29867.0,663.3270335579125,778.491118945004,1215.4802800653536
450613.0,10237.0,450613.0,14496.0,450613.0,29862.0,666.9823133401145,773.7552009224485,1209.0759248198858
450613.0,10233.0,450613.0,14472.0,450613.0,29830.0,670.3120750166853,769.0927333850385,1202.716085521471
450624.0,10240.0,450624.0,14449.0,450624.0,29842.0,673.33960831609,764.5162703580046,1196.423338404185
450624.0,10244.0,450624.0,14456.0,450624.0,29821.0,676.0871291436787,760.0362356634595,1190.2173285026313
450624.0,10247.0,450624.0,14481.0,450624.0,29847.0,678.575779200947,755.6607282918814,1184.1147646968757
450624.0,10250.0,450624.0,14466.0,450624.0,29801.0,680.8257035565352,751.3957134029763,1178.1295478105126
450624.0,10234.0,450624.0,14458.0,450624.0,29800.0,682.8560840629565,747.2453639421595,1172.2727964711858
450624.0,10222.0,450624.0,14443.0,450624.0,29787.0,684.6850207119284,743.2121621003619,1166.5526488628116
450634.0,10231.0,450634.0,14452.0,450634.0,29812.0,686.3292623348337,739.2967867896315,1160.9740990486653
450634.0,10247.0,450634.0,14455.0,450634.0,29800.0,687.8040228417627,735.4980703754745,1155.5391347351176
450634.0,10249.0,450634.0,14449.0,450634.0,29808.0,689.1230807846455,731.8131339256598,1150.2470670338762
