c_ts,c_val,d_ts,d_val,e_ts,e_val,c_val_filtered,d_val_filtered,e_val_filtered
172979.0,11378.0,172979.0,8459.0,172979.0,22108.0,-699.8138621913547,-456.5330913276779,-851.3236356896593
172979.0,11412.0,172979.0,8462.0,172979.0,22142.0,-669.0113425485845,-445.44115734954244,-833.7888828736807
172989.0,11457.0,172989.0,8496.0,172989.0,22161.0,-637.1839494120005,-433.96271793581553,-815.5833478126167
172989.0,11514.0,172989.0,8511.0,172989.0,22191.0,-604.3765531382525,-422.115957442016,-796.7342904784392
172989.0,11550.0,172989.0,8521.0,172989.0,22215.0,-570.6365261671742,-409.9199758027507,-777.2703227203058
172989.0,11593.0,172989.0,8539.0,172989.0,22247.0,-536.0134436560163,-397.3946811325983,-757.2213422095506
172989.0,11628.0,172989.0,8572.0,172989.0,22279.0,-500.5589093009811,-384.5607503170833,-736.6184357954385
172989.0,11683.0,172989.0,8587.0,172989.0,22321.0,-464.3264946188144,-371.43949707396325,-715.4937108254419
172999.0,11732.0,172999.0,8605.0,172999.0,22353.0,-427.3716382343223,-358.0526528852872,-693.8800311598136
172999.0,11778.0,172999.0,8623.0,172999.0,22370.0,-389.75143260483367,-344.4222139117652,-671.8107438584902
172999.0,11830.0,172999.0,8627.0,172999.0,22403.0,-351.5243732841989,-330.570403777558,-649.3195513000524
172999.0,11863.0,172999.0,8650.0,172999.0,22444.0,-312.7501639893452,-316.5197312735015,-626.4404952699847
172999.0,11932.0,172999.0,8696.0,172999.0,22479.0,-273.48958569049967,-302.29301880891694,-603.2078495509463
172999.0,11973.0,172999.0,8715.0,172999.0,22504.0,-233.80433672081426,-287.9131883905938,-579.6558976480032
173009.0,12034.0,173009.0,8733.0,173009.0,22537.0,-193.75677919861198,-273.40286914845046,-555.8187625039858
173009.0,12065.0,173009.0,8741.0,173009.0,22570.0,-153.40968487604084,-258.78414136638526,-531.7303356606506
173009.0,12123.0,173009.0,8757.0,173009.0,22602.0,-112.826091719803,-244.0785336610923,-507.42421368919133
173009.0,12167.0,173009.0,8771.0,173009.0,22639.0,-72.06923883165484,-229.30714712087473,-482.933596266295
173009.0,12228.0,173009.0,8809.0,173009.0,22680.0,-31.202462310834335,-214.49073571087087,-458.2911387323172
173009.0,12295.0,173009.0,8843.0,173009.0,22708.0,9.71104106073733,-199.64958238407576,-433.52875198188735
173019.0,12341.0,173019.0,8846.0,173019.0,22741.0,50.6086005537685,-184.8031803432363,-408.67741540881775
173019.0,12389.0,173019.0,8849.0,173019.0,22778.0,91.42847308217756,-169.97002437771272,-383.76706055639124
173019.0,12443.0,173019.0,8881.0,173019.0,22796.0,132.1101018058048,-155.16770389584542,-358.82650018129914
173019.0,12478.0,173019.0,8902.0,173019.0,22839.0,172.59425398387964,-140.41304206231575,-333.8833997331968
173019.0,12532.0,173019.0,8920.0,173019.0,22880.0,212.8230946844833,-125.72203964454013,-308.96423971871104
173019.0,12598.0,173019.0,8952.0,173019.0,22902.0,252.74026707921257,-111.1097120636573,-284.09417495816456
173030.0,12642.0,173030.0,8954.0,173030.0,22943.0,292.29112286025713,-96.58993852966563,-259.29686879802966
173030.0,12667.0,173030.0,8963.0,173030.0,22960.0,331.4230074698405,-82.17541384003016,-234.59441681213877
173030.0,12716.0,173030.0,8972.0,173030.0,22981.0,370.08532061866026,-67.87779750369913,-210.00738148125924
173030.0,12772.0,173030.0,9002.0,173030.0,23015.0,408.22941451497206,-53.70794644607952,-185.55494117598562
173030.0,12822.0,173030.0,9042.0,173030.0,23063.0,445.80864512493406,-39.67595771023127,-161.25500908572326
173030.0,12870.0,173030.0,9042.0,173030.0,23086.0,482.7786286376697,-25.790937826639038,-137.12414337854193
173040.0,12901.0,173040.0,9053.0,173040.0,23110.0,519.0974982299979,-12.06077779584814,-113.17736942928184
173040.0,12937.0,173040.0,9062.0,173040.0,23130.0,554.7259946028908,1.507799481955658,-89.42816046812118
173040.0,12972.0,173040.0,9070.0,173040.0,23163.0,589.6273815317829,14.909008633187113,-65.88858020456166
173040.0,13020.0,173040.0,9110.0,173040.0,23188.0,623.7673212741199,28.137816996395145,-42.569421038210635
173040.0,13076.0,173040.0,9125.0,173040.0,23227.0,657.1138891179814,41.18996765723318,-19.480244366842612
173040.0,13098.0,173040.0,9127.0,173040.0,23253.0,689.6377686637863,54.06215585897894,3.370673317206638
173050.0,13135.0,173050.0,9129.0,173050.0,23276.0,721.3124285293691,66.75205941906506,25.97642207525746
173050.0,13171.0,173050.0,9151.0,173050.0,23289.0,752.114123582247,79.25812005280784,48.33144271840558
173050.0,13200.0,173050.0,9165.0,173050.0,23336.0,782.0218247732487,91.57932055473668,70.43139354487448
173050.0,13246.0,173050.0,9184.0,173050.0,23352.0,811.0171957225518,103.71512990987776,92.27306575075579
173050.0,13268.0,173050.0,9212.0,173050.0,23380.0,839.0846248403718,115.66557792200229,113.85440634980228
173050.0,13299.0,173050.0,9219.0,173050.0,23401.0,866.2112589417106,127.43140271468565,135.17451110025831
173061.0,13321.0,173061.0,9207.0,173061.0,23423.0,892.3869538706397,139.0141294460734,156.23353489539386
173061.0,13347.0,173061.0,9224.0,173061.0,23439.0,917.6041405334772,150.41588796395433,177.03255608135623
173061.0,13362.0,173061.0,9243.0,173061.0,23460.0,941.8576471515648,161.6390928040538,197.57339065853455
173061.0,13396.0,173061.0,9273.0,173061.0,23499.0,965.1444962008763,172.68632342977594,217.85841300436743
173061.0,13435.0,173061.0,9276.0,173061.0,23525.0,987.4637774003354,183.5604653517421,237.89051865618478
173061.0,13441.0,173061.0,9277.0,173061.0,23542.0,1008.8166757775573,194.2648428922496,257.6732189655263
173071.0,13472.0,173071.0,9281.0,173071.0,23555.0,1029.206507116552,204.80311280038802,277.21066111721757
173071.0,13479.0,173071.0,9302.0,173071.0,23584.0,1048.6386170712358,215.17900158722773,296.5074782912544
173071.0,13500.0,173071.0,9327.0,173071.0,23608.0,1067.1201924136624,225.39615967029454,315.56861959607306
173071.0,13530.0,173071.0,9346.0,173071.0,23642.0,1084.660079366602,235.45826780066665,334.3993114097948
173071.0,13534.0,173071.0,9354.0,173071.0,23656.0,1101.2686796259804,245.3692701865408,353.00512771533283
173071.0,13549.0,173071.0,9352.0,173071.0,23663.0,1116.9578630828341,255.1334974205215,371.3920053452098
173081.0,13567.0,173081.0,9349.0,173081.0,23682.0,1131.7407916823395,264.7555374250844,389.566062302311
173081.0,13583.0,173081.0,9363.0,173081.0,23712.0,1145.6317349920032,274.2399149926114,407.5333161111797
173081.0,13598.0,173081.0,9392.0,173081.0,23738.0,1158.6459701515187,283.59082869551605,425.2995387857595
173081.0,13635.0,173081.0,9398.0,173081.0,23758.0,1170.7997697966507,292.81214537423716,442.87029072493647
173081.0,13636.0,173081.0,9416.0,173081.0,23787.0,1182.1105017523332,301.90755493284155,460.2509957428149
173081.0,13634.0,173081.0,9424.0,173081.0,23794.0,1192.5967145021173,310.88068294755533,477.44696801547195
173092.0,13638.0,173092.0,9419.0,173092.0,23819.0,1202.2779771731286,319.73509014065417,494.4633563713247
173092.0,13646.0,173092.0,9450.0,173092.0,23843.0,1211.1745199888626,328.47417277157297,511.30503206809703
173092.0,13673.0,173092.0,9471.0,173092.0,23867.0,1219.3069477669428,337.1011237074457,527.9765332248803
173092.0,13686.0,173092.0,9476.0,173092.0,23883.0,1226.6961958074514,345.61909572622824,544.4820880192071
173092.0,13685.0,173092.0,9485.0,173092.0,23912.0,1233.363644538495,354.0313908875164,560.825633535901
173092.0,13689.0,173092.0,9477.0,173092.0,23922.0,1239.331147375963,362.34144921436587,577.0108078758001
173102.0,13701.0,173102.0,9490.0,173102.0,23950.0,1244.620894208832,370.55264467747884,593.0409234975484
173102.0,13702.0,173102.0,9500.0,173102.0,23968.0,1249.2552595633551,378.66804217832157,608.9189297759995
173102.0,13716.0,173102.0,9533.0,173102.0,23993.0,1253.2567197303276,386.6903056571922,624.6474051503606
173102.0,13725.0,173102.0,9533.0,173102.0,24000.0,1256.6478280183164,394.6218280613258,640.2285605592294
173102.0,13722.0,173102.0,9523.0,173102.0,24033.0,1259.4512312204356,402.46487464635834,655.6641953974661
173102.0,13714.0,173102.0,9548.0,173102.0,24030.0,1261.689621336001,410.22149871387955,670.9556140244829
173112.0,13724.0,173112.0,9546.0,173112.0,24059.0,1263.3855428945355,417.89334709096465,686.1035047965868
173112.0,13736.0,173112.0,9564.0,173112.0,24075.0,1264.5612008614637,425.48156778033876,701.1077937309794
173112.0,13730.0,173112.0,9577.0,173112.0,24113.0,1265.2384201806394,432.98680759023216,715.9675921856951
173112.0,13745.0,173112.0,9594.0,173112.0,24128.0,1265.438679338885,440.4092754254294,730.6813093939152
173112.0,13731.0,173112.0,9595.0,173112.0,24132.0,1265.1831059457656,447.74885503096345,745.2467882260712
173112.0,13740.0,173112.0,9600.0,173112.0,24155.0,1264.4924134002633,455.0051477844305,759.661267935338
173123.0,13735.0,173123.0,9614.0,173123.0,24174.0,1263.3867921312153,462.1773969741199,773.9212225314564
173123.0,13746.0,173123.0,9639.0,173123.0,24215.0,1261.885821528768,469.26443726301966,788.0223116535628
173123.0,13747.0,173123.0,9655.0,173123.0,24227.0,1260.0084626295,476.26482721587286,801.9595391766618
173123.0,13740.0,173123.0,9654.0,173123.0,24244.0,1257.773094498555,483.17709207446217,815.7274658935733
173123.0,13750.0,173123.0,9654.0,173123.0,24264.0,1255.1975127498413,489.99983195874177,829.320292279152
173123.0,13725.0,173123.0,9654.0,173123.0,24288.0,1252.2988612811325,496.73158423899656,842.731849967211
173133.0,13736.0,173133.0,9668.0,173133.0,24308.0,1249.0934865340257,503.3705736939146,855.9556417689607
173133.0,13742.0,173133.0,9699.0,173133.0,24323.0,1245.5967805118728,509.91458728208806,868.9849284135996
173133.0,13750.0,173133.0,9706.0,173133.0,24356.0,1241.823186070861,516.3611132248463,881.8128075852521
173133.0,13742.0,173133.0,9713.0,173133.0,24358.0,1237.7863558944782,522.7076088844676,894.4322976206017
173133.0,13743.0,173133.0,9715.0,173133.0,24374.0,1233.4992663615608,528.9516364598936,906.836375501967
173133.0,13735.0,173133.0,9703.0,173133.0,24386.0,1228.9742069429642,535.0907734923669,919.0178864044483
173143.0,13755.0,173143.0,9727.0,173143.0,24407.0,1224.2227458952498,541.1223771886547,930.969401931869
173143.0,13740.0,173143.0,9745.0,173143.0,24444.0,1219.2557912557559,547.0434212066914,942.6831932241244
173143.0,13757.0,173143.0,9771.0,173143.0,24467.0,1214.083726529587,552.8506174834121,954.1514183433394
173143.0,13748.0,173143.0,9750.0,173143.0,24464.0,1208.7165438155005,558.5407017812597,965.3664108635751
173143.0,13734.0,173143.0,9756.0,173143.0,24472.0,1203.1639254664715,564.1105187911884,976.3207663627636
173143.0,13734.0,173143.0,9772.0,173143.0,24501.0,1197.4351930148914,569.5568320221186,987.0071724284569
173154.0,13750.0,173154.0,9791.0,173154.0,24520.0,1191.5392019770643,574.8761884482378,997.4182920513344
173154.0,13740.0,173154.0,9798.0,173154.0,24544.0,1185.484396752287,580.0650322992352,1007.5468767120838
173154.0,13739.0,173154.0,9806.0,173154.0,24555.0,1179.278976762753,585.1199001385507,1017.3859738138119
173154.0,13735.0,173154.0,9804.0,173154.0,24570.0,1172.9309772617064,590.0375071159772,1026.9290688235803
173154.0,13729.0,173154.0,9822.0,173154.0,24587.0,1166.4482584745695,594.8147184367551,1036.17013604216
173154.0,13725.0,173154.0,9814.0,173154.0,24588.0,1159.8384716215853,599.4484972229795,1045.103636667141
173164.0,13729.0,173164.0,9836.0,173164.0,24616.0,1153.1090319260898,603.9358713699013,1053.724482562228
173164.0,13738.0,173164.0,9854.0,173164.0,24643.0,1146.2671732406282,608.2739660435121,1062.0280569838253
173164.0,13735.0,173164.0,9860.0,173164.0,24640.0,1139.3201326212384,612.4601788181465,1070.0103794528645
173164.0,13731.0,173164.0,9854.0,173164.0,24647.0,1132.2753695009949,616.4923801719316,1077.6682327897618
173164.0,13720.0,173164.0,9853.0,173164.0,24661.0,1125.1406775679893,620.3689147922511,1084.999078405071
173164.0,13707.0,173164.0,9862.0,173164.0,24676.0,1117.92414053784,624.0884179283383,1092.0009178044957
173174.0,13719.0,173174.0,9882.0,173174.0,24699.0,1110.6340084719438,627.6496795756888,1098.6722946723075
173174.0,13712.0,173174.0,9890.0,173174.0,24705.0,1103.2786583038705,631.0517164133718,1105.0124274834716
173174.0,13699.0,173174.0,9893.0,173174.0,24711.0,1095.8666646176225,634.2939665389131,1111.0213350817082
173174.0,13687.0,173174.0,9869.0,173174.0,24718.0,1088.4067942266893,637.3763581160073,1116.6998358522144
173174.0,13691.0,173174.0,9886.0,173174.0,24723.0,1080.9078676146132,640.2991123187294,1122.0494407294652
173174.0,13689.0,173174.0,9901.0,173174.0,24737.0,1073.3786650432774,643.0624869975184,1127.0722371569188
173185.0,13703.0,173185.0,9924.0,173185.0,24754.0,1065.8280085873516,645.6667949770172,1131.7708469272482
173185.0,13680.0,173185.0,9932.0,173185.0,24772.0,1058.2649591000404,648.1127151924233,1136.1485165273489
173185.0,13677.0,173185.0,9916.0,173185.0,24762.0,1050.6989335474468,650.4016032141544,1140.2092751469788
173185.0,13669.0,173185.0,9921.0,173185.0,24771.0,1043.1396432565487,652.5355340069187,1143.9579700188463
173185.0,13651.0,173185.0,9925.0,173185.0,24775.0,1035.596947888554,654.517121401955,1147.4001303938626
173185.0,13655.0,173185.0,9920.0,173185.0,24773.0,1028.0806997041427,656.3493469459045,1150.5417955884166
173195.0,13669.0,173195.0,9933.0,173195.0,24797.0,1020.6006648246453,658.0354668522248,1153.3893939501856
173195.0,13656.0,173195.0,9944.0,173195.0,24805.0,1013.1666466425296,659.578990890727,1155.9497352870565
173195.0,13636.0,173195.0,9930.0,173195.0,24799.0,1005.7886552391988,660.9837432304673,1158.2301125071035
173195.0,13635.0,173195.0,9922.0,173195.0,24810.0,998.4768553625242,662.2538412030892,1160.2383382122862
173195.0,13616.0,173195.0,9930.0,173195.0,24821.0,991.2413472821094,663.393476513741,1161.9826816094196
173195.0,13631.0,173195.0,9942.0,173195.0,24818.0,984.0919886394181,664.4067051891865,1163.4718471488454
173205.0,13622.0,173205.0,9962.0,173205.0,24828.0,977.0383622024127,665.2974829056753,1164.7149845080703
173205.0,13617.0,173205.0,9950.0,173205.0,24822.0,970.089860875372,666.069894973713,1165.7216446457994
173205.0,13612.0,173205.0,9941.0,173205.0,24825.0,963.2557500177985,666.7282995546619,1166.5016775864328
173205.0,13598.0,173205.0,9946.0,173205.0,24821.0,956.5451318913221,667.277211961361,1167.065079725268
173205.0,13607.0,173205.0,9959.0,173205.0,24834.0,949.9668645525,667.7211160857032,1167.4218328383904
173205.0,13586.0,173205.0,9960.0,173205.0,24836.0,943.5295016812622,668.0644497032279,1167.5818214984909
173216.0,13597.0,173216.0,9971.0,173216.0,24854.0,937.2412571074755,668.3117331557268,1167.554869051363
173216.0,13593.0,173216.0,9981.0,173216.0,24850.0,931.1099978075786,668.4677279400295,1167.3508554086172
173216.0,13582.0,173216.0,9955.0,173216.0,24845.0,925.1432893906199,668.5375582731868,1166.9798009881324
173216.0,13572.0,173216.0,9947.0,173216.0,24844.0,919.3483987050628,668.5266254881678,1166.451797085038
173216.0,13575.0,173216.0,9967.0,173216.0,24865.0,913.7321845160945,668.4403029545721,1165.7768612769655
173216.0,13582.0,173216.0,9964.0,173216.0,24860.0,908.301021727257,668.2837391956274,1164.964919911834
173226.0,13574.0,173226.0,9965.0,173226.0,24864.0,903.0608742773115,668.0618985488425,1164.0259011669293
173226.0,13571.0,173226.0,9973.0,173226.0,24866.0,898.0174072253119,667.7796348101673,1162.9697724150592
173226.0,13566.0,173226.0,9956.0,173226.0,24864.0,893.1760062888211,667.4416924682359,1161.8065013409398
173226.0,13553.0,173226.0,9960.0,173226.0,24865.0,888.5417066757334,667.0526212067347,1160.5459910804966
173226.0,13561.0,173226.0,9978.0,173226.0,24867.0,884.1190796058119,666.6166520926168,1159.1979991821588
173226.0,13552.0,173226.0,9982.0,173226.0,24878.0,879.9121451670487,666.1377275577127,1157.7720866179748
173237.0,13555.0,173237.0,9971.0,173237.0,24879.0,875.9243518347259,665.6196789661249,1156.2776511715763
173237.0,13554.0,173237.0,9975.0,173237.0,24873.0,872.1585860969532,665.0663006987052,1154.7239922785259
173237.0,13555.0,173237.0,9955.0,173237.0,24865.0,868.6171979092741,664.4812315872983,1153.1202714275698
173237.0,13539.0,173237.0,9981.0,173237.0,24863.0,865.3020155765402,663.867769048376,1151.4753233026536
173237.0,13548.0,173237.0,9972.0,173237.0,24885.0,862.2142832037202,663.2287857931725,1149.797465104398
173237.0,13557.0,173237.0,9992.0,173237.0,24896.0,859.3545955346183,662.5668178157111,1148.094522329673
173247.0,13558.0,173247.0,9985.0,173247.0,24879.0,856.7229798934509,661.8842324983689,1146.3740464568668
173247.0,13543.0,173247.0,9981.0,173247.0,24872.0,854.3190422369076,661.1833472339797,1144.6434004890993
173247.0,13537.0,173247.0,9974.0,173247.0,24875.0,852.1419486350103,660.4664033725737,1142.9095664043061
173247.0,13547.0,173247.0,9979.0,173247.0,24878.0,850.1902462412274,659.7354176795632,1141.1789070044974
173247.0,13556.0,173247.0,9993.0,173247.0,24896.0,848.4617686497364,658.9920832507141,1139.4571045506868
173247.0,13556.0,173247.0,10006.0,173247.0,24892.0,846.9537430631783,658.2378695748612,1137.7492780035918
173257.0,13558.0,173257.0,9989.0,173257.0,24911.0,845.6629576798668,657.4742549063621,1136.060171429409
173257.0,13542.0,173257.0,9988.0,173257.0,24900.0,844.5858173725967,656.7028338861707,1134.3943223363851
173257.0,13546.0,173257.0,9981.0,173257.0,24894.0,843.7182371693123,655.9251890588193,1132.7561288390643
173257.0,13554.0,173257.0,9994.0,173257.0,24901.0,843.0554788860848,655.1427043221734,1131.1497608634036
173257.0,13571.0,173257.0,10012.0,173257.0,24896.0,842.5921334173247,654.3565469169341,1129.5790164380383
173257.0,13575.0,173257.0,10013.0,173257.0,24901.0,842.3223176424906,653.5678826704024,1128.0472382911726
173268.0,13558.0,173268.0,9987.0,173268.0,24908.0,842.2398999401532,652.778109941035,1126.557284561457
173268.0,13554.0,173268.0,9986.0,173268.0,24897.0,842.3384995091898,651.9888005723471,1125.1115292315176
173268.0,13559.0,173268.0,9986.0,173268.0,24903.0,842.6112617189114,651.2013903099523,1123.7118314814848
173268.0,13564.0,173268.0,9990.0,173268.0,24910.0,843.0506626606964,650.4169363576309,1122.3594617447254
173268.0,13572.0,173268.0,10000.0,173268.0,24913.0,843.6484868087032,649.6360796419065,1121.0550916638658
173268.0,13580.0,173268.0,10006.0,173268.0,24919.0,844.3959233929456,648.8591550881264,1119.7988701676095
173278.0,13579.0,173278.0,9978.0,173278.0,24917.0,845.2836947293882,648.086308226477,1118.5905006505159
173278.0,13582.0,173278.0,9992.0,173278.0,24924.0,846.3021398887856,647.3174299109654,1117.4292767525767
173278.0,13588.0,173278.0,9985.0,173278.0,24912.0,847.4412297181864,646.551955693076,1116.3140706769805
173278.0,13595.0,173278.0,10007.0,173278.0,24918.0,848.6905803091079,645.7887807961748,1115.2432538326955
173278.0,13602.0,173278.0,10013.0,173278.0,24941.0,850.0395218997409,645.026393919328,1114.2146226934221
173278.0,13611.0,173278.0,10007.0,173278.0,24935.0,851.4772134269655,644.2631246715533,1113.2254857524022
173288.0,13602.0,173288.0,9993.0,173288.0,24926.0,852.9927484308976,643.4972760030778,1112.2728226004638
173288.0,13604.0,173288.0,9994.0,173288.0,24933.0,854.5751615936634,642.7270060973233,1111.3532723677226
173288.0,13616.0,173288.0,10008.0,173288.0,24943.0,856.213340311921,641.9501317952968,1110.4630204331345
173288.0,13621.0,173288.0,10020.0,173288.0,24945.0,857.8959934362434,641.1641268150318,1109.5978040963732
173288.0,13624.0,173288.0,10012.0,173288.0,24952.0,859.6117321767001,640.3663269789633,1108.7530231696328
173288.0,13622.0,173288.0,10017.0,173288.0,24953.0,861.349142115545,639.5541118253321,1107.9238382509425
173299.0,13625.0,173299.0,9997.0,173299.0,24952.0,863.0967637216436,638.724908885416,1107.1052183759366
173299.0,13625.0,173299.0,10007.0,173299.0,24953.0,864.8430161383138,637.8760490429189,1106.2919280854953
173299.0,13630.0,173299.0,10013.0,173299.0,24966.0,866.5761233029739,637.0046187676435,1105.4784925226145
173299.0,13652.0,173299.0,10021.0,173299.0,24958.0,868.2841095557648,636.1074732319079,1104.6592135817527
173299.0,13660.0,173299.0,10035.0,173299.0,24982.0,869.9549521363601,635.1814225457904,1103.8282393112133
173299.0,13663.0,173299.0,10024.0,173299.0,24969.0,871.5768525025877,634.2234697874802,1102.9796644908542
173309.0,13658.0,173309.0,10017.0,173309.0,24975.0,873.138430555065,633.2309370078337,1102.1076140038822
173309.0,13657.0,173309.0,10018.0,173309.0,24971.0,874.628724770516,632.2013902608101,1101.2062282440056
173309.0,13672.0,173309.0,10023.0,173309.0,24994.0,876.0370937247932,631.1324973116806,1100.2696195539602
173309.0,13676.0,173309.0,10033.0,173309.0,24974.0,877.3532014938497,630.0220083318002,1099.291919283816
173309.0,13674.0,173309.0,10032.0,173309.0,25005.0,878.5671156077583,628.8678778686071,1098.2673670895454
173309.0,13680.0,173309.0,10012.0,173309.0,25004.0,879.6693802773374,627.6683703123581,1097.1904264701766
173319.0,13672.0,173319.0,10011.0,173319.0,24992.0,880.6510004536713,626.4219667902105,1096.055946964614
173319.0,13673.0,173319.0,10019.0,173319.0,24993.0,881.5033613096315,625.1271362796801,1094.8592031929525
173319.0,13687.0,173319.0,10028.0,173319.0,24991.0,882.2181340267781,623.7822381224624,1093.5957461491453
173319.0,13683.0,173319.0,10036.0,173319.0,25006.0,882.7872673277468,622.3856571743847,1092.2612712936645
173319.0,13685.0,173319.0,10018.0,173319.0,24988.0,883.2030528798739,620.936003674298,1090.851606800382
173319.0,13685.0,173319.0,10018.0,173319.0,24997.0,883.4581454292497,619.4321552729383,1089.3627006740114
173330.0,13675.0,173330.0,10010.0,173330.0,25003.0,883.5455055333235,617.8731088860601,1087.790554256267
173330.0,13689.0,173330.0,10024.0,173330.0,25007.0,883.4583035791145,616.2578204957039,1086.1312256977403
173330.0,13705.0,173330.0,10021.0,173330.0,24998.0,883.1899026893218,614.5851867353032,1084.3809095950492
173330.0,13697.0,173330.0,10021.0,173330.0,25013.0,882.7340219207854,612.8541359126596,1082.535969472452
173330.0,13685.0,173330.0,10018.0,173330.0,24997.0,882.0849018795645,611.0636949397407,1080.59292525318
173330.0,13690.0,173330.0,10013.0,173330.0,25009.0,881.2372523674383,609.2129735146193,1078.5484322638497
173340.0,13678.0,173340.0,9992.0,173340.0,24996.0,880.186071287938,607.3010554678914,1076.399231646542
173340.0,13688.0,173340.0,10020.0,173340.0,25010.0,878.926502951206,605.3268195638861,1074.1420945471118
173340.0,13692.0,173340.0,10020.0,173340.0,25018.0,877.4537926033204,603.2888860875041,1071.7738370854038
173340.0,13711.0,173340.0,10023.0,173340.0,25021.0,875.7633939993948,601.1858066276291,1069.2914628739302
173340.0,13704.0,173340.0,10024.0,173340.0,25014.0,873.8512240991428,599.0163007983788,1066.6923441412525
173340.0,13693.0,173340.0,10010.0,173340.0,24996.0,871.7138849159609,596.7793578069465,1063.974249300837
173350.0,13697.0,173350.0,10003.0,173350.0,25013.0,869.3486846782374,594.4741765985524,1061.1351826453272
173350.0,13684.0,173350.0,10016.0,173350.0,25003.0,866.7535251922993,592.1000134169776,1058.1732325387202
173350.0,13696.0,173350.0,10026.0,173350.0,25012.0,863.9268072710885,589.6561472730425,1055.086559712421
173350.0,13696.0,173350.0,10009.0,173350.0,25025.0,860.8674291724719,587.1420382215138,1051.8734852513608
173350.0,13681.0,173350.0,10009.0,173350.0,25004.0,857.5748619066612,584.5574437163806,1048.5326297576846
173350.0,13681.0,173350.0,10003.0,173350.0,24996.0,854.04916383268,581.9023513995883,1045.0629560117331
173361.0,13665.0,173361.0,10003.0,173361.0,25003.0,850.2908637283697,579.1768598716329,1041.4636099398347
173361.0,13669.0,173361.0,10010.0,173361.0,24986.0,846.3007993503953,576.3811349382818,1037.733729914149
173361.0,13674.0,173361.0,10003.0,173361.0,25009.0,842.0800247942684,573.5154554955193,1033.8723660723433
173361.0,13671.0,173361.0,10006.0,173361.0,24999.0,837.6298615028878,570.580290357843,1029.87851777914
173361.0,13665.0,173361.0,9990.0,173361.0,24990.0,832.9520281272038,567.5763189989523,1025.751232593909
173361.0,13652.0,173361.0,9984.0,173361.0,24982.0,828.0486913422733,564.5043435715893,1021.4895947581441
173371.0,13650.0,173371.0,9976.0,173371.0,24992.0,822.9223910140515,561.3651023029962,1017.0925890656166
173371.0,13658.0,173371.0,9987.0,173371.0,25007.0,817.5759570196801,558.1590955452347,1012.5590789417718
173371.0,13655.0,173371.0,9996.0,173371.0,24987.0,812.0125633439181,554.8865823065838,1007.8879878060538
173371.0,13629.0,173371.0,9984.0,173371.0,24980.0,806.2358505501577,551.5477553411168,1003.0784368569061
173371.0,13619.0,173371.0,9976.0,173371.0,24982.0,800.249871649951,548.1428822948513,998.1296632472869
173371.0,13616.0,173371.0,9968.0,173371.0,24972.0,794.058841013825,544.6722489782815,993.0408765268969
173381.0,13613.0,173381.0,9975.0,173381.0,24976.0,787.6669330846913,541.1360099885683,987.8111950346752
173381.0,13611.0,173381.0,9982.0,173381.0,24981.0,781.0782582506605,537.5341530905107,982.4396561945747
173381.0,13606.0,173381.0,9973.0,173381.0,24972.0,774.2969368147398,533.8666238954586,976.9253027638595
173381.0,13596.0,173381.0,9967.0,173381.0,24961.0,767.3271717621816,530.1334509621604,971.267258041842
173381.0,13586.0,173381.0,9959.0,173381.0,24954.0,760.1732594764551,526.3347296583488,965.4646645963669
173381.0,13573.0,173381.0,9958.0,173381.0,24966.0,752.8395180269789,522.4705133494847,959.5165634352932
173392.0,13572.0,173392.0,9962.0,173392.0,24943.0,745.3301753849778,518.5407414285339,953.4218654276274
173392.0,13581.0,173392.0,9973.0,173392.0,24971.0,737.6493348006687,514.5452992984528,947.1794069079932
173392.0,13572.0,173392.0,9962.0,173392.0,24964.0,729.8011123158874,510.484206259076,940.7880894958585
173392.0,13561.0,173392.0,9950.0,173392.0,24944.0,721.7898430646122,506.3577653535332,934.2470899959386
173392.0,13544.0,173392.0,9941.0,173392.0,24939.0,713.62015182702,502.1665132729672,927.5559178015621
173392.0,13536.0,173392.0,9930.0,173392.0,24942.0,705.296849241529,497.91101685378663,920.7142773257356
173402.0,13533.0,173402.0,9931.0,173402.0,24948.0,696.8247911348319,493.5916638817424,913.7220127222605
173402.0,13533.0,173402.0,9948.0,173402.0,24939.0,688.2088465192736,489.20858377399395,906.5792441840813
173402.0,13519.0,173402.0,9941.0,173402.0,24934.0,679.4539882630122,484.76178716879747,899.2865278510653
173402.0,13502.0,173402.0,9929.0,173402.0,24912.0,670.5653646107132,480.25139084996795,891.8448774211693
173402.0,13498.0,173402.0,9926.0,173402.0,24913.0,661.5482421087572,475.6776851555902,884.2556332773052
173402.0,13478.0,173402.0,9912.0,173402.0,24911.0,652.4078825000768,471.0410317218463,876.5203126602235
173412.0,13492.0,173412.0,9930.0,173412.0,24914.0,643.1494687671958,466.3417595194415,868.6406007155251
173412.0,13482.0,173412.0,9933.0,173412.0,24902.0,633.778167169584,461.5802210667629,860.6184722438824
173412.0,13463.0,173412.0,9915.0,173412.0,24874.0,624.2992906994848,456.75700475860003,852.4562477949746
173412.0,13441.0,173412.0,9898.0,173412.0,24874.0,614.7183391511899,451.87303616455847,844.1564342828823
173412.0,13432.0,173412.0,9896.0,173412.0,24875.0,605.0408103944217,446.92940840173276,835.721493729474
173412.0,13434.0,173412.0,9899.0,173412.0,24864.0,595.2719850429837,441.9271580883886,827.1537808754986
173423.0,13436.0,173423.0,9909.0,173423.0,24859.0,585.4169190896328,436.8672458786782,818.455607079102
173423.0,13421.0,173423.0,9892.0,173423.0,24868.0,575.4806382609379,431.7507253532336,809.6293049511795
173423.0,13407.0,173423.0,9888.0,173423.0,24850.0,565.4683153611643,426.57887762211107,800.6773341218807
173423.0,13387.0,173423.0,9863.0,173423.0,24834.0,555.3852624679685,421.35314970521677,791.602371393494
173423.0,13375.0,173423.0,9872.0,173423.0,24834.0,545.2367681637343,416.0749472399582,782.4072516303008
173423.0,13364.0,173423.0,9870.0,173423.0,24829.0,535.0279050985865,410.74547776946747,773.0948665520415
173433.0,13369.0,173433.0,9869.0,173433.0,24820.0,524.7634311584585,405.36577813047296,763.6681751382682
173433.0,13350.0,173433.0,9858.0,173433.0,24801.0,514.4478387112376,399.9368307847518,754.1302385266038
173433.0,13342.0,173433.0,9863.0,173433.0,24800.0,504.08545261025574,394.45962537340966,744.4841578821811
173433.0,13321.0,173433.0,9827.0,173433.0,24782.0,493.6804331207445,388.93513307942396,734.7329637050202
173433.0,13315.0,173433.0,9830.0,173433.0,24774.0,483.2366775536476,383.36414519545673,724.879521231035
173433.0,13313.0,173433.0,9850.0,173433.0,24773.0,472.7577358202449,377.7470750271259,714.9264538496448
173444.0,13308.0,173444.0,9851.0,173444.0,24773.0,462.24685310570874,372.084034757056,704.8761492007404
173444.0,13301.0,173444.0,9853.0,173444.0,24761.0,451.7071294229106,366.375201418517,694.7308842883555
173444.0,13284.0,173444.0,9835.0,173444.0,24753.0,441.14167046466696,360.6211380554574,684.4929541764079
173444.0,13276.0,173444.0,9809.0,173444.0,24739.0,430.55363655671636,354.8228312584561,674.1647009773918
173444.0,13257.0,173444.0,9806.0,173444.0,24744.0,419.9461997239729,348.98143898405726,663.7484896002063
173444.0,13242.0,173444.0,9811.0,173444.0,24741.0,409.32244519051414,343.09798540028356,653.2467596941519
173454.0,13240.0,173454.0,9830.0,173454.0,24726.0,398.6852516104773,337.1733244919944,642.6621820392559
173454.0,13238.0,173454.0,9805.0,173454.0,24705.0,388.0372551598516,331.2083966752836,631.9977533531355
173454.0,13217.0,173454.0,9784.0,173454.0,24703.0,377.3809439370474,325.2044201909872,621.2567120471792
173454.0,13212.0,173454.0,9779.0,173454.0,24687.0,366.71874496880355,319.16274404109686,610.442396254062
173454.0,13197.0,173454.0,9783.0,173454.0,24671.0,356.0530167155621,313.0845708697848,599.5581492519781
173454.0,13199.0,173454.0,9797.0,173454.0,24676.0,345.38603603600654,306.97091198998373,588.6072418189902
173464.0,13185.0,173464.0,9788.0,173464.0,24673.0,334.7200604780098,300.8228251072214,577.5928761643072
173464.0,13171.0,173464.0,9781.0,173464.0,24661.0,324.05741927135114,294.6416979280093,566.5183360843979
173464.0,13152.0,173464.0,9755.0,173464.0,24635.0,313.4005175916867,288.4293307194098,555.3871112184088
173464.0,13147.0,173464.0,9756.0,173464.0,24630.0,302.7517337785025,282.1877793204055,544.202821251271
173464.0,13142.0,173464.0,9753.0,173464.0,24623.0,292.1133369193084,275.91914877456895,532.9690492280442
173464.0,13133.0,173464.0,9753.0,173464.0,24614.0,281.487525904712,269.62553988837163,521.6892801593981
173475.0,13128.0,173475.0,9757.0,173475.0,24603.0,270.8765473776615,263.3091607872146,510.36693872730405
173475.0,13104.0,173475.0,9728.0,173475.0,24603.0,260.2827872663173,256.9724637609939,499.00543692974964
173475.0,13089.0,173475.0,9714.0,173475.0,24574.0,249.70874273104175,250.61811102341483,487.6082092871974
173475.0,13071.0,173475.0,9716.0,173475.0,24562.0,239.15685420684895,244.24873287665616,476.1786626415378
173475.0,13068.0,173475.0,9697.0,173475.0,24570.0,228.6293067381772,237.8666967561926,464.72003840851994
173475.0,13066.0,173475.0,9703.0,173475.0,24558.0,218.12795230305244,231.47400646995982,453.2353915647956
173485.0,13049.0,173485.0,9700.0,173485.0,24544.0,207.65438543142375,225.07229107982442,441.72772673389557
173485.0,13037.0,173485.0,9693.0,173485.0,24521.0,197.21003443975178,218.66287931038983,430.20005449190137
173485.0,13026.0,173485.0,9682.0,173485.0,24522.0,186.79615084895397,212.24688455117433,418.65527874661825
173485.0,13015.0,173485.0,9682.0,173485.0,24513.0,176.4137475272712,205.8252093382054,407.09609317539775
173485.0,13026.0,173485.0,9685.0,173485.0,24497.0,166.06360288832286,199.39854617668283,395.52499792803303
173485.0,13009.0,173485.0,9683.0,173485.0,24505.0,155.7464039598109,192.96748597617614,383.94436364872047
173495.0,12985.0,173495.0,9658.0,173495.0,24467.0,145.4629169867203,186.5326571704727,372.35647999526645
173495.0,12974.0,173495.0,9659.0,173495.0,24462.0,135.21396495526085,180.09471741186036,360.76351369588656
173495.0,12972.0,173495.0,9653.0,173495.0,24451.0,125.00026057703599,173.65422817212328,349.167343685688
173495.0,12950.0,173495.0,9647.0,173495.0,24462.0,114.82231528809609,167.21159233763012,337.56946954949626
173495.0,12966.0,173495.0,9643.0,173495.0,24449.0,104.68046268660896,160.76707501534077,325.971151055312
173495.0,12940.0,173495.0,9654.0,173495.0,24439.0,94.57495996050784,154.32086705926616,314.37364515800937
173506.0,12929.0,173506.0,9633.0,173506.0,24423.0,84.50609645802956,147.87321558917694,302.7783299582778
173506.0,12924.0,173506.0,9619.0,173506.0,24407.0,74.47419201119101,141.42450816285452,291.1866670000469
173506.0,12900.0,173506.0,9613.0,173506.0,24401.0,64.4795234481843,134.9751669065019,279.600086852638
173506.0,12905.0,173506.0,9605.0,173506.0,24391.0,54.52226427601374,128.5254598457716,268.01990518322884
173506.0,12911.0,173506.0,9612.0,173506.0,24387.0,44.602508349909726,122.0754156043605,256.4473279567935
173506.0,12884.0,173506.0,9624.0,173506.0,24373.0,34.72044430067979,115.62492443168833,244.88351738371
173516.0,12869.0,173516.0,9599.0,173516.0,24356.0,24.87649452836183,109.1739871036524,233.32963155036032
173516.0,12853.0,173516.0,9581.0,173516.0,24337.0,15.07121435468639,102.7228567062715,221.78675471734618
173516.0,12849.0,173516.0,9581.0,173516.0,24341.0,5.305086905401481,96.27189521092271,210.25575264657607
173516.0,12847.0,173516.0,9568.0,173516.0,24335.0,-4.421563689981326,89.82134517884253,198.73722493387118
173516.0,12837.0,173516.0,9579.0,173516.0,24318.0,-14.108498302511066,83.37124526223113,187.23161097822742
173516.0,12821.0,173516.0,9567.0,173516.0,24319.0,-23.75544742750276,76.92149556346851,175.7393038545631
173526.0,12802.0,173526.0,9561.0,173526.0,24293.0,-33.36210824372904,70.47197166190165,164.26068707305024
173526.0,12813.0,173526.0,9561.0,173526.0,24291.0,-42.92823995606659,64.02258814494496,152.79611039586155
173526.0,12784.0,173526.0,9537.0,173526.0,24277.0,-52.453699586045104,57.573297477522146,141.34583100213126
173526.0,12793.0,173526.0,9557.0,173526.0,24282.0,-61.93839798558429,51.12405861242962,129.91000498093547
173526.0,12784.0,173526.0,9541.0,173526.0,24266.0,-71.3822347717329,44.6748583123657,118.48878377857022
173526.0,12768.0,173526.0,9543.0,173526.0,24255.0,-80.7849960017827,38.225829703016075,107.08243261638836
173537.0,12751.0,173537.0,9523.0,173537.0,24228.0,-90.14630364168715,31.777342582898882,95.6913312313618
173537.0,12739.0,173537.0,9521.0,173537.0,24233.0,-99.46571802577932,25.329968343317773,84.31583871206306
173537.0,12735.0,173537.0,9507.0,173537.0,24221.0,-108.7428901145455,18.88437210020402,72.95618633444053
173537.0,12712.0,173537.0,9494.0,173537.0,24221.0,-117.9776502399103,12.44118665790677,61.61252587542867
173537.0,12729.0,173537.0,9516.0,173537.0,24201.0,-127.17003537666449,6.000920898599702,50.285054466207384
173537.0,12716.0,173537.0,9505.0,173537.0,24186.0,-136.3202104286529,-0.43596386045385316,38.97406014761407
173547.0,12698.0,173547.0,9484.0,173547.0,24178.0,-145.42829567709396,-6.868856107772217,27.679841569959535
173547.0,12685.0,173547.0,9469.0,173547.0,24191.0,-154.494304787494,-13.296980577181557,16.402649554082018
173547.0,12684.0,173547.0,9468.0,173547.0,24158.0,-163.51824194627034,-19.719625572818018,5.142790135012092
173547.0,12682.0,173547.0,9479.0,173547.0,24174.0,-172.5001456411552,-26.136307648706634,-6.099224254371393
173547.0,12675.0,173547.0,9483.0,173547.0,24152.0,-181.43997588076672,-32.54665510647533,-17.322578686379984
173547.0,12655.0,173547.0,9453.0,173547.0,24124.0,-190.3374743758784,-38.95014591999143,-28.52611475184949
173557.0,12638.0,173557.0,9462.0,173557.0,24112.0,-199.19216970578873,-45.346001638148095,-39.70846411483649
173557.0,12629.0,173557.0,9432.0,173557.0,24102.0,-208.0035436726514,-51.733289903856075,-50.86833034120741
173557.0,12631.0,173557.0,9445.0,173557.0,24119.0,-216.77119089395615,-58.11107169593288,-62.004631680565126
173557.0,12603.0,173557.0,9444.0,173557.0,24083.0,-225.49485630127992,-64.4784557130414,-73.11639151921747
173557.0,12608.0,173557.0,9442.0,173557.0,24087.0,-234.1744456767782,-70.83448303157036,-84.20260117748205
173557.0,12599.0,173557.0,9414.0,173557.0,24073.0,-242.8100578094104,-77.17797361207613,-95.26221698692643
173568.0,12573.0,173568.0,9411.0,173568.0,24061.0,-251.40198566205117,-83.5075714642029,-106.29418847677925
173568.0,12577.0,173568.0,9403.0,173568.0,24046.0,-259.9507594045184,-89.82195006035295,-117.29747925799813
173568.0,12580.0,173568.0,9407.0,173568.0,24056.0,-268.45720297542266,-96.1199432921768,-128.27110290475468
173568.0,12574.0,173568.0,9394.0,173568.0,24035.0,-276.92232000265346,-102.40052511318254,-139.2140767341025
173568.0,12562.0,173568.0,9385.0,173568.0,24027.0,-285.34706977368944,-108.6627633782141,-150.1253178062825
173568.0,12547.0,173568.0,9380.0,173568.0,24003.0,-293.7322558390623,-114.90585314946145,-161.0036471283322
173578.0,12545.0,173578.0,9377.0,173578.0,23992.0,-302.07856162757935,-121.12917890919243,-171.84794055172574
173578.0,12515.0,173578.0,9371.0,173578.0,24000.0,-310.3866419849089,-127.3323207118101,-182.6572887933903
173578.0,12533.0,173578.0,9365.0,173578.0,23981.0,-318.6572240715583,-133.51502048776615,-193.4310047230623
173578.0,12525.0,173578.0,9374.0,173578.0,23982.0,-326.89111439338967,-139.67713077733947,-204.1685062834788
173578.0,12511.0,173578.0,9374.0,173578.0,23966.0,-335.08904718731196,-145.8184811480121,-214.8692207796936
173578.0,12501.0,173578.0,9349.0,173578.0,23959.0,-343.251558300267,-151.93869266100353,-225.53254698978537
173588.0,12487.0,173588.0,9332.0,173588.0,23936.0,-351.37902215641645,-158.03716705334466,-236.15787714534713
173588.0,12486.0,173588.0,9332.0,173588.0,23925.0,-359.47174859043616,-164.1133235043186,-246.74471320904468
173588.0,12481.0,173588.0,9337.0,173588.0,23939.0,-367.530012044679,-170.16681182857644,-257.2927924769698
173588.0,12478.0,173588.0,9337.0,173588.0,23918.0,-375.55397669778927,-176.19747545963048,-267.80204848662925
173588.0,12459.0,173588.0,9317.0,173588.0,23897.0,-383.54359037508084,-182.20518161342113,-278.2724881931982
173588.0,12446.0,173588.0,9312.0,173588.0,23903.0,-391.49857878252317,-188.1897695820598,-288.70421410198435
173599.0,12427.0,173599.0,9296.0,173599.0,23891.0,-399.41859066336315,-194.15117382959863,-299.09749827143287
173599.0,12421.0,173599.0,9306.0,173599.0,23880.0,-407.30341901154304,-200.08957416569712,-309.45274426746266
173599.0,12420.0,173599.0,9306.0,173599.0,23876.0,-415.15316478993964,-206.00540907989722,-319.770428132911
173599.0,12419.0,173599.0,9300.0,173599.0,23869.0,-422.9682399531873,-211.89922592536482,-330.0510689577196
173599.0,12403.0,173599.0,9300.0,173599.0,23845.0,-430.7492482267835,-217.77150150767852,-340.2952027321213
173599.0,12393.0,173599.0,9262.0,173599.0,23851.0,-438.49690957925714,-223.62259293940957,-350.50341208785755
173609.0,12378.0,173609.0,9270.0,173609.0,23841.0,-446.21211944030995,-229.45289969694937,-360.67636334598217
173609.0,12396.0,173609.0,9277.0,173609.0,23835.0,-453.89603134150275,-235.26308104316303,-370.81474562436676
173609.0,12383.0,173609.0,9283.0,173609.0,23824.0,-461.5499787966419,-241.054021199504,-380.9191747243258
173609.0,12370.0,173609.0,9259.0,173609.0,23810.0,-469.17527686439655,-246.82658070004715,-390.9901649895819
173609.0,12370.0,173609.0,9241.0,173609.0,23802.0,-476.77311787009785,-252.58150626718816,-401.028175194366
173609.0,12355.0,173609.0,9245.0,173609.0,23794.0,-484.34457743999815,-258.3196226314278,-411.0336758321008
173619.0,12338.0,173619.0,9239.0,173619.0,23779.0,-491.89065188920017,-264.04203914197103,-421.0071932722876
173619.0,12342.0,173619.0,9238.0,173619.0,23778.0,-499.41234716928614,-269.75017281811245,-430.9493408932967
173619.0,12341.0,173619.0,9243.0,173619.0,23775.0,-506.91072827966923,-275.4456505427012,-440.8608149178351
173619.0,12335.0,173619.0,9227.0,173619.0,23752.0,-514.3868117388342,-281.13018142297597,-450.74233469926
173619.0,12309.0,173619.0,9236.0,173619.0,23751.0,-521.8414346514717,-286.8054559346408,-460.5946266037055
173619.0,12298.0,173619.0,9219.0,173619.0,23742.0,-529.2753148575666,-292.4730920353463,-470.4184777780139
173630.0,12293.0,173630.0,9218.0,173630.0,23731.0,-536.6892717840713,-298.1346140306167,-480.2147585990666
173630.0,12294.0,173630.0,9227.0,173630.0,23716.0,-544.0843772744165,-303.7914378348004,-489.98442997304437
173630.0,12292.0,173630.0,9234.0,173630.0,23726.0,-551.4619109015111,-309.44474520597385,-499.72857795913137
173630.0,12281.0,173630.0,9194.0,173630.0,23716.0,-558.8232067536655,-315.0952711981348,-509.44836843462485
173630.0,12264.0,173630.0,9177.0,173630.0,23694.0,-566.1695616497382,-320.74333668601605,-519.1449217717859
173630.0,12258.0,173630.0,9183.0,173630.0,23686.0,-573.5022917651722,-326.38921498384536,-528.8193058186271
173640.0,12259.0,173640.0,9182.0,173640.0,23684.0,-580.8228384686679,-332.03343185120275,-538.4726613181081
173640.0,12257.0,173640.0,9189.0,173640.0,23682.0,-588.1327573855569,-337.6767357935598,-548.1062472451501
173640.0,12246.0,173640.0,9179.0,173640.0,23676.0,-595.4335886217543,-343.3198904213988,-557.7213331752298
173640.0,12243.0,173640.0,9165.0,173640.0,23651.0,-602.7267416684383,-348.9635256229907,-567.319086380654
173640.0,12231.0,173640.0,9160.0,173640.0,23644.0,-610.013453630856,-354.60815883485554,-576.9006134924452
173640.0,12218.0,173640.0,9157.0,173640.0,23642.0,-617.2948045506341,-360.2543094911059,-586.4671101489853
173651.0,12211.0,173651.0,9160.0,173651.0,23642.0,-624.5717918089165,-365.902542715706,-596.0199101562978
173651.0,12213.0,173651.0,9153.0,173651.0,23626.0,-631.8454069143706,-371.55339569754517,-605.5603835325528
173651.0,12198.0,173651.0,9152.0,173651.0,23621.0,-639.1166276271672,-377.20726565827863,-615.0898412487506
173651.0,12191.0,173651.0,9138.0,173651.0,23598.0,-646.3863759833391,-382.86434439540267,-624.6095559072394
173651.0,12188.0,173651.0,9124.0,173651.0,23611.0,-653.6555251642717,-388.5246540313842,-634.1208477273644
173651.0,12169.0,173651.0,9115.0,173651.0,23590.0,-660.9249288768847,-394.1882021778407,-643.6251103304444
173661.0,12182.0,173661.0,9140.0,173661.0,23597.0,-668.1954367929438,-399.85512092599674,-653.1237418825358
173661.0,12161.0,173661.0,9120.0,173661.0,23584.0,-675.4678656677049,-405.52558729306816,-662.618048337561
173661.0,12158.0,173661.0,9115.0,173661.0,23589.0,-682.7429423041881,-411.19962428551935,-672.1091349312221
173661.0,12144.0,173661.0,9103.0,173661.0,23558.0,-690.0213094078615,-416.8770557790923,-681.5978101739408
173661.0,12138.0,173661.0,9089.0,173661.0,23553.0,-697.3035963353991,-422.55763545505874,-691.0846156403395
173661.0,12143.0,173661.0,9103.0,173661.0,23553.0,-704.5904596050912,-428.2411899261755,-700.5699673670499
173671.0,12134.0,173671.0,9105.0,173671.0,23543.0,-711.8825182744183,-433.9276101167428,-710.0542165914667
173671.0,12128.0,173671.0,9093.0,173671.0,23534.0,-719.1802205947149,-439.6166585255928,-719.5375913708676
173671.0,12110.0,173671.0,9074.0,173671.0,23519.0,-726.4837754929547,-445.3078271306497,-729.0201708534833
173671.0,12093.0,173671.0,9079.0,173671.0,23517.0,-733.7932338662324,-451.00041391472996,-738.5019407675811
173671.0,12090.0,173671.0,9072.0,173671.0,23504.0,-741.108683257582,-456.6936520864531,-747.9828512048803
173671.0,12099.0,173671.0,9073.0,173671.0,23504.0,-748.4303838969529,-462.3867139332856,-757.4628261092437
173682.0,12076.0,173682.0,9051.0,173682.0,23482.0,-755.758718612308,-468.0786621870715,-766.941752808209
173682.0,12077.0,173682.0,9061.0,173682.0,23484.0,-763.0940921946683,-473.7684744015078,-776.4195062338067
173682.0,12066.0,173682.0,9051.0,173682.0,23473.0,-770.4369238924892,-479.45508775742087,-785.8959896267952
173682.0,12050.0,173682.0,9022.0,173682.0,23450.0,-777.7876905278799,-485.1374258800963,-795.3711654233957
173682.0,12045.0,173682.0,9030.0,173682.0,23454.0,-785.1470040339136,-490.81453519808554,-804.8451370422433
173682.0,12045.0,173682.0,9034.0,173682.0,23443.0,-792.5156991150668,-496.4857580250043,-814.3182451486668
173692.0,12044.0,173692.0,9030.0,173692.0,23449.0,-799.8948136378388,-502.15069955011404,-823.7910468544901
173692.0,12032.0,173692.0,9009.0,173692.0,23430.0,-807.2854597042215,-507.8090818519288,-833.2641960598394
173692.0,12014.0,173692.0,9008.0,173692.0,23423.0,-814.6887452520807,-513.4607500572982,-842.7383625364196
173692.0,12018.0,173692.0,9014.0,173692.0,23405.0,-822.1058311462318,-519.1057820879314,-852.21427270801
173692.0,12009.0,173692.0,9001.0,173692.0,23398.0,-829.5380002804436,-524.7444915345686,-861.6928397301288
173692.0,12001.0,173692.0,9014.0,173692.0,23406.0,-836.9866334220303,-530.3773196107654,-871.1752614248824
173702.0,12004.0,173702.0,9002.0,173702.0,23407.0,-844.4531464006993,-536.0047011754274,-880.6629423603056
173702.0,11998.0,173702.0,8993.0,173702.0,23386.0,-851.9389047904006,-541.6269513590993,-890.1572683722384
173702.0,11980.0,173702.0,8981.0,173702.0,23368.0,-859.4451200899575,-547.244265874021,-899.6594945480231
173702.0,11963.0,173702.0,8955.0,173702.0,23359.0,-866.9728589033205,-552.8568876159528,-909.1708842443431
173702.0,11963.0,173702.0,8982.0,173702.0,23366.0,-874.5232055569106,-558.4653424127976,-918.6928987530484
173702.0,11964.0,173702.0,8973.0,173702.0,23366.0,-882.0973878913285,-564.0705071369456,-928.2271825877745
173713.0,11943.0,173713.0,8972.0,173713.0,23351.0,-889.6967488181806,-569.673429216853,-937.7753625609769
173713.0,11942.0,173713.0,8960.0,173713.0,23339.0,-897.3227032407863,-575.2751403685663,-947.3388994016022
173713.0,11938.0,173713.0,8945.0,173713.0,23334.0,-904.976763270316,-580.8766527224905,-956.9191072174524
173713.0,11925.0,173713.0,8950.0,173713.0,23315.0,-912.6605386032943,-586.4790806500632,-966.5172436201278
173713.0,11910.0,173713.0,8953.0,173713.0,23310.0,-920.3757322509643,-592.0837142187846,-976.1346057131443
173713.0,11915.0,173713.0,8957.0,173713.0,23308.0,-928.1242044241292,-597.6919106756385,-985.7726136906463
173723.0,11917.0,173723.0,8936.0,173723.0,23305.0,-935.9079830974538,-603.3048970108308,-995.432801058442
173723.0,11895.0,173723.0,8918.0,173723.0,23280.0,-943.7291382233002,-608.9237324782329,-1005.1167357188083
173723.0,11888.0,173723.0,8914.0,173723.0,23268.0,-951.5896976195806,-614.5495180542312,-1014.8260519833257
173723.0,11865.0,173723.0,8903.0,173723.0,23271.0,-959.4917481511,-620.1836706655399,-1024.562615726122
173723.0,11880.0,173723.0,8919.0,173723.0,23280.0,-967.4376067881628,-625.8280557296663,-1034.328577756551
173723.0,11869.0,173723.0,8928.0,173723.0,23264.0,-975.4298570801691,-631.4848808237481,-1044.1261858359906
173733.0,11853.0,173733.0,8913.0,173733.0,23264.0,-983.471242875841,-637.156394945998,-1053.9575455028842
173733.0,11849.0,173733.0,8889.0,173733.0,23245.0,-991.5646175330473,-642.844680670446,-1063.824513796877
173733.0,11845.0,173733.0,8888.0,173733.0,23233.0,-999.7129890062652,-648.5517657816887,-1073.7287278419294
173733.0,11841.0,173733.0,8886.0,173733.0,23219.0,-1007.9195109663933,-654.2798681410555,-1083.671731803753
173733.0,11839.0,173733.0,8901.0,173733.0,23214.0,-1016.1873814071698,-660.0314559944896,-1093.6551374105234
173733.0,11826.0,173733.0,8899.0,173733.0,23221.0,-1024.519721492868,-665.8090487736116,-1103.6806925171554
173744.0,11816.0,173744.0,8888.0,173744.0,23207.0,-1032.919511448127,-671.6149283056438,-1113.7501868326788
173744.0,11806.0,173744.0,8868.0,173744.0,23187.0,-1041.3896177946024,-677.4510112956962,-1123.8653242750324
173744.0,11793.0,173744.0,8858.0,173744.0,23180.0,-1049.93287338875,-683.3189862196901,-1134.0277561751764
173744.0,11818.0,173744.0,8875.0,173744.0,23184.0,-1058.5521008882797,-689.2205304077834,-1144.2392044475696
173744.0,11783.0,173744.0,8878.0,173744.0,23180.0,-1067.2499783715552,-695.1573057294627,-1154.501443971493
173744.0,11790.0,173744.0,8873.0,173744.0,23165.0,-1076.0288664207183,-701.1306923531014,-1164.8161441299033
173754.0,11775.0,173754.0,8844.0,173754.0,23163.0,-1084.8907645534289,-707.1415661107235,-1175.1847536101177
173754.0,11755.0,173754.0,8841.0,173754.0,23143.0,-1093.8373524074268,-713.1903723908221,-1185.6084911507999
173754.0,11746.0,173754.0,8832.0,173754.0,23129.0,-1102.8700953768216,-719.2773852270461,-1196.0884158825486
173754.0,11744.0,173754.0,8837.0,173754.0,23141.0,-1111.9903984556481,-725.402880388781,-1206.6255306779858
173754.0,11741.0,173754.0,8830.0,173754.0,23132.0,-1121.1996544385381,-731.5671293725675,-1217.2207626523489
173754.0,11737.0,173754.0,8841.0,173754.0,23113.0,-1130.4991358408613,-737.7702790449173,-1227.8748045943587
173764.0,11726.0,173764.0,8817.0,173764.0,23103.0,-1139.8898397760308,-744.0121999023329,-1238.5880500277196
173764.0,11714.0,173764.0,8813.0,173764.0,23103.0,-1149.3723950323865,-750.2924263930014,-1249.3606724760336
173764.0,11701.0,173764.0,8795.0,173764.0,23104.0,-1158.9470717938898,-756.6102662067823,-1260.1926344062115
173764.0,11691.0,173764.0,8820.0,173764.0,23088.0,-1168.6138616058602,-762.9649389120328,-1271.0835469217477
173764.0,11693.0,173764.0,8807.0,173764.0,23083.0,-1178.3725405573402,-769.3555213527848,-1282.0325319885942
173764.0,11687.0,173764.0,8806.0,173764.0,23065.0,-1188.222622589836,-775.7807261411995,-1293.0381985135334
173775.0,11679.0,173775.0,8788.0,173775.0,23069.0,-1198.1632110360263,-782.2387581475709,-1304.0986796890095
173775.0,11656.0,173775.0,8777.0,173775.0,23049.0,-1208.1928880428277,-788.7273684308925,-1315.211642607211
173775.0,11657.0,173775.0,8785.0,173775.0,23054.0,-1218.309739048079,-795.2439984116052,-1326.3742560389478
173775.0,11652.0,173775.0,8789.0,173775.0,23040.0,-1228.5114071243743,-801.7858059159977,-1337.5831326442901
173775.0,11656.0,173775.0,8786.0,173775.0,23028.0,-1238.795009284309,-808.3494841322848,-1348.834265945653
173775.0,11654.0,173775.0,8760.0,173775.0,23008.0,-1249.1568986357088,-814.9310638018131,-1360.123043123241
173785.0,11617.0,173785.0,8758.0,173785.0,23001.0,-1259.5924343807092,-821.5259314819835,-1371.4443742374096
173785.0,11610.0,173785.0,8749.0,173785.0,23017.0,-1270.0959844118947,-828.1290113931773,-1382.7927882720905
173785.0,11612.0,173785.0,8747.0,173785.0,23001.0,-1280.661120182005,-834.7348985075741,-1394.1623099826775
173785.0,11609.0,173785.0,8747.0,173785.0,22984.0,-1291.280678210376,-841.3378681653458,-1405.546229031967
173785.0,11600.0,173785.0,8742.0,173785.0,22979.0,-1301.946591295741,-847.9318028673274,-1416.9370287409579
173785.0,11584.0,173785.0,8726.0,173785.0,22970.0,-1312.6497082300962,-854.5101153554157,-1428.3264503890616
173795.0,11566.0,173795.0,8722.0,173795.0,22952.0,-1323.3797682214924,-861.0657673415559,-1439.7055354578824
173795.0,11554.0,173795.0,8710.0,173795.0,22946.0,-1334.1255222276936,-867.5913780273634,-1451.0646703701643
173795.0,11555.0,173795.0,8720.0,173795.0,22954.0,-1344.8748720138249,-874.0793072894437,-1462.3936238951906
173795.0,11559.0,173795.0,8717.0,173795.0,22945.0,-1355.6148552811046,-880.5216105592698,-1473.6814419436114
173795.0,11551.0,173795.0,8715.0,173795.0,22927.0,-1366.3314286895502,-886.9098717167719,-1484.916250677451
173795.0,11528.0,173795.0,8698.0,173795.0,22919.0,-1377.009225259779,-893.2350559167788,-1496.0851828060022
173806.0,11519.0,173806.0,8688.0,173806.0,22903.0,-1387.6315011247664,-899.4875202349206,-1507.1744598327064
173806.0,11504.0,173806.0,8682.0,173806.0,22896.0,-1398.1802559399725,-905.6571621881893,-1518.1695092460916
173806.0,11511.0,173806.0,8688.0,173806.0,22886.0,-1408.6363352397234,-911.7335485909039,-1529.055052340609
173806.0,11505.0,173806.0,8697.0,173806.0,22905.0,-1418.9793736613037,-917.7058692457498,-1539.8150963554526
173806.0,11487.0,173806.0,8664.0,173806.0,22884.0,-1429.1876241787054,-923.5627623533651,-1550.4327565490387
173806.0,11479.0,173806.0,8680.0,173806.0,22870.0,-1439.237860188269,-929.2922426951142,-1560.8900463414948
173816.0,11466.0,173816.0,8661.0,173816.0,22855.0,-1449.1054179334183,-934.8817693844828,-1571.1678748719112
173816.0,11465.0,173816.0,8664.0,173816.0,22865.0,-1458.7642626442346,-940.318295724715,-1581.2461877939531
173816.0,11451.0,173816.0,8673.0,173816.0,22854.0,-1468.1869941929913,-945.588246937548,-1591.103990867507
173816.0,11451.0,173816.0,8675.0,173816.0,22841.0,-1477.344811320924,-950.6773857112399,-1600.7192448525618
173816.0,11445.0,173816.0,8666.0,173816.0,22840.0,-1486.2074535362715,-955.5705821987175,-1610.0688145195124
173816.0,11409.0,173816.0,8651.0,173816.0,22815.0,-1494.7431722086408,-960.2516832054545,-1619.1285210585102
173826.0,11409.0,173826.0,8628.0,173826.0,22808.0,-1502.9188674268719,-964.7036308124946,-1627.8732743509365
173826.0,11413.0,173826.0,8629.0,173826.0,22807.0,-1510.7003208153683,-968.9087803624641,-1636.2772555273036
173826.0,11406.0,173826.0,8640.0,173826.0,22796.0,-1518.0522481281703,-972.8491795579882,-1644.314033245382
173826.0,11396.0,173826.0,8627.0,173826.0,22797.0,-1524.9381808213398,-976.5066088919432,-1651.9565780949574
173826.0,11378.0,173826.0,8615.0,173826.0,22781.0,-1531.320430709493,-979.8625236248192,-1659.1772630029566
173826.0,11375.0,173826.0,8598.0,173826.0,22771.0,-1537.1602218581688,-982.8981690754783,-1665.947925390053
173837.0,11367.0,173837.0,8608.0,173837.0,22748.0,-1542.4178715301148,-985.5948536332917,-1672.2400506583888
173837.0,11360.0,173837.0,8603.0,173837.0,22760.0,-1547.0529162038392,-987.9341453439714,-1678.0250455387131
173837.0,11345.0,173837.0,8598.0,173837.0,22760.0,-1551.0242203721834,-989.897911721963,-1683.2744119863523
173837.0,11340.0,173837.0,8599.0,173837.0,22750.0,-1554.290148351903,-991.4683329014962,-1687.959723385993
173837.0,11327.0,173837.0,8592.0,173837.0,22730.0,-1556.808792336733,-992.6279615653705,-1692.0526083809011
173837.0,11308.0,173837.0,8591.0,173837.0,22719.0,-1558.5382418466952,-993.3598059419272,-1695.5249638292416
173847.0,11309.0,173847.0,8575.0,173847.0,22727.0,-1559.436918184937,-993.6474566695266,-1698.3493026869228
173847.0,11319.0,173847.0,8596.0,173847.0,22745.0,-1559.463872042697,-993.4752540280274,-1700.498940235033
173847.0,11318.0,173847.0,8606.0,173847.0,22728.0,-1558.578879647946,-992.8283422630728,-1701.9479082332455
173847.0,11304.0,173847.0,8584.0,173847.0,22722.0,-1556.742423775298,-991.6925528205736,-1702.670858920399
173847.0,11299.0,173847.0,8580.0,173847.0,22719.0,-1553.9158118567584,-990.0543901728128,-1702.6432025468744
173847.0,11286.0,173847.0,8579.0,173847.0,22709.0,-1550.0614972269163,-987.9012846136565,-1701.8413881884744
173857.0,11288.0,173857.0,8588.0,173857.0,22723.0,-1545.1434853492588,-985.2218797283082,-1700.2431626875375
173857.0,11300.0,173857.0,8607.0,173857.0,22736.0,-1539.1276825471118,-982.0061181651195,-1697.8277012209473
173857.0,11311.0,173857.0,8603.0,173857.0,22731.0,-1531.9820649504863,-978.2451280977866,-1694.5755677133661
173857.0,11299.0,173857.0,8601.0,173857.0,22728.0,-1523.676711254996,-973.9311009318794,-1690.468675759069
173857.0,11309.0,173857.0,8603.0,173857.0,22743.0,-1514.1839148388854,-969.0573406527881,-1685.490402457492
173857.0,11312.0,173857.0,8604.0,173857.0,22733.0,-1503.478436913344,-963.6184425675365,-1679.6257586058452
173868.0,11324.0,173868.0,8630.0,173868.0,22742.0,-1491.5377579131518,-957.6104296377912,-1672.861553046595
173868.0,11345.0,173868.0,8641.0,173868.0,22757.0,-1478.3422307999576,-951.0307109868031,-1665.1865739104464
173868.0,11351.0,173868.0,8650.0,173868.0,22770.0,-1463.8751349779236,-943.8778809211191,-1656.5916900381808
173868.0,11355.0,173868.0,8658.0,173868.0,22781.0,-1448.1227285915654,-936.1515366381121,-1647.0698263945671
173868.0,11370.0,173868.0,8652.0,173868.0,22798.0,-1431.0744272362417,-927.8522462064386,-1636.6159109050059
173868.0,11387.0,173868.0,8661.0,173868.0,22807.0,-1412.7230589273863,-918.9816769494305,-1625.2268475815536
173878.0,11408.0,173878.0,8671.0,173878.0,22832.0,-1393.0650499568815,-909.54280123693,-1612.9014999101182
173878.0,11436.0,173878.0,8697.0,173878.0,22856.0,-1372.1004973407505,-899.5400136824051,-1599.6406299559017
173878.0,11464.0,173878.0,8712.0,173878.0,22883.0,-1349.833140111239,-888.9790544123844,-1585.4467284628513
173878.0,11480.0,173878.0,8723.0,173878.0,22872.0,-1326.2702759920712,-877.8668151655722,-1570.3238269883602
173878.0,11498.0,173878.0,8724.0,173878.0,22900.0,-1301.4227488029203,-866.2112182647096,-1554.2775085280605
173878.0,11533.0,173878.0,8738.0,173878.0,22911.0,-1275.3050589694049,-854.0212734701556,-1537.3151063778685
173889.0,11573.0,173889.0,8765.0,173889.0,22946.0,-1247.9354409565858,-841.3071971042556,-1519.445850224684
173889.0,11610.0,173889.0,8797.0,173889.0,22975.0,-1219.3357493022972,-828.0803644718286,-1500.6808276813435
173889.0,11634.0,173889.0,8814.0,173889.0,22993.0,-1189.531233605755,-814.3530264383752,-1481.0328135798768
173889.0,11660.0,173889.0,8813.0,173889.0,23008.0,-1158.5504162758293,-800.1380083595891,-1460.5161366538446
173889.0,11691.0,173889.0,8816.0,173889.0,23038.0,-1126.4251551909563,-785.448678333654,-1439.1467025925856
173889.0,11728.0,173889.0,8831.0,173889.0,23081.0,-1093.1907790381972,-770.2992045959645,-1416.9420353870648
173899.0,11795.0,173899.0,8889.0,173899.0,23106.0,-1058.886100017743,-754.7047717528627,-1393.9211421716955
173899.0,11822.0,173899.0,8894.0,173899.0,23137.0,-1023.5531833658715,-738.6814295731986,-1370.104265751164
173899.0,11874.0,173899.0,8916.0,173899.0,23166.0,-987.2370019558302,-722.2457235997197,-1345.5127022821757
173899.0,11912.0,173899.0,8923.0,173899.0,23182.0,-949.9851810334163,-705.4145037096538,-1320.168734045717
173899.0,11943.0,173899.0,8937.0,173899.0,23209.0,-911.8478619860517,-688.2049890133969,-1294.0956826878291
173899.0,11999.0,173899.0,8956.0,173899.0,23254.0,-872.8776512216309,-670.6349306928967,-1267.3180235145587
173909.0,12044.0,173909.0,8987.0,173909.0,23288.0,-833.1295655103951,-652.7227244863166,-1239.8613759222496
173909.0,12094.0,173909.0,9015.0,173909.0,23326.0,-792.6608648263366,-634.4873568882567,-1211.7523165498453
173909.0,12142.0,173909.0,9033.0,173909.0,23350.0,-751.5308194734301,-615.9482067285793,-1183.0181762179925
173909.0,12200.0,173909.0,9040.0,173909.0,23378.0,-709.8004744001107,-597.1248897195537,-1153.686967523169
173909.0,12238.0,173909.0,9075.0,173909.0,23428.0,-667.5324006868909,-578.0372667655587,-1123.787415889817
173909.0,12296.0,173909.0,9106.0,173909.0,23467.0,-624.7904727036669,-558.7054636191602,-1093.3489110347077
173920.0,12356.0,173920.0,9138.0,173920.0,23505.0,-581.6396628382113,-539.1496988667071,-1062.4012969608216
173920.0,12401.0,173920.0,9156.0,173920.0,23547.0,-538.1457647066259,-519.3899843499189,-1030.974627020752
173920.0,12449.0,173920.0,9166.0,173920.0,23581.0,-494.37509940513826,-499.44592604889885,-999.0989761723001
173920.0,12503.0,173920.0,9183.0,173920.0,23618.0,-450.3943220710087,-479.336752271931,-966.8043094509383
173920.0,12554.0,173920.0,9208.0,173920.0,23640.0,-406.2702760105036,-459.08148351795353,-934.1204380613494
173920.0,12621.0,173920.0,9244.0,173920.0,23700.0,-362.069778905514,-438.6990288705675,-901.0770540183041
173930.0,12674.0,173930.0,9273.0,173930.0,23730.0,-317.85929441125325,-418.2080747383852,-867.7037047536883
173930.0,12719.0,173930.0,9295.0,173930.0,23764.0,-273.7045537638463,-397.6268361575664,-834.029668272947
173930.0,12767.0,173930.0,9301.0,173930.0,23817.0,-229.6702830954937,-376.9728805172973,-800.0838553938881
173930.0,12824.0,173930.0,9335.0,173930.0,23841.0,-185.82006468357974,-356.26314656381237,-765.8947441870047
173930.0,12871.0,173930.0,9353.0,173930.0,23875.0,-142.21619849421484,-335.51403668821473,-731.4903355580508
173930.0,12923.0,173930.0,9390.0,173930.0,23931.0,-98.91951136581372,-314.7414058825792,-696.8981816621558
173940.0,12974.0,173940.0,9402.0,173940.0,23972.0,-55.98916240588767,-293.9604488536354,-662.1453486247697
173940.0,13014.0,173940.0,9432.0,173940.0,24006.0,-13.482470961175636,-273.18559608277155,-627.2582317240634
173940.0,13067.0,173940.0,9445.0,173940.0,24026.0,28.54521249616164,-252.43048107332754,-592.2624447629433
173940.0,13112.0,173940.0,9461.0,173940.0,24079.0,70.0406065677164,-231.70798438615446,-557.1829224075202
173940.0,13154.0,173940.0,9490.0,173940.0,24127.0,110.95261045960706,-211.03033782811332,-522.0440262136988
173940.0,13201.0,173940.0,9514.0,173940.0,24163.0,151.23240428915074,-190.40919730462423,-486.86944508552676
173951.0,13250.0,173951.0,9546.0,173951.0,24201.0,190.8335378019991,-169.8555908451633,-451.68201281796973
173951.0,13293.0,173951.0,9556.0,173951.0,24242.0,229.71206372435256,-149.37979403790325,-416.50362408753097
173951.0,13335.0,173951.0,9567.0,173951.0,24270.0,267.82670106776993,-128.9912964348382,-381.35523600441036
173951.0,13371.0,173951.0,9587.0,173951.0,24300.0,305.13895493516554,-108.69895168204062,-346.25694236909544
173951.0,13408.0,173951.0,9608.0,173951.0,24344.0,341.6131577413016,-88.51119975813822,-311.2281320898122
173951.0,13448.0,173951.0,9638.0,173951.0,24388.0,377.2164573832491,-68.43618698865941,-276.28760765566983
173961.0,13481.0,173961.0,9661.0,173961.0,24420.0,411.9188041136699,-48.48173701228984,-241.45356589197013
173961.0,13530.0,173961.0,9673.0,173961.0,24458.0,445.69297361278836,-28.655261475141742,-206.74354359202255
173961.0,13547.0,173961.0,9679.0,173961.0,24492.0,478.5146252130811,-8.963778164899054,-172.17443671098772
173961.0,13580.0,173961.0,9714.0,173961.0,24525.0,510.3623071195234,10.585913066369812,-137.76257433418334
173961.0,13611.0,173961.0,9743.0,173961.0,24580.0,541.2173446600416,29.98710526589116,-103.52377603589946
173961.0,13677.0,173961.0,9767.0,173961.0,24614.0,571.0637822587589,49.233286518273076,-69.4733010261989
173971.0,13679.0,173971.0,9779.0,173971.0,24638.0,599.8885517575395,68.31833186531821,-35.62573106607215
173971.0,13704.0,173971.0,9800.0,173971.0,24661.0,627.6816429737016,87.23657070629145,-1.9950092598567153
173971.0,13720.0,173971.0,9808.0,173971.0,24706.0,654.4359774111942,105.98270761875722,31.405317185036438
173971.0,13750.0,173971.0,9831.0,173971.0,24745.0,680.1471028312287,124.55167571284574,64.56189151331682
173971.0,13765.0,173971.0,9853.0,173971.0,24780.0,704.8129517658042,142.9385056682255,97.46153151785188
173971.0,13788.0,173971.0,9881.0,173971.0,24817.0,728.4336722219737,161.13829966645278,130.09129635913268
173982.0,13814.0,173982.0,9886.0,173982.0,24835.0,751.0114760113786,179.1462962176588,162.43848678596873
173982.0,13841.0,173982.0,9883.0,173982.0,24880.0,772.5505512527886,196.95783379089755,194.4905346611697
173982.0,13848.0,173982.0,9917.0,173982.0,24906.0,793.057047077019,214.56809805530952,226.23485911198122
173982.0,13880.0,173982.0,9950.0,173982.0,24950.0,812.5390332658965,231.97190180622476,257.65879292958334
173982.0,13889.0,173982.0,9965.0,173982.0,24977.0,831.006420465616,249.16376486800516,288.7495796323144
173982.0,13916.0,173982.0,9990.0,173982.0,25024.0,848.4709075013684,266.1381464134811,319.49440315858965
173992.0,13912.0,173992.0,9995.0,173992.0,25054.0,864.9459271460066,282.88957286683524,349.8804566792221
173992.0,13926.0,173992.0,10013.0,173992.0,25074.0,880.4464928316431,299.41261097818995,379.8950064276935
173992.0,13937.0,173992.0,10020.0,173992.0,25105.0,894.9889398051828,315.7017327962683,409.52532954585126
173992.0,13946.0,173992.0,10075.0,173992.0,25155.0,908.5906735777214,331.7512123561654,438.75857290956515
173992.0,13970.0,173992.0,10066.0,173992.0,25186.0,921.2700101429689,347.555220210108,467.58175798574064
173992.0,13970.0,173992.0,10097.0,173992.0,25229.0,933.0461074081397,363.10800873218193,495.98196856937943
174001.0,13971.0,174001.0,10107.0,174001.0,25242.0,943.9388941593461,378.4039758973727,523.9465336195776
174001.0,13999.0,174001.0,10110.0,174001.0,25276.0,953.9689170222325,393.43761784196386,551.4630538378242
174001.0,13991.0,174001.0,10142.0,174001.0,25315.0,963.1572100119092,408.203431101875,578.5193169260056
174001.0,14010.0,174001.0,10152.0,174001.0,25337.0,971.5252426768918,422.6958395891877,605.1032699001221
174001.0,14018.0,174001.0,10170.0,174001.0,25366.0,979.094875331421,436.909221366579,631.2030529090378
174001.0,14015.0,174001.0,10188.0,174001.0,25408.0,985.8883206858172,450.8379625498254,656.8070079345218
174012.0,14033.0,174012.0,10194.0,174012.0,25428.0,991.928097005838,464.47647376433383,681.9037214496607
174012.0,14033.0,174012.0,10209.0,174012.0,25447.0,997.2369720865943,477.8191571982991,706.4820832050734
174012.0,14028.0,174012.0,10229.0,174012.0,25490.0,1001.8379195775358,490.8603365794488,730.5312542607978
174012.0,14047.0,174012.0,10255.0,174012.0,25517.0,1005.7540363333235,503.59426156475433,754.0406498626521
174012.0,14047.0,174012.0,10276.0,174012.0,25545.0,1009.0084746919463,516.0152697018569,777.0000508472733
174012.0,14048.0,174012.0,10282.0,174012.0,25571.0,1011.624459766759,528.1180191297398,799.3997346424337
174022.0,14042.0,174022.0,10280.0,174022.0,25590.0,1013.6252756552165,539.8975918547872,821.2305250120094
174022.0,14040.0,174022.0,10289.0,174022.0,25605.0,1015.0341307732365,551.3493544492782,842.4837466991225
174022.0,14051.0,174022.0,10307.0,174022.0,25639.0,1015.873986562732,562.468707877684,863.1511055080009
174022.0,14051.0,174022.0,10335.0,174022.0,25663.0,1016.1674823916337,573.2509795707956,883.224611487637
174022.0,14045.0,174022.0,10344.0,174022.0,25693.0,1015.9369538839712,583.6915509918329,902.6966365592596
174022.0,14048.0,174022.0,10345.0,174022.0,25711.0,1015.2044184806837,593.7860427608772,921.5600400685
174032.0,14050.0,174032.0,10353.0,174032.0,25735.0,1013.9915133456216,603.5303288087156,939.808259303855
174032.0,14032.0,174032.0,10370.0,174032.0,25748.0,1012.319439548341,612.9204060128277,957.4353287897752
174032.0,14045.0,174032.0,10396.0,174032.0,25788.0,1010.2088713532385,621.9523481326207,974.4358730933552
174032.0,14027.0,174032.0,10408.0,174032.0,25788.0,1007.6798360044897,630.6224655994147,990.8051482202327
174032.0,14035.0,174032.0,10411.0,174032.0,25816.0,1004.7516220299808,638.9275417716042,1006.5390872566677
174032.0,14041.0,174032.0,10418.0,174032.0,25828.0,1001.4427417285858,646.8649373320627,1021.6342714915845
174043.0,14030.0,174043.0,10417.0,174043.0,25854.0,997.7709836467,654.4325184115976,1036.0878919141337
174043.0,14032.0,174043.0,10424.0,174043.0,25850.0,993.7534896884081,661.6284955471415,1049.897735606238
174043.0,14034.0,174043.0,10438.0,174043.0,25888.0,989.4067793843424,668.4512706868779,1063.062132367705
174043.0,14030.0,174043.0,10464.0,174043.0,25894.0,984.746789572773,674.8994177750774,1075.579914267763
174043.0,14029.0,174043.0,10476.0,174043.0,25919.0,979.788953244808,680.9718779195352,1087.4504711543184
174043.0,14018.0,174043.0,10464.0,174043.0,25930.0,974.5482462096929,686.6682234806435,1098.67384347544
174053.0,14011.0,174053.0,10468.0,174053.0,25927.0,969.0391585848611,691.9887138673822,1109.2507512508855
174053.0,14007.0,174053.0,10485.0,174053.0,25963.0,963.2756047950425,696.9341390083748,1119.1825288410425
174053.0,14011.0,174053.0,10487.0,174053.0,25982.0,957.2708566109986,701.505721670945,1128.471117273515
174053.0,14013.0,174053.0,10509.0,174053.0,25996.0,951.0375938952625,705.7051899103926,1137.119261819159
174053.0,14005.0,174053.0,10500.0,174053.0,25994.0,944.5880564373358,709.5349164023123,1145.130738693952
174053.0,14009.0,174053.0,10495.0,174053.0,26000.0,937.9341932590924,712.9979748482042,1152.510369977901
174063.0,13992.0,174063.0,10496.0,174063.0,25999.0,931.0877523306026,716.0980081464412,1159.2638407988893
174063.0,13980.0,174063.0,10504.0,174063.0,26018.0,924.0602779312082,718.839009418781,1165.3974785051435
174063.0,13982.0,174063.0,10524.0,174063.0,26037.0,916.8630051595728,721.2252383877002,1170.9181616176318
174063.0,13992.0,174063.0,10527.0,174063.0,26032.0,909.5068050244638,723.2613539270714,1175.8334028846543
174063.0,13979.0,174063.0,10516.0,174063.0,26046.0,902.0023214149976,724.9526068231869,1180.1514443225035
174063.0,13958.0,174063.0,10513.0,174063.0,26055.0,894.360131631131,726.304851773754,1183.8812648401322
174074.0,13954.0,174074.0,10515.0,174074.0,26057.0,886.5906953798633,727.324362267184,1187.0325892277986
174074.0,13958.0,174074.0,10524.0,174074.0,26058.0,878.7041951066333,728.017660646615,1189.615902270326
174074.0,13952.0,174074.0,10536.0,174074.0,26073.0,870.7105202909208,728.3915189855679,1191.6424150574571
174074.0,13966.0,174074.0,10542.0,174074.0,26075.0,862.6194338291662,728.4531244950183,1193.1240580333754
174074.0,13938.0,174074.0,10536.0,174074.0,26074.0,854.4407967383056,728.2102857960654,1194.07352875811
174074.0,13940.0,174074.0,10520.0,174074.0,26081.0,846.1846950370898,727.6714976908684,1194.5043029309454
174084.0,13920.0,174084.0,10516.0,174084.0,26062.0,837.8613996799934,726.8457710895461,1194.4305617230257
174084.0,13930.0,174084.0,10527.0,174084.0,26086.0,829.4812765945218,725.7423694819734,1193.8670592721257
174084.0,13923.0,174084.0,10539.0,174084.0,26087.0,821.0547982705391,724.3707187976539,1192.8290513083107
174084.0,13916.0,174084.0,10533.0,174084.0,26079.0,812.5926666862152,722.7405571392794,1191.3323633619618
174084.0,13904.0,174084.0,10529.0,174084.0,26075.0,804.1059197380266,720.8621095715957,1189.3934260476756
174084.0,13882.0,174084.0,10513.0,174084.0,26066.0,795.6059014299427,718.7460832552181,1187.029139302737
174095.0,13877.0,174095.0,10501.0,174095.0,26066.0,787.104091419194,716.4034623590943,1184.2566581440162
174095.0,13879.0,174095.0,10517.0,174095.0,26072.0,778.6119250965985,713.8452339506632,1181.0932309435473
174095.0,13883.0,174095.0,10524.0,174095.0,26082.0,770.1407900149883,711.0822853348905,1177.5561847872407
174095.0,13872.0,174095.0,10505.0,174095.0,26076.0,761.7022104394471,708.1255311770786,1173.6630593853881
174095.0,13846.0,174095.0,10498.0,174095.0,26063.0,753.3079950181705,704.985986738049,1169.4317250548306
174095.0,13837.0,174095.0,10501.0,174095.0,26064.0,744.970144829688,701.6746330672134,1164.8803344520122
174105.0,13846.0,174105.0,10495.0,174105.0,26071.0,736.7006347544664,698.202268076061,1160.0272046198259
174105.0,13841.0,174105.0,10513.0,174105.0,26066.0,728.5113652717808,694.5795050367402,1154.8908149460028
174105.0,13837.0,174105.0,10506.0,174105.0,26050.0,720.4143267940839,690.8169161338252,1149.4898678265854
174105.0,13822.0,174105.0,10505.0,174105.0,26060.0,712.4217575923781,686.9252296581125,1143.843253589128
174105.0,13805.0,174105.0,10466.0,174105.0,26045.0,704.5461411217113,682.9153761042667,1137.9699656185303
174105.0,13793.0,174105.0,10470.0,174105.0,26032.0,696.8000403282448,678.7982371189289,1131.8890278127487
174115.0,13798.0,174115.0,10490.0,174115.0,26043.0,689.1958919835506,674.5843155106904,1125.6193791171795
174115.0,13788.0,174115.0,10482.0,174115.0,26031.0,681.7459265876705,670.2837084561585,1119.1797873795333
174115.0,13783.0,174115.0,10498.0,174115.0,26034.0,674.462215464474,665.9063714215042,1112.5888708403447
174115.0,13771.0,174115.0,10475.0,174115.0,26030.0,667.3567050181883,661.462377008811,1105.8651517764627
174115.0,13759.0,174115.0,10463.0,174115.0,26008.0,660.4411628838907,656.9619801974577,1099.0270668192436
174115.0,13747.0,174115.0,10457.0,174115.0,26009.0,653.7270436819309,652.4154512041268,1092.0928726387756
174126.0,13745.0,174126.0,10461.0,174126.0,26010.0,647.2253225674123,647.8328456242913,1085.0804969936266
174126.0,13745.0,174126.0,10459.0,174126.0,25999.0,640.9463933453941,643.2239280636854,1078.0074883609677
174126.0,13731.0,174126.0,10458.0,174126.0,25998.0,634.9000692494625,638.5982428653623,1070.8910413090111
174126.0,13726.0,174126.0,10442.0,174126.0,25982.0,629.0955868866886,633.9651838856646,1063.7479756229557
174126.0,13722.0,174126.0,10432.0,174126.0,25989.0,623.5415442262039,629.3339395640753,1056.5946666064515
174126.0,13719.0,174126.0,10431.0,174126.0,25983.0,618.2458411401893,624.713319055667,1049.447011012676
174136.0,13726.0,174136.0,10436.0,174136.0,25982.0,613.215697097786,620.1116169813034,1042.3204766461943
174136.0,13722.0,174136.0,10443.0,174136.0,25975.0,608.4577578989318,615.5366581725997,1035.2301784582714
174136.0,13719.0,174136.0,10430.0,174136.0,25969.0,603.9782385972231,610.995975598069,1028.190909805892
174136.0,13695.0,174136.0,10415.0,174136.0,25947.0,599.7829728780744,606.4969127735956,1021.2170899359459
174136.0,13692.0,174136.0,10411.0,174136.0,25951.0,595.8772695295132,602.046516848011,1014.3226069811956
174136.0,13690.0,174136.0,10428.0,174136.0,25954.0,592.2656628390166,597.6513799774019,1007.5206693328195
174146.0,13709.0,174146.0,10417.0,174146.0,25944.0,588.9517914988364,593.3176695839272,1000.8238086267085
174146.0,13689.0,174146.0,10413.0,174146.0,25948.0,585.9384989660507,589.051284551101,994.2439691590986
174146.0,13689.0,174146.0,10413.0,174146.0,25927.0,583.2279548119259,584.857926688898,987.7925436901575
174146.0,13685.0,174146.0,10387.0,174146.0,25926.0,580.8216188812878,580.7430508504567,981.4803066809548
174146.0,13696.0,174146.0,10394.0,174146.0,25920.0,578.7201635439601,576.7117178016468,975.3172790003731
174146.0,13680.0,174146.0,10400.0,174146.0,25927.0,576.9234875572718,572.7684407364937,969.312643155217
174157.0,13684.0,174157.0,10408.0,174157.0,25915.0,575.4307324752172,568.9172236005646,963.4747714565234
174157.0,13695.0,174157.0,10402.0,174157.0,25915.0,574.2402510152738,565.1617870286868,957.8112777827596
174157.0,13676.0,174157.0,10383.0,174157.0,25907.0,573.3496164546051,561.5057348723781,952.3290096973061
174157.0,13682.0,174157.0,10360.0,174157.0,25905.0,572.7556225167266,557.952448705463,947.034000912182
174157.0,13682.0,174157.0,10370.0,174157.0,25892.0,572.4541969269428,554.5047466200007,941.9314061388553
174157.0,13685.0,174157.0,10400.0,174157.0,25904.0,572.440338022174,551.1646644044347,937.0254242041344
174167.0,13695.0,174167.0,10390.0,174167.0,25904.0,572.7081494254498,547.9336565010703,932.3192922383997
174167.0,13703.0,174167.0,10383.0,174167.0,25919.0,573.2509567572124,544.8129778770342,927.8154337730917
174167.0,13695.0,174167.0,10378.0,174167.0,25895.0,574.0614640750389,541.803833920346,923.5156776695262
174167.0,13692.0,174167.0,10359.0,174167.0,25900.0,575.1318207386032,538.9072679627691,919.4213494748775
174167.0,13698.0,174167.0,10358.0,174167.0,25896.0,576.4535422717051,536.1239361465562,915.5331966953123
174167.0,13705.0,174167.0,10381.0,174167.0,25898.0,578.0174251125541,533.4539254303833,911.8513138889649
174177.0,13710.0,174177.0,10385.0,174177.0,25915.0,579.8135749271585,530.8968332763287,908.375186955134
174177.0,13718.0,174177.0,10371.0,174177.0,25901.0,581.8315123569191,528.4520624688325,905.1038485218075
174177.0,13710.0,174177.0,10363.0,174177.0,25896.0,584.0602654525579,526.1189789496791,902.0360068345838
174177.0,13722.0,174177.0,10343.0,174177.0,25889.0,586.4883884212982,523.8967667422867,899.1699943753795
174177.0,13722.0,174177.0,10361.0,174177.0,25892.0,589.1039373978781,521.7841479556463,896.5036030364666
174177.0,13727.0,174177.0,10367.0,174177.0,25909.0,591.8944724164003,519.7792491937298,894.0340082773854
174188.0,13742.0,174188.0,10379.0,174188.0,25893.0,594.8470981120051,517.8797560732226,891.7578572149581
174188.0,13774.0,174188.0,10371.0,174188.0,25899.0,597.9486184315497,516.0832102011004,889.6713750303576
174188.0,13745.0,174188.0,10352.0,174188.0,25898.0,601.1858381475613,514.3871714349037,887.770362307186
174188.0,13744.0,174188.0,10338.0,174188.0,25892.0,604.5457201845911,512.7890795589319,886.0501481816909
174188.0,13746.0,174188.0,10354.0,174188.0,25900.0,608.0151887174126,511.28593080873094,884.5055520585147
174188.0,13768.0,174188.0,10374.0,174188.0,25902.0,611.5808739270308,509.8741335984905,883.1308682100838
174198.0,13776.0,174198.0,10380.0,174198.0,25912.0,615.2291266817908,508.54974794489806,881.9199280678547
174198.0,13780.0,174198.0,10353.0,174198.0,25901.0,618.9462327464998,507.3088435946702,880.8662100338339
174198.0,13775.0,174198.0,10356.0,174198.0,25900.0,622.7185719712536,506.1475722366675,879.9628715409368
174198.0,13770.0,174198.0,10351.0,174198.0,25902.0,626.5325812419703,505.0619579719767,879.202661075084
174198.0,13785.0,174198.0,10359.0,174198.0,25915.0,630.3745863925342,504.04771579636446,878.577839899274
174198.0,13808.0,174198.0,10354.0,174198.0,25916.0,634.2307301749106,503.1002257198494,878.0802391851931
174208.0,13803.0,174208.0,10375.0,174208.0,25923.0,638.0871323189658,502.21460599865526,877.7014062569291
174208.0,13815.0,174208.0,10356.0,174208.0,25914.0,641.9301161841013,501.38584515361333,877.4327127155532
174208.0,13806.0,174208.0,10369.0,174208.0,25923.0,645.7462960303242,500.60890995879737,877.2653640052891
174208.0,13806.0,174208.0,10357.0,174208.0,25927.0,649.5225091601766,499.87875873101035,877.1903714115065
174208.0,13822.0,174208.0,10369.0,174208.0,25942.0,653.2456803848524,499.19031674621306,877.1986041503501
174208.0,13824.0,174208.0,10373.0,174208.0,25935.0,656.9027629253142,498.5385029891348,877.2809360059005
174219.0,13840.0,174219.0,10352.0,174219.0,25935.0,660.4808209307948,497.9182942336174,877.4283552671541
174219.0,13836.0,174219.0,10365.0,174219.0,25926.0,663.967164992285,497.32470114716244,877.6319229072212
174219.0,13833.0,174219.0,10350.0,174219.0,25931.0,667.3494196448858,496.75264241636245,877.882613699705
174219.0,13839.0,174219.0,10363.0,174219.0,25934.0,670.615462557148,496.19684252591503,878.1711680572456
174219.0,13862.0,174219.0,10373.0,174219.0,25948.0,673.7533531831921,495.6518343051009,878.4880601190106
174219.0,13856.0,174219.0,10371.0,174219.0,25941.0,676.7514212617475,495.11209474375397,878.8235823869227
174229.0,13863.0,174229.0,10375.0,174229.0,25945.0,679.5984325746938,494.5722292565425,879.1679278187007
174229.0,13862.0,174229.0,10363.0,174229.0,25938.0,682.2836522300387,494.02705886416214,879.5111685049667
174229.0,13852.0,174229.0,10345.0,174229.0,25954.0,684.796787617913,493.47153558710613,879.8431777928716
174229.0,13869.0,174229.0,10373.0,174229.0,25969.0,687.1278680509802,492.900532765613,880.1536499797685
174229.0,13882.0,174229.0,10377.0,174229.0,25974.0,689.2671929643882,492.30876950605614,880.4323049229598
174229.0,13879.0,174229.0,10376.0,174229.0,25970.0,691.2054603016984,491.6910090558234,880.6691463545358
174239.0,13877.0,174239.0,10377.0,174239.0,25968.0,692.9339256439066,491.0422904530942,880.8545698351193
174239.0,13871.0,174239.0,10358.0,174239.0,25954.0,694.4443960799435,490.3579750566504,880.9792720986827
174239.0,13882.0,174239.0,10364.0,174239.0,25967.0,695.7291076698662,489.6336182333938,881.0340511430073
174239.0,13887.0,174239.0,10376.0,174239.0,25991.0,696.7806628290996,488.86482015650347,881.0097017633273
174239.0,13888.0,174239.0,10377.0,174239.0,25985.0,697.5920946673427,488.04725013529514,880.8971768189491
174239.0,13893.0,174239.0,10373.0,174239.0,25984.0,698.1569715002527,487.1768081913866,880.6878465598045
174250.0,13903.0,174250.0,10369.0,174250.0,25985.0,698.4694891404257,486.24971355278785,880.37358512449
174250.0,13882.0,174250.0,10357.0,174250.0,25979.0,698.524553196935,485.26244127192535,879.9467026999828
174250.0,13895.0,174250.0,10364.0,174250.0,25983.0,698.3177726444453,484.21157184869946,879.3998490756501
174250.0,13911.0,174250.0,10360.0,174250.0,25988.0,697.8454154182618,483.093667301575,878.7259455046965
174250.0,13900.0,174250.0,10391.0,174250.0,25998.0,697.1045143813967,481.9052972444075,877.9182078456238
174250.0,13900.0,174250.0,10380.0,174250.0,25998.0,696.0930347384885,480.6432697189297,876.9702733535105
174260.0,13875.0,174260.0,10358.0,174260.0,25984.0,694.8098540731181,479.30487666113993,875.8763119388651
174260.0,13887.0,174260.0,10354.0,174260.0,25974.0,693.2545449547979,477.88784042592624,874.6309581769608
174260.0,13888.0,174260.0,10365.0,174260.0,25988.0,691.4271746666689,476.3900363344676,873.229088540482
174260.0,13886.0,174260.0,10356.0,174260.0,25991.0,689.3282880131885,474.80934344597614,871.6656909232664
174260.0,13890.0,174260.0,10378.0,174260.0,25978.0,686.9590023748069,473.14370457201926,869.9359136407278
174260.0,13871.0,174260.0,10349.0,174260.0,25991.0,684.3210632111767,471.39125191708456,868.035111933767
174270.0,13855.0,174270.0,10346.0,174270.0,25985.0,681.4167547416911,469.55032032292996,865.9588374907466
174270.0,13857.0,174270.0,10357.0,174270.0,25985.0,678.2486434859558,467.61929353584486,863.7028561321591
174270.0,13866.0,174270.0,10364.0,174270.0,25994.0,674.8193529156545,465.59652437271194,861.263185705091
174270.0,13871.0,174270.0,10366.0,174270.0,25994.0,671.1315917440885,463.4804927582844,858.6361664645483
174270.0,13860.0,174270.0,10353.0,174270.0,25999.0,667.1883629129436,461.2700134787998,855.8185944231845
174270.0,13849.0,174270.0,10347.0,174270.0,25992.0,662.9930961731199,458.96427513654623,852.8078530253845
174281.0,13849.0,174281.0,10343.0,174281.0,25976.0,658.5495989259666,456.5627123655955,849.6019420604073
174281.0,13833.0,174281.0,10341.0,174281.0,25975.0,653.8619344927661,454.06485501864927,846.1993472331349
174281.0,13843.0,174281.0,10343.0,174281.0,25980.0,648.9343329219473,451.47025552958667,842.5988536662672
174281.0,13844.0,174281.0,10348.0,174281.0,25973.0,643.7711969368138,448.7785126800784,838.7994753987743
174281.0,13835.0,174281.0,10350.0,174281.0,25972.0,638.3772312166566,445.98938571191695,834.8004827057235
174281.0,13819.0,174281.0,10339.0,174281.0,25966.0,632.7575532054549,443.10293403627094,830.6014078704102
174291.0,13804.0,174291.0,10322.0,174291.0,25950.0,626.9176153009704,440.1195388610743,826.2019849086427
174291.0,13807.0,174291.0,10327.0,174291.0,25964.0,620.8629949214828,437.03974804540843,821.6020394488747
174291.0,13795.0,174291.0,10329.0,174291.0,25961.0,614.5992425031103,433.8641121369742,816.8014441273655
174291.0,13792.0,174291.0,10319.0,174291.0,25959.0,608.1318459348878,430.5931674012182,811.8002184269628
174291.0,13782.0,174291.0,10310.0,174291.0,25955.0,601.466226254845,427.2274565430833,806.5986555848516
174291.0,13772.0,174291.0,10318.0,174291.0,25947.0,594.6077077636105,423.7674697273468,801.1973672844133
174301.0,13774.0,174301.0,10307.0,174301.0,25931.0,587.5614765442774,420.213596946041,795.5972359998968
174301.0,13772.0,174301.0,10312.0,174301.0,25934.0,580.3325960204891,416.5661524273526,789.79928509111
174301.0,13772.0,174301.0,10312.0,174301.0,25941.0,572.9261319987081,412.8254305973506,783.8045839939067
174301.0,13753.0,174301.0,10315.0,174301.0,25932.0,565.3473101256118,408.99180572399916,777.6143179894369
174301.0,13750.0,174301.0,10305.0,174301.0,25922.0,557.6015740511235,405.06586308852343,771.229919304907
174301.0,13735.0,174301.0,10294.0,174301.0,25904.0,549.6945319823699,401.04845441189104,764.6530571325601
174312.0,13728.0,174312.0,10269.0,174312.0,25909.0,541.6318723989486,396.94057632974307,757.8854824704679
174312.0,13718.0,174312.0,10289.0,174312.0,25906.0,533.419289221011,392.7431184336247,750.9289118881416
174312.0,13722.0,174312.0,10291.0,174312.0,25903.0,525.0624486239889,388.45673785892143,743.7850655103224
174312.0,13714.0,174312.0,10300.0,174312.0,25900.0,516.567053977439,384.0820364531576,736.4557842831432
174312.0,13700.0,174312.0,10277.0,174312.0,25888.0,507.9389682469659,379.6198502706612,728.9431171822621
174312.0,13675.0,174312.0,10277.0,174312.0,25884.0,499.1842317738124,375.07135995433487,721.2493418724437
174322.0,13671.0,174322.0,10252.0,174322.0,25867.0,490.30889631503754,370.43797138129975,713.3769207728209
174322.0,13670.0,174322.0,10255.0,174322.0,25865.0,481.3188329977597,365.72108795649547,705.3284126888478
174322.0,13669.0,174322.0,10257.0,174322.0,25853.0,472.2197224334678,360.92192831199,697.1063804038888
174322.0,13656.0,174322.0,10260.0,174322.0,25857.0,463.01720858653255,356.04152495579154,688.7133487860282
174322.0,13645.0,174322.0,10249.0,174322.0,25844.0,453.71703002722575,351.08086942587147,680.1518376092608
174322.0,13624.0,174322.0,10226.0,174322.0,25839.0,444.32501100690195,346.0409833280575,671.4244224586199
174333.0,13623.0,174333.0,10243.0,174333.0,25841.0,434.84694252258026,340.92281201378285,662.5337831593987
174333.0,13614.0,174333.0,10241.0,174333.0,25830.0,425.28848269865017,335.72714930577445,653.4827801173946
174333.0,13613.0,174333.0,10249.0,174333.0,25836.0,415.6551774821671,330.4547915633483,644.274580739658
174333.0,13598.0,174333.0,10228.0,174333.0,25812.0,405.9525650389004,325.10678546893985,634.912783221672
174333.0,13586.0,174333.0,10206.0,174333.0,25796.0,396.18624831499574,319.6844902330844,625.4014343843071
174333.0,13564.0,174333.0,10206.0,174333.0,25785.0,386.36185260914203,314.18936918537844,615.7448746582966
174343.0,13557.0,174343.0,10210.0,174343.0,25781.0,376.48487404287295,308.6227434346518,605.9475315066411
174343.0,13561.0,174343.0,10227.0,174343.0,25773.0,366.56054826345223,302.98580706099483,596.0138311355158
174343.0,13557.0,174343.0,10200.0,174343.0,25773.0,356.59390109699865,297.27988558127515,585.9482404906
174343.0,13544.0,174343.0,10194.0,174343.0,25751.0,346.5899526467709,291.5066178980473,575.7553523722938
174343.0,13516.0,174343.0,10185.0,174343.0,25751.0,336.55384194185086,285.6678835980567,565.4399204299596
174343.0,13504.0,174343.0,10170.0,174343.0,25730.0,326.49071209619433,279.7656212529541,555.0068236455247
174353.0,13508.0,174353.0,10173.0,174353.0,25728.0,316.4054873513267,273.80168134514093,544.4610087184326
174353.0,13492.0,174353.0,10179.0,174353.0,25716.0,306.3027947997742,267.7777785147358,533.8074486418776
174353.0,13497.0,174353.0,10177.0,174353.0,25702.0,296.18706098361235,261.6956179433563,523.0511254020223
174353.0,13477.0,174353.0,10166.0,174353.0,25690.0,286.06264762574006,255.55711081950648,512.1969941381676
174353.0,13457.0,174353.0,10148.0,174353.0,25687.0,275.9339109942281,249.36446835950932,501.2499184810702
174353.0,13454.0,174353.0,10141.0,174353.0,25670.0,265.8051220198057,243.12009539397314,490.2146416649065
174364.0,13442.0,174364.0,10144.0,174364.0,25664.0,255.68034618518413,236.82642105954923,479.0957912285058
174364.0,13443.0,174364.0,10133.0,174364.0,25671.0,245.5634328008669,230.48584258083068,467.89790905375224
174364.0,13425.0,174364.0,10138.0,174364.0,25644.0,235.45809936706985,224.10078610980446,456.62555920347836
174364.0,13409.0,174364.0,10115.0,174364.0,25633.0,225.36798542308577,217.67377526206127,445.2834142447655
174364.0,13404.0,174364.0,10099.0,174364.0,25605.0,215.29660088276842,211.20738989303902,433.8761539612021
174364.0,13398.0,174364.0,10105.0,174364.0,25610.0,205.2472577790158,204.7040887228424,422.4082410591028
174374.0,13380.0,174374.0,10103.0,174374.0,25602.0,195.2230804156797,198.16608595483166,410.883794299734
174374.0,13367.0,174374.0,10118.0,174374.0,25588.0,185.22700882086133,191.59546596506533,399.30664188308214
174374.0,13376.0,174374.0,10095.0,174374.0,25585.0,175.26175492324296,184.9944550386312,387.6804254282039
174374.0,13354.0,174374.0,10071.0,174374.0,25567.0,165.32983479969556,178.36557080760053,376.00865323538363
174374.0,13336.0,174374.0,10065.0,174374.0,25554.0,155.43364047611504,171.71146110937252,364.29470270755365
174374.0,13331.0,174374.0,10065.0,174374.0,25551.0,145.57538120461544,165.03461634120248,352.5417799083168
174384.0,13338.0,174384.0,10067.0,174384.0,25543.0,135.75699532260847,158.33726890148677,340.75291304451747
174384.0,13332.0,174384.0,10068.0,174384.0,25527.0,125.98025927529733,151.62152415791837,328.9310222637351
174384.0,13300.0,174384.0,10054.0,174384.0,25523.0,116.24699659613691,144.88956299322604,317.07898066784907
174384.0,13286.0,174384.0,10029.0,174384.0,25500.0,106.55907715459557,138.14371753172372,305.19961787442253
174384.0,13288.0,174384.0,10025.0,174384.0,25481.0,96.91819649049296,131.3863147399406,293.29564983917976
174384.0,13268.0,174384.0,10023.0,174384.0,25483.0,87.32572051695922,124.61943757994004,281.36953484508206
174395.0,13273.0,174395.0,10037.0,174395.0,25485.0,77.78268862676077,117.84487077039188,269.42341948842375
174395.0,13276.0,174395.0,10031.0,174395.0,25467.0,68.28991241977974,111.06430798710221,257.4592939776246
174395.0,13247.0,174395.0,10000.0,174395.0,25457.0,58.84814977612484,104.27959985581595,245.47918060651227
174395.0,13232.0,174395.0,9998.0,174395.0,25442.0,49.458180204128894,97.49274923907109,233.48517724471185
174395.0,13238.0,174395.0,9987.0,174395.0,25424.0,40.12068024910877,90.70569018149445,221.47939017776537
174395.0,13222.0,174395.0,9976.0,174395.0,25422.0,30.836129638616626,83.92010341275704,209.46383919795926
174405.0,13206.0,174405.0,9989.0,174405.0,25431.0,21.604841230993543,77.13735536541509,197.44045427357764
174405.0,13212.0,174405.0,9976.0,174405.0,25407.0,12.426964993916272,70.35856469912397,185.41125479383822
174405.0,13187.0,174405.0,9960.0,174405.0,25386.0,3.302470046941835,63.584725453914984,173.37852513924895
174405.0,13194.0,174405.0,9952.0,174405.0,25368.0,-5.768838575996483,56.8167006111388,161.34474163694495
174405.0,13173.0,174405.0,9952.0,174405.0,25361.0,-14.787300825894022,50.055098169826294,149.31233784337826
174405.0,13178.0,174405.0,9955.0,174405.0,25350.0,-23.75337614957948,43.30023815146876,137.28354484704766
174415.0,13177.0,174415.0,9958.0,174415.0,25349.0,-32.667565059682715,36.552299554624994,125.26038341174706
174415.0,13160.0,174415.0,9948.0,174415.0,25334.0,-41.530259539872645,29.811558201196704,113.24475526765934
174415.0,13143.0,174415.0,9920.0,174415.0,25318.0,-50.341643697072186,23.078523210464482,101.23853027040934
174415.0,13136.0,174415.0,9918.0,174415.0,25314.0,-59.101766074873694,16.353828404358012,89.24355246024982
174415.0,13123.0,174415.0,9920.0,174415.0,25315.0,-67.81068648657902,9.638018262328217,77.2616479282724
174415.0,13127.0,174415.0,9920.0,174415.0,25292.0,-76.46854963667352,2.931505653634815,65.29473358717723
174426.0,13109.0,174426.0,9920.0,174426.0,25291.0,-85.07555922274832,-3.7652642693698795,53.344931667480296
174426.0,13100.0,174426.0,9907.0,174426.0,25257.0,-93.63193548855838,-10.451616050230484,41.41456844874472
174426.0,13100.0,174426.0,9894.0,174426.0,25245.0,-102.13792503150387,-17.12655953006805,29.50603286865612
174426.0,13075.0,174426.0,9865.0,174426.0,25226.0,-110.59382440999286,-23.78890004577329,17.62152731181709
174426.0,13078.0,174426.0,9877.0,174426.0,25243.0,-119.00001349814329,-30.437500759666648,5.762878468208896
174426.0,13076.0,174426.0,9886.0,174426.0,25222.0,-127.35698643861906,-37.071440147228884,-6.06841170157054
174436.0,13073.0,174436.0,9870.0,174436.0,25218.0,-135.6652709040177,-43.68987647517048,-17.87096400140922
174436.0,13043.0,174436.0,9861.0,174436.0,25196.0,-143.925296366387,-50.291837864308604,-29.643403840842666
174436.0,13045.0,174436.0,9832.0,174436.0,25180.0,-152.13741373336347,-56.87624152585079,-41.38440585741148
174436.0,13028.0,174436.0,9829.0,174436.0,25174.0,-160.30204205551286,-63.442146252086786,-53.09282851497926
174436.0,13028.0,174436.0,9843.0,174436.0,25166.0,-168.41976825572277,-69.98899737423136,-64.76781122953867
174436.0,13010.0,174436.0,9849.0,174436.0,25164.0,-176.49137356050505,-76.51658292158896,-76.40874299556447
174446.0,13011.0,174446.0,9833.0,174446.0,25142.0,-184.51785137541555,-83.02472326394059,-88.01515516164466
174446.0,13008.0,174446.0,9807.0,174446.0,25134.0,-192.50040039250501,-89.51306661281467,-99.58667194562861
174446.0,13000.0,174446.0,9804.0,174446.0,25120.0,-200.4403423082539,-95.98121704804299,-111.12305918349023
174446.0,12989.0,174446.0,9801.0,174446.0,25122.0,-208.33901875766753,-102.42899271098327,-122.62427014226591
174446.0,12988.0,174446.0,9811.0,174446.0,25111.0,-216.19774837457823,-108.85650454886076,-134.09038924673575
174446.0,12984.0,174446.0,9806.0,174446.0,25107.0,-224.01779536965927,-115.26399490620105,-145.52149396335255
174457.0,12968.0,174457.0,9811.0,174457.0,25100.0,-231.80030101814896,-121.651573576587,-156.91750769851433
174457.0,12957.0,174457.0,9784.0,174457.0,25071.0,-239.54626503977045,-128.0190152335624,-168.27811049739
174457.0,12951.0,174457.0,9778.0,174457.0,25061.0,-247.25662742983474,-134.36574775981114,-179.6027965943341
174457.0,12954.0,174457.0,9760.0,174457.0,25056.0,-254.93233535980414,-140.69103350821598,-190.89104644922043
174457.0,12953.0,174457.0,9775.0,174457.0,25052.0,-262.5742696492099,-146.9941654268722,-202.1424109170989
174457.0,12935.0,174457.0,9768.0,174457.0,25041.0,-270.1830793513658,-153.27448177196158,-213.35643269376237
174467.0,12926.0,174467.0,9755.0,174467.0,25023.0,-277.75910251592154,-159.53122574164928,-224.53254874006768
174467.0,12912.0,174467.0,9737.0,174467.0,25014.0,-285.30244596487864,-165.7634888540548,-235.6700991751834
174467.0,12902.0,174467.0,9726.0,174467.0,25001.0,-292.8131350297955,-171.97036559044022,-246.7684123053374
174467.0,12889.0,174467.0,9737.0,174467.0,25000.0,-300.29126039405503,-178.151161483971,-257.82686057963235
174467.0,12906.0,174467.0,9747.0,174467.0,24998.0,-307.73706335247743,-184.30539362468375,-268.84481262081385
174467.0,12889.0,174467.0,9722.0,174467.0,24982.0,-315.150862349181,-190.43255729728628,-279.8214914746991
174477.0,12880.0,174477.0,9704.0,174477.0,24969.0,-322.53289161961743,-196.53198256613024,-290.75586457461725
174477.0,12877.0,174477.0,9703.0,174477.0,24947.0,-329.8832401363961,-202.60298926971507,-301.64668282673495
174477.0,12859.0,174477.0,9691.0,174477.0,24946.0,-337.2018908551927,-208.64512795743724,-312.49263040265146
174477.0,12853.0,174477.0,9707.0,174477.0,24937.0,-344.48878943052125,-214.65826192088866,-323.29243552731634
174477.0,12858.0,174477.0,9703.0,174477.0,24936.0,-351.74391204810024,-220.64244581373617,-334.0448431455919
174477.0,12852.0,174477.0,9696.0,174477.0,24917.0,-358.9672311921571,-226.5976878881428,-344.7485061767959
174488.0,12844.0,174488.0,9687.0,174488.0,24895.0,-366.1585753044635,-232.5237800090428,-355.40195527616027
174488.0,12823.0,174488.0,9664.0,174488.0,24885.0,-373.3175523320941,-238.42031484955504,-366.00374024158714
174488.0,12806.0,174488.0,9662.0,174488.0,24875.0,-380.44366264317284,-244.2868639680825,-376.55264192982145
174488.0,12821.0,174488.0,9672.0,174488.0,24876.0,-387.5365122812667,-250.12315488337725,-387.0477786672627
174488.0,12819.0,174488.0,9679.0,174488.0,24868.0,-394.5958634924888,-255.92902050606608,-397.48855255712044
174488.0,12812.0,174488.0,9668.0,174488.0,24853.0,-401.6214395681658,-261.7041229621658,-407.8745267828273
174498.0,12790.0,174498.0,9640.0,174498.0,24848.0,-408.6127410269845,-267.4477553761984,-418.2053614263026
174498.0,12780.0,174498.0,9627.0,174498.0,24829.0,-415.56909373488213,-273.1589705457329,-428.48083412813526
174498.0,12771.0,174498.0,9628.0,174498.0,24838.0,-422.48985612747424,-278.8369191555886,-438.7008727509741
174498.0,12781.0,174498.0,9639.0,174498.0,24826.0,-429.3745669961936,-284.48104745833234,-448.8655089899439
174498.0,12771.0,174498.0,9629.0,174498.0,24830.0,-436.2229023184449,-290.09100064611107,-458.97472460501035
174498.0,12764.0,174498.0,9616.0,174498.0,24800.0,-443.03452614554976,-295.6664383532118,-469.0282955132368
174508.0,12748.0,174508.0,9606.0,174508.0,24796.0,-449.80902376845506,-301.2070152688025,-479.02577945432495
174508.0,12740.0,174508.0,9607.0,174508.0,24777.0,-456.54597991048513,-306.7125025889103,-488.9666512881116
174508.0,12748.0,174508.0,9599.0,174508.0,24773.0,-463.2450866108029,-312.182870209355,-498.8504584464273
174508.0,12736.0,174508.0,9604.0,174508.0,24779.0,-469.90613308246884,-317.61826490924557,-508.67687715910506
174508.0,12735.0,174508.0,9596.0,174508.0,24763.0,-476.5288957710693,-323.01892500257793,-518.4456209025652
174508.0,12719.0,174508.0,9585.0,174508.0,24741.0,-483.1130682605502,-328.3851002624242,-528.1563285799416
174519.0,12698.0,174519.0,9575.0,174519.0,24730.0,-489.65832008002496,-333.7170661563945,-537.8086368414085
174519.0,12689.0,174519.0,9571.0,174519.0,24726.0,-496.1645066837144,-339.0152344106583,-547.4023819188808
174519.0,12698.0,174519.0,9567.0,174519.0,24718.0,-502.6319071678548,-344.280254661339,-556.9377144508164
174519.0,12702.0,174519.0,9574.0,174519.0,24707.0,-509.0612529544695,-349.5130201609961,-566.4150929011762
174519.0,12699.0,174519.0,9568.0,174519.0,24713.0,-515.4535069608467,-354.7145613314302,-575.835238543093
174519.0,12681.0,174519.0,9550.0,174519.0,24690.0,-521.8096219154,-359.8859242753007,-585.1990681862312
174529.0,12674.0,174529.0,9545.0,174529.0,24685.0,-528.1304882601563,-365.0281900422914,-594.5076531978316
174529.0,12665.0,174529.0,9553.0,174529.0,24685.0,-534.417047327649,-370.1425921197283,-603.7622452659662
174529.0,12669.0,174529.0,9543.0,174529.0,24680.0,-540.6703977491003,-375.23053176607243,-612.9642555459075
174529.0,12667.0,174529.0,9542.0,174529.0,24661.0,-546.8917756653985,-380.29348305411145,-622.1151567971117
174529.0,12653.0,174529.0,9559.0,174529.0,24673.0,-553.0824451344911,-385.33287662487544,-631.2164217975169
174529.0,12642.0,174529.0,9526.0,174529.0,24638.0,-559.2436525006086,-390.3499499660079,-640.2695081102574
174540.0,12633.0,174540.0,9519.0,174540.0,24639.0,-565.3767215879707,-395.34569571326006,-649.2758992770416
174540.0,12627.0,174540.0,9525.0,174540.0,24628.0,-571.4832006362997,-400.3210172176314,-658.237228701847
174540.0,12623.0,174540.0,9529.0,174540.0,24630.0,-577.5649577261088,-405.276836358718,-667.1553566609364
174540.0,12640.0,174540.0,9500.0,174540.0,24623.0,-583.6241598856614,-410.2140179868511,-676.0323113453671
174540.0,12626.0,174540.0,9498.0,174540.0,24611.0,-589.6630933237406,-415.13337404861704,-684.8701808990336
174540.0,12608.0,174540.0,9498.0,174540.0,24599.0,-595.6839663822071,-420.03583641235775,-693.6710757899461
174550.0,12604.0,174550.0,9479.0,174550.0,24587.0,-601.6889197705509,-424.9225959959207,-702.4371999011487
174550.0,12597.0,174550.0,9492.0,174550.0,24588.0,-607.6801873490788,-429.7951555496476,-711.1709553977821
174550.0,12595.0,174550.0,9504.0,174550.0,24587.0,-613.6601969255395,-434.6552859383273,-719.8749578543893
174550.0,12591.0,174550.0,9503.0,174550.0,24581.0,-619.6315664716936,-439.5047786195164,-728.551921093203
174550.0,12585.0,174550.0,9479.0,174550.0,24567.0,-625.5970563942318,-444.3451419968874,-737.2045189099686
174550.0,12571.0,174550.0,9454.0,174550.0,24551.0,-631.5595445600894,-449.17758765033864,-745.8353672873025
174560.0,12567.0,174560.0,9455.0,174560.0,24555.0,-637.5220766052629,-454.003359012156,-754.4471249885946
174560.0,12573.0,174560.0,9481.0,174560.0,24553.0,-643.4879327475262,-458.8240240136489,-763.0425444814225
174560.0,12586.0,174560.0,9475.0,174560.0,24548.0,-649.4605470851154,-463.6413694159929,-771.6243678739565
174560.0,12561.0,174560.0,9464.0,174560.0,24528.0,-655.4432610648431,-468.45705260277214,-780.1951932490449
174560.0,12551.0,174560.0,9452.0,174560.0,24520.0,-661.4391680244499,-473.2724296901839,-788.7574833269932
174560.0,12540.0,174560.0,9436.0,174560.0,24508.0,-667.451222743657,-478.0886691853716,-797.3137042331455
174571.0,12538.0,174571.0,9431.0,174571.0,24502.0,-673.4824519835943,-482.9069932997995,-805.8664667976284
174571.0,12537.0,174571.0,9451.0,174571.0,24504.0,-679.5360574756957,-487.7288465306559,-814.4185853121376
174571.0,12538.0,174571.0,9439.0,174571.0,24497.0,-685.6153748352581,-492.55582754943293,-822.9730253289883
174571.0,12530.0,174571.0,9428.0,174571.0,24505.0,-691.7237510329622,-497.3894936333587,-831.5327566042811
174571.0,12509.0,174571.0,9427.0,174571.0,24479.0,-697.864469836865,-502.2313006738624,-840.1005859710103
174571.0,12510.0,174571.0,9403.0,174571.0,24472.0,-704.0408283279544,-507.0827050220537,-848.6791015918411
174581.0,12502.0,174581.0,9404.0,174581.0,24451.0,-710.2562793876066,-511.94533605711695,-857.270801357201
174581.0,12513.0,174581.0,9413.0,174581.0,24464.0,-716.5144639870733,-516.8211463385463,-865.878279875637
174581.0,12512.0,174581.0,9432.0,174581.0,24446.0,-722.8190704331734,-521.712338941678,-874.5042877939993
174581.0,12499.0,174581.0,9420.0,174581.0,24444.0,-729.1736115225706,-526.621023346799,-883.1516714596719
174581.0,12480.0,174581.0,9388.0,174581.0,24427.0,-735.5813198366702,-531.548925633487,-891.8233425929186
174581.0,12472.0,174581.0,9379.0,174581.0,24432.0,-742.0452723700403,-536.4974928999129,-900.5223122828738
174591.0,12471.0,174591.0,9383.0,174591.0,24430.0,-748.5686047513076,-541.4682582862191,-909.2516758870015
174591.0,12466.0,174591.0,9395.0,174591.0,24423.0,-755.1546146079882,-546.4630294304412,-918.0144860041328
174591.0,12468.0,174591.0,9397.0,174591.0,24406.0,-761.806719570173,-551.4837282905366,-926.8136227048317
174591.0,12457.0,174591.0,9375.0,174591.0,24395.0,-768.5283527799312,-556.5321109561717,-935.6518046073738
174591.0,12450.0,174591.0,9367.0,174591.0,24396.0,-775.3228868651391,-561.6096830912855,-944.5317022573538
174591.0,12451.0,174591.0,9363.0,174591.0,24375.0,-782.1936166243656,-566.7178494033095,-953.4560161112754
174602.0,12441.0,174602.0,9370.0,174602.0,24382.0,-789.1437396037486,-571.8580522207526,-962.4275008247857
174602.0,12431.0,174602.0,9368.0,174602.0,24374.0,-796.1763202944961,-577.0317250938836,-971.4489499255253
174602.0,12433.0,174602.0,9368.0,174602.0,24369.0,-803.2942884415827,-582.2401200608886,-980.5231084040906
174602.0,12408.0,174602.0,9334.0,174602.0,24349.0,-810.5004652940884,-587.4841987648751,-989.6525900365309
174602.0,12407.0,174602.0,9351.0,174602.0,24341.0,-817.7976338924201,-592.7647209482278,-998.839918751004
174602.0,12401.0,174602.0,9338.0,174602.0,24342.0,-825.1886533006702,-598.0823947044595,-1008.087641338597
174612.0,12401.0,174612.0,9341.0,174612.0,24340.0,-832.6765013417674,-603.4378881147143,-1017.3983414352042
174612.0,12396.0,174612.0,9334.0,174612.0,24331.0,-840.2641971739811,-608.831750815429,-1026.7745142192932
174612.0,12394.0,174612.0,9329.0,174612.0,24320.0,-847.9546744439087,-614.2643567812742,-1036.21843935716
174612.0,12375.0,174612.0,9322.0,174612.0,24300.0,-855.7506838452178,-619.7358865204848,-1045.7321775879302
174612.0,12374.0,174612.0,9305.0,174612.0,24310.0,-863.6547857014499,-625.2463689085348,-1055.3176645678327
174612.0,12364.0,174612.0,9306.0,174612.0,24293.0,-871.6694041525803,-630.7957947964827,-1064.9767541763993
174622.0,12363.0,174622.0,9317.0,174622.0,24287.0,-879.7968457243028,-636.3841971592569,-1074.711168724725
174622.0,12349.0,174622.0,9302.0,174622.0,24302.0,-888.0392660120389,-642.0115682664893,-1084.5224187425804
174622.0,12353.0,174622.0,9296.0,174622.0,24283.0,-896.3986289274078,-647.6777211329836,-1094.411643722137
174622.0,12341.0,174622.0,9286.0,174622.0,24271.0,-904.8766523672512,-653.3822834562587,-1104.379422341993
174622.0,12332.0,174622.0,9292.0,174622.0,24235.0,-913.4747422665101,-659.1247714315384,-1114.4257929593525
174622.0,12350.0,174622.0,9278.0,174622.0,24248.0,-922.193919028087,-664.9046017962659,-1124.5505147079118
174633.0,12320.0,174633.0,9282.0,174633.0,24252.0,-931.03467557445,-670.721048191164,-1134.7532514753766
174633.0,12311.0,174633.0,9291.0,174633.0,24233.0,-939.9968580570782,-676.5731620948867,-1145.0334581827522
174633.0,12298.0,174633.0,9264.0,174633.0,24235.0,-949.0797392009099,-682.4596360966518,-1155.390169725544
174633.0,12300.0,174633.0,9244.0,174633.0,24214.0,-958.2821689365983,-688.378777507537,-1165.8219172297163
174633.0,12277.0,174633.0,9251.0,174633.0,24207.0,-967.6026262795157,-694.3287299652753,-1176.3267493950489
174633.0,12288.0,174633.0,9252.0,174633.0,24190.0,-977.0392089185563,-700.3076840500568,-1186.9023144522657
174643.0,12287.0,174643.0,9262.0,174643.0,24207.0,-986.5895585403931,-706.3138057920105,-1197.5459258956682
174643.0,12278.0,174643.0,9246.0,174643.0,24195.0,-996.2506551696823,-712.3449843154706,-1208.254464336493
174643.0,12262.0,174643.0,9235.0,174643.0,24166.0,-1006.0186080980538,-718.3986637887876,-1219.0241863957217
174643.0,12247.0,174643.0,9228.0,174643.0,24165.0,-1015.8886236124396,-724.4718811730891,-1229.850709893384
174643.0,12241.0,174643.0,9221.0,174643.0,24163.0,-1025.8551172697662,-730.5614025959716,-1240.7291451005992
174643.0,12254.0,174643.0,9230.0,174643.0,24157.0,-1035.9117725481499,-736.6637904765109,-1251.6540969707619
174653.0,12241.0,174653.0,9250.0,174653.0,24158.0,-1046.051392252678,-742.7752760356276,-1262.6195041054511
174653.0,12224.0,174653.0,9233.0,174653.0,24151.0,-1056.265660257095,-748.8914150444718,-1273.6184360547434
174653.0,12214.0,174653.0,9207.0,174653.0,24121.0,-1066.5450627333757,-755.0067981145783,-1284.6429503367053
174653.0,12203.0,174653.0,9192.0,174653.0,24102.0,-1076.8789731865813,-761.115139470851,-1295.6841611806772
174653.0,12194.0,174653.0,9204.0,174653.0,24108.0,-1087.2557397049063,-767.2096087928368,-1306.7324979895418
174653.0,12195.0,174653.0,9196.0,174653.0,24107.0,-1097.6626978662157,-773.2829995579365,-1317.7778441779064
174664.0,12196.0,174664.0,9201.0,174664.0,24107.0,-1108.0860712271563,-779.3276349433111,-1328.809384678894
174664.0,12171.0,174664.0,9178.0,174664.0,24082.0,-1118.5107881376289,-785.3352280573743,-1339.8153567249008
174664.0,12163.0,174664.0,9180.0,174664.0,24072.0,-1128.9203893674007,-791.2968687662344,-1350.7829673377273
174664.0,12143.0,174664.0,9165.0,174664.0,24058.0,-1139.2971181001808,-797.2031191699512,-1361.6985082654264
174664.0,12149.0,174664.0,9159.0,174664.0,24051.0,-1149.622059261354,-803.0441269485834,-1372.547508905373
174664.0,12139.0,174664.0,9181.0,174664.0,24065.0,-1159.8751628075013,-808.809671885873,-1383.3147698055518
174674.0,12129.0,174674.0,9164.0,174674.0,24056.0,-1170.035145517642,-814.4890447032021,-1393.9841922160497
174674.0,12129.0,174674.0,9154.0,174674.0,24030.0,-1180.0793832397005,-820.0708516266101,-1404.5385276309032
174674.0,12095.0,174674.0,9138.0,174674.0,24030.0,-1189.9838711826837,-825.5430060940337,-1414.9593109264401
174674.0,12099.0,174674.0,9139.0,174674.0,24020.0,-1199.723297508086,-830.8929120186428,-1425.2269574179068
174674.0,12102.0,174674.0,9148.0,174674.0,24020.0,-1209.271148023558,-836.1075921042996,-1435.3207937276738
174674.0,12093.0,174674.0,9147.0,174674.0,24000.0,-1218.599642448839,-841.1736037694512,-1445.2189988134478
174684.0,12087.0,174684.0,9144.0,174684.0,23996.0,-1227.679541562516,-846.0768220247215,-1454.8985873664853
174684.0,12068.0,174684.0,9121.0,174684.0,23990.0,-1236.4800406434442,-850.8023062785636,-1464.3354565227608
174684.0,12052.0,174684.0,9114.0,174684.0,23963.0,-1244.9688331256555,-855.3343911652657,-1473.5044460367963
174684.0,12041.0,174684.0,9108.0,174684.0,23960.0,-1253.112307011343,-859.6569310471665,-1482.3794632891572
174684.0,12038.0,174684.0,9112.0,174684.0,23960.0,-1260.8757577084282,-863.7534942995217,-1490.9336557256265
174684.0,12047.0,174684.0,9123.0,174684.0,23949.0,-1268.2234645745211,-867.607368261256,-1499.1394737200158
174695.0,12030.0,174695.0,9119.0,174695.0,23940.0,-1275.118591814045,-871.2013834774298,-1506.968640917266
174695.0,12016.0,174695.0,9087.0,174695.0,23932.0,-1281.5230868997241,-874.5177560994033,-1514.3921786546289
174695.0,11998.0,174695.0,9077.0,174695.0,23916.0,-1287.3977800813707,-877.5382262475317,-1521.3805096589078
174695.0,11982.0,174695.0,9096.0,174695.0,23910.0,-1292.7026781157651,-880.2444160081918,-1527.9036136230525
174695.0,11996.0,174695.0,9101.0,174695.0,23907.0,-1297.3972753933742,-882.6179806481156,-1533.9311951414984
174695.0,11986.0,174695.0,9092.0,174695.0,23904.0,-1301.4406914979882,-884.6404382864096,-1539.4327840236895
174705.0,11978.0,174705.0,9072.0,174705.0,23906.0,-1304.79164662508,-886.2930368153377,-1544.3777406314612
174705.0,11956.0,174705.0,9073.0,174705.0,23889.0,-1307.408514977807,-887.5569035372991,-1548.7352319833471
174705.0,11952.0,174705.0,9063.0,174705.0,23872.0,-1309.2495869912866,-888.4133344385943,-1552.47431318081
174705.0,11938.0,174705.0,9065.0,174705.0,23866.0,-1310.2734324464022,-888.8440233583933,-1555.5641960994597
174705.0,11951.0,174705.0,9071.0,174705.0,23880.0,-1310.439205942997,-888.8311851083538,-1557.9745525393068
174705.0,11949.0,174705.0,9066.0,174705.0,23880.0,-1309.7067948813765,-888.3575832506988,-1559.6756099794306
174715.0,11940.0,174715.0,9058.0,174715.0,23869.0,-1308.0368476965266,-887.4065440568643,-1560.6380732945183
174715.0,11922.0,174715.0,9051.0,174715.0,23868.0,-1305.3908900586066,-885.9620846964442,-1560.833124335345
174715.0,11935.0,174715.0,9044.0,174715.0,23856.0,-1301.7316335183154,-884.0091663112032,-1560.2325934096843
174715.0,11931.0,174715.0,9074.0,174715.0,23862.0,-1297.023295701932,-881.5339227319246,-1558.8092044300251
174715.0,11929.0,174715.0,9083.0,174715.0,23879.0,-1291.2317976674099,-878.5236467597878,-1556.536752974374
174715.0,11943.0,174715.0,9084.0,174715.0,23856.0,-1284.3249205222644,-874.9665283886657,-1553.3901533792268
174726.0,11933.0,174726.0,9080.0,174726.0,23873.0,-1276.272466922806,-870.8514408429664,-1549.3454993926548
174726.0,11928.0,174726.0,9070.0,174726.0,23858.0,-1267.0464669427583,-866.167989327738,-1544.3802545469882
174726.0,11932.0,174726.0,9075.0,174726.0,23861.0,-1256.6215203493612,-860.906764161241,-1538.4735102843472
174726.0,11954.0,174726.0,9091.0,174726.0,23888.0,-1244.9751689277223,-855.0595982740074,-1531.6062255383072
174726.0,11968.0,174726.0,9106.0,174726.0,23901.0,-1232.0880770593371,-848.6196330737855,-1523.761290592884
174726.0,11983.0,174726.0,9101.0,174726.0,23903.0,-1217.944013181069,-841.581209127413,-1514.9233854756646
174736.0,11974.0,174736.0,9098.0,174736.0,23891.0,-1202.5298452364734,-833.9398267495499,-1505.0789268750304
174736.0,11997.0,174736.0,9114.0,174736.0,23925.0,-1185.8357226566297,-825.6923001260516,-1494.216265971364
174736.0,12021.0,174736.0,9123.0,174736.0,23938.0,-1167.855338033033,-816.8369310746027,-1482.3258765577243
174736.0,12041.0,174736.0,9139.0,174736.0,23959.0,-1148.5860340441982,-807.3735386208457,-1469.4003071658367
174736.0,12066.0,174736.0,9165.0,174736.0,23976.0,-1128.0287517875981,-797.303358608269,-1455.4340209489897
174736.0,12080.0,174736.0,9168.0,174736.0,23982.0,-1106.1879784490106,-786.6288619160025,-1440.4233036716269
174747.0,12092.0,174747.0,9173.0,174747.0,24009.0,-1083.0717995086093,-775.3536106436846,-1424.3662784330986
174747.0,12116.0,174747.0,9179.0,174747.0,24021.0,-1058.6920856894733,-763.4822999137441,-1407.2629645069046
174747.0,12164.0,174747.0,9206.0,174747.0,24048.0,-1033.0646787917651,-751.0209102957517,-1389.1153034507097
174747.0,12204.0,174747.0,9232.0,174747.0,24063.0,-1006.2093331769987,-737.9767298752242,-1369.9271565295523
174747.0,12227.0,174747.0,9256.0,174747.0,24109.0,-978.14941238644,-724.3581405379085,-1349.7042673142348
174747.0,12257.0,174747.0,9267.0,174747.0,24107.0,-948.9116276208742,-710.174305846374,-1328.4541589708615
174757.0,12279.0,174757.0,9252.0,174757.0,24127.0,-918.5259974350035,-695.4350253451644,-1306.1860996174603
174757.0,12314.0,174757.0,9266.0,174757.0,24157.0,-887.0259529011778,-680.1509351072693,-1282.9112589462725
174757.0,12368.0,174757.0,9313.0,174757.0,24195.0,-854.4484112024287,-664.3338498046678,-1258.6428595056107
174757.0,12408.0,174757.0,9329.0,174757.0,24239.0,-820.8336526469835,-647.9968027594447,-1233.3960814520037
174757.0,12452.0,174757.0,9351.0,174757.0,24268.0,-786.2250181200111,-631.1537593051369,-1207.187758792059
174757.0,12479.0,174757.0,9353.0,174757.0,24284.0,-750.668632086684,-613.8193895656024,-1180.036097324952
174767.0,12514.0,174767.0,9371.0,174767.0,24310.0,-714.2133055685164,-596.0090985230776,-1151.9606262293844
174767.0,12570.0,174767.0,9390.0,174767.0,24344.0,-676.910564980397,-577.739197546111,-1122.982350322451
174767.0,12628.0,174767.0,9430.0,174767.0,24392.0,-638.8145684696821,-559.0269962892886,-1093.1238534351926
174767.0,12670.0,174767.0,9459.0,174767.0,24416.0,-599.9817805925366,-539.8906606308958,-1062.4092146066714
174767.0,12713.0,174767.0,9476.0,174767.0,24456.0,-560.4705897553858,-520.3489028696289,-1030.8638598075893
174767.0,12761.0,174767.0,9490.0,174767.0,24493.0,-520.34106694145,-500.42075048612554,-998.5144799520369
174778.0,12810.0,174778.0,9505.0,174778.0,24529.0,-479.6548172859865,-480.125542618293,-965.388973896446
174778.0,12848.0,174778.0,9536.0,174778.0,24563.0,-438.47482946255917,-459.483054469962,-931.516385201825
174778.0,12919.0,174778.0,9570.0,174778.0,24616.0,-396.86531076492844,-438.51353450917276,-896.9268459178735
174778.0,12974.0,174778.0,9610.0,174778.0,24666.0,-354.891418823786,-417.2375202477248,-861.6514353776485
174778.0,13018.0,174778.0,9600.0,174778.0,24694.0,-312.6188453811907,-395.67554932116184,-825.7219186213513
174778.0,13053.0,174778.0,9634.0,174778.0,24739.0,-270.11346857496073,-373.84806673759294,-789.1705374803657
174788.0,13104.0,174788.0,9647.0,174788.0,24774.0,-227.44125171644032,-351.77558024505413,-752.0299585237248
174788.0,13168.0,174788.0,9679.0,174788.0,24827.0,-184.66822452914425,-329.47881423435933,-714.333263491246
174788.0,13217.0,174788.0,9709.0,174788.0,24853.0,-141.86029579249134,-306.97872187222805,-676.113896154803
174788.0,13268.0,174788.0,9744.0,174788.0,24904.0,-99.08291751159061,-284.296360861481,-637.4056232194546
174788.0,13318.0,174788.0,9759.0,174788.0,24942.0,-56.400780612934454,-261.45268881235273,-598.2425385323929
174788.0,13366.0,174788.0,9771.0,174788.0,24985.0,-13.877592663124233,-238.46844955807808,-558.6590568844181
174798.0,13394.0,174798.0,9791.0,174798.0,25018.0,28.424064485263216,-215.36427925180175,-518.6899124843312
174798.0,13458.0,174798.0,9832.0,174798.0,25079.0,70.44276478298207,-192.16089800379916,-478.3701893182248
174798.0,13512.0,174798.0,9861.0,174798.0,25111.0,112.11828533265475,-168.87912735052117,-437.7353033385342
174798.0,13566.0,174798.0,9899.0,174798.0,25169.0,153.3918530990702,-145.53967621734506,-396.82090903338633
174798.0,13604.0,174798.0,9905.0,174798.0,25202.0,194.20649984171655,-122.16288088177737,-355.66280207876594
174798.0,13644.0,174798.0,9927.0,174798.0,25241.0,234.50729646945274,-98.7686188512447,-314.296883697128
174809.0,13693.0,174809.0,9944.0,174809.0,25293.0,274.24142211774483,-75.3764445639485,-272.7592098427957
174809.0,13742.0,174809.0,9982.0,174809.0,25334.0,313.35821746104125,-52.005770201604264,-231.0860410733917
174809.0,13788.0,174809.0,10017.0,174809.0,25388.0,351.8093433730122,-28.675878485814792,-189.31380491404389
174809.0,13832.0,174809.0,10025.0,174809.0,25445.0,389.54900812678204,-5.405766826077297,-147.47896751150154
174809.0,13868.0,174809.0,10050.0,174809.0,25486.0,426.53416553996533,17.785949127207573,-105.61782148980706
174809.0,13900.0,174809.0,10068.0,174809.0,25515.0,462.7246147190789,40.880947671950935,-63.76631024668518
174819.0,13929.0,174819.0,10094.0,174819.0,25571.0,498.0829663736165,63.861057086599544,-21.960039290321106
174819.0,13965.0,174819.0,10143.0,174819.0,25620.0,532.574507362192,86.70822407155367,19.765647975400725
174819.0,14017.0,174819.0,10168.0,174819.0,25661.0,566.167096228964,109.40469840085632,61.375721405148056
174819.0,14037.0,174819.0,10174.0,174819.0,25697.0,598.8312041880542,131.93331901784438,102.83555228867954
174819.0,14075.0,174819.0,10195.0,174819.0,25741.0,630.5400074865308,154.27759252158444,144.1108818392654
174819.0,14107.0,174819.0,10212.0,174819.0,25782.0,661.2693985407461,176.4215119854208,185.16771361937208
174829.0,14144.0,174829.0,10260.0,174829.0,25827.0,690.9979814773999,198.3493918715235,225.97223625293566
174829.0,14180.0,174829.0,10274.0,174829.0,25898.0,719.7071459548874,220.04592598340196,266.4908564564537
174829.0,14200.0,174829.0,10290.0,174829.0,25931.0,747.3811815105653,241.496355639159,306.6904143184894
174829.0,14219.0,174829.0,10325.0,174829.0,25971.0,774.0073095932416,262.68653000164363,346.53845644799935
174829.0,14239.0,174829.0,10330.0,174829.0,26002.0,799.5755508215957,283.60287928266143,386.0033151035117
174829.0,14257.0,174829.0,10344.0,174829.0,26036.0,824.0784865761877,304.2323498519604,425.05396197923847
174840.0,14292.0,174840.0,10368.0,174840.0,26078.0,847.5110447733573,324.56223491236847,463.6597854118046
174840.0,14311.0,174840.0,10404.0,174840.0,26143.0,869.8704072067167,344.580024615614,501.79047010750355
174840.0,14340.0,174840.0,10432.0,174840.0,26170.0,891.1560345787643,364.2734804298435,539.4161038347943
174840.0,14356.0,174840.0,10444.0,174840.0,26225.0,911.3697202747117,383.6308673837059,576.5073987400576
174840.0,14363.0,174840.0,10446.0,174840.0,26260.0,930.5155818325934,402.64106733518724,613.035856242481
174840.0,14380.0,174840.0,10457.0,174840.0,26291.0,948.599925297282,421.29340567918734,648.9738582459461
174850.0,14387.0,174850.0,10506.0,174850.0,26344.0,965.6310106631772,439.5773719692097,684.2946957132926
174850.0,14443.0,174850.0,10518.0,174850.0,26382.0,981.6188922476665,457.4825808597809,718.9726103792389
174850.0,14423.0,174850.0,10551.0,174850.0,26394.0,996.575477417297,474.9990020453522,752.982876779847
174850.0,14428.0,174850.0,10548.0,174850.0,26441.0,1010.514588831546,492.11717621286095,786.301753421804
174850.0,14441.0,174850.0,10552.0,174850.0,26461.0,1023.4517323370551,508.82819877224347,818.9062917562176
174850.0,14450.0,174850.0,10582.0,174850.0,26513.0,1035.4037420870575,525.1234838166737,850.7741980095184
174860.0,14457.0,174860.0,10601.0,174860.0,26555.0,1046.3885674985784,540.9945656179494,881.8838599259404
174860.0,14473.0,174860.0,10626.0,174860.0,26587.0,1056.4251610353303,556.4331362641118,912.2145371244869
174860.0,14478.0,174860.0,10645.0,174860.0,26624.0,1065.5334075531987,571.4312246016038,941.7465882791339
174860.0,14470.0,174860.0,10653.0,174860.0,26650.0,1073.734054125267,585.9813548547884,970.4616042546018
174860.0,14491.0,174860.0,10661.0,174860.0,26672.0,1081.0485587590579,600.0765839959504,998.3424296233425
174860.0,14498.0,174860.0,10673.0,174860.0,26714.0,1087.498946383041,613.7103918019678,1025.3731055439014
174871.0,14501.0,174871.0,10712.0,174871.0,26753.0,1093.107796882989,626.8765715573902,1051.5388681265172
174871.0,14498.0,174871.0,10720.0,174871.0,26772.0,1097.8982551985407,639.569317918761,1076.826297921807
174871.0,14511.0,174871.0,10723.0,174871.0,26791.0,1101.8939494246401,651.7834291706458,1101.2234530457627
174871.0,14497.0,174871.0,10734.0,174871.0,26819.0,1105.1188768840743,663.5143508608414,1124.7198224583929
174871.0,14506.0,174871.0,10744.0,174871.0,26837.0,1107.5972816955039,674.7580407481062,1147.3061928785685
174871.0,14511.0,174871.0,10753.0,174871.0,26862.0,1109.3535250888049,685.5108333005792,1168.974547057279
174881.0,14511.0,174881.0,10791.0,174881.0,26897.0,1110.4120306596824,695.7694131605733,1189.7180200220796
174881.0,14515.0,174881.0,10809.0,174881.0,26900.0,1110.797303778698,705.5309948351969,1209.530923676277
174881.0,14506.0,174881.0,10787.0,174881.0,26936.0,1110.5339332998485,714.7936176530936,1228.4087671260052
174881.0,14494.0,174881.0,10798.0,174881.0,26948.0,1109.6465039485045,723.5561897849386,1246.3482324496233
174881.0,14499.0,174881.0,10800.0,174881.0,26973.0,1108.1594044308645,731.8182085396095,1263.347174865568
174881.0,14504.0,174881.0,10820.0,174881.0,26984.0,1106.0966599918117,739.5794969605092,1279.4046413394915
174891.0,14484.0,174891.0,10833.0,174891.0,27009.0,1103.481889822085,746.8401651863564,1294.5208652064498
174891.0,14505.0,174891.0,10850.0,174891.0,27030.0,1100.3382954498475,753.6007520637556,1308.6972833885095
174891.0,14490.0,174891.0,10842.0,174891.0,27041.0,1096.688657093967,759.8624073724038,1321.936614654626
174891.0,14473.0,174891.0,10844.0,174891.0,27038.0,1092.5553473489072,765.6269365589703,1334.242895670298
174891.0,14483.0,174891.0,10854.0,174891.0,27053.0,1087.9602440910844,770.8966735409642,1345.621345235445
174891.0,14483.0,174891.0,10866.0,174891.0,27074.0,1082.9246248580419,775.6743656833653,1356.0781577713315
174902.0,14477.0,174902.0,10882.0,174902.0,27087.0,1077.46922210568,779.963226701678,1365.6204444546752
174902.0,14468.0,174902.0,10876.0,174902.0,27096.0,1071.6143313998527,783.7671027636542,1374.2563218033977
174902.0,14456.0,174902.0,10869.0,174902.0,27090.0,1065.3798039041324,787.0905553858743,1381.994955234247
174902.0,14448.0,174902.0,10876.0,174902.0,27086.0,1058.7849306037751,789.9387496976244,1388.8464136496746
174902.0,14451.0,174902.0,10893.0,174902.0,27112.0,1051.8483208360826,792.317309824422,1394.8213995217513
174902.0,14431.0,174902.0,10898.0,174902.0,27119.0,1044.5878534310084,794.2323638356964,1399.9311071179739
174912.0,14454.0,174912.0,10902.0,174912.0,27144.0,1037.020699862358,795.6907376015371,1404.1873420928005
174912.0,14426.0,174912.0,10878.0,174912.0,27140.0,1029.1634208560306,796.7000626093316,1407.6027725668769
174912.0,14421.0,174912.0,10883.0,174912.0,27124.0,1021.0320650700824,797.2686416941755,1410.1910745378202
174912.0,14418.0,174912.0,10881.0,174912.0,27138.0,1012.6421499122375,797.4051776724863,1411.966823483077
174912.0,14402.0,174912.0,10898.0,174912.0,27151.0,1004.0085948069743,797.1186216264958,1412.945309802852
174912.0,14413.0,174912.0,10893.0,174912.0,27151.0,995.1457197400721,796.4182376996935,1413.142554884809
174922.0,14407.0,174922.0,10897.0,174922.0,27156.0,986.0673409785368,795.3137545970773,1412.5754645634504
174922.0,14399.0,174922.0,10877.0,174922.0,27152.0,976.7869594550359,793.8154274271596,1411.2619251805231
