c_ts,c_val,d_ts,d_val,e_ts,e_val,c_val_filtered,d_val_filtered,e_val_filtered
517,2281,517,12223,517,28304,25.636120562735318,-34.6086658735442,-49.47630126249152
517,2295,517,12196,517,28291,23.837440407646707,-25.84360749116759,-34.632153206717675
517,2278,517,12204,517,28332,21.99207378571113,-16.97543105006072,-19.623442999419723
517,2279,517,12258,517,28366,20.102424820990755,-8.025890069410323,-4.490462799387473
517,2275,517,12313,517,28429,18.171209287928843,0.9821935972675675,10.72555802143205
517,2272,517,12306,517,28446,16.20138491433561,10.025728551215934,25.983212854673525
527,2274,527,12302,527,28459,14.196123485078175,19.082110347086456,41.24169955488247
527,2265,527,12296,527,28464,12.158810484903835,28.129345516240207,56.461214379390526
527,2267,527,12319,527,28500,10.093037774429952,37.14575431077098,71.60298174581135
527,2255,527,12366,527,28540,8.002566928738474,46.10983166534139,86.62932179054701
527,2253,527,12397,527,28562,5.891255027717719,55.0006131353193,101.50402006555518
527,2256,527,12368,527,28562,3.762969085397472,63.79831377673992,116.19279417160874
537,2256,537,12372,537,28579,1.621565895143057,72.48460924212793,130.6634982752597
537,2243,537,12354,537,28589,-0.5290648581837587,81.04233307447217,144.88605245211335
537,2248,537,12383,537,28620,-2.6850016012911126,89.45497732593293,158.83235693399382
537,2243,537,12442,537,28637,-4.8423381407001855,97.70651715788361,172.4763642516662
537,2242,537,12465,537,28675,-6.997196374582167,105.78186958727534,185.79432232572879
537,2236,537,12445,537,28674,-9.145718740709697,113.66767928885443,198.76510435104433
548,2231,548,12428,548,28667,-11.284095166527429,121.3526689936538,211.37040565649056
548,2230,548,12419,548,28665,-13.408622622445066,128.82728373529795,223.59458156758262
548,2229,548,12435,548,28688,-15.515752879592135,136.08307250697183,235.42424221994605
548,2222,548,12479,548,28726,-17.602106330776827,143.11237023893983,246.84802576861318
548,2219,548,12503,548,28725,-19.664492463677355,149.90854750514916,257.8567588732875
548,2218,548,12471,548,28729,-21.699959356454706,156.46655095666372,268.4437194841989
558,2217,558,12442,558,28700,-23.705827777109775,162.78303853480966,278.60458533993415
558,2220,558,12460,558,28724,-25.679673555306664,168.8558566634768,288.3370117334882
558,2211,558,12469,558,28732,-27.61927855102909,174.6834302224585,297.6401807006667
558,2212,558,12504,558,28766,-29.52260696338574,180.26462190078362,306.51467383982344
558,2202,558,12501,558,28763,-31.387837407622058,185.59901039157978,314.9626627218045
558,2210,558,12492,558,28749,-33.21341642311212,190.6871948632471,322.98808498227413
568,2206,568,12478,568,28756,-34.99806871222856,195.53077966325122,330.5965166349879
568,2209,568,12480,568,28750,-36.740741899822666,200.13203114139998,337.79482143015866
568,2200,568,12514,568,28767,-38.44054251948617,204.49355057666133,344.590846236877
568,2203,568,12536,568,28778,-40.09672194942179,208.61833145420462,350.99329377436874
568,2194,568,12532,568,28787,-41.70870423256858,212.5101827950814,357.011772441319
568,2203,568,12509,568,28774,-43.276113307309245,216.17405703114952,362.65688535019524
579,2204,579,12478,579,28766,-44.7987450272737,219.61586743826854,367.9401376715846
579,2189,579,12496,579,28766,-46.27649207799229,222.84188199037413,372.8736174265539
579,2196,579,12534,579,28789,-47.70933107848553,225.8582580667773,377.4696780392779
579,2194,579,12560,579,28791,-49.097373895491344,228.67121362535028,381.74086915682363
579,2191,579,12525,579,28800,-50.44087389055085,231.28760798543595,385.7000768879751
579,2197,579,12514,579,28789,-51.74018709652833,233.71519942987396,389.36063830404663
589,2199,589,12502,589,28769,-52.995710577020944,235.962304176987,392.73624765054353
589,2184,589,12513,589,28810,-54.20780605320941,238.03727336040066,395.8406943144074
589,2184,589,12532,589,28802,-55.376809971995485,239.948237018753,398.6877478066808
589,2185,589,12568,589,28816,-56.503142146034804,241.70327267858175,401.29132692874265
589,2174,589,12548,589,28782,-57.58739557850828,243.31088493768755,403.6656390006278
589,2184,589,12480,589,28781,-58.63038317340806,244.78025747529176,405.82499931006896
599,2194,599,12483,599,28786,-59.63312309833864,246.12073890508992,407.7834335349212
599,2183,599,12526,599,28803,-60.596708134012275,247.3409871604872,409.55441683111735
599,2185,599,12532,599,28811,-61.52217433094319,248.44872731179066,411.1509413889502
599,2177,599,12569,599,28831,-62.41049845735955,249.451239914315,412.5858027413384
599,2179,599,12528,599,28795,-63.26266956510217,250.35596442420433,413.8718757211935
599,2186,599,12506,599,28780,-64.079729408393,251.17067103713197,415.022082165706
610,2175,610,12488,610,28784,-64.86274323270123,251.9030266683343,416.0489710276285
610,2171,610,12536,610,28808,-65.61278184881542,252.5599919498706,416.96432331839026
610,2177,610,12546,610,28822,-66.3309857877934,253.14772290040398,417.7791902719997
610,2170,610,12545,610,28804,-67.01862650578148,253.67201751832994,418.5042287604179
610,2167,610,12535,610,28766,-67.67712412694085,254.13873843156904,419.1498195773515
610,2179,610,12497,610,28788,-68.30806620475954,254.55380059822164,419.7257193287232
620,2173,620,12508,620,28775,-68.91317888679372,254.92275827192958,420.24060784311155
620,2177,620,12511,620,28810,-69.49423626622252,255.2503391245514,420.7019537483076
620,2181,620,12553,620,28826,-70.05297869562062,255.54034426091792,421.11625257581846
620,2173,620,12565,620,28818,-70.59105012557713,255.79604753913992,421.4894853706664
620,2178,620,12510,620,28782,-71.10996250784989,256.02072575333625,421.82741510955316
620,2180,620,12486,620,28779,-71.61108721061193,256.21764567146647,422.1353766999662
630,2170,630,12520,630,28792,-72.09563494683587,256.38944306431097,422.4177951273903
630,2174,630,12570,630,28816,-72.56466059858644,256.53777798862063,422.6779820335668
630,2180,630,12569,630,28823,-73.01909492186125,256.66383692944805,422.91839271978546
630,2173,630,12549,630,28813,-73.45972012567982,256.76911105582,423.1410419326194
630,2176,630,12509,630,28780,-73.8871176277084,256.8556086785797,423.34765134505597
630,2181,630,12499,630,28784,-74.3016446258394,256.9253561523526,423.53936474606445
641,2170,641,12526,641,28800,-74.7034070882113,256.9797173753826,423.7163364671178
641,2169,641,12554,641,28820,-75.09226355368683,257.0191794180192,423.8776544202978
641,2166,641,12544,641,28803,-75.46791033206257,257.0437216142584,424.021620005379
641,2166,641,12532,641,28799,-75.82998132518094,257.05324597954973,424.1459761233726
641,2170,641,12502,641,28784,-76.17809164773077,257.0475771888691,424.2478263379865
641,2171,641,12505,641,28800,-76.51181494053301,257.02605437936234,424.32339501386843
651,2166,651,12524,651,28825,-76.83062879227255,256.98711143590845,424.3679543459876
651,2165,651,12532,651,28830,-77.13389911414505,256.92821612581986,424.3760985135722
651,2169,651,12546,651,28825,-77.42091157956635,256.8461580161116,424.34217487952907
651,2165,651,12525,651,28811,-77.69088539061342,256.737377647981,424.2605101608992
651,2171,651,12493,651,28803,-77.94295118093756,256.5980072037921,424.12531235157354
651,2163,651,12511,651,28801,-78.17612546018566,256.42352564353587,423.9304044079888
662,2157,662,12549,662,28818,-78.38932817381784,256.2084554432969,423.6690266633004
662,2155,662,12597,662,28835,-78.58148186039692,255.9466899848042,423.3338984016207
662,2160,662,12570,662,28846,-78.75163375244817,255.63237689133135,422.9175610712032
662,2154,662,12530,662,28813,-78.89900776359298,255.26055408336077,422.41275242775396
662,2164,662,12507,662,28811,-79.02299246319828,254.82692757490557,421.8124556718518
662,2162,662,12530,662,28812,-79.1230933958495,254.3271372282522,421.1096258386349
672,2159,672,12585,672,28845,-79.1988659559592,253.75641116609066,420.29701662561797
672,2157,672,12583,672,28862,-79.24989359323595,253.11003598937882,419.3674357295978
672,2159,672,12562,672,28829,-79.27582755350434,252.38412487987668,418.3142488137483
672,2160,672,12534,672,28811,-79.27641733821753,251.57588031739598,417.13158390610704
672,2164,672,12521,672,28819,-79.25148939579441,250.68320582687113,415.81404216554427
672,2160,672,12524,672,28828,-79.20089631408239,249.70412016167472,414.356370543338
682,2160,682,12560,682,28846,-79.12448711306732,248.636457665715,412.7535012611885
682,2158,682,12587,682,28848,-79.02212495132127,247.47812201219557,411.0008894692553
682,2162,682,12551,682,28840,-78.89371987162983,246.22770315697124,409.0948760428631
682,2161,682,12539,682,28817,-78.73923206831282,244.88482616898628,407.0328247199552
682,2165,682,12518,682,28809,-78.55864163177492,243.4499081852596,404.8129406052045
682,2157,682,12516,682,28846,-78.35191917510032,241.92364729901877,402.43401094964173
693,2158,693,12570,693,28851,-78.11904388906186,240.3067391830616,399.8954912220969
693,2156,693,12566,693,28830,-77.86007104997924,238.60013915167428,397.1979223442491
693,2161,693,12545,693,28822,-77.57518826897022,236.80563893215327,394.34317519798316
693,2158,693,12510,693,28806,-77.26472000589933,234.92606802273062,391.33430584707787
693,2169,693,12515,693,28797,-76.92909046044349,232.96490303934218,388.1752480697102
693,2165,693,12543,693,28806,-76.56875090153784,230.92582529460452,384.87055964379357
703,2160,703,12540,703,28822,-76.18411189675828,228.81274254788184,381.4253801105117
703,2158,703,12534,703,28822,-75.7755634000107,226.6301311237923,377.84567676977554
703,2160,703,12477,703,28799,-75.34356851802306,224.38314377228744,374.1385642242325
703,2162,703,12491,703,28764,-74.88872773266726,222.0772099235357,370.3123168170598
703,2169,703,12505,703,28778,-74.4117629705375,219.717506609599,366.37599278454206
703,2161,703,12515,703,28792,-73.91345387986516,217.30886652241122,362.3390948389259
713,2161,713,12533,713,28780,-73.39461128800912,214.85614327883508,358.21163318375204
713,2162,713,12555,713,28778,-72.856126265082,212.36474636428807,354.00437411634647
713,2167,713,12487,713,28753,-72.29901786596335,209.84109262606285,349.72890962236124
713,2169,713,12473,713,28730,-71.72440869147476,207.2925451085478,345.397458569236
713,2158,713,12465,713,28733,-71.13347882870369,204.72675807519835,341.02248816910526
713,2158,713,12494,713,28754,-70.52750539116167,202.15108164542852,336.61644268695125
724,2170,724,12509,724,28742,-69.90796333549207,199.57256613674045,332.1918380284188
724,2171,724,12483,724,28719,-69.27652966287529,196.99837766937276,327.761501218576
724,2179,724,12463,724,28710,-68.63495453065624,194.4360359005317,323.3385475977482
724,2174,724,12443,724,28684,-67.98491659675014,191.89316402544728,318.93607305815834
724,2173,724,12479,724,28701,-67.32795563285589,189.37706447955605,314.5668098166896
724,2181,724,12472,724,28684,-66.66547830577807,186.89462602736228,310.24294565143595
734,2176,734,12496,734,28689,-65.99876017617535,184.45263687978124,305.97612440545606
734,2171,734,12443,734,28671,-65.32893779801672,182.05812315528934,301.77747760849775
734,2170,734,12432,734,28653,-64.65706980198614,179.7182895052876,297.65754720303346
734,2178,734,12425,734,28653,-63.98423454575374,177.44003536870676,293.6260727066909
734,2174,734,12445,734,28668,-63.31155703895398,175.22950601065776,289.691810440021
734,2180,734,12447,734,28666,-62.640171178601776,173.09205656120696,285.86260913747384
744,2177,744,12469,744,28670,-61.97118404128676,171.03255397848517,282.14568499263856
744,2175,744,12427,744,28647,-61.30566850412822,169.055717249416,278.54783886812606
744,2184,744,12393,744,28616,-60.644678087595985,167.16610508980952,275.07540091969946
744,2186,744,12408,744,28640,-59.98922732149114,165.36761337905915,271.7339044384243
744,2171,744,12414,744,28657,-59.34023962393368,163.6629678783726,268.5278833325117
744,2187,744,12455,744,28661,-58.69856384647282,162.05374232444305,265.4611310308365
755,2183,755,12442,755,28632,-58.065021004728486,160.54085121706996,262.53712721931424
755,2186,755,12393,755,28610,-57.44037390999054,159.12498095995304,259.75910409320744
755,2186,755,12392,755,28597,-56.82527229190691,157.80643315484966,257.12966296788534
755,2183,755,12435,755,28613,-56.220242194294585,156.58463906294816,254.65030946284583
755,2183,755,12442,755,28633,-55.625713552038796,155.45813649916985,252.3213260880803
755,2186,755,12447,755,28635,-55.042063670784465,154.42509822065585,250.14207527573683
765,2185,765,12432,765,28617,-54.46963814436358,153.48381687902258,248.11141309704624
765,2193,765,12390,765,28592,-53.9087309839987,152.63274387028622,246.2277947711093
765,2186,765,12389,765,28585,-53.35954013795965,151.87005785222533,244.4889748622716
765,2188,765,12405,765,28614,-52.82214291427073,151.19310296796095,242.8916381549407
765,2182,765,12427,765,28627,-52.29653177443036,150.59821288773236,241.43140649837395
765,2180,765,12452,765,28616,-51.78270037646546,150.08107051124185,240.10323184632907
775,2194,775,12410,775,28601,-51.28071915498309,149.63724727119867,238.9017162454802
775,2189,775,12398,775,28600,-50.79071746526637,149.2623777924406,237.82107561156505
775,2186,775,12387,775,28578,-50.312804668591454,148.95180005559052,236.85489519808155
775,2188,775,12458,775,28619,-49.8470576490619,148.70019546962436,235.9959278870304
775,2197,775,12447,775,28642,-49.39355047408228,148.501844215368,235.23621275919925
775,2187,775,12449,775,28628,-48.952327033936285,148.3513057994162,234.56759310026257
786,2199,786,12417,786,28611,-48.523353085073154,148.24380455371227,233.98217471037322
786,2196,786,12380,786,28598,-48.10648412300436,148.17498836285682,233.47229777175485
786,2195,786,12417,786,28608,-47.70142277819143,148.1403218348156,233.0302127573793
786,2192,786,12431,786,28624,-47.30770621425145,148.13472117627333,232.64790180049584
786,2197,786,12469,786,28632,-46.924745798924,148.15283971283606,232.31723600583928
786,2190,786,12432,786,28640,-46.55186442204828,148.1897047054543,232.03033337056172
796,2194,796,12413,796,28598,-46.18832338407495,148.2410378032053,231.7798119920328
796,2205,796,12389,796,28584,-45.833330781656066,148.30294763732388,231.55864132834117
796,2194,796,12396,796,28611,-45.48598486881101,148.37130432607813,231.35967877098244
796,2192,796,12443,796,28631,-45.145227297118495,148.4413788524697,231.17545840095278
796,2184,796,12468,796,28607,-44.80992363955137,148.5081339811502,230.9984567928331
796,2196,796,12439,796,28593,-44.47900647228604,148.56695437341563,230.82132613004103
806,2190,806,12398,806,28602,-44.15153736583647,148.6140349015068,230.63674679311836
806,2195,806,12385,806,28594,-43.826679724128624,148.64597601889045,230.43718297858953
806,2188,806,12428,806,28613,-43.503675592540965,148.6590922414703,230.21482693063385
806,2196,806,12425,806,28632,-43.181860865215654,148.64921500980861,229.96176238470184
806,2191,806,12457,806,28652,-42.860678441707805,148.61207707352895,229.67036770932674
806,2190,806,12411,806,28589,-42.53968125932088,148.54377462378386,229.33374448219814
817,2201,817,12425,817,28591,-42.21853938488424,148.44088637358834,228.94567390812767
817,2201,817,12374,817,28569,-41.89699856391167,148.30019102238487,228.50005273306834
817,2196,817,12420,817,28619,-41.57478619092153,148.11822404022553,227.99040180850767
817,2206,817,12453,817,28618,-41.25155577718984,147.89113326298116,227.40992308089653
817,2202,817,12446,817,28628,-40.92686385437536,147.615122802002,226.75197974426786
817,2198,817,12417,817,28603,-40.60014087511216,147.28702600437379,226.0105120546296
827,2202,827,12390,827,28585,-40.27070469409716,146.9043114228057,225.18005307835404
827,2205,827,12389,827,28584,-39.93779438702575,146.4645421338374,224.25539920932144
827,2197,827,12417,827,28603,-39.60056574132983,145.96487132094117,223.23128573653884
827,2191,827,12460,827,28627,-39.25811927289967,145.40209227690627,222.10242987769894
827,2201,827,12436,827,28622,-38.9096053169712,144.77324291610427,220.86395358933413
827,2199,827,12410,827,28599,-38.554290869339184,144.07613551821993,219.51179574187415
837,2207,837,12378,837,28581,-38.19151535085115,143.3092269397473,218.04272121102883
837,2207,837,12406,837,28604,-37.82059400683608,142.47102768836658,216.454014034926
837,2189,837,12419,837,28603,-37.44076610202343,141.55974404917043,214.74331412596308
837,2199,837,12441,837,28605,-37.05127292931293,140.57349532185276,212.90877166520957
837,2203,837,12430,837,28600,-36.65148470745766,139.510830998974,210.9492662889623
837,2209,837,12394,837,28585,-36.24089425670044,138.37104201120127,208.86447863369955
848,2206,848,12395,848,28558,-35.81899568599359,137.1539888333039,206.65475153831937
848,2203,848,12387,848,28584,-35.38520393516569,135.8596609883669,204.32079353119914
848,2196,848,12429,848,28575,-34.93888804285179,134.48794757872983,201.86350386550535
848,2197,848,12427,848,28578,-34.479489826553326,133.03886573871964,199.2840688351936
848,2200,848,12389,848,28563,-34.00664097390914,131.51297178453424,196.58410268503056
848,2207,848,12374,848,28542,-33.52019154192277,129.91138234520741,193.7656043938604
858,2210,858,12353,858,28534,-33.020133685778646,128.23527998585428,190.8307039701461
858,2209,858,12389,858,28548,-32.50648538166483,126.4853869592703,187.78136818872608
858,2202,858,12408,858,28545,-31.979231283284417,124.66190893367074,184.61932676091044
858,2202,858,12389,858,28546,-31.438371304822663,122.76495676801905,181.34623303990634
858,2202,858,12380,858,28536,-30.884026337295726,120.79492622887423,177.96383659409966
858,2217,858,12354,858,28524,-30.316485745279568,118.75244303964429,174.47402188382904
868,2212,868,12358,868,28524,-29.736129856920723,116.63801288499963,170.87872310136206
868,2204,868,12393,868,28512,-29.143324576669038,114.45177704818657,167.17981022701204
868,2202,868,12369,868,28533,-28.5384500061834,112.19364889160997,163.3790555191212
868,2218,868,12417,868,28506,-27.92201246829653,109.86370570330553,159.4782208504466
868,2214,868,12352,868,28498,-27.294643620500672,107.46253234948551,155.47912619510416
868,2216,868,12350,868,28489,-26.65698866505165,104.99123947667215,151.38353326276155
879,2212,879,12332,879,28498,-26.0096435094027,102.45105303451606,147.19296969104937
879,2212,879,12356,879,28513,-25.353185378352407,99.84285756889874,142.90875884567177
879,2217,879,12395,879,28507,-24.688226028274542,97.16719917795345,138.53230779288626
879,2216,879,12352,879,28489,-24.01542480886824,94.42475417244543,134.06542066957215
879,2219,879,12324,879,28462,-23.33546155218184,91.61665630335321,129.51032979566975
879,2222,879,12318,879,28449,-22.649001647034638,88.74420291076706,124.86938173373554
889,2216,889,12338,889,28464,-21.95666946679171,85.80834267818182,120.14464737940031
889,2227,889,12368,889,28482,-21.259040247671557,82.80961885071963,115.33784051507632
889,2218,889,12381,889,28496,-20.556636231355654,79.74868526126957,110.45069046626651
889,2219,889,12346,889,28453,-19.84993110051353,76.62696611256365,105.48546119443958
889,2231,889,12327,889,28453,-19.139374832255584,73.44688879803735,100.44513107165164
889,2227,889,12284,889,28420,-18.42536812393255,70.21149948245517,95.3331381450709
900,2234,900,12322,900,28427,-17.708170187269076,66.92382158816537,90.15299435298135
900,2224,900,12328,900,28415,-16.98783703687564,63.586548019118965,84.90801952475027
900,2223,900,12310,900,28416,-16.264253000325418,60.202249162017154,79.60125576486934
900,2228,900,12307,900,28409,-15.53722711539072,56.77363719239494,74.23549937845166
900,2226,900,12279,900,28405,-14.806561326028124,53.303516259413925,68.81336119470302
900,2228,900,12264,900,28401,-14.072056079027092,49.79448119617999,63.33732281587294
910,2229,910,12289,910,28368,-13.33350391997255,46.248573110078354,57.80973406463977
910,2224,910,12308,910,28412,-12.590699426705342,42.66723377952087,52.232741429433986
910,2230,910,12299,910,28389,-11.843469534016215,39.05169640261505,46.60835992002711
910,2236,910,12260,910,28365,-11.091687828827872,35.403367428954,40.93870242694953
910,2229,910,12255,910,28341,-10.335232346938717,31.7237279045612,35.22595367864693
910,2228,910,12249,910,28366,-9.573959729193177,28.01390606275055,29.47204622898613
920,2234,920,12289,920,28342,-8.807752404887715,24.274449305452777,23.678491717503448
920,2232,920,12302,920,28349,-8.036557857937531,20.505617309927885,17.846472573410722
920,2227,920,12273,920,28336,-7.260391646874076,16.707991843383354,11.976947219571286
920,2235,920,12221,920,28337,-6.479366914897675,12.882743538858648,6.070701952438185
920,2232,920,12238,920,28319,-5.693728128024283,9.031217649808042,0.12838791493066992
920,2233,920,12240,920,28326,-4.903848562813032,5.1543750324939595,-5.849473055199269
931,2237,931,12271,931,28332,-4.110223914805843,1.2527379294282355,-11.862438847300893
931,2236,931,12264,931,28324,-3.313466062870205,-2.6731756670292555,-17.909954627940692
931,2237,931,12231,931,28300,-2.5142868547286525,-6.6224066898555805,-23.991153126420386
931,2249,931,12210,931,28298,-1.7134718938867621,-10.593552045894143,-30.1048662385665
931,2250,931,12194,931,28275,-0.9117977599179667,-14.585218235770498,-36.249809527895025
931,2244,931,12235,931,28278,-0.10991287479662759,-18.596460061441036,-42.424773717061726
941,2252,941,12236,941,28293,0.6917127756091119,-22.626732937562196,-48.628689645294344
941,2245,941,12227,941,28272,1.4927690853099165,-26.67543169239346,-54.8604776885993
941,2237,941,12205,941,28259,2.293054879644643,-30.741550142020515,-61.11885774372297
941,2254,941,12186,941,28252,3.092386490719136,-34.82376906695049,-67.40236873095967
941,2251,941,12167,941,28229,3.8905630028070135,-38.9208390588511,-73.7095409949963
941,2244,941,12202,941,28253,4.687426624850701,-43.03194257721023,-80.03903749287593
951,2242,951,12229,951,28251,5.482858323253225,-47.156636582030984,-86.3895958487496
951,2247,951,12202,951,28227,6.27666824632329,-51.29430696504906,-92.75977132120056
951,2255,951,12164,951,28216,7.068536771403167,-55.443741914638906,-99.14779845128191
951,2258,951,12143,951,28205,7.858087130142636,-59.603370642153465,-105.55172929080214
951,2260,951,12155,951,28195,8.645018791732838,-63.77188418757291,-111.96964184961917
951,2256,951,12172,951,28212,9.42919840549741,-67.9485705242162,-118.39972454780519
962,2250,962,12173,962,28214,10.21065164766032,-72.13312520350317,-124.84013352628523
962,2244,962,12180,962,28184,10.989447882155481,-76.3252168379176,-131.28869977925058
962,2255,962,12139,962,28175,11.76554441897683,-80.52418789629607,-137.74281401437912
962,2268,962,12116,962,28152,12.538744172020287,-84.72915390945946,-144.19962490261457
962,2262,962,12137,962,28152,13.308833500939556,-88.93943432464883,-150.65633831159562
962,2262,962,12161,962,28155,14.075740368845388,-93.15477875002185,-157.1103889333279
972,2255,972,12165,972,28157,14.839546876764828,-97.37502636570619,-163.55938118648692
972,2263,972,12153,972,28125,15.600398674998956,-101.59953040333966,-170.0009128063706
972,2262,972,12116,972,28111,16.358442791143588,-105.82689208577372,-176.43257868883012
972,2268,972,12066,972,28105,17.113844463874244,-110.05527320573893,-182.85222792086472
972,2260,972,12111,972,28110,17.866830361405192,-114.28309513282983,-189.2581927782885
972,2263,972,12113,972,28126,18.617683301804163,-118.50944838105636,-195.64923274775225
982,2261,982,12138,982,28118,19.36668442071086,-122.73380601809748,-202.02420374795946
982,2260,982,12096,982,28085,20.11405134736416,-126.95546592892566,-208.38173389200944
982,2263,982,12077,982,28083,20.8598926180959,-131.1733654985257,-214.72021950855066
982,2269,982,12068,982,28045,21.60419451083699,-135.38640432849837,-221.0381192071526
982,2266,982,12095,982,28069,22.34686053459575,-139.5938298029473,-227.33428902611433
982,2266,982,12108,982,28077,23.087755005069646,-143.79518770291395,-233.6080855088208
993,2265,993,12086,993,28059,23.826692021633413,-147.98989253549098,-239.85912746546342
993,2271,993,12053,993,28038,24.56340020605191,-152.17696197633785,-246.08704023883115
993,2273,993,12043,993,28024,25.2975299919457,-156.35525947934144,-252.2915305690957
993,2279,993,12040,993,28017,26.02871966352606,-160.52398200077386,-258.4726706477049
993,2268,993,12051,993,28028,26.75666551408223,-164.68294360561356,-264.6310817401266
993,2283,993,12041,993,28022,27.481137447630275,-168.83253962721085,-270.76787166696914
1002,2278,1002,12093,1002,28012,28.201982531279825,-172.97348245444618,-276.8844293345342
1002,2275,1002,12032,1002,27994,28.919156980014193,-177.1063919105738,-282.9823150806968
1002,2277,1002,11993,1002,27974,29.63271777261008,-181.23164494876937,-289.06337024023134
1002,2277,1002,12024,1002,27992,30.34276580565787,-185.34981855873167,-295.12993052750153
1002,2275,1002,12046,1002,27992,31.049405343478433,-189.46210661252962,-301.1848659274016
1002,2281,1002,12065,1002,28002,31.752723808946897,-193.57001649486796,-307.23131750271637
1012,2272,1012,12014,1012,27995,32.45277572275336,-197.67472998849223,-313.27230304521174
1012,2284,1012,11998,1012,27949,33.14956471764211,-201.77692773988718,-319.3104869371675
1012,2284,1012,11987,1012,27939,33.84304993449024,-205.8772128587609,-325.3483549513322
1012,2283,1012,11989,1012,27949,34.53320310836689,-209.9766155551696,-331.3886481948424
1012,2283,1012,12020,1012,27966,35.220053610372034,-214.07673154893627,-337.4345339954092
1012,2284,1012,12029,1012,27976,35.90367692416653,-218.1794011261822,-343.4892788898436
1023,2281,1023,11976,1023,27923,36.584162983298484,-222.28622425797369,-349.55578586187187
1023,2287,1023,11965,1023,27919,37.261588652025125,-226.39849860398664,-355.63652998973475
1023,2291,1023,11968,1023,27894,37.936020655512195,-230.51766129935748,-361.73394705187127
1023,2285,1023,11968,1023,27928,38.60756109929055,-234.64565974443263,-367.850801458819
1023,2289,1023,12004,1023,27915,39.276372840454954,-238.78488910280498,-373.9901570188591
1023,2291,1023,11979,1023,27902,39.94266244636067,-242.93779965510765,-380.1550819902069
1033,2294,1033,11966,1033,27894,40.60668549450065,-247.1065321335642,-386.3484789011601
1033,2288,1033,11929,1033,27876,41.26877825439624,-251.29295939706475,-392.5731543938616
1033,2292,1033,11961,1033,27888,41.92935300808972,-255.49905747672653,-398.83194281687145
1033,2290,1033,11955,1033,27898,42.58885699861537,-259.72711214231435,-405.1276709858954
1033,2293,1033,11968,1033,27880,43.24774356282731,-263.9795261733059,-411.4629012877242
1033,2284,1033,11963,1033,27858,43.906449363626976,-268.2584599901743,-417.8397100513829
1043,2288,1043,11914,1043,27862,44.5653331860086,-272.5656435329918,-424.25973990502996
1043,2297,1043,11927,1043,27817,45.22461271058542,-276.9025596677101,-430.7244187952489
1043,2296,1043,11916,1043,27818,45.88439234454965,-281.2708149046949,-437.2352545464148
1043,2294,1043,11944,1043,27849,46.54474972347097,-285.6722643035691,-443.7940875351121
1043,2285,1043,11943,1043,27840,47.20574529121153,-290.10875694650605,-450.40296549302013
1043,2297,1043,11918,1043,27834,47.867334718414625,-294.58175893486373,-457.0636970451676
1054,2297,1054,11887,1054,27796,48.52931367620933,-299.0922666914398,-463.7775938986724
1054,2306,1054,11888,1054,27784,49.19137996316563,-303.6411501582894,-470.5456444728135
1054,2298,1054,11900,1054,27804,49.853244185348416,-308.2295393255214,-477.36885584448623
1054,2299,1054,11937,1054,27798,50.514675670247655,-312.8587784868134,-484.24832482878026
1054,2294,1054,11893,1054,27802,51.17545124410897,-317.5299603285158,-491.18496328465676
1054,2313,1054,11885,1054,27768,51.83529390036067,-322.243584193046,-498.17922164494246
1064,2303,1064,11864,1064,27742,52.49391267118719,-326.9997068011202,-505.23112634408494
1064,2305,1064,11843,1064,27739,53.151093118143834,-331.798364831045,-512.3406372002803
1064,2306,1064,11866,1064,27760,53.80671298030316,-336.63993745941764,-519.5079584557627
1064,2303,1064,11902,1064,27751,54.46070120010107,-341.5251574433432,-526.7334473003058
1064,2306,1064,11877,1064,27751,55.11300306644786,-346.4546310965545,-534.0172514142965
1064,2301,1064,11846,1064,27723,55.76354540698881,-351.42834878522785,-541.3590519349991
1074,2308,1074,11835,1074,27696,56.41219980829818,-356.44574852167943,-548.7581142163436
1074,2305,1074,11824,1074,27699,57.05876612781975,-361.506156593367,-556.2135957997267
1074,2322,1074,11869,1074,27709,57.70300868137848,-366.6090426490274,-563.7247918700182
1074,2305,1074,11863,1074,27721,58.34474511227141,-371.7537735622747,-571.2910025229138
1074,2325,1074,11845,1074,27693,58.98392116605676,-376.93908263031994,-578.911133172709
1074,2321,1074,11814,1074,27672,59.620665304736406,-382.1628268452169,-586.5834612025864
1085,2317,1085,11774,1085,27671,60.25536363539361,-387.4223115538582,-594.3057591252519
1085,2303,1085,11793,1085,27670,60.88865396286664,-392.71492556082063,-602.075488965817
1085,2303,1085,11807,1085,27669,61.52124788750274,-398.0385464224069,-609.889776523066
1085,2312,1085,11858,1085,27667,62.15371449476255,-403.3912930560801,-617.7452101135275
1085,2308,1085,11815,1085,27633,62.78639965571472,-408.7707694211549,-625.637670312651
1085,2323,1085,11792,1085,27611,63.41948092140434,-414.1734995453645,-633.5624053191889
1095,2313,1095,11735,1095,27622,64.05306895616614,-419.59512062110264,-641.5143379092749
1095,2322,1095,11776,1095,27612,64.68728872037718,-425.0310954838949,-649.4882621234451
1095,2307,1095,11793,1095,27649,65.32228980525264,-430.47712095567255,-657.4786809324544
1095,2321,1095,11807,1095,27629,65.95818793927926,-435.92878090736536,-665.479341717012
1095,2320,1095,11775,1095,27611,66.59502265800506,-441.38088332948723,-673.482761160249
1095,2321,1095,11738,1095,27576,67.2327938690123,-446.8272121212981,-681.4801222431669
1105,2317,1105,11728,1105,27569,67.87150850437415,-452.26089614106456,-689.4615941796657
1105,2325,1105,11751,1105,27589,68.51117250140639,-457.67493228462763,-697.4166769018583
1105,2314,1105,11771,1105,27572,69.15176656205738,-463.06225367157293,-705.3341960234275
1105,2313,1105,11771,1105,27579,69.79319759640704,-468.4152541216508,-713.2020295690676
1105,2319,1105,11756,1105,27542,70.43520156728879,-473.7252204437524,-721.0069047947117
1105,2329,1105,11709,1105,27537,71.07730297327828,-478.9821524104562,-728.7344415563688
1116,2321,1116,11710,1116,27529,71.71889776151666,-484.17509617270053,-736.3693596847173
1116,2320,1116,11738,1116,27535,72.35933016746417,-489.2925866921947,-743.8956039356468
1116,2329,1116,11742,1116,27539,72.99787445701406,-494.32262885455515,-751.2962291605512
1116,2322,1116,11725,1116,27557,73.63371265918644,-499.2522662034158,-758.5530664547343
1116,2329,1116,11701,1116,27514,74.26595283479317,-504.0673124223966,-765.6463205919235
1116,2319,1116,11674,1116,27468,74.8936271961935,-508.7525434729929,-772.5544899139561
1126,2329,1126,11706,1126,27490,75.51565391747563,-513.2921019287994,-779.25480966436
1126,2323,1126,11713,1126,27506,76.13080314111309,-517.6696141374964,-785.7236649595848
1126,2325,1126,11693,1126,27508,76.73768340634008,-521.8678912048435,-791.9364095148097
1126,2336,1126,11709,1126,27487,77.33474449190787,-525.8686130049092,-797.8668802809182
1126,2335,1126,11683,1126,27461,77.92033719231961,-529.6522224325943,-803.4871976957019
1126,2329,1126,11637,1126,27440,78.49280781606276,-533.1980385878551,-808.7680102480433
1137,2339,1137,11674,1137,27440,79.0505282962571,-536.4846441625596,-813.6789414088237
1137,2332,1137,11672,1137,27465,79.59188220382929,-539.4901975922785,-818.1888533437517
1137,2327,1137,11678,1137,27453,80.11524719023097,-542.1922922284425,-822.2657098268554
1137,2330,1137,11663,1137,27414,80.61892331974805,-544.5676445346551,-825.8763226827904
1137,2338,1137,11608,1137,27401,81.10105591397352,-546.5920936785808,-828.9864826534393
1137,2336,1137,11597,1137,27389,81.55965819730146,-548.241115643141,-831.5614696893447
1147,2348,1147,11651,1147,27394,81.9927115423932,-549.4905005060475,-833.566514739526
1147,2340,1147,11648,1147,27402,82.39827457240227,-550.3164631133163,-834.9669672637326
1147,2335,1147,11635,1147,27391,82.77453642502606,-550.6951838808409,-835.7282282767508
1147,2332,1147,11601,1147,27354,83.11974948186615,-550.6025636741621,-835.8157333653078
1147,2344,1147,11587,1147,27348,83.43211245241332,-550.0145739971836,-835.1952761867818
1147,2341,1147,11568,1147,27333,83.70975362515397,-548.9079219690468,-833.8335845196266
1157,2341,1157,11606,1157,27371,83.95080422584577,-547.2606038542957,-831.6987573643224
1157,2335,1157,11621,1157,27347,84.15342837793405,-545.0520018375603,-828.760333461757
1157,2333,1157,11617,1157,27342,84.31575913250097,-542.2625308239676,-824.9892148671938
1157,2333,1157,11590,1157,27334,84.43579324448012,-538.8733317451192,-820.3578108326112
1157,2350,1157,11547,1157,27321,84.51134391870387,-534.8665037687725,-814.8404069836234
1157,2342,1157,11556,1157,27314,84.5401264683804,-530.2258598286483,-808.4135987806251
1168,2339,1168,11586,1168,27333,84.51988386501336,-524.937657617231,-801.0566990219592
1168,2343,1168,11612,1168,27365,84.44840654501614,-518.9907338449024,-792.7519116974172
1168,2344,1168,11587,1168,27352,84.32349713829464,-512.3761514871999,-783.484167625154
1168,2342,1168,11572,1168,27329,84.14298137601318,-505.08703427961956,-773.2409948108079
1168,2346,1168,11562,1168,27313,83.90473894030534,-497.118940875301,-762.0128753032582
1168,2347,1168,11589,1168,27334,83.60673206501001,-488.47044497018794,-749.7939614501422
1178,2348,1178,11611,1178,27360,83.2470542162882,-479.1434095319728,-736.5826014009035
1178,2341,1178,11642,1178,27382,82.82397058637684,-469.1427953009495,-722.3813785757716
1178,2342,1178,11630,1178,27378,82.33589986889083,-458.47625646732376,-707.1968938305076
1178,2348,1178,11600,1178,27370,81.7813697512897,-447.15399893999256,-691.0397314021417
1178,2348,1178,11620,1178,27387,81.15903521928693,-435.1891640414833,-673.9247763883664
1178,2342,1178,11666,1178,27422,80.46774757824971,-422.5983244557047,-655.8715919974742
1188,2333,1188,11717,1188,27450,79.70655483542552,-409.40140595827745,-636.9044776464893
1188,2338,1188,11723,1188,27477,78.87459705340454,-395.6209959424727,-617.0522032237445
1188,2338,1188,11717,1188,27494,77.97101003461732,-381.2816877142028,-596.3476899077743
1188,2341,1188,11712,1188,27527,76.99493045648981,-366.4099920679954,-574.8278005341176
1188,2345,1188,11742,1188,27537,75.94557617690307,-351.03468785436297,-552.5332182083482
1188,2341,1188,11781,1188,27594,74.82234507277353,-335.18706427323866,-529.5083310236379
1199,2347,1199,11831,1199,27656,73.62489803240652,-318.9006755238011,-505.80092121860923
1199,2344,1199,11845,1199,27683,72.35322409592715,-302.2106998904527,-481.4614913975233
1199,2334,1199,11841,1199,27690,71.00767965876176,-285.1533635917989,-456.5425419720842
1199,2342,1199,11852,1199,27711,69.5889653110864,-267.76582288355985,-431.09829198278106
1199,2341,1199,11890,1199,27778,68.09809494191765,-250.08636967847255,-405.1847282747226
1199,2332,1199,11928,1199,27819,66.53642184401323,-232.15446569163592,-378.85941463241846
1209,2333,1209,11974,1209,27854,64.9056448854538,-214.0103569775718,-352.18090728381657
1209,2327,1209,11987,1209,27882,63.2077501823406,-195.6944497192665,-325.20816144421434
1209,2326,1209,11970,1209,27895,61.44494690579181,-177.24686892862627,-298.0002265193634
1209,2322,1209,11992,1209,27923,59.6196194205194,-158.7075225480932,-270.6162280615073
1209,2320,1209,12049,1209,27968,57.73428556555513,-140.1163984754008,-243.11545243099604
1209,2327,1209,12074,1209,28043,55.79158123744155,-121.51348205449857,-215.55719226312675
1219,2322,1219,12131,1219,28075,53.7943055974002,-102.93818952869725,-188.0001423792541
1219,2310,1219,12134,1219,28104,51.74547622362167,-84.42867841187166,-160.50161945336802
1219,2309,1219,12121,1219,28113,49.64828281328825,-66.0214261094196,-133.11709125631054
1219,2308,1219,12131,1219,28147,47.505967669027164,-47.7513507823447,-105.9001390966182
1219,2312,1219,12180,1219,28201,45.321770480079316,-29.65223042539489,-78.90252786764694
1219,2314,1219,12221,1219,28233,43.09898586278654,-11.756777506279434,-52.17401769583421
1230,2308,1230,12253,1230,28260,40.84107284326294,5.903836324562775,-25.76195194134965
1230,2295,1230,12250,1230,28273,38.551702846219214,23.300583552835377,0.28904007377059315
1230,2291,1230,12215,1230,28295,36.23466715253076,40.40674853575496,25.937057149381644
1230,2291,1230,12245,1230,28318,33.89371251387911,57.19746226984492,51.142771877619225
1230,2296,1230,12286,1230,28366,31.532456581905183,73.64910491999143,75.86933389264635
1230,2298,1230,12335,1230,28396,29.154445766529914,89.73928319874614,100.08251006296547
1240,2292,1240,12350,1240,28418,26.763284575531813,105.44740967077436,123.75100817972458
1240,2285,1240,12332,1240,28419,24.362710848647883,120.7552694939269,146.84669585701897
1240,2284,1240,12317,1240,28434,21.956564151764205,135.6470126664534,169.34450316744199
1240,2272,1240,12341,1240,28456,19.54869780304849,150.1086027273235,191.22211516033008
1240,2270,1240,12394,1240,28496,17.142870834572214,164.1273538288862,212.45976066101213
1240,2276,1240,12394,1240,28521,14.742650121728836,177.69204031043574,233.04029235489958
1250,2263,1250,12417,1250,28549,12.351383271206934,190.7933120543916,252.94947582587372
1250,2281,1250,12405,1250,28514,9.972236081123832,203.42391005758446,272.1761744277934
1250,2269,1250,12409,1250,28552,7.60827422707726,215.57855502508932,290.71214510721404
1250,2263,1250,12398,1250,28561,5.262552643400561,227.25360433905388,308.55161755830966
1250,2267,1250,12466,1250,28595,2.9381214320392495,238.44672042490708,325.6910941059823
1250,2259,1250,12488,1250,28623,0.6379805790723339,249.15697764113844,342.1294737182807
1261,2253,1261,12461,1261,28595,-1.6349498371672908,259.3853834836442,357.8682533699855
1261,2259,1261,12445,1261,28590,-3.877872375088696,269.1350916655952,372.9114162170497
1261,2250,1261,12420,1261,28593,-6.0881416819032275,278.4108942026744,387.2648669022026
1261,2255,1261,12460,1261,28644,-8.263250403513801,287.2184315548684,400.9358651596191
1261,2246,1261,12504,1261,28641,-10.400812112411835,295.5638330274348,413.93293108569844
1261,2237,1261,12499,1261,28654,-12.498585856729548,303.4540442659322,426.2660619717499
1271,2251,1271,12492,1271,28668,-14.554542407555793,310.8973255986024,437.9468516335098
1271,2242,1271,12467,1271,28639,-16.566877162151968,317.9032815042596,448.98840668118316
1271,2236,1271,12460,1271,28650,-18.53395357916896,324.4823824887762,459.4050492397382
1271,2236,1271,12506,1271,28685,-20.454304698736678,330.6454202355086,469.211931171389
1271,2235,1271,12525,1271,28683,-22.32669280059926,336.403419840011,478.4249276589711
1271,2231,1271,12509,1271,28700,-24.150134156712184,341.76802901930205,487.06081775804705
1281,2235,1281,12510,1281,28683,-25.923890941877985,346.7518092020051,495.13739523106483
1281,2237,1281,12469,1281,28668,-27.6474364057361,351.3680557573281,502.67330675012624
1281,2228,1281,12491,1281,28684,-29.32038928336447,355.6302865958472,509.68765332341695
1281,2235,1281,12525,1281,28722,-30.942472102813163,359.55183381733576,516.1996923083625
1281,2223,1281,12527,1281,28718,-32.5135136398247,363.145938669021,522.2289733108619
1281,2231,1281,12529,1281,28713,-34.0334651733549,366.42616927263236,527.7956705733118
1292,2228,1292,12503,1292,28695,-35.50240221552325,369.4066284519677,532.9206275499306
1292,2226,1292,12480,1292,28687,-36.920493504424144,372.1017164698546,537.6250239742259
1292,2229,1292,12506,1292,28698,-38.287963566200375,374.52562226134467,541.9299258086438
1292,2221,1292,12524,1292,28714,-39.605075149861854,376.69201422907406,545.8560270262594
1292,2217,1292,12543,1292,28712,-40.872147717688875,378.6142397741209,549.423693851997
1292,2213,1292,12533,1292,28723,-42.08963626705495,380.30578824951766,552.6531367558927
1302,2225,1302,12501,1302,28684,-43.25820976113876,381.7805291853186,555.5644585985499
1302,2224,1302,12484,1302,28691,-44.37871784903534,383.052450121993,558.1774244738913
1302,2221,1302,12480,1302,28704,-45.45206609136562,384.13504943348636,560.511088191742
1302,2208,1302,12528,1302,28720,-46.479157514946195,385.04089164742624,562.5836633188958
1302,2211,1302,12528,1302,28714,-47.46098141645233,385.7817275505226,564.4127272084581
1302,2223,1302,12530,1302,28716,-48.39871986757139,386.3690026092173,566.0154498228961
1312,2217,1312,12471,1312,28685,-49.29370999181704,386.8141279934708,567.4085978640783
1312,2218,1312,12480,1312,28699,-50.14732066289355,387.1281414682438,568.6082954424179
1312,2217,1312,12519,1312,28706,-50.96089131384451,387.3211625302515,569.6297613312255
1312,2204,1312,12531,1312,28736,-51.73575507455999,387.4023760466331,570.48733798756
1312,2219,1312,12551,1312,28716,-52.47330774369746,387.38060882750176,571.1948239900131
1312,2215,1312,12506,1312,28699,-53.175037555372484,387.2648957629423,571.7657269450903
1323,2213,1323,12479,1323,28679,-53.84246712622222,387.06449894892404,572.2131045252829
1323,2218,1323,12487,1323,28680,-54.47709455500427,386.78836736790674,572.5491065327844
1323,2213,1323,12530,1323,28692,-55.08037207690032,386.44466215810695,572.7846000547061
1323,2219,1323,12510,1323,28717,-55.653681750452435,386.0408794240799,572.9291505236105
1323,2208,1323,12512,1323,28702,-56.198318249185206,385.58425462546705,572.9913279775617
1323,2215,1323,12491,1323,28680,-56.71550704542885,385.08188975325277,572.9789678684984
1333,2219,1333,12459,1333,28694,-57.20642151762034,384.5405018727556,572.8990927013886
1333,2213,1333,12471,1333,28694,-57.67214227758845,383.9659445859386,572.7577168603394
1333,2204,1333,12511,1333,28704,-58.113629510233864,383.36286849426966,572.5598602147319
1333,2204,1333,12525,1333,28723,-58.531811500088025,382.73495557498114,572.3097703115001
1333,2207,1333,12484,1333,28707,-58.92771848273158,382.08550673337294,572.0112295427442
1333,2216,1333,12473,1333,28677,-59.30251608236331,381.41764577498856,571.6677144211178
1343,2213,1343,12474,1343,28674,-59.65741199360346,380.7339696970949,571.2821660184952
1343,2219,1343,12502,1343,28693,-59.993526938065514,380.0362179126052,570.8565900198463
1343,2218,1343,12488,1343,28717,-60.311798664744046,379.32535292667586,570.3919902067739
1343,2209,1343,12516,1343,28701,-60.6129351492156,378.60187229940504,569.8887203032187
1343,2208,1343,12496,1343,28688,-60.8974533888324,377.8660968722708,569.3468129788382
1343,2205,1343,12470,1343,28680,-61.16579365196411,377.1182834603438,568.7659439882294
1354,2208,1354,12451,1354,28677,-61.418420119858894,376.3583758178745,568.1451710819025
1354,2218,1354,12493,1354,28684,-61.655835052035926,375.58555981710754,567.4827391178605
1354,2211,1354,12509,1354,28710,-61.878498365248504,374.7981996052751,566.7761133045306
1354,2214,1354,12502,1354,28704,-62.08673558299615,373.99430249794756,566.022275035025
1354,2210,1354,12489,1354,28682,-62.28071711412304,373.1719783969513,565.2180496886075
1354,2210,1354,12449,1354,28668,-62.46048861336112,372.329430362282,564.3601082970059
1364,2218,1364,12453,1364,28675,-62.62599170681922,371.46450473164253,563.4446634161226
1364,2211,1364,12473,1364,28677,-62.77703865402275,370.57420761776655,562.4672296541146
1364,2201,1364,12499,1364,28697,-62.913299636303115,369.6546674791779,561.4226695667728
1364,2209,1364,12498,1364,28689,-63.034387673445664,368.70158838373004,560.305456259292
1364,2210,1364,12478,1364,28669,-63.13995415874184,367.71073875000025,559.1099079890162
1364,2199,1364,12444,1364,28662,-63.229701933161685,366.6780122700208,557.8301500768247
1375,2214,1375,12468,1375,28668,-63.30338876311901,365.5990571022325,556.4598751418016
1375,2209,1375,12489,1375,28693,-63.36082730258363,364.46899154193,554.9922539782187
1375,2205,1375,12488,1375,28695,-63.401841073383906,363.2826049845373,553.4201956038861
1375,2212,1375,12492,1375,28684,-63.42624730017411,362.0347974449275,551.7367603979719
1375,2211,1375,12462,1375,28660,-63.433864582411694,360.72081865102916,549.9353460954192
1375,2207,1375,12455,1375,28658,-63.42449076921819,359.336157119089,548.0095112719048
1385,2208,1385,12448,1385,28687,-63.39790163599623,357.87620078856924,545.9527340207017
1385,2200,1385,12493,1385,28693,-63.35390679608113,356.3360194691422,543.7585148223438
1385,2207,1385,12493,1385,28698,-63.29242845089011,354.7105970926637,541.4208238168649
1385,2215,1385,12478,1385,28660,-63.213532153880415,352.9953500061613,538.9344737755468
1385,2213,1385,12450,1385,28652,-63.11735090300005,351.1863749415955,536.2950749320225
1385,2213,1385,12435,1385,28655,-63.00397136668239,349.2801799150363,533.49868314533
1395,2218,1395,12461,1395,28665,-62.873377355020295,347.2732361445288,530.541570568083
1395,2209,1395,12499,1395,28690,-62.725436368348284,345.1619116728496,527.4203779852696
1395,2218,1395,12497,1395,28665,-62.55990696326262,342.9430013230706,524.132527519942
1395,2213,1395,12463,1395,28661,-62.37645479806961,340.61437550196194,520.6765396361616
1395,2216,1395,12442,1395,28639,-62.17465105709474,338.175094288361,517.0520177443027
1395,2214,1395,12414,1395,28638,-61.95396945437161,335.6249281861817,513.259415808069
1406,2209,1406,12464,1406,28645,-61.71381016249082,332.9638016245756,509.29984800379265
1406,2209,1406,12477,1406,28657,-61.453562825521466,330.1917521666807,505.17513064856047
1406,2211,1406,12463,1406,28662,-61.17268641367062,327.30945602256884,500.88808671591846
1406,2211,1406,12434,1406,28621,-60.8707512981849,324.31867631893806,496.4428740783194
1406,2209,1406,12419,1406,28584,-60.54744356333566,321.22215245487365,491.84492656775393
1406,2212,1406,12412,1406,28584,-60.202574067103846,318.0231470245311,487.1004024882244
1416,2212,1416,12447,1416,28598,-59.836090236887294,314.72513996140236,482.2156281253674
1416,2214,1416,12460,1416,28623,-59.448068345418825,311.33200169066924,477.1970703203541
1416,2213,1416,12432,1416,28603,-59.03869638724174,307.8485116095593,472.0517893345743
1416,2212,1416,12402,1416,28586,-58.608271837984574,304.2806328641212,466.78785979125956
1416,2216,1416,12378,1416,28556,-58.15721631406805,300.6351951860484,461.41436483616985
1416,2209,1416,12390,1416,28572,-57.68609295705318,296.9193012990592,455.94107658318984
1426,2209,1426,12419,1426,28577,-57.1956447419946,293.14003546221875,450.37826574652803
1426,2222,1426,12428,1426,28570,-56.686843572422546,289.3047531957308,444.7368607296403
1426,2222,1426,12406,1426,28530,-56.160855023014975,285.42165851784563,439.02865835087573
1426,2221,1426,12343,1426,28525,-55.61891869904024,281.5000168126392,433.26619932101903
1426,2227,1426,12343,1426,28493,-55.06226155152383,277.54966105336996,427.46235463742846
1426,2228,1426,12355,1426,28506,-54.49205625160144,273.5802443986426,421.62991997950024
1437,2227,1437,12375,1437,28533,-53.90937399237606,269.6009775064464,415.78149291833006
1437,2220,1437,12367,1437,28500,-53.315172155110716,265.6209473951533,409.9297418079169
1437,2225,1437,12346,1437,28476,-52.71035727929563,261.64950555077786,404.08768751255445
1437,2229,1437,12324,1437,28464,-52.09585247490641,257.69629797819425,398.268558411565
1437,2229,1437,12309,1437,28443,-51.47258829824212,253.77093284524878,392.4853761104537
1437,2231,1437,12333,1437,28474,-50.841449440793454,249.88260920488798,386.75067010585076
1447,2222,1447,12354,1447,28456,-50.20326017367029,246.04010515937085,381.0765193095968
1447,2233,1447,12335,1447,28453,-49.55882875614846,242.25218790325312,375.4748087213751
1447,2227,1447,12288,1447,28413,-48.908990069776166,238.52793538059498,369.95733861103355
1447,2237,1447,12254,1447,28411,-48.25459585853906,234.87642489061452,364.5355996427628
1447,2228,1447,12278,1447,28400,-47.596480879994694,231.3059725095056,359.22040783754363
1447,2234,1447,12290,1447,28413,-46.935455532859436,227.82366574533296,354.0217045862165
1457,2238,1457,12311,1457,28407,-46.272316839267,224.43556759642468,348.9486326692082
1457,2231,1457,12319,1457,28418,-45.60783728113512,221.1473145325271,344.0097847502537
1457,2227,1457,12276,1457,28376,-44.942778010136365,217.96463262196914,339.21342369667263
1457,2233,1457,12228,1457,28374,-44.27797699853338,214.89331830390088,334.56745183634087
1457,2235,1457,12248,1457,28366,-43.61442103810733,211.93860671923608,330.0791430494965
1457,2244,1457,12281,1457,28394,-42.953212515834466,209.10461345770557,325.7549855199808
1468,2239,1468,12315,1468,28366,-42.29546938519377,206.3945619035601,321.60084132998077
1468,2245,1468,12275,1468,28356,-41.64224329448418,203.81156331653463,317.62215353219335
1468,2240,1468,12234,1468,28355,-40.994492263846766,201.35904695879415,313.8239111159532
1468,2245,1468,12207,1468,28302,-40.35308764027205,199.04034232856623,310.2104141884893
1468,2240,1468,12237,1468,28313,-39.71883303862592,196.85787682364165,306.7848837342645
1468,2241,1468,12247,1468,28348,-39.092497263789355,194.81280226805208,303.54911009411234
1478,2249,1478,12280,1478,28323,-38.47484702135016,192.90530521533483,300.5035427816844
1478,2233,1478,12233,1478,28327,-37.866659154276434,191.13518410259675,297.64765158579246
1478,2248,1478,12218,1478,28313,-37.268750830835046,189.50207196240603,294.9800752722448
1478,2252,1478,12205,1478,28304,-36.68200337356053,188.0050922059532,292.4985437331539
1478,2248,1478,12223,1478,28310,-36.107294706797845,186.6423765193825,290.1997598087476
1478,2245,1478,12258,1478,28327,-35.545425390804006,185.41098523758586,288.0793926339735
1488,2257,1488,12256,1488,28334,-34.99712928173001,184.30734358396802,286.13232022761827
1488,2257,1488,12211,1488,28309,-34.463061535004506,183.32774864888017,284.3529858711201
1488,2249,1488,12192,1488,28274,-33.94372547807925,182.46832796038265,282.73546774297233
1488,2249,1488,12213,1488,28294,-33.43946987311578,181.72449833605774,281.2731263983685
1488,2252,1488,12225,1488,28319,-32.950578813980805,181.0906192795634,279.95830181334713
1488,2254,1488,12257,1488,28329,-32.47733079878893,180.56021950774837,278.7825378063915
1499,2257,1499,12251,1499,28320,-32.019978398845275,180.12657215547594,277.7371276630453
1499,2255,1499,12208,1499,28305,-31.57870113146959,179.78313519258813,276.81345911194035
1499,2254,1499,12200,1499,28296,-31.153586169149143,179.52344240376493,276.0029767943715
1499,2258,1499,12217,1499,28295,-30.744644974232408,179.34060906405392,275.2969486863596
1499,2263,1499,12247,1499,28308,-30.35181323964297,179.2271122540239,274.68630792926444
1499,2265,1499,12275,1499,28314,-29.974889613662057,179.1751819749422,274.1617241545032
1509,2262,1509,12234,1509,28305,-29.61345368579835,179.17746534204053,273.71383174043837
1509,2258,1509,12211,1509,28288,-29.266844189587214,179.2272982975168,273.33336233573965
1509,2261,1509,12199,1509,28307,-28.934213625792943,179.31831592360695,273.01107266926573
1509,2254,1509,12231,1509,28301,-28.6146046864298,179.44389536066092,272.7376784116657
1509,2261,1509,12248,1509,28299,-28.30701207899891,179.5970629398851,272.5039340234475
1509,2261,1509,12259,1509,28313,-28.010411567502064,179.77092645702444,272.30074758400116
1519,2261,1519,12221,1519,28301,-27.72374209623697,179.95915521096634,272.1192904237288
1519,2259,1519,12198,1519,28283,-27.44588352747334,180.1559879300543,271.95105935298403
1519,2268,1519,12199,1519,28280,-27.175656335737173,180.35573641086503,271.78774201741174
1519,2255,1519,12250,1519,28295,-26.911814962991237,180.55235777123877,271.620988864773
1519,2256,1519,12225,1519,28293,-26.65307332323846,180.73959131504444,271.442377337026
1519,2257,1519,12272,1519,28302,-26.398198922987795,180.91145783099637,271.2435887943818
1530,2262,1530,12212,1530,28289,-26.14608457091247,181.06265606744634,271.0166001169271
1530,2265,1530,12189,1530,28272,-25.895722838280726,181.18852872952772,270.75372228146716
1530,2269,1530,12194,1530,28262,-25.646117709246333,181.28451519811125,270.44740927061275
1530,2258,1530,12214,1530,28296,-25.3962103556168,181.34559098402997,270.09000957971324
1530,2256,1530,12244,1530,28322,-25.14490406495417,181.36627285253465,269.6738673329579
1530,2259,1530,12223,1530,28297,-24.891184308333457,181.3410865707877,269.1918400356601
1540,2270,1540,12202,1540,28276,-24.63419232194802,181.2649227156828,268.6376868009629
1540,2266,1540,12196,1540,28264,-24.373161167420214,181.13291644593485,268.0059144390055
1540,2268,1540,12190,1540,28259,-24.107305366153568,180.94005782259433,267.2913325511142
1540,2259,1540,12228,1540,28284,-23.83579162751062,180.68097198447134,266.48876707464865
1540,2270,1540,12248,1540,28274,-23.55779069656301,180.35014254320444,265.59311458310185
1540,2255,1540,12230,1540,28270,-23.272535470384682,179.94247920594796,264.5995675156758
1550,2267,1550,12221,1550,28253,-22.97936921901215,179.45373601050431,263.5036968223659
1550,2261,1550,12195,1550,28247,-22.67778798237745,178.88045248997383,262.3013051582386
1550,2270,1550,12197,1550,28266,-22.3674407369841,178.2195818243574,260.9882430230019
1550,2266,1550,12216,1550,28270,-22.048087348463124,177.4681723864077,259.5604409461401
1550,2270,1550,12229,1550,28270,-21.719554795978002,176.62339824521214,258.01418213445646
1550,2273,1550,12205,1550,28255,-21.381703819015645,175.68286789189358,256.3463586974515
1561,2268,1561,12171,1561,28227,-21.034397897722627,174.64473772633045,254.55446467345007
1561,2267,1561,12163,1561,28231,-20.677502903487014,173.50733694243183,252.63630774233556
1561,2270,1561,12216,1561,28239,-20.310935637350397,172.26869647511114,250.58970481425007
1561,2272,1561,12221,1561,28258,-19.934700548546086,170.9266377494494,248.41248940858367
1561,2263,1561,12251,1561,28254,-19.548892374350995,169.4794577199815,246.10284708177625
1561,2273,1561,12188,1561,28223,-19.153721364596965,167.92659505257745,243.65964505608974
1571,2272,1571,12159,1571,28206,-18.749540850156578,166.2686541916234,241.0823938581963
1571,2274,1571,12147,1571,28176,-18.336818460581938,164.5067185231952,238.3708086240385
1571,2274,1571,12179,1571,28223,-17.916089430110812,162.64160425714456,235.52433031042537
1571,2283,1571,12215,1571,28229,-17.487922333035016,160.67377544229848,232.54209251752633
1571,2277,1571,12195,1571,28208,-17.052864852223028,158.60392211233045,229.42336429474233
1571,2279,1571,12146,1571,28200,-16.611395871233896,156.43346895609452,226.1679043359436
1581,2282,1581,12131,1581,28189,-16.16392434695065,154.16436284826165,222.7759149300446
1581,2280,1581,12129,1581,28182,-15.710796496711673,151.79836787485687,219.24784054184062
1581,2270,1581,12172,1581,28185,-15.252313310099076,149.33662466592028,215.5842376728421
1581,2281,1581,12180,1581,28209,-14.788806942595059,146.77988074848173,211.7858232444776
1581,2282,1581,12156,1581,28170,-14.320703126625599,144.12909641730846,207.85371767262166
1581,2285,1581,12142,1581,28155,-13.848480545090588,141.3857805268595,203.7895750017388
1592,2283,1592,12099,1592,28149,-13.37259191259728,138.55177082451155,199.59535519039676
1592,2280,1592,12116,1592,28153,-12.893441864021511,135.62869555187586,195.27301776743647
1592,2286,1592,12150,1592,28153,-12.411419612236848,132.61762218793973,190.82446868609452
1592,2293,1592,12162,1592,28167,-11.926905413041162,129.5193162398396,186.2517501929192
1592,2281,1592,12120,1592,28134,-11.440216421450735,126.33484898346093,181.55730365399745
1592,2283,1592,12090,1592,28110,-10.951595136600417,123.06578713451688,176.7440320662843
1602,2291,1602,12093,1602,28111,-10.461276851644403,119.71374989847666,171.81502456032078
1602,2291,1602,12116,1602,28119,-9.96950658251209,116.27994046555605,166.77325850068806
1602,2286,1602,12139,1602,28120,-9.476483206712295,112.76523068377341,161.6216291878261
1602,2291,1602,12125,1602,28084,-8.982344132345776,109.17070780185898,156.36315730848295
1602,2284,1602,12099,1602,28086,-8.487206680575476,105.49812874890566,151.00099965063487
1602,2296,1602,12055,1602,28066,-7.99120344144951,101.74983466852652,145.53823465120774
1613,2300,1613,12059,1613,28044,-7.49445493481597,97.92817421954922,139.97761695158235
1613,2297,1613,12071,1613,28075,-6.996967430082343,94.0349435250802,134.32139192979835
1613,2293,1613,12087,1613,28075,-6.498557107533472,90.07131422444803,128.57135427847092
1613,2290,1613,12090,1613,28071,-5.998891628702836,86.03821921425339,122.72923352474504
1613,2292,1613,12073,1613,28041,-5.497598528299669,81.9368054582078,116.79704620665612
1613,2290,1613,12031,1613,28022,-4.994351393559157,77.76856729966102,110.7770706129728
1623,2290,1623,12036,1623,28022,-4.488917651871986,73.53503476652392,104.67154115726709
1623,2290,1623,12063,1623,28029,-3.9811963081379105,69.23739728018842,98.48242860587806
1623,2301,1623,12070,1623,28037,-3.4712314726498903,64.87659495760172,92.21154893341128
1623,2294,1623,12055,1623,28021,-2.959165255708818,60.453802588169424,85.86089550568852
1623,2300,1623,12024,1623,27979,-2.4451725258885944,55.97073556153833,79.43283430482933
1623,2293,1623,11991,1623,27973,-1.9294463341088388,51.42943974346588,72.92989499803247
1633,2302,1633,11994,1633,27974,-1.4122218556990092,46.83172714253928,66.3543621688429
1633,2296,1633,12031,1633,27975,-0.8937902747223774,42.178775377392554,59.70810375360276
1633,2301,1633,12065,1633,27969,-0.37449653143553263,37.47138669810528,52.99271148696499
1633,2308,1633,12008,1633,27962,0.14527705300721294,32.71074057451921,46.20971449473922
1633,2300,1633,11984,1633,27937,0.6651574753309433,27.898789856510035,39.36067979642917
1633,2309,1633,11961,1633,27921,1.1848236812523822,23.037867387767164,32.447118716166585
1644,2303,1644,11987,1644,27945,1.7040127612559672,18.130059533282747,25.470308430920284
1644,2299,1644,11997,1644,27935,2.222497816337757,13.177040683978817,18.431332163320008
1644,2303,1644,11990,1644,27942,2.740023336856943,8.180415217470625,11.331402733791322
1644,2311,1644,11978,1644,27914,3.256250719365852,3.1421175916676702,4.172184087386313
1644,2316,1644,11958,1644,27899,3.7708130922339578,-1.9354795892277252,-3.0441300717544664
1644,2317,1644,11924,1644,27885,4.283455175885223,-7.04977995762772,-10.314984642823504
1654,2307,1654,11949,1654,27897,4.794130694158021,-12.198342440253924,-17.63765999806725
1654,2305,1654,11986,1654,27871,5.302962229606415,-17.379002115907753,-25.009286976113344
1654,2309,1654,11967,1654,27885,5.810106022857468,-22.589419277747027,-32.42673675242901
1654,2307,1654,11937,1654,27860,6.315653255145264,-27.82650806470656,-39.886513176832636
1654,2305,1654,11902,1654,27823,6.819598166307763,-33.08642673642092,-47.384752915804086
1654,2317,1654,11895,1654,27827,7.321826460819196,-38.365113503487976,-54.91746505528647
1664,2308,1664,11917,1664,27844,7.822138168351032,-43.65879936951393,-62.48079172737755
1664,2313,1664,11934,1664,27839,8.320286749054148,-48.96401849182013,-70.0708851471793
1664,2326,1664,11904,1664,27821,8.816006117739292,-54.277184990012955,-77.68352261086147
1664,2316,1664,11895,1664,27807,9.309084282098944,-59.5942766515858,-85.31389670764406
1664,2327,1664,11840,1664,27773,9.79946134183777,-64.91099397113612,-92.95672254711292
1664,2316,1664,11871,1664,27777,10.287266858645566,-70.2232529930474,-100.60653061688049
1675,2315,1675,11868,1675,27763,10.772784456315101,-75.52753449616577,-108.25792485546111
1675,2318,1675,11897,1675,27772,11.256361860893684,-80.8207294292884,-115.90563207659625
1675,2310,1675,11889,1675,27752,11.73831696592653,-86.09961023221766,-123.544375300301
1675,2324,1675,11819,1675,27724,12.218884434692228,-91.36044014993803,-131.16878770147883
1675,2313,1675,11805,1675,27706,12.698208901320022,-96.5992306252844,-138.77357376817514
1675,2320,1675,11827,1675,27711,13.176358455323179,-101.81246070756833,-146.35382879954744
1685,2328,1685,11841,1685,27717,13.65333816781142,-106.99741875915308,-153.90517288223595
1685,2327,1685,11837,1685,27706,14.129154249723026,-112.15188122755828,-161.42356796302278
1685,2327,1685,11820,1685,27680,14.603914675133346,-117.27365676403076,-168.90508529323057
1685,2326,1685,11792,1685,27662,15.077871153939068,-122.36046931580427,-176.34593098428928
1685,2326,1685,11775,1685,27650,15.551396378811734,-127.41022883513926,-183.74271361343875
1685,2332,1685,11809,1685,27653,16.024959273630643,-132.42138612019602,-191.09269294233582
1695,2326,1695,11812,1695,27668,16.499130611151486,-137.3929205651998,-198.3937771302733
1695,2321,1695,11811,1695,27652,16.97457243964898,-142.3239021840983,-205.6442402008974
1695,2319,1695,11773,1695,27630,17.451946541893335,-147.2131035194513,-212.8424249416318
1695,2332,1695,11747,1695,27596,17.93180464148123,-152.05908442819947,-219.98676925691024
1695,2334,1695,11743,1695,27589,18.414597948884733,-156.86068097801336,-227.07617626721327
1695,2318,1695,11772,1695,27622,18.90076960270553,-161.61741280548563,-234.1103436968217
1706,2322,1706,11777,1706,27625,19.39073571468741,-166.3293839907198,-241.08961343856606
1706,2334,1706,11756,1706,27601,19.884767146846073,-170.99682924456073,-248.01444047115217
1706,2335,1706,11733,1706,27574,20.38298854558238,-175.61985586092436,-254.88507407338534
1706,2332,1706,11700,1706,27558,20.885502719004975,-180.19866677422533,-261.701732622347
1706,2336,1706,11724,1706,27563,21.392468336806182,-184.73403401384047,-268.46496436338384
1706,2334,1706,11731,1706,27577,21.90410059273821,-189.2275368538351,-275.1757671394688
1716,2322,1716,11783,1716,27583,22.420633275055266,-193.68124083771863,-281.8353152841928
1716,2324,1716,11737,1716,27536,22.942203788387026,-198.0969775060845,-288.44455875732046
1716,2335,1716,11693,1716,27525,23.468713737786246,-202.47589057147616,-295.004161968678
1716,2341,1716,11673,1716,27509,23.999828992888773,-206.81877869994128,-301.5148530917992
1716,2334,1716,11685,1716,27522,24.53511518814082,-211.126858449088,-307.97776493536753
1716,2329,1716,11710,1716,27526,25.074112368654447,-215.40213379680108,-314.39443748129383
1726,2336,1726,11723,1726,27516,25.61626987028496,-219.64709901649405,-320.76653871818655
1726,2338,1726,11697,1726,27495,26.160877038164777,-223.8641532724389,-327.0956072819115
1726,2337,1726,11665,1726,27469,26.70708289315767,-228.05531981006789,-333.3830799364953
1726,2345,1726,11633,1726,27463,27.25395012909778,-232.22255905885964,-339.63058563340485
1726,2344,1726,11658,1726,27481,27.800511088399766,-236.36838011757715,-345.84020861511465
1726,2352,1726,11686,1726,27461,28.345843958975358,-240.49611308304446,-352.01445540242173
1737,2349,1737,11687,1737,27469,28.889157080489305,-244.60953251130974,-358.1560308326792
1737,2346,1737,11664,1737,27462,29.429838890821863,-248.71225081708621,-364.2676456803056
1737,2349,1737,11644,1737,27416,29.96744115847357,-252.80748861111897,-370.35194481964675
1737,2349,1737,11629,1737,27418,30.501633971487813,-256.8983149536449,-376.4116873857347
1737,2341,1737,11649,1737,27430,31.032170948660735,-260.987989102765,-382.4500574236887
1737,2350,1737,11659,1737,27433,31.5588363525765,-265.08000296061283,-388.47067590884467
1747,2346,1747,11642,1747,27404,32.0813943504923,-269.1777876854223,-394.4773201067479
1747,2349,1747,11607,1747,27393,32.59958292878867,-273.2845032687738,-400.4737974003184
1747,2351,1747,11591,1747,27377,33.11312616072077,-277.40327321417476,-406.4641252429823
1747,2361,1747,11594,1747,27385,33.62176888331457,-281.537684102222,-412.4527621264094
1747,2348,1747,11625,1747,27390,34.125347957836915,-285.69204400828005,-418.4446303963706
1747,2350,1747,11640,1747,27388,34.6238110781455,-289.87109812145724,-424.44489029927695
1757,2350,1757,11621,1757,27367,35.117136586855175,-294.07940987239544,-430.4586614042162
1757,2356,1757,11592,1757,27351,35.60526155873294,-298.3209659692069,-436.4909482495864
1757,2357,1757,11552,1757,27326,36.088099101444286,-302.59936946775247,-442.5468368332099
1757,2363,1757,11565,1757,27348,36.565612496290356,-306.9184426589786,-448.63177560130634
1757,2360,1757,11595,1757,27355,37.0378955881042,-311.2826487264052,-454.7516129283615
1757,2354,1757,11618,1757,27329,37.50520680802549,-315.6968544500287,-460.91231401147
1768,2350,1768,11590,1768,27325,37.96790420941536,-320.16563821087306,-467.11971923832095
1768,2360,1768,11555,1768,27313,38.42632603118984,-324.69286358893316,-473.3795664482668
1768,2353,1768,11540,1768,27291,38.880732130120016,-329.2819089887783,-479.6976271440034
1768,2361,1768,11556,1768,27291,39.331318414442315,-333.93618282703727,-486.0798633767746
1768,2359,1768,11577,1768,27311,39.77824355914666,-338.659292769374,-492.5325059552014
1768,2368,1768,11575,1768,27307,40.22167001999048,-343.45469486614525,-499.06184736689374
1778,2362,1778,11530,1778,27281,40.66182945906835,-348.32526161991944,-505.6738706376151
1778,2363,1778,11509,1778,27265,41.099064006847684,-353.2733233754078,-512.3741186720125
1778,2366,1778,11497,1778,27250,41.533815020778704,-358.30119305734695,-519.1678989993434
1778,2358,1778,11532,1778,27273,41.96659170892591,-363.41162372572984,-526.0605060210024
1778,2362,1778,11563,1778,27273,42.39792567607606,-368.607674727666,-533.0571307217253
1778,2365,1778,11538,1778,27265,42.828317447771674,-373.89202885723216,-540.1624799361157
1788,2358,1788,11496,1788,27219,43.25821543009402,-379.2664444477461,-547.3805036790993
1788,2370,1788,11465,1788,27208,43.68801514721705,-384.73193728779125,-554.7145622805467
1788,2374,1788,11472,1788,27211,44.11809088453581,-390.2894615995598,-562.1678510610046
1788,2358,1788,11529,1788,27217,44.548869842671756,-395.940296744485,-569.7436007922582
1788,2364,1788,11479,1788,27205,44.98082534321553,-401.6857267840715,-577.4449101539781
1788,2365,1788,11474,1788,27206,45.41436883556281,-407.52655521274295,-585.2744731667045
1799,2371,1799,11453,1799,27180,45.84980056389607,-413.463102414521,-593.2344180422288
1799,2369,1799,11431,1799,27174,46.28736137966069,-419.4955502300041,-601.3263018890334
1799,2370,1799,11454,1799,27175,46.7272905750015,-425.6242470907836,-609.5511843038125
1799,2371,1799,11469,1799,27165,47.16984115962305,-431.849712653226,-617.9096118308953
1799,2369,1799,11468,1799,27156,47.61527078649814,-438.17223061705,-626.4014930189827
1799,2364,1799,11445,1799,27135,48.06381034215513,-444.5913474402529,-635.0260219090524
1809,2370,1809,11415,1809,27115,48.51560007526789,-451.105728235593,-643.7817551908112
1809,2371,1809,11383,1809,27105,48.97064384977284,-457.713483193394,-652.6668167448648
1809,2379,1809,11419,1809,27108,49.42884020617126,-464.41266506086976,-661.6790737894621
1809,2375,1809,11428,1809,27124,49.89006796972576,-471.20139335526045,-670.8160722012927
1809,2375,1809,11437,1809,27105,50.35424950678964,-478.07739895440295,-680.0746926305607
1809,2373,1809,11391,1809,27048,50.82134306335914,-485.0374586324313,-689.450879620158
1819,2373,1819,11363,1819,27059,51.29128847297973,-492.0773166159897,-698.9398303620254
1819,2378,1819,11356,1819,27050,51.763962900000585,-499.1921377883152,-708.5363882327272
1819,2379,1819,11359,1819,27065,52.239185071250645,-506.3769948408548,-718.2350989051681
1819,2383,1819,11382,1819,27055,52.71676597640652,-513.6269422828499,-728.0298887287855
1819,2380,1819,11372,1819,27064,53.196565568076984,-520.9366653251927,-737.9136367364978
1819,2381,1819,11357,1819,27011,53.67851499280365,-528.300037715554,-747.8778651132689
1830,2383,1830,11308,1830,26988,54.162604357182175,-535.7100055870507,-757.9127912064995
1830,2380,1830,11316,1830,26982,54.64886638713911,-543.1589169192848,-768.0077494468159
1830,2376,1830,11350,1830,26999,55.13734788617141,-550.6388556675595,-778.1515261323868
1830,2381,1830,11336,1830,26982,55.6280467312537,-558.1414546398303,-788.332251244937
1830,2385,1830,11318,1830,26963,56.120869045942705,-565.6573958221932,-798.5370905068216
1830,2376,1830,11287,1830,26958,56.615642978137856,-573.1762257799544,-808.7521165009291
1840,2384,1840,11260,1840,26934,57.11212027942623,-580.6866523825934,-818.9623572473305
1840,2387,1840,11287,1840,26933,57.60995759676904,-588.1769872515102,-829.1518668616885
1840,2380,1840,11300,1840,26945,58.10873617229518,-595.635244552735,-839.3037054514676
1840,2380,1840,11321,1840,26933,58.60796532202401,-603.0486759276632,-849.3997093680543
1840,2388,1840,11287,1840,26915,59.10703125668607,-610.4030778920743,-859.420163670346
1840,2385,1840,11244,1840,26878,59.605182328018714,-617.6824711434218,-869.3437032094098
1851,2385,1851,11214,1851,26866,60.10156488659175,-624.8694598441987,-879.1475603485576
1851,2396,1851,11237,1851,26880,60.59525108752821,-631.9459192683353,-888.8078888301147
1851,2392,1851,11258,1851,26875,61.08528902687875,-638.8932878767539,-898.2997820405444
1851,2394,1851,11266,1851,26871,61.570779285283265,-645.6921750143382,-907.5969682320501
1851,2392,1851,11230,1851,26845,62.050905055193695,-652.3217361211871,-916.6715174226347
1851,2396,1851,11195,1851,26818,62.52491588028366,-658.7594737994002,-925.4938239109509
1861,2392,1861,11175,1861,26817,62.992113602645546,-664.9816495701232,-934.0328491205131
1861,2389,1861,11213,1861,26826,63.451828400060506,-670.9638334956439,-942.2563302665677
1861,2390,1861,11223,1861,26825,63.90335458078021,-676.680946864567,-950.1306745520324
1861,2391,1861,11205,1861,26801,64.34587853779507,-682.1067683742656,-957.6206613602491
1861,2396,1861,11186,1861,26779,64.77845555027011,-687.2135178123376,-964.6893258979034
1861,2394,1861,11126,1861,26750,65.20003950626383,-691.9719896150939,-971.2981933970096
1871,2392,1871,11137,1871,26751,65.60951296052303,-696.3521805362013,-977.4077051956743
1871,2392,1871,11165,1871,26748,66.00566899184155,-700.3238821501021,-982.9775404513618
1871,2392,1871,11172,1871,26772,66.38716108604993,-703.8566623960154,-987.966620248835
1871,2398,1871,11148,1871,26728,66.75247572448492,-706.9193949891326,-992.3328682607114
1871,2403,1871,11121,1871,26713,67.09996819602212,-709.4800338452706,-996.0331259394201
1871,2392,1871,11087,1871,26688,67.42793537290186,-711.5059532747972,-999.0234887085097
1882,2387,1882,11088,1882,26702,67.73460812760314,-712.9646202276756,-1001.259809557552
1882,2398,1882,11129,1882,26683,68.0180351141421,-713.8240916847394,-1002.6980011152774
1882,2404,1882,11100,1882,26695,68.27602796398634,-714.052986115365,-1003.2941153636002
1882,2396,1882,11090,1882,26671,68.50624890873723,-713.6202477568361,-1003.0043764560062
1882,2402,1882,11094,1882,26642,68.70629519233246,-712.4952045890861,-1001.785354242193
1882,2402,1882,11038,1882,26630,68.87370749371391,-710.647910890052,-999.5944256189057
1892,2412,1892,11059,1892,26640,69.00599755162489,-708.0496600070821,-996.3903733266394
1892,2404,1892,11092,1892,26639,69.10073352101406,-704.6734497447866,-992.1337673893483
1892,2402,1892,11085,1892,26639,69.15559409722644,-700.4939783362073,-986.7870718367108
1892,2406,1892,11030,1892,26621,69.16833482207475,-695.4874389994443,-980.3147349927691
1892,2407,1892,11017,1892,26594,69.13674557186395,-689.6318768373205,-972.683511434978
1892,2415,1892,11010,1892,26579,69.05868429617855,-682.9081027728507,-963.8631017636341
1902,2405,1902,11055,1902,26582,68.93215672282875,-675.3004407296228,-953.8269493496603
1902,2401,1902,11056,1902,26613,68.7553368643593,-666.7968553555171,-942.5528368318478
1902,2410,1902,11064,1902,26607,68.52649601102357,-657.3886854250554,-930.0230727466737
1902,2398,1902,11072,1902,26605,68.24393740816512,-647.0704507885163,-916.224499707514
1902,2400,1902,11012,1902,26597,67.90596095937146,-635.8399921840196,-901.1487092075974
1902,2409,1902,11053,1902,26601,67.51081956046109,-623.6990189634134,-884.7925160835346
1913,2411,1913,11092,1913,26629,67.05674604437903,-610.6536843352999,-867.1584439865621
1913,2408,1913,11126,1913,26652,66.54207103005754,-596.7145404740108,-848.2549629206201
1913,2404,1913,11114,1913,26651,65.96530018973505,-581.8960007877806,-828.0964807832506
1913,2408,1913,11112,1913,26663,65.32509837113264,-566.2160557581618,-806.7033861174597
1913,2414,1913,11095,1913,26692,64.62027776076879,-549.696569726826,-784.1022751694645
1913,2404,1913,11129,1913,26712,63.849850842824175,-532.3638848409605,-760.3261460499782
1923,2413,1923,11200,1923,26775,63.01308140881206,-514.2491587297085,-735.414354738327
1923,2408,1923,11230,1923,26800,62.10950126983357,-495.38799388429936,-709.4122832903815
1923,2403,1923,11228,1923,26829,61.13892102669655,-475.8196572453057,-682.370860638144
1923,2410,1923,11240,1923,26852,60.1014187231159,-455.58664976756626,-654.3462299775322
1923,2400,1923,11265,1923,26890,58.99731853040286,-434.7348048060868,-625.3996400225517
1923,2397,1923,11310,1923,26941,57.827165532422065,-413.313434325655,-595.5973377235694
1933,2399,1933,11386,1933,26992,56.591660173922904,-391.37506408895143,-565.0102439292687
1933,2403,1933,11435,1933,27072,55.29161104290543,-368.97461456957996,-533.7133309255212
1933,2399,1933,11438,1933,27108,53.92797274716507,-346.1683456458044,-501.78474408359983
1933,2405,1933,11448,1933,27134,52.50192028917877,-323.0132108968432,-469.30494447271525
1933,2403,1933,11457,1933,27178,51.01491943300252,-299.566884793713,-436.3562159710077
1933,2395,1933,11524,1933,27268,49.468782905307876,-275.8880339366701,-403.02237035490685
1944,2396,1944,11592,1944,27325,47.86566583685759,-252.0361747855332,-369.3881134468576
1944,2392,1944,11640,1944,27365,46.20800848043409,-228.07086099694274,-335.53804128318325
1944,2386,1944,11639,1944,27399,44.498480776192224,-204.05065783326125,-301.55578771192205
1944,2396,1944,11644,1944,27435,42.73994487576514,-180.0326221676942,-267.5236040108705
1944,2388,1944,11684,1944,27475,40.93546589466009,-156.0724197601195,-233.52219580686608
1944,2385,1944,11745,1944,27546,39.08835663398688,-132.22448095972823,-199.63052524330828
1954,2389,1954,11792,1954,27604,37.20218534175575,-108.54163853271484,-165.92533496220494
1954,2374,1954,11845,1954,27621,35.28075045356715,-85.07431263862867,-132.48044396512574
1954,2377,1954,11803,1954,27664,33.32802826849955,-61.869763371204556,-99.36621559350203
1954,2367,1954,11823,1954,27700,31.348077248225405,-38.9719779017596,-66.64936118748517
1954,2368,1954,11850,1954,27737,29.34493928603573,-16.422166410194734,-34.392830253362376
1954,2371,1954,11909,1954,27790,27.322584360939977,5.740869235095033,-2.6556048687345424
1964,2363,1964,11938,1964,27833,25.284914636302027,27.480970961130026,28.507638115406166
1964,2365,1964,11945,1964,27849,23.235787400128558,48.7651557660904,59.046934224523056
1964,2356,1964,11936,1964,27855,21.179002080111356,69.56385910096174,88.9172283342873
1964,2361,1964,11936,1964,27860,19.118263350753644,89.85063643649767,118.07813238362047
1964,2357,1964,11986,1964,27904,17.057164731424827,109.60162146416314,146.49341528388783
1964,2348,1964,12040,1964,27952,14.999190531754444,128.79534890908667,174.13069179486263
1975,2354,1975,12056,1975,27981,12.94768948259918,147.4131977193888,200.96157463002743
1975,2344,1975,12042,1975,27993,10.905832082203382,165.43995546706816,226.96202573516905
1975,2360,1975,12035,1975,27981,8.876614284418302,182.86384482901974,252.1124280388908
1975,2342,1975,12023,1975,28011,6.862919568273888,199.675951931248,276.3972226300036
1975,2343,1975,12096,1975,28054,4.867560366257699,215.86957096956428,299.80447222486987
1975,2346,1975,12112,1975,28076,2.8932420933678316,231.44007656637962,322.3257966531903
1985,2343,1985,12112,1985,28069,0.9425387292013454,246.38532813222275,343.95655730664953
1985,2341,1985,12101,1985,28072,-0.9820695417515708,260.70592843659495,364.69579096692337
1985,2337,1985,12085,1985,28061,-2.878173616497982,274.4049195723045,384.5457292471792
1985,2333,1985,12081,1985,28083,-4.7434621704398126,287.4871045051626,403.5111445093921
1985,2328,1985,12135,1985,28115,-6.5757796292393,299.9584211247462,421.5988642045128
1985,2324,1985,12171,1985,28155,-8.373205371233098,311.8258523179485,438.8177185966455
1995,2330,1995,12168,1995,28151,-10.134121849869985,323.09792246893494,455.1788528478139
1995,2328,1995,12147,1995,28140,-11.857215033759452,333.7851366156673,470.6959417706238
1995,2332,1995,12128,1995,28141,-13.541401145798218,343.8997953447599,485.38495071547857
1995,2325,1995,12135,1995,28152,-15.185742480115046,353.45532674866,499.26361619435704
1995,2322,1995,12165,1995,28168,-16.78941709199116,362.4656936015991,512.3510444049548
1995,2326,1995,12207,1995,28177,-18.351744415515242,370.94532459308846,524.6675667253556
2005,2330,2005,12162,2005,28175,-19.87218386353895,378.9094781031097,536.2347078826801
2005,2323,2005,12157,2005,28169,-21.350261910718245,386.3743843915472,547.0750576988406
2005,2312,2005,12140,2005,28175,-22.785532911092318,393.3567913221574,557.211978938937
2005,2325,2005,12172,2005,28190,-24.177644495980033,399.87333403491755,566.6693023157299
2005,2323,2005,12204,2005,28207,-25.526378048753685,405.94031895776664,575.4712122951672
2005,2320,2005,12239,2005,28222,-26.83157724819017,411.5741078050212,583.6423654333246
2015,2314,2015,12196,2015,28202,-28.093088134733577,416.79175497669667,591.2080644000112
2015,2322,2015,12168,2015,28186,-29.310781535510685,421.61119357147606,598.194187382128
2015,2317,2015,12160,2015,28193,-30.48456476256092,426.05067399914105,604.6267789605353
2015,2315,2015,12206,2015,28201,-31.614350209198214,430.1280435201372,610.531609234429
2015,2308,2015,12219,2015,28221,-32.70006179635806,433.86061490482564,615.9340241517871
2015,2307,2015,12210,2015,28207,-33.7417116510765,437.2655831641998,620.8590477657793
2025,2300,2025,12200,2025,28213,-34.739504520754934,440.3603502960227,625.3314664444882
2025,2314,2025,12180,2025,28193,-35.69391123391034,443.1624073852605,629.3757242333209
2025,2311,2025,12172,2025,28202,-36.605642393856414,445.68891313426786,633.0156730930339
2025,2309,2025,12208,2025,28231,-37.47554050401246,447.95629408097557,636.2743897166813
2025,2308,2025,12221,2025,28242,-38.30451192595322,449.9802261765491,639.1743131449656
2025,2298,2025,12222,2025,28245,-39.0935532841728,451.7760255243062,641.7376579111565
2036,2317,2036,12193,2036,28202,-39.843807529473864,453.3589904104149,643.9866830776476
2036,2312,2036,12183,2036,28207,-40.55653427687743,454.7443035516129,645.9434946737753
2036,2311,2036,12182,2036,28208,-41.232986286877065,455.94660537122775,647.6295791421916
2036,2304,2036,12208,2036,28218,-41.87434180547197,456.97966482156164,649.0655264681222
2036,2307,2036,12230,2036,28227,-42.481753434773736,457.8564690541019,650.2710799140914
2036,2316,2036,12220,2036,28224,-43.056394096905976,458.5896606619541,651.265335632143
2046,2301,2046,12183,2046,28200,-43.59942315257109,459.1918545927498,652.0668628345436
2046,2310,2046,12174,2046,28203,-44.11195763255907,459.67543160185005,652.6935799844227
2046,2300,2046,12180,2046,28209,-44.59511128006734,460.0519980700768,653.1625078311968
2046,2303,2046,12220,2046,28211,-45.05005279832558,460.3320966453397,653.4896779871755
2046,2296,2046,12246,2046,28219,-45.478065053326134,460.52552148629775,653.6902389954249
2046,2309,2046,12201,2046,28214,-45.88059305080081,460.6419706339492,653.7786197339871
2056,2311,2056,12162,2056,28196,-46.25920779195148,460.6912742721589,653.768612053303
2056,2306,2056,12150,2056,28176,-46.615485961878136,460.68282215176964,653.6732305205725
2056,2301,2056,12189,2056,28191,-46.95093896634873,460.6247848390989,653.5043791839477
2056,2306,2056,12205,2056,28219,-47.26705602564557,460.523935956183,653.2726750426618
2056,2303,2056,12216,2056,28203,-47.56536211453471,460.3861297920762,652.9876727102827
2056,2310,2056,12188,2056,28183,-47.8474137986144,460.21684920898826,652.6581641087517
2067,2309,2067,12166,2067,28181,-48.11474708377381,460.02130760150726,652.2921258791803
2067,2311,2067,12137,2067,28161,-48.36880758490315,459.8040258062656,651.8963992224551
2067,2309,2067,12187,2067,28196,-48.61089736832605,459.56826020995163,651.476433805284
2067,2308,2067,12229,2067,28203,-48.842160682870116,459.3159396230096,651.0363403838277
2067,2312,2067,12204,2067,28195,-49.06359234814819,459.04831723335394,650.5792458977525
2067,2320,2067,12174,2067,28187,-49.27601209928793,458.76659891623615,650.1075967491533
2077,2309,2077,12156,2077,28170,-49.47998461940412,458.4718375305947,649.6231470799148
2077,2312,2077,12155,2077,28168,-49.67577427763331,458.16434005720873,649.1267270838423
2077,2296,2077,12200,2077,28177,-49.86341347970917,457.84327561412624,648.6180159327761
2077,2301,2077,12192,2077,28187,-50.04285831339687,457.50684254211075,648.0955155938235
2077,2303,2077,12201,2077,28192,-50.2141363712691,457.15276185922323,647.5567599527067
2077,2313,2077,12167,2077,28165,-50.377373422568056,456.7785851386853,646.9985508478862
2088,2313,2088,12156,2088,28162,-50.53268071961544,456.38157201159856,646.4169539638344
2088,2306,2088,12169,2088,28162,-50.680022335113144,455.95831141487434,645.8070688539959
2088,2302,2088,12202,2088,28190,-50.81919609340111,455.50454403701383,645.1629030891654
2088,2302,2088,12196,2088,28187,-50.949932144654994,455.01545927560767,644.4775773478217
2088,2312,2088,12190,2088,28190,-51.07197967005182,454.48616126121726,643.7437058148713
2088,2302,2088,12150,2088,28172,-51.185094706089394,453.91180424171944,642.953640455984
2098,2305,2098,12149,2098,28172,-51.28900397349789,453.2872578485964,642.0994620288456
2098,2309,2098,12182,2098,28186,-51.38341554892479,452.606666674654,641.172877952501
2098,2301,2098,12228,2098,28180,-51.4680298429849,451.86351144801375,640.1652559721507
2098,2302,2098,12185,2098,28199,-51.54255291773345,451.05125698707315,639.0678222200543
2098,2313,2098,12178,2098,28188,-51.60672834275728,450.16386669919825,637.8719106220848
2098,2309,2098,12152,2098,28175,-51.66030462712524,449.1956657588837,636.5691384612647
2108,2313,2108,12150,2108,28159,-51.70293823610904,448.1408445768178,635.1513606462806
2108,2313,2108,12185,2108,28171,-51.73412326910091,446.99311474907,633.610443431918
2108,2309,2108,12202,2108,28161,-51.75316602440468,445.74584147300885,631.9381108223195
2108,2306,2108,12196,2108,28190,-51.75920446774309,444.3925919208051,630.126007606521
2108,2303,2108,12172,2108,28163,-51.75128476892796,442.92759385100055,628.1659226299479
2108,2299,2108,12142,2108,28149,-51.72846862527998,441.3456898002197,626.0499418673221
2119,2313,2119,12157,2119,28164,-51.68991271361255,439.6418963230132,623.7703615696414
2119,2305,2119,12177,2119,28187,-51.63485756513048,437.8110764038028,621.319641014525
2119,2306,2119,12198,2119,28191,-51.562566364849886,435.8481198300856,618.6907310452029
2119,2304,2119,12193,2119,28180,-51.47232095744988,433.74849610240824,615.8775823383074
2119,2314,2119,12164,2119,28168,-51.363450799092064,431.50869637288685,612.8754288800776
2119,2304,2119,12132,2119,28148,-51.23531392990424,429.12618207204343,609.6807335152812
2129,2310,2129,12165,2129,28128,-51.08726843955778,426.5989455712649,606.2909029805872
2129,2308,2129,12196,2129,28157,-50.91868301611102,423.9253143657679,602.7039728884948
2129,2303,2129,12202,2129,28168,-50.728962314323915,421.1044096582126,598.9185926147123
2129,2304,2129,12162,2129,28134,-50.517593234631285,418.1368101277356,594.9343587219327
2129,2303,2129,12138,2129,28138,-50.28421617874208,415.0246923689834,590.7520456727106
2129,2306,2129,12109,2129,28106,-50.02867272847122,411.77133060551853,586.3734849253611
2139,2312,2139,12127,2139,28123,-49.750997379456884,408.38042713811734,581.8013190446659
2139,2310,2139,12164,2139,28126,-49.45135738246099,404.8558420935046,577.0389100432114
2139,2313,2139,12160,2139,28131,-49.1299831898935,401.20196115503614,572.090525315241
2139,2303,2139,12117,2139,28115,-48.787150214408584,397.42425795336607,566.9616573681618
2139,2306,2139,12102,2139,28089,-48.42323820054133,393.52935278836674,561.6591696055441
2139,2307,2139,12098,2139,28086,-48.03882367807744,389.5245573855438,556.1911465591045
2150,2310,2150,12104,2150,28095,-47.63472251151997,385.41747414055635,550.5666729808679
2150,2304,2150,12107,2150,28078,-47.21198050260949,381.21595520072003,544.7958187845561
2150,2319,2150,12130,2150,28085,-46.77186058852491,376.92834828453874,538.8897789496289
2150,2315,2150,12082,2150,28056,-46.31579624655344,372.5638306580489,532.8609677127695
2150,2320,2150,12050,2150,28025,-45.84529487548061,368.1324424410876,526.7229270471519
2150,2314,2150,12044,2150,28003,-45.361870033263074,363.64459836197216,520.4899458198937
2160,2329,2160,12068,2160,28022,-44.86702272031474,359.1105329765028,514.1765713284702
2160,2316,2160,12083,2160,28016,-44.362208924885806,354.54027399159656,507.797425596403
2160,2313,2160,12083,2160,28006,-43.84882980911273,349.94412110166525,501.3673806000479
2160,2329,2160,12017,2160,27973,-43.32829508132704,345.33305729703466,494.9017033986434
2160,2327,2160,11991,2160,27958,-42.802032014908555,340.71851352485214,488.41588534128533
2160,2325,2160,12000,2160,27946,-42.271385427882954,336.11158753554514,481.9252621151534
2170,2324,2170,12037,2170,27954,-41.737560356408935,331.52252401474215,475.4447236472001
2170,2333,2170,12036,2170,27951,-41.201643806168775,326.96095955150224,468.9886995476934
2170,2328,2170,11996,2170,27934,-40.66459828600378,322.43648486846615,462.5713305703448
2170,2324,2170,11995,2170,27923,-40.127237207195066,317.95880557775587,456.2065726556534
2170,2325,2170,11935,2170,27889,-39.590269136837236,313.53737365582765,449.9080833432743
2170,2323,2170,11982,2170,27893,-39.05438861748881,309.1808374056352,443.68893462442304
2181,2323,2181,12007,2181,27908,-38.52034674645422,304.8968317239562,437.56139464047794
2181,2328,2181,11994,2181,27900,-37.988989348802455,300.69241195240545,431.5370368416013
2181,2336,2181,11971,2181,27865,-37.46123843473074,296.57463727384766,425.6270001435282
2181,2336,2181,11942,2181,27857,-36.93799465339444,292.5506355938198,419.84196865414503
2181,2337,2181,11921,2181,27848,-36.42002142600937,288.62715979540565,414.19187263262893
2181,2332,2181,11932,2181,27854,-35.907895726425515,284.8100398841609,408.6856705585569
2191,2336,2191,11967,2191,27853,-35.40203560374065,281.1039679327283,403.33138603073417
2191,2326,2191,11959,2191,27859,-34.90276395370376,277.51282812825934,398.1363263511254
2191,2329,2191,11938,2191,27820,-34.41039638208741,274.04021559303186,393.1072963490812
2191,2338,2191,11900,2191,27809,-33.92532076884674,270.6895488748773,388.2505582895824
2191,2337,2191,11908,2191,27803,-33.447985549679856,267.46367682714657,383.57151943165735
2191,2329,2191,11946,2191,27806,-32.978833129224746,264.3645160547746,379.0744627363011
2201,2343,2201,11932,2201,27815,-32.51829173979554,261.3932166704852,374.76255327816955
2201,2336,2201,11941,2201,27793,-32.06678525733385,258.55065190183984,370.6380311785602
2201,2330,2201,11898,2201,27791,-31.62472048644262,255.83768915086057,366.7023440614013
2201,2341,2201,11877,2201,27761,-31.19252273053292,253.25499962862915,362.9560692026905
2201,2345,2201,11879,2201,27779,-30.77066094589064,250.80253807991411,359.398704251358
2201,2341,2201,11919,2201,27796,-30.359573422476913,248.4791742253326,356.0285976815381
2212,2343,2212,11937,2212,27797,-29.9595911151771,246.28293530847452,352.84322945798857
2212,2338,2212,11914,2212,27781,-29.570945631736077,244.2116756230449,349.8396416159028
2212,2346,2212,11873,2212,27758,-29.19381329758259,242.2634607288197,347.01460599349366
2212,2348,2212,11870,2212,27749,-28.8283183885402,240.43627989171904,344.36441992931617
2212,2345,2212,11881,2212,27763,-28.474481359683995,238.72749560262793,341.8846012075809
2212,2350,2212,11904,2212,27777,-28.13217277817312,237.133659620088,339.56984259437405
2222,2340,2222,11921,2222,27776,-27.8011154578613,235.65085144962612,337.41430908154695
2222,2346,2222,11894,2222,27768,-27.480930752344698,234.2752115253106,335.4120088517367
2222,2342,2222,11864,2222,27753,-27.171202706474332,233.0031612615707,333.55695280421025
2222,2348,2222,11844,2222,27733,-26.871513532300913,231.83105713302797,331.84303604975145
2222,2351,2222,11880,2222,27738,-26.581426137826448,230.75463102744973,330.26375287299703
2222,2347,2222,11898,2222,27754,-26.300431935638855,229.76885244096374,328.8120003500714
2232,2343,2232,11905,2232,27753,-26.027930728546185,228.86837455143177,327.4801812993753
2232,2343,2232,11881,2232,27748,-25.763291257821525,228.04808065979748,326.2604833468111
2232,2350,2232,11864,2232,27730,-25.50592767390618,227.3032252370704,325.1450287666323
2232,2352,2232,11837,2232,27725,-25.255294810955448,226.62910700471326,324.12577797245973
2232,2350,2232,11873,2232,27743,-25.010814426397538,226.02059799912632,323.1943569050127
2232,2349,2232,11905,2232,27749,-24.77182753832183,225.4720448235658,322.3420878496175
2243,2340,2243,11885,2243,27751,-24.537629543812344,224.9777284350631,321.5602704979896
2243,2356,2243,11864,2243,27733,-24.307549688532955,224.53234028852947,320.8404544955771
2243,2345,2243,11843,2243,27710,-24.080979794961642,224.130912425242,320.17443864534744
2243,2345,2243,11844,2243,27727,-23.85735834153712,223.76834940810315,319.5540091826517
2243,2349,2243,11868,2243,27734,-23.636198955535324,223.43907022084784,318.9707492770219
2243,2349,2243,11874,2243,27754,-23.41712893433817,223.13706385652563,318.41619727595963
2253,2352,2253,11888,2253,27730,-23.19987102793255,222.85627175494855,317.88221230025556
2253,2352,2253,11842,2253,27717,-22.984200874141923,222.59092491521426,317.36116295387615
2253,2351,2253,11839,2253,27709,-22.76991854654644,222.33547970133526,316.84576536917973
2253,2359,2253,11846,2253,27715,-22.55683017529644,222.08422133372915,316.32879344320077
2253,2352,2253,11887,2253,27733,-22.344717386767705,221.83106950929533,315.80298732040217
2253,2356,2253,11888,2253,27734,-22.133310758351957,221.5699263193868,315.2612574937391
2263,2359,2263,11864,2263,27705,-21.92228753282072,221.29523072124917,314.69696012332224
2263,2347,2263,11849,2263,27688,-21.711277411297523,221.00213894753986,314.1038734586781
2263,2364,2263,11813,2263,27685,-21.49988452989986,220.68617722864337,313.47582296237505
2263,2351,2263,11849,2263,27718,-21.287703370852686,220.34269685286625,312.8063621055312
2263,2355,2263,11873,2263,27710,-21.074314454605545,219.9666558563403,312.08886925784054
2263,2356,2263,11876,2263,27719,-20.859308394922813,219.55298450596126,311.31692326626614
2274,2351,2274,11852,2274,27705,-20.64232416411791,219.0971218962339,310.48459366237
2274,2361,2274,11827,2274,27672,-20.423065154300577,218.59512682191087,309.5864554720407
2274,2362,2274,11809,2274,27676,-20.201274832619532,218.04327402833212,308.6173025096516
2274,2356,2274,11858,2274,27696,-19.976672000400274,217.43757106876032,307.5718122983806
2274,2357,2274,11871,2274,27704,-19.748928637253996,216.77376860408788,306.44456752974
2274,2361,2274,11870,2274,27692,-19.517712600247222,216.04792093662473,305.23039780609724
2284,2354,2284,11850,2284,27669,-19.282718287216987,215.25691610253836,303.924598643489
2284,2361,2284,11811,2284,27658,-19.0436792032781,214.39848995220208,302.52278100510415
2284,2362,2284,11812,2284,27674,-18.800374582309736,213.47075264969038,301.0205559126935
2284,2356,2284,11849,2284,27681,-18.55261185850408,212.47170121786698,299.4134387850945
2284,2351,2284,11853,2284,27690,-18.300245706384608,211.39925245463485,297.69709102064803
2284,2367,2284,11851,2284,27685,-18.043251868447378,210.25172140650704,295.8676864743142
2295,2358,2295,11815,2295,27655,-17.781738399003572,209.02815656035287,293.922123691309
2295,2368,2295,11788,2295,27636,-17.515872063992173,207.72815336874962,291.8578897404461
2295,2373,2295,11792,2295,27644,-17.24579274764159,206.35127768229762,289.6726587200173
2295,2365,2295,11834,2295,27663,-16.97152395665927,204.8966414625962,287.36403785775286
2295,2364,2295,11839,2295,27670,-16.692932035033515,203.36309422364516,284.9297486484051
2295,2357,2295,11805,2295,27638,-16.409800871438183,201.74976916838227,282.3680103759449
2305,2363,2305,11775,2305,27631,-16.121959367417652,200.05624539581035,279.67766063430673
2305,2365,2305,11778,2305,27597,-15.82935441490176,198.28211573777813,276.85787933621936
2305,2368,2305,11792,2305,27623,-15.532030936912626,196.42650462092084,273.90778337929453
2305,2372,2305,11821,2305,27630,-15.230057443737728,194.48806213641816,270.82626840942316
2305,2365,2305,11812,2305,27623,-14.923459839009583,192.46541410761466,267.61223329895745
2305,2367,2305,11796,2305,27611,-14.612214066982872,190.35763107079708,264.26488583820367
2315,2360,2315,11767,2315,27586,-14.29630771868775,188.1642993217966,260.7837836157029
2315,2371,2315,11758,2315,27584,-13.975815956620842,185.88516774795403,257.16860808679
2315,2368,2315,11787,2315,27619,-13.650918903688016,183.5197448482725,253.41897742572723
2315,2378,2315,11791,2315,27608,-13.321842280236263,181.06727902772275,249.53463410754594
2315,2363,2315,11807,2315,27584,-12.988786042663735,178.52716063081695,245.5158473545195
2315,2371,2315,11760,2315,27568,-12.651928036572855,175.89934099035816,241.36351845014397
2326,2369,2326,11731,2326,27564,-12.31148849187112,173.18430102746984,237.0789241498367
2326,2365,2326,11738,2326,27543,-11.967776428458224,170.38252285845095,232.66342600122007
2326,2377,2326,11769,2326,27567,-11.62120582225383,167.49403710808497,228.11832159767386
2326,2362,2326,11753,2326,27551,-11.272295687099065,164.51852756114224,223.44489033771873
2326,2376,2326,11774,2326,27552,-10.921672272300256,161.4557523272922,218.6445871002851
2326,2379,2326,11733,2326,27554,-10.570061216637612,158.30583833041342,213.71922391680832
2336,2380,2336,11712,2336,27505,-10.218206903736386,155.06923461141622,208.67103435546525
2336,2383,2336,11714,2336,27511,-9.866757446829656,151.74632848718522,203.50250925215306
2336,2376,2336,11767,2336,27517,-9.51620837089778,148.33716977066257,198.21610490164406
2336,2378,2336,11760,2336,27523,-9.166923185289324,144.8418049209268,192.81421218201436
2336,2385,2336,11728,2336,27493,-8.819180237732969,141.26092363044788,187.29939867342773
2336,2386,2336,11719,2336,27477,-8.473158817817577,137.59608323178622,181.67450275761388
2346,2379,2346,11682,2346,27448,-8.128876643241895,133.8493793555884,175.94238128835545
2346,2379,2346,11705,2346,27473,-7.786192051278363,130.02296955768153,170.10554346898115
2346,2385,2346,11694,2346,27486,-7.444872918409509,126.11881209657338,164.16608368362276
2346,2382,2346,11703,2346,27472,-7.104627078886491,122.13872097933336,158.12604474069965
2346,2383,2346,11689,2346,27448,-6.765084130583315,118.08455507686804,151.98781075959937
2346,2375,2346,11659,2346,27433,-6.425809585887002,113.95828018748597,145.754124885182
2357,2382,2357,11650,2357,27406,-6.086373639981208,109.76176030315366,139.42779448535987
2357,2374,2357,11659,2357,27424,-5.7464239767568515,105.49641765220471,133.01136706401775
2357,2387,2357,11676,2357,27436,-5.405720127176682,101.16313584722113,126.50706821469038
2357,2383,2357,11682,2357,27406,-5.064111177459072,96.76256394096748,119.917076408419
2357,2384,2357,11647,2357,27381,-4.721477072136832,92.29553601312048,113.24373789132062
2357,2387,2357,11613,2357,27368,-4.3776922050649,87.7631306882067,106.48938163336646
2367,2385,2367,11629,2367,27367,-4.032617373824539,83.1662713937724,99.65596697929453
2367,2387,2367,11638,2367,27375,-3.6860937934325335,78.5053773020272,92.74495045690514
2367,2383,2367,11670,2367,27370,-3.33795131603571,73.78053847573045,85.75745465126761
2367,2387,2367,11637,2367,27365,-2.988036932563883,68.99206949373638,78.69456505414752
2367,2382,2367,11597,2367,27335,-2.636247371609336,64.14084859770338,71.55751807207116
2367,2388,2367,11578,2367,27319,-2.282555681312104,59.228027483544,64.34763039857086
2377,2393,2377,11618,2377,27314,-1.9270075125641526,54.254467884092975,57.066036491710236
2377,2395,2377,11627,2377,27331,-1.569654725077001,49.22066177832545,49.71352957701663
2377,2386,2377,11612,2377,27333,-1.2104769083375473,44.12722626555322,42.290748983790536
2377,2388,2377,11599,2377,27305,-0.8493920020676171,38.975353825923605,34.798572124675104
2377,2398,2377,11580,2377,27296,-0.4863216135747628,33.766845576926414,27.238322538139755
2377,2392,2377,11537,2377,27277,-0.12118556383492773,28.50381652813769,19.611672537697302
2388,2397,2388,11566,2388,27290,0.2461601692811577,23.18824884129046,11.920489339886672
2388,2388,2388,11600,2388,27285,0.6159388983239786,17.821803844574447,4.166877579959021
2388,2398,2388,11561,2388,27266,0.9884139645318406,12.406196293961045,-3.646604108704082
2388,2386,2388,11555,2388,27256,1.3638453531963322,6.943641083908602,-11.516799417302138
2388,2394,2388,11517,2388,27228,1.742448249545408,1.4368036824790522,-19.440023309247806
2388,2403,2388,11501,2388,27221,2.12437376458227,-4.111642572751322,-27.41227286649024
2398,2397,2398,11538,2398,27196,2.509770511772281,-9.699441586984364,-35.42947694378006
2398,2399,2398,11538,2398,27213,2.8988703651293726,-15.324749274430133,-43.48767750241467
2398,2395,2398,11535,2398,27212,3.291993160087898,-20.98567579251298,-51.58299097681794
2398,2394,2398,11515,2398,27180,3.689486519339262,-26.67986100151336,-59.71137004204661
2398,2399,2398,11470,2398,27140,4.091663529207178,-32.404465699277836,-67.86854637020275
2398,2399,2398,11454,2398,27125,4.498782777925651,-38.156611088343425,-76.0504236625863
2408,2401,2408,11498,2408,27149,4.911076817269176,-43.933908366413846,-84.25357301461992
2408,2396,2408,11490,2408,27165,5.328776422555574,-49.73449165247314,-92.47525196125213
2408,2397,2408,11504,2408,27143,5.752086121769757,-55.556513852844404,-100.71290481805619
2408,2404,2408,11446,2408,27115,6.18114134243152,-61.39769645871027,-108.96371307767083
2408,2403,2408,11435,2408,27083,6.616018000037268,-67.2553987955742,-117.22464926342406
2408,2400,2408,11422,2408,27085,7.056780357756001,-73.12711168477657,-125.49289064977421
2419,2393,2419,11444,2419,27094,7.503467992831769,-79.01086359927072,-133.76611737284514
2419,2400,2419,11452,2419,27095,7.956001630929432,-84.90516095734478,-142.0424015828147
2419,2404,2419,11420,2419,27060,8.414115105087173,-90.80861844582284,-150.31988199277396
2419,2406,2419,11407,2419,27042,8.877392367524948,-96.71976511746703,-158.59666708495178
2419,2407,2419,11375,2419,27028,9.345354922465397,-102.63726308537807,-166.87108036574654
2419,2416,2419,11375,2419,27030,9.817536957384494,-108.5603364897598,-175.14194214973213
2429,2409,2429,11412,2429,27040,10.293558305607618,-114.48902424757003,-183.40859246388106
2429,2409,2429,11403,2429,27036,10.773166922467713,-120.42395305221913,-191.67061666159947
2429,2405,2429,11388,2429,26999,11.256198270487584,-126.36582490270933,-199.927516618967
2429,2401,2429,11354,2429,26995,11.7424738832941,-132.31518578871385,-208.178655373911
2429,2408,2429,11337,2429,26971,12.231697802766085,-138.27268395558576,-216.4234732038422
2429,2414,2429,11377,2429,26983,12.723421726622853,-144.23944739121646,-224.66168779508473
2439,2415,2439,11392,2439,26961,13.21711732711374,-150.21700982484884,-232.8933146011351
2439,2413,2439,11360,2439,26963,13.712278853558239,-156.20674270624556,-241.11857215912863
2439,2412,2439,11335,2439,26943,14.208456872858989,-162.20946094832595,-249.33779986097102
2439,2421,2439,11313,2439,26917,14.705241377296176,-168.22562332706104,-257.55147721834635
2439,2417,2439,11287,2439,26918,15.202277246385187,-174.2558624053063,-265.76037901543043
2439,2411,2439,11328,2439,26923,15.699293862645447,-180.30141290981453,-273.96570646059047
2450,2411,2450,11342,2450,26915,16.196055802074838,-186.36406212670846,-282.16897777579936
2450,2413,2450,11332,2450,26893,16.69225686976342,-192.44557977984874,-290.3717975870203
2450,2428,2450,11288,2450,26886,17.187487007130365,-198.54720410042603,-298.5757802959049
2450,2418,2450,11275,2450,26847,17.68132267395525,-204.669714250452,-306.7826840476723
2450,2415,2450,11277,2450,26851,18.173415247536177,-210.81388264258703,-314.9946742946163
2450,2416,2450,11287,2450,26868,18.66344995809166,-216.98073644085287,-323.21450845462675
2460,2413,2460,11304,2460,26883,19.15103810728406,-223.17137525148155,-331.44532589570304
2460,2422,2460,11287,2460,26852,19.635655909326275,-229.38651901346424,-339.690105897442
2460,2435,2460,11240,2460,26826,20.116686632054538,-235.62621103962732,-347.95131966132897
2460,2436,2460,11211,2460,26814,20.593592362535595,-241.89006676581386,-356.23106162308534
2460,2423,2460,11227,2460,26795,21.06609803971812,-248.17791035530087,-364.53139690536693
2460,2424,2460,11245,2460,26815,21.53420158799483,-254.4901353872196,-372.85456866748495
2470,2419,2470,11265,2470,26814,21.998026350165347,-260.8274132214082,-381.20289326893135
2470,2426,2470,11220,2470,26792,22.45768176605671,-267.1900910388323,-389.57842210207946
2470,2429,2470,11189,2470,26756,22.91322538553137,-273.5779554638286,-397.98275452997666
2470,2416,2470,11174,2470,26748,23.3646857390165,-279.9906187723927,-406.41725280679236
2470,2435,2470,11191,2470,26751,23.812057020491245,-286.4280622366668,-414.8833897749066
2470,2424,2470,11204,2470,26760,24.25528986664957,-292.8907517604503,-423.38281038410764
2481,2421,2481,11200,2481,26731,24.694306564553607,-299.3792731894181,-431.9170887725503
2481,2442,2481,11163,2481,26716,25.128992120350468,-305.8939284554775,-440.4875451284986
2481,2434,2481,11163,2481,26701,25.55924011627333,-312.43469728469614,-449.09533882278515
2481,2434,2481,11108,2481,26683,25.98507561974843,-319.00155636605814,-457.7416920627418
2481,2430,2481,11139,2481,26687,26.40669324991822,-325.594921228215,-466.428055823734
2481,2425,2481,11168,2481,26690,26.824371949900375,-332.215830362726,-475.15610671389936
2491,2427,2491,11144,2491,26695,27.238353479215498,-338.8655781416121,-483.92750389725484
2491,2430,2491,11121,2491,26649,27.648751401630108,-345.54521338556987,-492.74357196996834
2491,2432,2491,11107,2491,26639,28.055535083650497,-352.2554964952251,-501.60526186717675
2491,2438,2491,11076,2491,26607,28.458580605538373,-358.99723821264433,-510.51346868412224
2491,2432,2491,11092,2491,26627,28.85774001624072,-365.77166988334693,-519.46939270304
2491,2440,2491,11112,2491,26630,29.25288441375654,-372.5805557981585,-528.4745914681738
2501,2436,2501,11097,2501,26613,29.643920855141218,-379.4258917490981,-537.5306823966058
2501,2443,2501,11073,2501,26572,30.030815479395997,-386.3095094932647,-546.6390844316517
2501,2442,2501,11031,2501,26560,30.413632964499683,-393.2330869222186,-555.8011690298729
2501,2445,2501,11039,2501,26555,30.792584224322553,-400.19858613918416,-565.0186484198418
2501,2438,2501,11066,2501,26569,31.168054010806614,-407.2086094103852,-574.2937497974552
2501,2435,2501,11079,2501,26554,31.540561869054443,-414.2661852096943,-583.6290215995112
2512,2432,2512,11053,2512,26534,31.910650362481938,-421.3741461730735,-593.0270368929018
2512,2436,2512,11015,2512,26507,32.2787632879278,-428.53476062667175,-602.4903337851584
2512,2446,2512,10988,2512,26487,32.64520493184201,-435.7499859178185,-612.0216534863624
2512,2445,2512,11004,2512,26502,33.01021880431546,-443.022033845581,-621.6242330931598
2512,2439,2512,11028,2512,26509,33.37409679694581,-450.35361267645095,-631.3018109967174
2512,2444,2512,11044,2512,26502,33.73719935649504,-457.74753199643857,-641.0582557679581
2522,2438,2522,10994,2522,26475,34.09990487796016,-465.2060366094179,-650.8971462459614
2522,2450,2522,10945,2522,26446,34.46257734924325,-472.7306161488754,-660.8216791211432
2522,2446,2522,10940,2522,26437,34.825592709828236,-480.3225655578911,-670.8349221130798
2522,2452,2522,10968,2522,26448,35.1894077217212,-487.98365891424834,-680.9400767016627
2522,2443,2522,10987,2522,26447,35.55460860461631,-495.71616349395623,-691.1404143743052
2522,2440,2522,10976,2522,26434,35.92187870870964,-503.5222263954418,-701.4389308089027
2533,2445,2533,10925,2533,26410,36.29189734898283,-511.40333588669563,-711.8380598990931
2533,2441,2533,10924,2533,26391,36.66525679978118,-519.3603734595785,-722.3396660902033
2533,2445,2533,10905,2533,26383,37.042437903175326,-527.3940420303508,-732.9452259051757
2533,2449,2533,10919,2533,26386,37.423817964246695,-535.505148136107,-743.6559476587066
2533,2447,2533,10942,2533,26401,37.80970687025579,-543.6944912086025,-754.4726228930007
2533,2444,2533,10917,2533,26368,38.20037904170487,-551.9624185890771,-765.3952418782409
2543,2439,2543,10883,2543,26341,38.59603644630583,-560.3084449355372,-776.4227252836896
2543,2446,2543,10868,2543,26317,38.99671885723825,-568.7313468296499,-787.5530614141215
2543,2453,2543,10870,2543,26314,39.402266583265444,-577.2295464172523,-798.7836648880544
2543,2449,2543,10901,2543,26335,39.81238828634023,-585.8012356927219,-810.1115257688974
2543,2452,2543,10899,2543,26331,40.22674687161147,-594.4439885138224,-821.5329205523592
2543,2448,2543,10875,2543,26303,40.644978462370126,-603.1541538492403,-833.04290367277
2553,2453,2553,10836,2553,26277,41.066668755045136,-611.9265868659421,-844.6350532041786
2553,2457,2553,10818,2553,26265,41.491349501256494,-620.7549324918942,-856.301614603811
2553,2452,2553,10818,2553,26266,41.918535367494115,-629.6321277053302,-868.033722958854
2553,2455,2553,10862,2553,26264,42.347750594433,-638.5505783723896,-879.8213862629076
2553,2453,2553,10851,2553,26268,42.77851106826358,-647.5017315881204,-891.6532037016742
2553,2456,2553,10831,2553,26237,43.210298246440196,-656.475387803477,-903.516007480635
2564,2457,2564,10793,2564,26216,43.64255530951523,-665.459396564243,-915.3946916513238
2564,2459,2564,10761,2564,26195,44.07470555597313,-674.4399507097738,-927.2723416929539
2564,2456,2564,10789,2564,26209,44.506174844478934,-683.4021131300873,-939.1304427291722
2564,2461,2564,10794,2564,26193,44.93639584116891,-692.3299957170692,-950.9488552740983
2564,2452,2564,10774,2564,26183,45.364792066810104,-701.2064351655031,-962.7055773208976
2564,2452,2564,10766,2564,26157,45.7907255728842,-710.012629571722,-974.376572699942
2574,2450,2574,10726,2574,26125,46.213398147594376,-718.7281128003276,-985.9358424839284
2574,2471,2574,10716,2574,26122,46.63179511704123,-727.3310328252131,-997.3556956955224
2574,2461,2574,10758,2574,26129,47.04477295349919,-735.7984271001095,-1008.6069590971241
2574,2464,2574,10749,2574,26140,47.45120370301109,-744.1060544943556,-1019.658831495175
2574,2464,2574,10727,2574,26105,47.85002448925908,-752.2278614407189,-1030.4784604064466
2574,2466,2574,10682,2574,26098,48.24022046129501,-760.1357428159707,-1041.030652902064
2584,2467,2584,10674,2584,26049,48.62082823907933,-767.7998857673182,-1051.2779584705881
2584,2460,2584,10655,2584,26030,48.99094167630989,-775.1893310987116,-1061.1810643269953
2584,2466,2584,10674,2584,26061,49.349677473881286,-782.2723180766891,-1070.699233197051
2584,2466,2584,10674,2584,26044,49.696133053136954,-789.0162497324543,-1079.7903639122383
2584,2468,2584,10667,2584,26027,50.029391358176504,-795.3873889687081,-1088.4106882749709
2584,2463,2584,10633,2584,26000,50.34854428453563,-801.3506224660506,-1096.5146195823463
2595,2463,2595,10607,2595,25979,50.652672028734194,-806.8696010876279,-1104.0549727874377
2595,2463,2595,10614,2595,25978,50.940782435844724,-811.9071850629479,-1110.9833311151185
2595,2467,2595,10627,2595,25963,51.211767039523835,-816.4257600239293,-1117.2503056671117
2595,2473,2595,10621,2595,25966,51.464420372519704,-820.3871478427326,-1122.8056207729805
2595,2458,2595,10571,2595,25940,51.69749222766188,-823.7524210931053,-1127.5981298930005
2595,2472,2595,10573,2595,25919,51.9096858882754,-826.4821019914922,-1131.5759336906735
2605,2472,2605,10534,2605,25899,52.09963272405065,-828.5367187426589,-1134.6867152556274
2605,2468,2605,10564,2605,25895,52.265932237705165,-829.8773380784742,-1136.8781990367902
2605,2471,2605,10581,2605,25898,52.40719689497897,-830.4657534897402,-1138.0985004218724
2605,2466,2605,10566,2605,25900,52.52203500034059,-830.2642555308834,-1138.2962381320172
2605,2472,2605,10523,2605,25868,52.60901618508064,-829.2354245811113,-1137.4205386019112
2605,2471,2605,10511,2605,25840,52.66666407482906,-827.3424673773256,-1135.4212638714462
2615,2471,2615,10493,2615,25834,52.69347820662418,-824.5499669833137,-1132.2496042667613
2615,2471,2615,10514,2615,25842,52.68795286367621,-820.8245454951182,-1127.8587298802174
2615,2471,2615,10535,2615,25839,52.64857466275376,-816.1351188487527,-1122.2041583883447
2615,2470,2615,10529,2615,25846,52.57381310885749,-810.4527488533436,-1115.243875119516
2615,2475,2615,10489,2615,25806,52.46211833222661,-803.7505103403288,-1106.9384840556604
2615,2479,2615,10460,2615,25794,52.31195438906515,-796.0038924348373,-1097.2516643243175
2626,2470,2626,10484,2626,25804,52.121864128186665,-787.191668031177,-1086.1509111868709
2626,2471,2626,10509,2626,25808,51.8904847240656,-777.2965624050084,-1073.6081761580808
2626,2474,2626,10528,2626,25835,51.61649570985978,-766.3052966597407,-1059.6001563579716
2626,2474,2626,10511,2626,25801,51.29859264564816,-754.2083242859554,-1044.1084060126088
2626,2476,2626,10495,2626,25808,50.93552086798634,-740.9998501643636,-1027.1196310738246
2626,2474,2626,10479,2626,25803,50.526118769806146,-726.6783609982019,-1008.6262909943218
2636,2475,2636,10510,2636,25842,50.06934029498443,-711.2473880816367,-988.6272065450802
2636,2466,2636,10558,2636,25850,49.56424454253839,-694.7159560394598,-967.1278602333346
2636,2473,2636,10601,2636,25892,49.009946443306646,-677.0983673142791,-944.1404075656551
2636,2465,2636,10576,2636,25882,48.40556294326173,-658.4136135241861,-919.6836114650923
2636,2481,2636,10565,2636,25903,47.750207339200344,-638.6851721244743,-893.7829321734871
2636,2479,2636,10574,2636,25925,47.0430702457826,-617.941515600028,-866.4708307151061
2646,2477,2646,10640,2646,25963,46.28355888938199,-596.2167678050795,-837.7870543877534
2646,2468,2646,10675,2646,26003,45.471369283031834,-573.5507759591193,-807.778676568455
2646,2475,2646,10738,2646,26055,44.606438684103,-549.9885263615301,-776.4998753777784
2646,2467,2646,10719,2646,26081,43.68887750671017,-525.5794044207676,-744.0115549121174
2646,2473,2646,10722,2646,26109,42.71894747409998,-500.37689859149646,-710.3810197821861
2646,2469,2646,10777,2646,26167,41.69706779437003,-474.43888018793086,-675.6818264579018
2657,2458,2657,10870,2657,26247,40.6238088767947,-447.82775106254127,-639.9935461586483
2657,2473,2657,10893,2657,26294,39.49984524332469,-420.6098056395275,-603.4011232344477
2657,2469,2657,10906,2657,26377,38.325944518201325,-392.85427478999986,-565.993945867502
2657,2469,2657,10971,2657,26379,37.10305116129188,-364.6328022334329,-527.8649805041841
2657,2474,2657,11003,2657,26448,35.83237992331553,-336.01919540497795,-489.1102383104067
2657,2465,2657,11025,2657,26503,34.51547042185975,-307.08907003836805,-449.82850993496095
2667,2460,2667,11153,2667,26595,33.15419267936238,-277.919373935992,-410.1209283533998
2667,2453,2667,11194,2667,26672,31.750661075220055,-248.58752237822466,-370.0900712557692
2667,2455,2667,11239,2667,26709,30.307097126833938,-219.17009817089067,-329.83880815650053
2667,2465,2667,11219,2667,26761,28.82576245542537,-189.74187475556462,-289.4693624673274
2667,2458,2667,11242,2667,26803,27.30902460046113,-160.3757225061869,-249.0828118693417
2667,2458,2667,11322,2667,26871,25.759466565333806,-131.14298497845317,-208.77879297709512
2677,2454,2677,11383,2677,26961,24.17992264094756,-102.11342624364647,-168.65503263861638
2677,2440,2677,11441,2677,27015,22.573426256942838,-73.35442522673907,-128.80650635040382
2677,2454,2677,11453,2677,27063,20.943108219881807,-44.92996322422516,-89.32443716992947
2677,2442,2677,11458,2677,27097,19.29213023722378,-16.900064185301176,-50.29556918337653
2677,2452,2677,11490,2677,27121,17.623704219253952,10.679152412282122,-11.80188257477164
2677,2443,2677,11540,2677,27195,15.941142616156204,37.755222897323904,26.079434644129833
2688,2433,2688,11579,2688,27260,14.247866831980065,64.27940674786277,63.276171711952884
2688,2440,2688,11599,2688,27299,12.547337181297706,90.20706557017178,99.72167222910275
2688,2438,2688,11591,2688,27290,10.842981179516187,115.49791614460855,135.3554008936561
2688,2431,2688,11614,2688,27317,9.138198980251602,140.11585542633668,170.12293132952686
2688,2435,2688,11648,2688,27347,7.436377042649987,164.02856320418914,203.97544601328264
2688,2426,2688,11695,2688,27400,5.740865396733394,187.20735309451987,236.8693308757795
2698,2427,2698,11739,2698,27432,4.05494470549468,209.62747326762553,268.76617377185664
2698,2415,2698,11724,2698,27471,2.3817688497476723,231.26859677517,299.63301443183434
2698,2421,2698,11727,2698,27448,0.7242768591860447,252.11498622987403,329.44249501304864
2698,2420,2698,11702,2698,27465,-0.9148672237726849,272.1550582714084,358.1725844794081
2698,2414,2698,11734,2698,27508,-2.5332681913351607,291.3805972526849,385.8059748398148
2698,2424,2698,11780,2698,27523,-4.128767789423577,309.7861710074203,412.3296639922023
2708,2412,2708,11784,2708,27579,-5.6994094474516785,327.36910312454506,437.7349443032101
2708,2418,2708,11819,2708,27545,-7.243405760489793,344.12976918196057,462.01752819499484
2708,2409,2708,11790,2708,27575,-8.759139143372963,360.07175966651425,485.1774346131041
2708,2418,2708,11789,2708,27580,-10.245175477730207,375.2016727941641,507.2185616419349
2708,2411,2708,11797,2708,27597,-11.700246282732376,389.52856747487215,528.1482488323029
2708,2421,2708,11836,2708,27620,-13.12319338532247,403.06346274674763,547.9770173291761
2719,2409,2719,11876,2719,27639,-14.51290041645288,415.8193225397481,566.7184592370359
2719,2417,2719,11838,2719,27653,-15.86824962244755,427.81142220541915,584.3892394599814
2719,2408,2719,11829,2719,27645,-17.18811414696978,439.05744880379063,601.0090719673624
2719,2408,2719,11830,2719,27632,-18.471371654128873,449.5770047894241,616.6004615068086
2719,2402,2719,11816,2719,27638,-19.716947423925085,459.39090915589134,631.1881615643556
2719,2410,2719,11876,2719,27689,-20.923866718778775,468.5207487266589,644.7986615282593
2729,2406,2729,11880,2729,27683,-22.091253720413974,476.98889546356224,657.4601009354153
2729,2403,2729,11845,2729,27655,-23.21828718731785,484.818811009467,669.2023994814074
2729,2393,2729,11838,2729,27654,-24.304207976035187,492.03500229468887,680.0570048909419
2729,2401,2729,11828,2729,27668,-25.348404761031183,498.6624412692537,690.0562819708416
2729,2394,2729,11853,2729,27681,-26.350486909792117,504.7259619991454,699.2330841920959
2729,2386,2729,11888,2729,27697,-27.31031822375109,510.2500916863546,707.6207071090105
2739,2395,2739,11910,2739,27700,-28.22807631577311,515.2594119507369,715.2530303028459
2739,2395,2739,11843,2739,27683,-29.10429108258453,519.7790509057045,722.1645978564243
2739,2397,2739,11853,2739,27659,-29.939785365167957,523.834621213715,728.3904116325475
2739,2407,2739,11847,2739,27666,-30.735558255101097,527.451599263054,733.9654119588984
2739,2397,2739,11881,2739,27665,-31.492659591079892,530.6548590154631,738.9239420809799
2739,2395,2739,11888,2739,27705,-32.21211632651897,533.4687381412605,743.2995311973314
2750,2391,2750,11886,2750,27705,-32.894973470341434,535.9173927925366,747.1250880610967
2750,2396,2750,11851,2750,27659,-33.54238278493174,538.0249889362706,750.4331924107453
2750,2401,2750,11820,2750,27664,-34.155619807606534,539.8153995999077,753.255965093779
2750,2403,2750,11858,2750,27680,-34.735998802570585,541.3115570072207,755.6245907096168
2750,2397,2750,11869,2750,27704,-35.28476048057068,542.5350821439647,757.569127184064
2750,2395,2750,11882,2750,27713,-35.8030356544811,543.5065127869726,759.1188178070151
2760,2400,2760,11878,2760,27691,-36.291884791319134,544.2457609801929,760.3025222769704
2760,2393,2760,11849,2760,27669,-36.752328428013094,544.772335858561,761.1488145145252
2760,2393,2760,11841,2760,27653,-37.18536032136234,545.1051692762965,761.6856228647221
2760,2402,2760,11840,2760,27682,-37.59196758347359,545.2621953897847,761.9397396106042
2760,2400,2760,11866,2760,27690,-37.9730990828569,545.2600660699615,761.9366724499299
2760,2384,2760,11875,2760,27690,-38.32961041168125,545.1142606033341,761.7009139723305
2770,2389,2770,11875,2770,27665,-38.662327048660806,544.8394717670482,761.2562255913758
2770,2395,2770,11825,2770,27634,-38.97217712007011,544.4498488650827,760.6255384896671
2770,2394,2770,11832,2770,27640,-39.260211596782426,543.9587633359677,759.830476881878
2770,2395,2770,11864,2770,27668,-39.52752403926408,543.3783757498168,758.8909399824389
2770,2389,2770,11874,2770,27668,-39.77520342228908,542.7196331414759,757.8251608925833
2770,2391,2770,11846,2770,27672,-40.00435845517267,541.9926780738307,756.6501061747821
2781,2396,2781,11856,2781,27652,-40.216154674549536,541.2070801734928,755.3817763756117
2781,2393,2781,11819,2781,27621,-40.41179951476384,540.3716935084686,754.03516005243
2781,2396,2781,11814,2781,27623,-40.59249353178064,539.4943094923082,752.6238529300316
2781,2401,2781,11854,2781,27642,-40.75938619273951,538.581321570824,751.1596614547169
2781,2397,2781,11878,2781,27647,-40.913520003438705,537.6378082097916,749.6525808879026
2781,2384,2781,11854,2781,27652,-41.05580948268001,536.6681007583568,748.1111131557263
2791,2399,2791,11822,2791,27639,-41.18711768491862,535.6761823592235,746.5425841448834
2791,2401,2791,11799,2791,27613,-41.30831084194433,534.6654199286752,744.9532112499918
2791,2398,2791,11846,2791,27619,-41.4201797911342,533.6379933492317,743.3478845086811
2791,2395,2791,11849,2791,27648,-41.523351609469294,532.5947503090939,741.729950517317
2791,2403,2791,11873,2791,27649,-41.618288566950284,531.5356546882794,740.1013733587423
2791,2392,2791,11834,2791,27628,-41.705303549560476,530.4603286027457,738.4631368439857
2802,2400,2802,11827,2802,27610,-41.78456765218244,529.3681902685515,736.8153861204036
2802,2400,2802,11809,2802,27620,-41.85612207346965,528.2581451989871,735.1572033805863
2802,2399,2802,11821,2802,27629,-41.91985788035004,527.1281707412738,733.486410270277
2802,2391,2802,11843,2802,27641,-41.975500067838176,525.9751623096453,731.7996884424317
2802,2384,2802,11866,2802,27635,-42.022684960956234,524.7952032796203,730.0929090468801
2802,2404,2802,11847,2802,27618,-42.06108442126294,523.5841007913381,728.3613798453315
2812,2398,2812,11829,2812,27600,-42.09041092413951,522.3377383185109,726.5998056880669
2812,2396,2812,11803,2812,27598,-42.11030351740406,521.0519395543402,724.8020009561204
2812,2393,2812,11822,2812,27625,-42.12027882945967,519.722033978512,722.9606536538153
2812,2393,2812,11841,2812,27645,-42.11979166094933,518.3426139841525,721.0674752675507
2812,2387,2812,11849,2812,27637,-42.1083161316962,516.9077548966187,719.113718412437
2812,2398,2812,11828,2812,27613,-42.08540490150805,515.4114369983406,717.0906193364426
2822,2397,2822,11814,2822,27609,-42.05068600689773,513.8477063169984,714.9894154580047
2822,2395,2822,11810,2822,27604,-42.00379530456412,512.2104731845764,712.8010899988914
2822,2393,2822,11838,2822,27614,-41.944337625157665,510.49328672212584,710.5161981487543
2822,2403,2822,11873,2822,27641,-41.87189891050215,508.68950435792533,708.124969332175
2822,2391,2822,11860,2822,27629,-41.7860385172768,506.79290717806583,705.6176858827929
2822,2400,2822,11817,2822,27618,-41.68627384293926,504.7982331282442,702.9850773774219
2833,2401,2833,11796,2833,27601,-41.57208157284428,502.70105352800704,700.2184091700132
2833,2393,2833,11806,2833,27597,-41.442881161234894,500.4971549662594,697.3092836377756
2833,2394,2833,11832,2833,27624,-41.298045084799604,498.18213502781424,694.2494701236402
2833,2389,2833,11855,2833,27636,-41.13698040890995,495.751618758425,691.0310714527923
2833,2390,2833,11825,2833,27619,-40.959227045551124,493.2018369734963,687.6469847895835
2833,2402,2833,11786,2833,27588,-40.76450391465801,490.52991693404726,684.0911997263113
2843,2399,2843,11763,2843,27576,-40.552654454118105,487.7335010037373,680.35861610777
2843,2396,2843,11788,2843,27584,-40.32354410472087,484.81005158168006,676.4446266573135
2843,2398,2843,11828,2843,27586,-40.077029175273196,481.7565931925701,672.3449138386121
2843,2401,2843,11836,2843,27606,-39.81298292681309,478.57020954188425,668.0556088359168
2843,2387,2843,11825,2843,27587,-39.531318169060185,475.24885040970145,663.5736508938235
2843,2404,2843,11764,2843,27562,-39.2320326809554,471.79171790754344,658.8970354856734
2853,2392,2853,11765,2853,27557,-38.91525114924716,468.1989184842859,654.0247207033965
2853,2404,2853,11793,2853,27570,-38.58121303190699,464.47085021167896,648.9563862106897
2853,2399,2853,11802,2853,27571,-38.23023669808192,460.6080842445331,643.692435371798
2853,2404,2853,11798,2853,27579,-37.86268209811777,456.6117991318893,638.234289134902
2853,2395,2853,11786,2853,27526,-37.47893219098244,452.48421143498143,632.5846600018283
2853,2400,2853,11725,2853,27522,-37.07942752065229,448.22858977128715,626.7474620038229
2864,2402,2864,11719,2864,27519,-36.6647175018343,443.8487469797516,620.7274173078813
2864,2403,2864,11757,2864,27517,-36.23546161769074,439.34838469454127,614.5297944291821
2864,2399,2864,11770,2864,27520,-35.79240074876511,434.73100255768145,608.160455986507
2864,2404,2864,11771,2864,27524,-35.33635932329017,430.0004650422951,601.6260741696833
2864,2400,2864,11730,2864,27482,-34.8682681463108,425.16155389412387,594.9343376631898
