c_ts,c_val,d_ts,d_val,e_ts,e_val,c_val_filtered,d_val_filtered,e_val_filtered
241903,18912,241903.0,40377.0,241903.0,37459.0,279.6822564943095,277.30841277043527,379.20473582973034
241903,18899,241903.0,40372.0,241903.0,37436.0,275.52920277388273,273.51452025860993,376.1036979231556
241903,18882,241903.0,40334.0,241903.0,37412.0,271.31735309967434,269.77625373601165,373.02956387967885
241903,18854,241903.0,40275.0,241903.0,37359.0,267.06456607813504,266.1231062541719,370.009055145106
241913,18832,241913.0,40248.0,241913.0,37348.0,262.7881471236386,262.58326466907215,367.0676241322397
241913,18828,241913.0,40260.0,241913.0,37321.0,258.50434616101705,259.1825429441572,364.22857959366996
241913,18807,241913.0,40188.0,241913.0,37337.0,254.22794314717228,255.94360928333344,361.51244012531413
241913,18819,241913.0,40222.0,241913.0,37349.0,249.97200790969623,252.88543341540583,358.93671135308796
241913,18836,241913.0,40265.0,241913.0,37337.0,245.74788846596886,250.02296544508388,356.51605578378
241913,18823,241913.0,40280.0,241913.0,37379.0,241.56547799048346,247.367511111285,354.2626402351852
241924,18834,241924.0,40292.0,241924.0,37361.0,237.4335799470848,244.92766534890143,352.18655715373575
241924,18853,241924.0,40345.0,241924.0,37384.0,233.3602253514112,242.7102452285528,350.2962910841513
241924,18840,241924.0,40359.0,241924.0,37399.0,229.35304710403756,240.72122400276743,348.5991550771641
241924,18828,241924.0,40284.0,241924.0,37359.0,225.41962613075248,238.9665790013206,347.10166639513284
241924,18806,241924.0,40269.0,241924.0,37349.0,221.56754801753686,237.45238534462078,345.8096447337631
241924,18778,241924.0,40228.0,241924.0,37324.0,217.80413346533695,236.18402171352056,344.7278668008545
241934,18774,241934.0,40211.0,241934.0,37317.0,214.13598802804694,235.1651355747909,343.8595320530104
241934,18763,241934.0,40197.0,241934.0,37303.0,210.56857731972357,234.39679065663063,343.2058025230668
241934,18765,241934.0,40217.0,241934.0,37315.0,207.1059914020582,233.87690180058442,342.7654894924072
241934,18770,241934.0,40227.0,241934.0,37330.0,203.75091436656058,233.60009477422125,342.5349800633522
241934,18788,241934.0,40297.0,241934.0,37353.0,200.50479088277882,233.5580842025895,342.5084927112461
241934,18777,241934.0,40291.0,241934.0,37348.0,197.368163312765,233.74053538138313,342.6785668122078
241944,18777,241944.0,40298.0,241944.0,37366.0,194.34100125170042,234.13604595733426,343.0365394312444
241944,18789,241944.0,40372.0,241944.0,37384.0,191.42290002383842,234.73290376301244,343.5729327008635
241944,18800,241944.0,40348.0,241944.0,37373.0,188.61329585988904,235.519845791779,344.27784515195276
241944,18774,241944.0,40296.0,241944.0,37368.0,185.91177061672883,236.4867255873753,345.14124408560576
241944,18739,241944.0,40246.0,241944.0,37337.0,183.31814249529327,237.62433051130415,346.15294276264376
241944,18735,241944.0,40241.0,241944.0,37321.0,180.8321100406731,238.9233026718632,347.30223035386473
241955,18747,241955.0,40241.0,241955.0,37315.0,178.45276513186755,240.37302795002026,348.57731283269385
241955,18718,241955.0,40227.0,241955.0,37327.0,176.17837769363842,241.96103781693364,349.96485050530146
241955,18726,241955.0,40246.0,241955.0,37358.0,174.00634692872526,243.67278870625358,351.44986576454454
241955,18743,241955.0,40292.0,241955.0,37344.0,171.9331612763336,245.49172018478566,353.01603971145596
241955,18737,241955.0,40292.0,241955.0,37375.0,169.9545310995866,247.39973202485248,354.6461289687692
241955,18748,241955.0,40328.0,241955.0,37394.0,168.06569218772592,249.3779248793752,356.3223635698098
241965,18754,241965.0,40380.0,241965.0,37418.0,166.26170211902758,251.40738859535833,358.02697622532656
241965,18772,241965.0,40403.0,241965.0,37416.0,164.5377559399353,253.47017839818892,359.7428453188833
241965,18733,241965.0,40354.0,241965.0,37393.0,162.88951119472128,255.55030145511137,361.45393851852174
241965,18700,241965.0,40300.0,241965.0,37371.0,161.31310068501097,257.63395953934486,363.1452883961184
241965,18708,241965.0,40255.0,241965.0,37361.0,159.80466917745863,259.70869213465994,364.8025450926227
241965,18699,241965.0,40250.0,241965.0,37334.0,158.35984095452613,261.7619708860808,366.4113817411169
241975,18684,241975.0,40242.0,241975.0,37329.0,156.97346641661147,263.78003506488466,367.9569190628034
241975,18706,241975.0,40257.0,241975.0,37361.0,155.63953050444405,265.7472983337079,369.4232970991567
241975,18710,241975.0,40297.0,241975.0,37373.0,154.35119477576447,267.646298932789,370.7936616943973
241975,18720,241975.0,40334.0,241975.0,37400.0,153.1010704661905,269.4581836719271,372.0506148080351
241975,18712,241975.0,40349.0,241975.0,37394.0,151.88157097115305,271.1636089085345,373.1768236131717
241975,18727,241975.0,40377.0,241975.0,37400.0,150.68516589446088,272.74370495725236,374.1554853754616
241986,18728,241986.0,40421.0,241986.0,37427.0,149.50458547166753,274.18094061943043,374.97061628384046
241986,18732,241986.0,40406.0,241986.0,37431.0,148.333062625805,275.4599754463359,375.60737725788243
241986,18715,241986.0,40355.0,241986.0,37360.0,147.164535984045,276.5682210164961,376.05235224541093
241986,18696,241986.0,40298.0,241986.0,37370.0,145.99364812520028,277.4955430516784,376.2933039124586
241986,18678,241986.0,40264.0,241986.0,37375.0,144.81547044615496,278.23308454446044,376.3185265593031
241986,18678,241986.0,40305.0,241986.0,37341.0,143.62508434006907,278.7719488938301,376.1164159188899
241996,18666,241996.0,40259.0,241996.0,37342.0,142.41723741027758,279.102477958772,375.67524407830723
241996,18697,241996.0,40318.0,241996.0,37370.0,141.18621249438402,279.21412937439146,374.9829294338069
241996,18698,241996.0,40356.0,241996.0,37378.0,139.9259865691607,279.09576523852695,374.02709144921664
241996,18680,241996.0,40338.0,241996.0,37396.0,138.63057043655135,278.7363869058071,372.79550393185906
241996,18689,241996.0,40339.0,241996.0,37399.0,137.2942096329363,278.12588113919145,371.27665377913536
241996,18715,241996.0,40366.0,241996.0,37397.0,135.91145282112842,277.2553428643426,369.4601910664538
242005,18715,242005.0,40403.0,242005.0,37425.0,134.47741973535946,276.11737149228964,367.3372667912045
242005,18703,242005.0,40379.0,242005.0,37395.0,132.9882223040338,274.7066891682438,364.90084359437054
242005,18675,242005.0,40317.0,242005.0,37329.0,131.4411343583719,273.02056715309993,362.1457672488228
242005,18640,242005.0,40268.0,242005.0,37328.0,129.83429755906027,271.05837243967335,359.068216657668
242005,18653,242005.0,40261.0,242005.0,37318.0,128.1661255277302,268.82037837986627,355.66482597158824
242005,18645,242005.0,40236.0,242005.0,37296.0,126.43481706268923,266.3066144380761,351.93210023664824
242016,18634,242016.0,40226.0,242016.0,37303.0,124.6381889608297,263.5161476764659,347.8661469479283
242016,18648,242016.0,40267.0,242016.0,37336.0,122.77365648973102,260.446745387472,343.4626183903866
242016,18648,242016.0,40299.0,242016.0,37352.0,120.83828063035173,257.09506258949574,338.71707737901806
242016,18650,242016.0,40308.0,242016.0,37333.0,118.82894490581992,253.45742325825515,333.62569141550483
242016,18652,242016.0,40284.0,242016.0,37343.0,116.74257689063657,249.5306914845269,328.18577577228575
242016,18679,242016.0,40357.0,242016.0,37358.0,114.57638413972259,245.31283196732636,322.3960824068945
242026,18647,242026.0,40346.0,242026.0,37327.0,112.32816331804639,240.8034897958043,316.25708167668614
242026,18638,242026.0,40269.0,242026.0,37279.0,109.99648833825427,236.00463004773724,309.7710729663045
242026,18626,242026.0,40245.0,242026.0,37277.0,107.58056710715181,230.9204580772104,302.94180243807307
242026,18613,242026.0,40193.0,242026.0,37252.0,105.07992679967222,225.55643626921432,295.77384889108663
242026,18598,242026.0,40183.0,242026.0,37209.0,102.49411994048774,219.9181074582289,288.2721256906865
242026,18589,242026.0,40144.0,242026.0,37191.0,99.82243916868799,214.01016399352363,280.4413569651561
242036,18593,242036.0,40195.0,242036.0,37233.0,97.06367105784554,207.83586346931628,272.285576484094
242036,18617,242036.0,40221.0,242036.0,37216.0,94.21605293582158,201.39706215048585,263.80811452131945
242036,18606,242036.0,40206.0,242036.0,37219.0,91.27752583228553,194.69491455408553,255.01205233117247
242036,18600,242036.0,40213.0,242036.0,37201.0,88.24607718678027,187.7306603330943,245.90062605104538
242036,18617,242036.0,40264.0,242036.0,37234.0,85.11993660266342,180.50616854575878,236.47746052136233
242036,18627,242036.0,40276.0,242036.0,37235.0,81.8977643421266,173.02465209427052,226.74694860831255
242047,18600,242047.0,40216.0,242047.0,37193.0,78.57896010733401,165.29155832880002,216.7147839967139
242047,18577,242047.0,40147.0,242047.0,37155.0,75.16379465927966,157.3147938350569,206.38814541965928
242047,18564,242047.0,40101.0,242047.0,37127.0,71.65313763448654,149.10382991283973,195.77526500498766
242047,18553,242047.0,40074.0,242047.0,37094.0,68.04800820739968,140.66826930401876,184.88471239626676
242047,18532,242047.0,40065.0,242047.0,37083.0,64.34920356186555,132.0166712225864,173.72475865618878
242047,18522,242047.0,40057.0,242047.0,37068.0,60.55698490513083,123.15592985270143,162.30294717436618
242057,18564,242057.0,40116.0,242057.0,37086.0,56.67087564123966,114.0912222342422,150.6259542864072
242057,18555,242057.0,40105.0,242057.0,37062.0,52.689836801185606,104.82655971353267,138.6997595955727
242057,18545,242057.0,40107.0,242057.0,37087.0,48.61273069712047,95.36566350860718,126.5299962567048
242057,18551,242057.0,40089.0,242057.0,37060.0,44.43863570428479,85.71260569999438,114.1223494786808
242057,18572,242057.0,40138.0,242057.0,37085.0,40.16700410514434,75.87215682563686,101.48296864941176
242057,18549,242057.0,40106.0,242057.0,37040.0,35.79793824419039,65.85023860922064,88.61884634336923
242067,18538,242067.0,40053.0,242067.0,37026.0,31.332447392342942,55.654362258471906,75.53801020106425
242067,18507,242067.0,40000.0,242067.0,36987.0,26.77238377923402,45.29342073626219,62.249387811147926
242067,18496,242067.0,39949.0,242067.0,36959.0,22.120080019945306,34.776715363212475,48.76241313942887
242067,18493,242067.0,39965.0,242067.0,36936.0,17.377932747758166,24.11280537417656,35.086544208983526
242067,18471,242067.0,39914.0,242067.0,36912.0,12.548120585944218,13.308750827462006,21.23081922305954
242067,18486,242067.0,39964.0,242067.0,36879.0,7.632464478014583,2.3698518077835047,7.203491301594397
242078,18475,242078.0,39991.0,242078.0,36906.0,2.632412092216782,-8.700104162246475,-6.988232151304999
242078,18477,242078.0,39984.0,242078.0,36903.0,-2.4508476898013214,-19.898025969643356,-21.338127155993504
242078,18471,242078.0,39938.0,242078.0,36893.0,-7.616233341664724,-31.22065020068584,-35.84048925611859
242078,18486,242078.0,40017.0,242078.0,36883.0,-12.862616764788186,-42.66412591573288,-50.4896183214081
242078,18496,242078.0,40036.0,242078.0,36910.0,-18.18855155355726,-54.2235005535224,-65.27943033747903
242078,18465,242078.0,39975.0,242078.0,36872.0,-23.591905757388986,-65.89171652632251,-80.20301424421012
242088,18434,242088.0,39898.0,242088.0,36821.0,-29.069731082266117,-77.65907994451328,-95.25230199842463
242088,18429,242088.0,39842.0,242088.0,36770.0,-34.618572999452795,-89.51401726323542,-110.41832968793489
242088,18410,242088.0,39797.0,242088.0,36771.0,-40.23493853580004,-101.44460006388204,-125.69199889143306
242088,18399,242088.0,39784.0,242088.0,36716.0,-45.915626391854914,-113.43994991786457,-141.06476383452735
242088,18390,242088.0,39754.0,242088.0,36729.0,-51.65794580602517,-125.49114526652892,-156.52902606941876
242088,18398,242088.0,39794.0,242088.0,36723.0,-57.45984652824484,-137.59160232595264,-172.07827337923788
242098,18391,242098.0,39801.0,242098.0,36730.0,-63.31987904247566,-149.7368797096861,-187.70686601729858
242098,18398,242098.0,39829.0,242098.0,36721.0,-69.23700736829375,-161.92392924952378,-203.40954132901294
242098,18400,242098.0,39798.0,242098.0,36689.0,-75.21035746587384,-174.15016351097,-219.18095062528312
242098,18411,242098.0,39855.0,242098.0,36703.0,-81.23890330813026,-186.41269224439014,-235.01541466998077
242098,18393,242098.0,39869.0,242098.0,36681.0,-87.32111494034834,-198.70754573774406,-250.9067603508911
242098,18370,242098.0,39788.0,242098.0,36639.0,-93.45475272569908,-211.02880423179386,-266.84814765779106
242109,18346,242109.0,39677.0,242109.0,36581.0,-99.636991988945,-223.36848552251428,-282.8322008487129
242109,18331,242109.0,39661.0,242109.0,36594.0,-105.8648133728129,-235.71780615289282,-298.85156544957124
242109,18320,242109.0,39650.0,242109.0,36556.0,-112.13542222138233,-248.0688835078102,-314.89942182201514
242109,18292,242109.0,39625.0,242109.0,36533.0,-118.44657768538025,-260.41570734763445,-330.9696884043449
242109,18318,242109.0,39641.0,242109.0,36539.0,-124.79682961332742,-272.7543729279662,-347.0571212646505
242109,18306,242109.0,39670.0,242109.0,36527.0,-131.18554997227972,-285.08289362089556,-363.1573020706967
242119,18320,242119.0,39660.0,242119.0,36529.0,-137.61269206490834,-297.40059316984104,-379.2663729911468
242119,18309,242119.0,39652.0,242119.0,36505.0,-144.07844756059518,-309.70734883141165,-395.3806643860289
242119,18314,242119.0,39708.0,242119.0,36500.0,-150.582955151524,-322.002974830795,-411.4964117204803
242119,18318,242119.0,39727.0,242119.0,36503.0,-157.12605071613945,-334.28642842598117,-427.6095415920332
242119,18309,242119.0,39633.0,242119.0,36458.0,-163.70700637571798,-346.55483050776365,-443.7154420050356
242119,18273,242119.0,39570.0,242119.0,36427.0,-170.3243616648382,-358.8032660943246,-459.8088951175463
242129,18247,242129.0,39551.0,242129.0,36397.0,-176.9760856413788,-371.02578777367546,-475.8843749852996
242129,18241,242129.0,39524.0,242129.0,36358.0,-183.660051769883,-383.2166933598038,-491.93655869282384
242129,18213,242129.0,39504.0,242129.0,36349.0,-190.37451803572094,-395.3712988112444,-507.9608223677135
242129,18225,242129.0,39467.0,242129.0,36331.0,-197.1184342677406,-407.4863684834663,-523.9535866579056
242129,18221,242129.0,39528.0,242129.0,36337.0,-203.8915423201414,-419.5603769006733,-539.9123944450901
242129,18239,242129.0,39538.0,242129.0,36342.0,-210.69421248466216,-431.5932480023322,-555.8356824621437
242140,18229,242140.0,39512.0,242140.0,36320.0,-217.52707281016296,-443.5855152569119,-571.7223379681961
242140,18228,242140.0,39489.0,242140.0,36303.0,-224.39062762506336,-455.5376291711492,-587.5713016003704
242140,18231,242140.0,39570.0,242140.0,36325.0,-231.28498869683693,-467.44968336745285,-603.3813398943346
242140,18219,242140.0,39536.0,242140.0,36301.0,-238.20967652100342,-479.3208914000005,-619.1507568128108
242140,18198,242140.0,39464.0,242140.0,36285.0,-245.1634957890028,-491.1488588388946,-634.8770038563597
242140,18153,242140.0,39402.0,242140.0,36218.0,-252.1446631406863,-502.92969286936705,-650.5565632061328
242150,18162,242150.0,39383.0,242150.0,36176.0,-259.1512418802388,-514.6591275703067,-666.1853913523481
242150,18157,242150.0,39364.0,242150.0,36185.0,-266.181561939803,-526.3337219365559,-681.759706782549
242150,18130,242150.0,39319.0,242150.0,36147.0,-273.2343539726077,-537.9515863902177,-697.2765552141899
242150,18131,242150.0,39367.0,242150.0,36159.0,-280.30878583429393,-549.51276537618,-712.7339379756827
242150,18147,242150.0,39395.0,242150.0,36142.0,-287.40451279874026,-561.0191384876006,-728.1307039795124
242150,18141,242150.0,39396.0,242150.0,36147.0,-294.5215169057106,-572.4736215638468,-743.4663045186752
242161,18139,242161.0,39372.0,242161.0,36137.0,-301.6597516459528,-583.879181736081,-758.7404453338112
242161,18143,242161.0,39420.0,242161.0,36151.0,-308.818830789215,-595.2382127441354,-773.9526804992821
242161,18150,242161.0,39434.0,242161.0,36120.0,-315.9977613639302,-606.5519608145935,-789.1019683844567
242161,18107,242161.0,39367.0,242161.0,36088.0,-323.19469247565553,-617.8197743791815,-804.1863819668324
242161,18077,242161.0,39308.0,242161.0,36039.0,-330.40694915523756,-629.038875785355,-819.2032467384522
242161,18067,242161.0,39262.0,242161.0,36006.0,-337.6314909337247,-640.2051569043389,-834.1497143637836
242171,18054,242171.0,39215.0,242171.0,35983.0,-344.865455243153,-651.3145008850308,-849.0234949219797
242171,18043,242171.0,39207.0,242171.0,35971.0,-352.1064740846434,-662.3639765113383,-863.8234341428893
242171,18026,242171.0,39217.0,242171.0,35955.0,-359.35283488312916,-673.3525733916078,-878.5497960691492
242171,18029,242171.0,39236.0,242171.0,35979.0,-366.60360905067654,-684.2812837899094,-893.204253203732
242171,18036,242171.0,39250.0,242171.0,35963.0,-373.8586734368393,-695.1525918436201,-907.7895760426137
242171,18056,242171.0,39241.0,242171.0,35954.0,-381.1184749437326,-705.969718222502,-922.3091595580823
242181,18038,242181.0,39239.0,242181.0,35946.0,-388.38356867121206,-716.7359905007801,-936.7666638008989
242181,18052,242181.0,39284.0,242181.0,35970.0,-395.65416838407316,-727.4543654582027,-951.1657422117045
242181,18027,242181.0,39274.0,242181.0,35955.0,-402.92986511781345,-738.1267956091303,-965.509604567338
242181,18012,242181.0,39212.0,242181.0,35885.0,-410.2095341594346,-748.7535673693087,-979.8005986105497
242181,17962,242181.0,39145.0,242181.0,35872.0,-417.4915235104758,-759.3333454141278,-994.040336431451
242181,17953,242181.0,39089.0,242181.0,35812.0,-424.77417243630765,-769.8642186807041,-1008.2303756436377
242192,17961,242192.0,39096.0,242192.0,35825.0,-432.0563869487859,-780.3451247413806,-1022.372967581758
242192,17943,242192.0,39059.0,242192.0,35803.0,-439.3378958597761,-790.7768673922532,-1036.4715081939946
242192,17957,242192.0,39123.0,242192.0,35827.0,-446.61918541498943,-801.1624441579758,-1050.5305600107208
242192,17969,242192.0,39104.0,242192.0,35820.0,-453.90127441603016,-811.5067282045674,-1064.5554956742358
242192,17943,242192.0,39130.0,242192.0,35796.0,-461.18537029441967,-821.815735272236,-1078.55200573408
242192,17935,242192.0,39129.0,242192.0,35793.0,-468.47261455347615,-832.0958620110829,-1092.5257781472233
242202,17936,242202.0,39152.0,242202.0,35808.0,-475.7640774172955,-842.353216961098,-1106.482337163969
242202,17939,242202.0,39160.0,242202.0,35798.0,-483.06076892585827,-852.592920535701,-1120.4267338174018
242202,17934,242202.0,39102.0,242202.0,35758.0,-490.3634721676952,-862.8184972696868,-1134.3631465317362
242202,17905,242202.0,39052.0,242202.0,35721.0,-497.67255647049836,-873.0318296762805,-1148.2948348857985
242202,17878,242202.0,39022.0,242202.0,35680.0,-504.9880437291583,-883.2338820427905,-1162.224608295228
242202,17864,242202.0,38994.0,242202.0,35662.0,-512.3099845233311,-893.4257266179136,-1176.1555383259351
242212,17849,242212.0,38966.0,242212.0,35626.0,-519.6389173647502,-903.6093803843577,-1190.0916069353482
242212,17845,242212.0,38950.0,242212.0,35640.0,-526.9761884593486,-913.7884159431159,-1204.0381468503174
242212,17869,242212.0,38986.0,242212.0,35656.0,-534.3240287542965,-923.9683140560817,-1218.001914074842
242212,17870,242212.0,39016.0,242212.0,35660.0,-541.6852991837469,-934.1562582187407,-1231.9906608146944
242212,17862,242212.0,38998.0,242212.0,35641.0,-549.0630133265843,-944.3603468054836,-1246.0124595480534
242212,17860,242212.0,39012.0,242212.0,35635.0,-556.4599510669018,-954.5887568263576,-1260.0752151234333
242223,17869,242223.0,39081.0,242223.0,35660.0,-563.8784400679104,-964.84906344171,-1274.1863808225985
242223,17846,242223.0,39008.0,242223.0,35619.0,-571.3201592677385,-975.1474134501156,-1288.3526089860873
242223,17822,242223.0,38962.0,242223.0,35584.0,-578.7860392032876,-985.4879633304333,-1302.5794877446342
242223,17822,242223.0,38927.0,242223.0,35549.0,-586.2764088648325,-995.8732899449634,-1316.8717521979056
242223,17779,242223.0,38891.0,242223.0,35533.0,-593.7912838176452,-1006.3054236627194,-1331.2338545061734
242223,17788,242223.0,38870.0,242223.0,35528.0,-601.3306782018406,-1016.7867934836545,-1345.6704414478504
242233,17750,242233.0,38847.0,242233.0,35479.0,-608.8949203691839,-1027.3209221870993,-1360.1865875143103
242233,17765,242233.0,38870.0,242233.0,35495.0,-616.4849094176868,-1037.9128471308422,-1374.7879634984865
242233,17779,242233.0,38901.0,242233.0,35510.0,-624.1021810698045,-1048.569056115486,-1389.4808857710652
242233,17770,242233.0,38890.0,242233.0,35484.0,-631.7486594192964,-1059.296869346557,-1404.2719991692006
242233,17751,242233.0,38880.0,242233.0,35475.0,-639.4262928251726,-1070.103692272701,-1419.1678300722806
242233,17773,242233.0,38924.0,242233.0,35484.0,-647.136867334425,-1080.9965013182723,-1434.1745372977198
242243,17784,242243.0,38921.0,242243.0,35488.0,-654.8818194886774,-1091.9812971740903,-1449.29765216859
242243,17759,242243.0,38878.0,242243.0,35452.0,-662.6618400196259,-1103.0624384106432,-1464.5416638757674
242243,17715,242243.0,38828.0,242243.0,35397.0,-670.476628613403,-1114.2424421043156,-1479.9098445848322
242243,17696,242243.0,38774.0,242243.0,35377.0,-678.3251943485436,-1125.522603463455,-1495.4046440092861
242243,17685,242243.0,38749.0,242243.0,35358.0,-686.2064812298818,-1136.9040903333525,-1511.0283599013328
242243,17662,242243.0,38753.0,242243.0,35328.0,-694.1198756501392,-1148.388927670418,-1526.7836290370421
242254,17653,242254.0,38720.0,242254.0,35329.0,-702.0655209291117,-1159.9805137363915,-1542.6736839738735
242254,17668,242254.0,38755.0,242254.0,35332.0,-710.0444996572164,-1171.68371650756,-1558.7024058468232
242254,17679,242254.0,38776.0,242254.0,35316.0,-718.0587401537199,-1183.5046007799876,-1574.8741063155064
242254,17668,242254.0,38778.0,242254.0,35309.0,-726.1106186750319,-1195.4497190351915,-1591.1931882942808
242254,17668,242254.0,38776.0,242254.0,35321.0,-734.2025426600691,-1207.5252552709317,-1607.6638431799117
242254,17670,242254.0,38819.0,242254.0,35332.0,-742.3366910053554,-1219.7363130117296,-1624.289632661463
242264,17664,242264.0,38786.0,242264.0,35298.0,-750.5148060642838,-1232.0862198170112,-1641.0729003431989
242264,17655,242264.0,38744.0,242264.0,35236.0,-758.7379867113882,-1244.5759857441926,-1658.0144400758074
242264,17614,242264.0,38668.0,242264.0,35223.0,-767.0066281258755,-1257.2044661148263,-1675.1138034051226
242264,17601,242264.0,38651.0,242264.0,35190.0,-775.3206600381195,-1269.969309496082,-1692.3699526701469
242264,17586,242264.0,38649.0,242264.0,35184.0,-783.6799903326736,-1282.868033215222,-1709.7817396620762
242264,17571,242264.0,38601.0,242264.0,35149.0,-792.0848888982459,-1295.8986436387167,-1727.3481228504152
242274,17568,242274.0,38634.0,242274.0,35152.0,-800.5362085130755,-1309.0598700915587,-1745.0682729632144
242274,17574,242274.0,38648.0,242274.0,35145.0,-809.0354488248669,-1322.351095448782,-1762.9415608814757
242274,17580,242274.0,38647.0,242274.0,35173.0,-817.5846047097007,-1335.7718255918267,-1780.967270025185
242274,17580,242274.0,38640.0,242274.0,35152.0,-826.1858192011654,-1349.32095679144,-1799.1439927809058
242274,17580,242274.0,38692.0,242274.0,35145.0,-834.8409866376916,-1362.9961405523436,-1817.4689700370366
242274,17570,242274.0,38712.0,242274.0,35182.0,-843.5514294113091,-1376.792964669806,-1835.9375560150406
242285,17569,242285.0,38637.0,242285.0,35126.0,-852.3176846886365,-1390.7039445154421,-1854.5426668343366
242285,17534,242285.0,38578.0,242285.0,35078.0,-861.1394192781767,-1404.7181706182512,-1873.2744133155313
242285,17525,242285.0,38551.0,242285.0,35070.0,-870.0155373866883,-1418.822051931403,-1892.1203290676508
242285,17501,242285.0,38529.0,242285.0,35023.0,-878.9444671077467,-1433.0004265917792,-1911.065916927136
242285,17480,242285.0,38473.0,242285.0,35007.0,-887.9245022275339,-1447.2373727706265,-1930.0950830930765
242285,17472,242285.0,38497.0,242285.0,34996.0,-896.9541326110991,-1461.516778779577,-1949.190441205898
242295,17485,242295.0,38542.0,242295.0,34996.0,-906.032257986305,-1475.8225292536695,-1968.3334099835788
242295,17493,242295.0,38520.0,242295.0,34996.0,-915.1580888716564,-1490.137949733291,-1987.5039875997818
242295,17479,242295.0,38502.0,242295.0,34978.0,-924.3307650406758,-1504.4449513415225,-2006.6803248297256
242295,17483,242295.0,38508.0,242295.0,34960.0,-933.5489789202958,-1518.723576310295,-2025.838344508042
242295,17487,242295.0,38563.0,242295.0,34980.0,-942.8107172843596,-1532.9517021024421,-2044.9514808634297
242295,17467,242295.0,38522.0,242295.0,34972.0,-952.1130201033822,-1547.1043563551864,-2063.9903148806798
242305,17456,242305.0,38486.0,242305.0,34933.0,-961.4518132830683,-1561.15300358986,-2082.9220761983606
242305,17429,242305.0,38399.0,242305.0,34864.0,-970.821955025242,-1575.065618034811,-2101.710492117863
242305,17407,242305.0,38379.0,242305.0,34858.0,-980.2174858235826,-1588.8076547858745,-2120.3162822694867
242305,17389,242305.0,38385.0,242305.0,34858.0,-989.6319992842659,-1602.3432039327563,-2138.697808339288
242305,17383,242305.0,38347.0,242305.0,34812.0,-999.0590064646887,-1615.6356184291008,-2156.811315502277
242305,17392,242305.0,38374.0,242305.0,34832.0,-1008.4921158453939,-1628.6476188802858,-2174.6108984440907
242316,17397,242316.0,38390.0,242316.0,34808.0,-1017.9249117670519,-1641.3410909441782,-2192.0484139692553
242316,17397,242316.0,38434.0,242316.0,34824.0,-1027.3505882044692,-1653.6764389409589,-2209.0732384718344
242316,17380,242316.0,38390.0,242316.0,34815.0,-1036.7615606979618,-1665.6115980992904,-2225.6318576623426
242316,17390,242316.0,38426.0,242316.0,34813.0,-1046.1492246354303,-1677.1012268261743,-2241.6673954259645
242316,17392,242316.0,38463.0,242316.0,34813.0,-1055.503767043473,-1688.0961269181435,-2257.119166520999
242316,17364,242316.0,38373.0,242316.0,34783.0,-1064.8139249121186,-1698.5426118938224,-2271.922327816209
242326,17339,242326.0,38331.0,242326.0,34735.0,-1074.0668947679583,-1708.3823410926266,-2286.0077980015485
242326,17325,242326.0,38246.0,242326.0,34692.0,-1083.24857194683,-1717.5532425548572,-2299.3026684531605
242326,17306,242326.0,38250.0,242326.0,34660.0,-1092.3439358187088,-1725.9910671734242,-2311.73103260193
242326,17306,242326.0,38220.0,242326.0,34643.0,-1101.3373426173212,-1733.63070388306,-2323.214867835134
242326,17274,242326.0,38220.0,242326.0,34632.0,-1110.212698023136,-1740.4069037945835,-2333.674674886246
242326,17301,242326.0,38247.0,242326.0,34637.0,-1118.9535605948668,-1746.2545125056067,-2343.0297861581516
242336,17296,242336.0,38285.0,242336.0,34682.0,-1127.5430814537845,-1751.108220787995,-2351.1982807862278
242336,17300,242336.0,38255.0,242336.0,34641.0,-1135.963693733625,-1754.9018924261627,-2358.09651309768
242336,17289,242336.0,38269.0,242336.0,34646.0,-1144.196740549795,-1757.5679732068522,-2363.638655792369
242336,17291,242336.0,38296.0,242336.0,34658.0,-1152.2222343131525,-1759.0372341468812,-2367.7365863727355
242336,17302,242336.0,38252.0,242336.0,34637.0,-1160.0186731179715,-1759.2385840181194,-2370.29988484921
242336,17252,242336.0,38245.0,242336.0,34607.0,-1167.5628602126812,-1758.0990444771212,-2371.235880811498
242347,17233,242347.0,38170.0,242347.0,34534.0,-1174.8299781903465,-1755.5442725780094,-2370.4501615755134
242347,17211,242347.0,38146.0,242347.0,34526.0,-1181.794068401125,-1751.4996734930783,-2367.8477123610446
242347,17198,242347.0,38145.0,242347.0,34499.0,-1188.4286249676875,-1745.8917698919386,-2363.3342867926976
242347,17201,242347.0,38118.0,242347.0,34496.0,-1194.7070027009472,-1738.6493426554161,-2356.8175190132974
242347,17188,242347.0,38124.0,242347.0,34510.0,-1200.6025911971951,-1729.704211716626,-2348.2076610396325
242347,17210,242347.0,38167.0,242347.0,34504.0,-1206.088798472455,-1718.991754432297,-2337.418019163317
242357,17206,242357.0,38174.0,242357.0,34498.0,-1211.1388632074236,-1706.4510159489605,-2324.3652582337986
242357,17210,242357.0,38170.0,242357.0,34507.0,-1215.7255470577709,-1692.024526977591,-2308.96980327473
242357,17198,242357.0,38191.0,242357.0,34526.0,-1219.8208738429114,-1675.65829032956,-2291.1563006455017
242357,17222,242357.0,38256.0,242357.0,34559.0,-1223.3959832796374,-1657.3018874775912,-2270.853904537938
242357,17186,242357.0,38207.0,242357.0,34498.0,-1226.4210131474426,-1636.9083810676527,-2247.9964762325644
242357,17158,242357.0,38155.0,242357.0,34484.0,-1228.8651443841636,-1614.4344966524031,-2222.523248846589
242367,17155,242367.0,38137.0,242367.0,34488.0,-1230.6970185173848,-1589.8418035727648,-2194.3801661154057
242367,17140,242367.0,38126.0,242367.0,34490.0,-1231.8853118841625,-1563.0985442405754,-2163.5213264629256
242367,17115,242367.0,38130.0,242367.0,34489.0,-1232.3992005139453,-1534.1812873608656,-2129.9101273165506
242367,17128,242367.0,38183.0,242367.0,34522.0,-1232.208777390128,-1503.076076226586,-2093.5202365975856
242367,17131,242367.0,38233.0,242367.0,34572.0,-1231.2853724864347,-1469.7789493748517,-2054.3363601701512
242367,17143,242367.0,38290.0,242367.0,34613.0,-1229.601602500311,-1434.2958117818862,-2012.3545956169028
242378,17150,242378.0,38305.0,242378.0,34644.0,-1227.1312159667627,-1396.6420149173166,-1967.5824942460317
242378,17152,242378.0,38354.0,242378.0,34703.0,-1223.8489086775853,-1356.8421190143793,-1920.03914107429
242378,17176,242378.0,38436.0,242378.0,34772.0,-1219.7301689436508,-1314.9298431282584,-1869.7552383669681
242378,17159,242378.0,38481.0,242378.0,34808.0,-1214.751137329666,-1270.9478055368652,-1816.7730241406343
242378,17144,242378.0,38465.0,242378.0,34858.0,-1208.8886051003835,-1224.9471646940206,-1761.146190572041
242378,17143,242378.0,38498.0,242378.0,34904.0,-1202.1203261864366,-1176.987835272191,-1702.9400478308817
242388,17125,242388.0,38539.0,242388.0,34949.0,-1194.4255422280255,-1127.1393302451554,-1642.2318850422737
242388,17133,242388.0,38622.0,242388.0,35036.0,-1185.7855190349444,-1075.4814904228635,-1579.1113400697834
242388,17138,242388.0,38641.0,242388.0,35113.0,-1176.183997985494,-1022.1046944291608,-1513.6805469240423
242388,17171,242388.0,38750.0,242388.0,35228.0,-1165.6074395145242,-967.1097893722051,-1446.05387170316
242388,17182,242388.0,38908.0,242388.0,35340.0,-1154.044976238029,-910.6076704699431,-1376.3572054222664
242388,17214,242388.0,38974.0,242388.0,35462.0,-1141.4881651930618,-852.7180429378466,-1304.7268666957825
242399,17213,242399.0,39059.0,242399.0,35557.0,-1127.9307156077746,-793.5677450417713,-1231.3082943625345
242399,17230,242399.0,39216.0,242399.0,35690.0,-1113.3683462772824,-733.2893549702673,-1156.2547705206148
242399,17263,242399.0,39328.0,242399.0,35855.0,-1097.7987727479274,-672.0197617375705,-1079.72608225559
242399,17270,242399.0,39391.0,242399.0,35945.0,-1081.221656477849,-609.8983943095235,-1001.8868661726076
242399,17261,242399.0,39439.0,242399.0,36013.0,-1063.6385565190733,-547.0658350988789,-922.9050110330489
242399,17279,242399.0,39511.0,242399.0,36137.0,-1045.0531387158665,-483.6633475889349,-842.9507425534892
242409,17281,242409.0,39572.0,242409.0,36245.0,-1025.4716039113284,-419.83292498349647,-762.1961339977416
242409,17299,242409.0,39632.0,242409.0,36336.0,-1004.903100283297,-355.7173777076639,-680.8144623173619
242409,17318,242409.0,39748.0,242409.0,36498.0,-983.3600447212074,-291.46029932856743,-598.9793698676108
242409,17355,242409.0,39910.0,242409.0,36611.0,-960.8583124645237,-227.20554807019357,-516.8637937134231
242409,17403,242409.0,40022.0,242409.0,36752.0,-937.4171812662947,-163.09581227315016,-434.6385577499425
242409,17439,242409.0,40117.0,242409.0,36848.0,-913.0589830195287,-99.2706052584756,-352.4708932279191
242419,17453,242419.0,40219.0,242419.0,36967.0,-887.8086463807465,-35.86450055326145,-270.52319381793427
242419,17526,242419.0,40342.0,242419.0,37099.0,-861.6933482308543,26.994222978720472,-188.9519755252802
242419,17555,242419.0,40423.0,242419.0,37203.0,-834.7421476980663,89.18488054461704,-107.90680955008156
242419,17565,242419.0,40430.0,242419.0,37262.0,-806.9855290113001,150.59548582446132,-27.529308028638752
242419,17584,242419.0,40453.0,242419.0,37323.0,-778.4552084179804,211.12298430001033,52.047358514844746
242419,17615,242419.0,40490.0,242419.0,37397.0,-749.1843377424852,270.67247343269287,130.6982607675693
242430,17635,242430.0,40549.0,242430.0,37489.0,-719.2077919003095,329.1561193194816,208.30628086502543
242430,17661,242430.0,40587.0,242430.0,37560.0,-688.562377389216,386.49239015320404,284.7618984938906
242430,17728,242430.0,40661.0,242430.0,37645.0,-657.2869505017406,442.6056397060722,359.96319666589216
242430,17740,242430.0,40746.0,242430.0,37727.0,-625.4223287098971,497.4259928972749,433.81592882141376
242430,17803,242430.0,40818.0,242430.0,37793.0,-593.0110405059556,550.8896451822948,506.23360604955406
242430,17862,242430.0,40872.0,242430.0,37889.0,-560.0970135623481,602.9394444640993,577.1375933177521
242440,17894,242440.0,40992.0,242440.0,37974.0,-526.7251107911459,653.5255086736036,646.4572822777125
242440,17949,242440.0,41052.0,242440.0,38020.0,-492.9406019266126,702.6060002651941,714.1303735552335
242440,17971,242440.0,41041.0,242440.0,38061.0,-458.78878774204844,750.147947932689,780.102961188222
242440,17987,242440.0,41008.0,242440.0,38117.0,-424.3148644794454,796.1272669381315,844.3291581560175
242440,18032,242440.0,41009.0,242440.0,38151.0,-389.5640594018955,840.5275055807435,906.7704549886978
242440,18066,242440.0,41032.0,242440.0,38176.0,-354.58185791252856,883.3379985767247,967.3950011656202
242450,18105,242450.0,41030.0,242450.0,38215.0,-319.414081970034,924.5522900164431,1026.1767437884141
242450,18132,242450.0,41086.0,242450.0,38274.0,-284.10687093835895,964.1670205519017,1083.0945217200274
242450,18194,242450.0,41169.0,242450.0,38374.0,-248.7066645674049,1002.181333687483,1138.1315167501907
242450,18236,242450.0,41224.0,242450.0,38414.0,-213.26007530265485,1038.597042119496,1191.2753134289637
242450,18303,242450.0,41243.0,242450.0,38456.0,-177.8135371135594,1073.4192930978384,1242.5182261148489
242450,18332,242450.0,41309.0,242450.0,38501.0,-142.4128143277287,1106.6570851614588,1291.8573533136796
242461,18411,242461.0,41369.0,242461.0,38586.0,-107.10250455868095,1138.3235956044864,1339.2944202760327
242461,18429,242461.0,41372.0,242461.0,38614.0,-71.92555853294823,1168.4366178904083,1384.8358227933004
242461,18444,242461.0,41380.0,242461.0,38626.0,-36.92294691608822,1197.0188333629412,1428.492752745727
242461,18473,242461.0,41325.0,242461.0,38636.0,-2.1337317813746495,1224.0974006344854,1470.2808891571544
242461,18485,242461.0,41322.0,242461.0,38668.0,32.4045172987594,1249.7027769346646,1510.2196038146558
242461,18532,242461.0,41319.0,242461.0,38684.0,66.65526939432345,1273.8671692339271,1548.3311039203363
242471,18551,242471.0,41308.0,242471.0,38706.0,100.5827138357331,1296.6231484444875,1584.6397358008912
242471,18618,242471.0,41393.0,242471.0,38774.0,134.15163718856047,1318.002733286754,1619.1714692121654
242471,18660,242471.0,41460.0,242471.0,38815.0,167.32755746254975,1338.0372686030605,1651.9537456236249
242471,18711,242471.0,41466.0,242471.0,38837.0,200.07711265029002,1356.758180061348,1683.015701794186
242471,18740,242471.0,41484.0,242471.0,38872.0,232.36851853005453,1374.1978453383626,1712.3883792038805
242471,18776,242471.0,41548.0,242471.0,38921.0,264.17188027419957,1390.3900060243018,1740.1047666245227
242481,18829,242481.0,41578.0,242481.0,38966.0,295.45936496315016,1405.3701401292915,1766.1999520782392
242481,18846,242481.0,41531.0,242481.0,38938.0,326.2053796580095,1419.1759762318502,1790.711385144497
242481,18863,242481.0,41525.0,242481.0,38931.0,356.3866932000958,1431.8474904137256,1813.6787344619302
242481,18883,242481.0,41481.0,242481.0,38957.0,385.9822961512142,1443.4260791853285,1835.143142922655
242481,18904,242481.0,41478.0,242481.0,38952.0,414.9730482027927,1453.9533503169146,1855.1463933144173
242481,18921,242481.0,41454.0,242481.0,38951.0,443.34130802019547,1463.4699532134377,1873.7303028442357
242492,18951,242492.0,41464.0,242492.0,38963.0,471.07061293486527,1472.0146154771169,1890.9361570027995
242492,19010,242492.0,41551.0,242492.0,39023.0,498.1455082269083,1479.6236433958297,1906.8042563087488
242492,19032,242492.0,41569.0,242492.0,39024.0,524.5516843875464,1486.3312635487205,1921.373904473911
242492,19064,242492.0,41561.0,242492.0,39072.0,550.2763054894474,1492.1705513895836,1934.683753719301
242492,19097,242492.0,41585.0,242492.0,39081.0,575.3082539040131,1497.1740977576796,1946.7721922966316
242492,19127,242492.0,41668.0,242492.0,39124.0,599.6382796396813,1501.3743636697568,1957.677716299961
242502,19147,242502.0,41630.0,242502.0,39123.0,623.2591457300589,1504.8043334951813,1967.4393148807076
242502,19152,242502.0,41591.0,242502.0,39096.0,646.1656768832518,1507.4981355931181,1976.0966773911973
242502,19166,242502.0,41535.0,242502.0,39095.0,668.3545841371315,1509.4907186715664,1983.689941926506
242502,19174,242502.0,41544.0,242502.0,39080.0,689.8241041459278,1510.8166738391415,1990.2590588661528
242502,19215,242502.0,41531.0,242502.0,39087.0,710.5736474903547,1511.5091017893574,1995.8431364467629
242502,19209,242502.0,41476.0,242502.0,39077.0,730.6036119037201,1511.5988882860336,2000.479951245302
242512,19238,242512.0,41525.0,242512.0,39114.0,749.9152794923807,1511.1140954807167,2004.2056546998197
242512,19271,242512.0,41576.0,242512.0,39113.0,768.5107129481585,1510.0796623512133,2007.0547574264956
242512,19286,242512.0,41583.0,242512.0,39126.0,786.3927822578958,1508.517929405547,2009.0603415997743
242512,19306,242512.0,41583.0,242512.0,39122.0,803.5653157762108,1506.449592217009,2010.2542655303191
242512,19326,242512.0,41639.0,242512.0,39165.0,820.0331995080141,1503.8944213041461,2010.6673108029195
242512,19367,242512.0,41681.0,242512.0,39181.0,835.8024649535846,1500.8719864745256,2010.3295117665743
242523,19362,242523.0,41612.0,242523.0,39158.0,850.8804807118076,1497.402593425357,2009.2706744744946
242523,19350,242523.0,41562.0,242523.0,39120.0,865.276045276998,1493.5076447348476,2007.5205923384774
242523,19359,242523.0,41551.0,242523.0,39089.0,878.9990994984817,1489.2089004454708,2005.1085811252283
242523,19358,242523.0,41514.0,242523.0,39103.0,892.0601960386712,1484.527319549162,2002.0626318504
242523,19374,242523.0,41467.0,242523.0,39104.0,904.4700493127457,1479.482086779223,1998.4088079877965
242523,19384,242523.0,41478.0,242523.0,39093.0,916.2392667647973,1474.0897269114043,1994.1711066853395
242533,19417,242533.0,41581.0,242533.0,39110.0,927.3782672127415,1468.3636338103427,1989.371520069525
242533,19423,242533.0,41540.0,242533.0,39131.0,937.897396042322,1462.3146349738734,1984.030190632005
242533,19443,242533.0,41556.0,242533.0,39105.0,947.8071357296276,1455.9520831855968,1978.1657389129068
242533,19445,242533.0,41552.0,242533.0,39111.0,957.1182595797477,1449.2844934144355,1971.7955442673683
242533,19478,242533.0,41642.0,242533.0,39153.0,965.8419202485791,1442.3199310683347,1964.935893116643
242533,19478,242533.0,41601.0,242533.0,39128.0,973.9897819811715,1435.0668333110439,1957.6023158917592
242543,19470,242543.0,41543.0,242543.0,39103.0,981.5741476380949,1427.5348402159111,1949.809998813184
242543,19479,242543.0,41494.0,242543.0,39071.0,988.607887881888,1419.734645881978,1941.5737397909234
242543,19464,242543.0,41469.0,242543.0,39068.0,995.1041761772779,1411.6769036078383,1932.9074520051636
242543,19476,242543.0,41457.0,242543.0,39058.0,1001.0761769265678,1403.3710671319407,1923.8236821755363
242543,19471,242543.0,41427.0,242543.0,39045.0,1006.5367652465188,1394.8246391383454,1914.3333758057897
242543,19471,242543.0,41480.0,242543.0,39051.0,1011.4983042765707,1386.042820664931,1904.4458060330749
242554,19505,242554.0,41483.0,242554.0,39086.0,1015.9725119876853,1377.0286745068154,1894.1686940640534
242554,19515,242554.0,41499.0,242554.0,39062.0,1019.9705486376279,1367.7838064930522,1883.5086504156247
242554,19511,242554.0,41505.0,242554.0,39060.0,1023.5033164003428,1358.3091678828328,1872.4716958860745
242554,19520,242554.0,41516.0,242554.0,39085.0,1026.581681416686,1348.6057157368416,1861.0635847895933
242554,19545,242554.0,41543.0,242554.0,39105.0,1029.2165531547469,1338.6750364565194,1849.2901973861299
242554,19539,242554.0,41500.0,242554.0,39076.0,1031.419041313123,1328.519970902709,1837.1581915448214
242564,19521,242564.0,41464.0,242564.0,39014.0,1033.2006231323896,1318.144909146358,1824.6754054934934
242564,19526,242564.0,41430.0,242564.0,39001.0,1034.5730536263493,1307.5554431060486,1811.8505237223078
242564,19505,242564.0,41383.0,242564.0,38993.0,1035.5480588399657,1296.7575671657034,1798.6923538728317
242564,19508,242564.0,41340.0,242564.0,38946.0,1036.1369999654912,1285.7567281374702,1785.2093052671112
242564,19493,242564.0,41343.0,242564.0,38952.0,1036.350554490675,1274.5568802180517,1771.4090607074459
242564,19535,242564.0,41396.0,242564.0,38963.0,1036.1985071093538,1263.159967732561,1757.2983643817406
242574,19527,242574.0,41410.0,242574.0,38969.0,1035.6898362355353,1251.5663050470432,1742.8831887128558
242574,19545,242574.0,41409.0,242574.0,38950.0,1034.8330553314013,1239.7756046662075,1728.169231364011
242574,19547,242574.0,41421.0,242574.0,38968.0,1033.636561863709,1227.7879411473948,1713.1623819820406
242574,19557,242574.0,41488.0,242574.0,39002.0,1032.1089106380546,1215.6045415454957,1697.8691969385889
242574,19557,242574.0,41432.0,242574.0,38952.0,1030.2590577823912,1203.2287362860911,1682.2975801959894
242574,19546,242574.0,41397.0,242574.0,38946.0,1028.096532603439,1190.6667061458802,1666.4573260465856
242585,19521,242585.0,41342.0,242585.0,38885.0,1025.6314135798232,1177.927343233586,1650.3601005087025
242585,19522,242585.0,41288.0,242585.0,38872.0,1022.8740555697498,1165.0213289833482,1634.0189703441242
242585,19506,242585.0,41291.0,242585.0,38841.0,1019.8347237388175,1151.9600198097062,1617.4478112157362
242585,19497,242585.0,41231.0,242585.0,38827.0,1016.5232937534206,1138.7545650749184,1600.6608394416696
242585,19511,242585.0,41274.0,242585.0,38836.0,1012.9490401750586,1125.4153885567512,1583.6723943987956
242585,19532,242585.0,41289.0,242585.0,38828.0,1009.1206341636787,1111.952150439461,1566.4970379024035
242595,19519,242595.0,41331.0,242595.0,38816.0,1005.0464392347251,1098.3743979332953,1549.1498952204895
242595,19534,242595.0,41285.0,242595.0,38802.0,1000.7348821790649,1084.6926269522928,1531.6469802362421
242595,19522,242595.0,41291.0,242595.0,38786.0,996.1946944769238,1070.9190502759202,1514.005366653331
242595,19523,242595.0,41272.0,242595.0,38797.0,991.4350482154609,1057.0678330456626,1496.243311979699
242595,19516,242595.0,41220.0,242595.0,38779.0,986.4656186061839,1043.155036018608,1478.3804976561016
242595,19499,242595.0,41208.0,242595.0,38726.0,981.2965647112667,1029.1983146892057,1460.4382754552248
242606,19492,242606.0,41159.0,242606.0,38695.0,975.9384098542059,1015.2163717409609,1442.4395410782183
242606,19480,242606.0,41117.0,242606.0,38662.0,970.4018396029464,1001.2282938059357,1424.4081796203418
242606,19461,242606.0,41127.0,242606.0,38633.0,964.6974756770433,987.2528589568557,1406.3684302506763
242606,19455,242606.0,41069.0,242606.0,38577.0,958.8356254381545,973.3079944346078,1388.344313026398
242606,19462,242606.0,41091.0,242606.0,38615.0,952.8260632893348,959.410458889075,1370.3591049244203
242606,19479,242606.0,41131.0,242606.0,38619.0,946.6780338824999,945.5758173638859,1352.4352083508925
242616,19463,242616.0,41121.0,242616.0,38551.0,940.4005233642724,931.8189857302408,1334.5945287522711
242616,19443,242616.0,41043.0,242616.0,38543.0,934.0025130156617,918.1549595532446,1316.8586826561802
242616,19490,242616.0,41167.0,242616.0,38615.0,927.4930470246205,904.5990995479441,1299.2488917464725
242616,19474,242616.0,41138.0,242616.0,38572.0,920.8814237274606,891.1675458426733,1281.7863656848035
242616,19444,242616.0,41071.0,242616.0,38506.0,914.177566688199,877.8781146936306,1264.493015136622
242616,19438,242616.0,40992.0,242616.0,38489.0,907.3921037871563,864.7504993178438,1247.3914460247252
242626,19409,242626.0,40988.0,242626.0,38462.0,900.5360528122497,851.8052298880795,1230.504276799044
242626,19384,242626.0,40951.0,242626.0,38409.0,893.6203823675636,839.062405943737,1213.853492368575
242626,19388,242626.0,40909.0,242626.0,38400.0,886.655552983381,826.5408825611532,1197.4598987321374
242626,19391,242626.0,40929.0,242626.0,38398.0,879.6512040245557,814.2577173935039,1181.3426432014735
242626,19388,242626.0,40879.0,242626.0,38366.0,872.6161601031845,802.2277950064073,1165.5190262054507
242626,19372,242626.0,40896.0,242626.0,38383.0,865.5585947879932,790.463658317912,1150.0045494178923
242637,19385,242637.0,40954.0,242637.0,38395.0,858.4861266920086,778.9755992795876,1134.8131227469971
242637,19394,242637.0,40970.0,242637.0,38396.0,851.4059346923557,767.7723605146736,1119.9575652687495
242637,19405,242637.0,40994.0,242637.0,38395.0,844.3250802389293,756.8624030468321,1105.4502782229774
242637,19390,242637.0,40940.0,242637.0,38346.0,837.2509535432255,746.2550294950472,1091.3037193077785
242637,19353,242637.0,40931.0,242637.0,38332.0,830.1915155723018,735.9607978289785,1077.5304248996372
242637,19341,242637.0,40851.0,242637.0,38282.0,823.1551049031625,725.9911788305719,1064.1426101502102
242647,19323,242647.0,40781.0,242647.0,38265.0,816.1499609614214,716.3575803709664,1051.1515651195796
242647,19320,242647.0,40804.0,242647.0,38255.0,809.1838013409387,707.0699749195148,1038.5670691667315
242647,19274,242647.0,40729.0,242647.0,38211.0,802.2635177036916,698.135708715858,1026.3969608522189
242647,19330,242647.0,40825.0,242647.0,38270.0,795.3949131146547,689.558919302254,1014.6469075636891
242647,19320,242647.0,40867.0,242647.0,38289.0,788.58271736665,681.3407999834502,1003.3206255526281
242647,19327,242647.0,40852.0,242647.0,38250.0,781.8310217666475,673.4807717862168,992.4206351896117
242657,19333,242657.0,40847.0,242657.0,38238.0,775.1437851468955,665.9777331414614,981.9488672927948
242657,19344,242657.0,40873.0,242657.0,38286.0,768.5252187086497,658.8306587533623,971.9067764074631
242657,19319,242657.0,40896.0,242657.0,38251.0,761.9801284890322,652.0389827764257,962.2955357028848
242657,19293,242657.0,40827.0,242657.0,38210.0,755.5140493656122,645.603102261314,953.1163640276098
242657,19271,242657.0,40774.0,242657.0,38185.0,749.1329781894598,639.5243917438064,944.3703557067781
242657,19244,242657.0,40680.0,242657.0,38136.0,742.8428333653094,633.8041744676989,936.057754356262
242668,19219,242668.0,40691.0,242668.0,38132.0,736.6488430639026,628.4420063846751,928.1770875711577
242668,19229,242668.0,40724.0,242668.0,38147.0,730.5549873545839,623.4342888137083,920.7245166417165
242668,19245,242668.0,40764.0,242668.0,38166.0,724.5637248001301,618.7740374903551,913.6937190746129
242668,19250,242668.0,40791.0,242668.0,38173.0,718.6761733806189,614.451704915957,907.076312139236
242668,19263,242668.0,40790.0,242668.0,38179.0,712.8925756726508,610.4563054244659,900.8624574159387
242668,19250,242668.0,40796.0,242668.0,38166.0,707.2127588507705,606.7762604297454,895.0413309088403
242678,19262,242678.0,40841.0,242678.0,38187.0,701.6364518838068,603.3999378860776,889.601394273692
242678,19268,242678.0,40853.0,242678.0,38217.0,696.1635165903124,600.3162627353045,884.530684041634
242678,19256,242678.0,40815.0,242678.0,38176.0,690.794199814286,597.5154229904037,879.8172750311551
242678,19217,242678.0,40712.0,242678.0,38136.0,685.5292589911039,594.9889594577546,875.449505490838
242678,19193,242678.0,40708.0,242678.0,38148.0,680.3696797986833,592.7287253920205,871.4155838974158
242678,19207,242678.0,40714.0,242678.0,38135.0,675.3161032485641,590.7253983610635,867.7030108636135
242688,19184,242688.0,40696.0,242688.0,38115.0,670.3684094324342,588.9675908617808,864.2982698546671
242688,19178,242688.0,40680.0,242688.0,38117.0,665.5255611186421,587.4415539302667,861.1866151065243
242688,19206,242688.0,40754.0,242688.0,38133.0,660.7855392375238,586.1310612830652,858.3518742129805
242688,19207,242688.0,40798.0,242688.0,38147.0,656.145479569733,585.0178042981915,855.7765107283535
242688,19200,242688.0,40782.0,242688.0,38160.0,651.6020471270235,584.0824764394761,853.4419938516032
242688,19210,242688.0,40802.0,242688.0,38168.0,647.1517589222829,583.305807022166,851.3292754048966
242699,19218,242699.0,40882.0,242699.0,38204.0,642.7911904725213,582.6692130392543,849.4192755352593
242699,19203,242699.0,40886.0,242699.0,38183.0,638.5172037556786,582.1556686763361,847.6934000068308
242699,19191,242699.0,40816.0,242699.0,38164.0,634.3270894716433,581.7507040579055,846.133891367889
242699,19181,242699.0,40754.0,242699.0,38140.0,630.2184739521917,581.4424531008303,844.7237049602368
242699,19151,242699.0,40741.0,242699.0,38122.0,626.1890454485529,581.220469646198,843.4459710564983
242699,19157,242699.0,40710.0,242699.0,38132.0,622.2361909438463,581.0742451981477,842.2833978319177
242709,19142,242709.0,40714.0,242709.0,38093.0,618.3566589217115,580.9921591870348,841.2178342838138
242709,19147,242709.0,40727.0,242709.0,38147.0,614.5463696026009,580.9609228233212,840.2299997345183
242709,19182,242709.0,40769.0,242709.0,38160.0,610.8004415614027,580.9655310913457,839.2995241902107
242709,19171,242709.0,40780.0,242709.0,38168.0,607.1135117580202,580.989741525514,838.4054337411353
242709,19163,242709.0,40802.0,242709.0,38185.0,603.4801710471279,581.0168191870744,837.5267679784859
242709,19174,242709.0,40820.0,242709.0,38205.0,599.8951854693519,581.0302387268828,836.6430710602036
242719,19193,242719.0,40885.0,242719.0,38213.0,596.3536107507967,581.0143906076286,835.7348683976039
242719,19183,242719.0,40834.0,242719.0,38198.0,592.8510733777264,580.9554114056075,834.7840992591365
242719,19156,242719.0,40777.0,242719.0,38158.0,589.384038291379,580.8416246612691,833.7742104513969
242719,19133,242719.0,40742.0,242719.0,38142.0,585.9496970491141,580.6629431092488,832.6897275008755
242719,19119,242719.0,40748.0,242719.0,38128.0,582.5454806144719,580.4096171773076,831.5155123180286
242719,19118,242719.0,40723.0,242719.0,38132.0,579.1685226903907,580.071238741331,830.2361186654791
242730,19112,242730.0,40691.0,242730.0,38137.0,575.8153246255356,579.6361461727915,828.8354665117739
242730,19124,242730.0,40789.0,242730.0,38167.0,572.4816543702766,579.0910387711391,827.2968620813388
242730,19135,242730.0,40804.0,242730.0,38174.0,569.1626512643088,578.4212259402642,825.6033398333553
242730,19128,242730.0,40796.0,242730.0,38175.0,565.8530902449562,577.6116208134853,823.7381589342261
242730,19128,242730.0,40815.0,242730.0,38172.0,562.547637660838,576.6476369234986,821.6851734671079
242730,19151,242730.0,40875.0,242730.0,38222.0,559.2410199302831,575.515703046872,819.4290748875707
242740,19142,242740.0,40895.0,242740.0,38217.0,555.9282509200455,574.2040078428633,816.9558148441822
242740,19120,242740.0,40805.0,242740.0,38182.0,552.6048736886214,572.7033735265392,814.2531279013259
242740,19110,242740.0,40764.0,242740.0,38146.0,549.2669334320258,571.0072450663184,811.3105697572083
242740,19106,242740.0,40708.0,242740.0,38142.0,545.9106898704018,569.1104754560162,808.1189175488672
242740,19102,242740.0,40754.0,242740.0,38141.0,542.5323545489468,567.0078260516814,804.6694769648155
242740,19076,242740.0,40706.0,242740.0,38121.0,539.1279280543469,564.6931009232221,800.9537032361781
242750,19083,242750.0,40741.0,242750.0,38121.0,535.6929996587319,562.1589113541339,796.9630108209577
242750,19091,242750.0,40783.0,242750.0,38149.0,532.2225621389166,559.3967873728624,792.6886688487622
242750,19113,242750.0,40810.0,242750.0,38160.0,528.7110867833477,556.3977761860237,788.1219930673859
242750,19113,242750.0,40793.0,242750.0,38146.0,525.1529032678237,553.1534043294394,783.2548224249839
242750,19107,242750.0,40794.0,242750.0,38161.0,521.5426356558382,549.656370389417,778.0799223623009
242750,19131,242750.0,40876.0,242750.0,38198.0,517.8755004230568,545.9009139147554,772.5912928082059
242761,19123,242761.0,40822.0,242761.0,38149.0,514.1475617878317,541.8834051232845,766.7846057352332
242761,19100,242761.0,40773.0,242761.0,38132.0,510.3559708050234,537.6028924956361,760.6574729505123
242761,19080,242761.0,40715.0,242761.0,38089.0,506.4989333586065,533.060721980031,754.2091233238714
242761,19051,242761.0,40681.0,242761.0,38073.0,502.5753059589631,528.2592642688903,747.4396716650127
242761,19036,242761.0,40651.0,242761.0,38064.0,498.58399951759003,523.200509010092,740.3494002131725
242761,19030,242761.0,40648.0,242761.0,38035.0,494.5234016093484,517.884983252866,732.9382490424553
242771,19059,242771.0,40725.0,242771.0,38056.0,490.39104796738786,512.3112834680742,725.205507283098
242771,19078,242771.0,40731.0,242771.0,38068.0,486.1837638502687,506.47652873324137,717.149769920384
242771,19058,242771.0,40747.0,242771.0,38077.0,481.89817417185645,500.37746596497686,708.7692856602952
242771,19061,242771.0,40738.0,242771.0,38080.0,477.5311271536276,494.01145421637284,700.0625340015749
242771,19077,242771.0,40797.0,242771.0,38081.0,473.0798494666587,487.37710147112045,691.0287522864332
242771,19073,242771.0,40761.0,242771.0,38092.0,468.5421122321321,480.4749020831809,681.6683621738932
242781,19054,242781.0,40718.0,242781.0,38038.0,463.91647272422995,473.3077433531815,671.9832773360417
242781,19037,242781.0,40668.0,242781.0,38011.0,459.20231054700565,465.88069636376633,661.9768434389314
242781,19022,242781.0,40635.0,242781.0,37986.0,454.3995692865453,458.2000768147875,651.6532990392024
242781,19017,242781.0,40608.0,242781.0,38000.0,449.50839996011257,450.2723302008475,641.0171640569281
242781,18999,242781.0,40558.0,242781.0,37954.0,444.52887221152787,442.1030629103002,630.072944244108
242781,18995,242781.0,40612.0,242781.0,37968.0,439.46075325071206,433.6963020213436,618.8250260332834
242792,19009,242792.0,40662.0,242792.0,37961.0,434.30336667892675,425.0544005052491,607.2776159110877
242792,19008,242792.0,40624.0,242792.0,37952.0,429.0556546535244,416.178828525335,595.4348374987267
242792,19013,242792.0,40644.0,242792.0,37951.0,423.7164393635947,407.0711242297146,583.3009477466906
242792,19009,242792.0,40639.0,242792.0,37969.0,418.2847098061421,397.7333806711256,570.880593178066
242792,19021,242792.0,40704.0,242792.0,37984.0,412.7598590171117,388.16866341468767,558.1792618587986
242792,19005,242792.0,40660.0,242792.0,37914.0,407.14190618712155,378.3817695677159,545.2038398661778
242802,18970,242802.0,40610.0,242802.0,37881.0,401.43159034842955,368.3798646884018,531.9626973325877
242802,18959,242802.0,40530.0,242802.0,37858.0,395.63013325860766,358.17221018373715,518.4650852754272
242802,18961,242802.0,40490.0,242802.0,37829.0,389.73880097567655,347.7689222783971,504.7203650629802
242802,18930,242802.0,40479.0,242802.0,37797.0,383.7585878826425,337.179486756916,490.7374405621347
242802,18941,242802.0,40464.0,242802.0,37797.0,377.6900352655479,326.41173746846835,476.52432183984786
242802,18935,242802.0,40491.0,242802.0,37815.0,371.5331115603467,315.47150876521357,462.08792738857414
242812,18944,242812.0,40523.0,242812.0,37809.0,365.2872574596011,304.3629110301863,447.4343431748282
242812,18949,242812.0,40517.0,242812.0,37779.0,358.9516140904343,293.08911172288146,432.569317694299
242812,18949,242812.0,40523.0,242812.0,37797.0,352.5253411855381,281.6532312186558,417.4985860592594
242812,18963,242812.0,40540.0,242812.0,37809.0,346.0079645564982,270.05902750507136,402.22812815464425
242812,18950,242812.0,40557.0,242812.0,37765.0,339.399722533261,258.31152342083556,386.76461160750057
242812,18914,242812.0,40482.0,242812.0,37745.0,332.70177174156754,246.41760665763462,371.1157036662254
242823,18906,242823.0,40414.0,242823.0,37706.0,325.91604173987093,234.38601749850983,355.2899138055667
242823,18891,242823.0,40385.0,242823.0,37664.0,319.04483561609254,222.22638206052085,339.29610846591254
242823,18881,242823.0,40361.0,242823.0,37661.0,312.09048611239405,209.9479160950824,323.1429364512751
242823,18851,242823.0,40322.0,242823.0,37604.0,305.0551097044007,197.5584871106916,306.8383245759983
242823,18871,242823.0,40350.0,242823.0,37624.0,297.9403634468279,185.06408512375117,290.3891080416597
242823,18871,242823.0,40358.0,242823.0,37645.0,290.7473522488725,172.4687361906595,273.80094504277736
242833,18859,242833.0,40358.0,242833.0,37613.0,283.4768079470185,159.77494352043317,257.07871369925226
242833,18864,242833.0,40400.0,242833.0,37602.0,276.12932966894994,146.98442127704254,240.22705316252097
242833,18858,242833.0,40386.0,242833.0,37614.0,268.7055357044944,134.09893479428388,223.25064600675398
242833,18876,242833.0,40448.0,242833.0,37617.0,261.2062462577825,121.12124915388165,206.1545007792805
242833,18863,242833.0,40354.0,242833.0,37572.0,253.63278002700747,108.0560241545478,188.94441061141026
242833,18843,242833.0,40291.0,242833.0,37518.0,245.98722494233593,94.91006666642068,171.62712833411865
242844,18815,242844.0,40262.0,242844.0,37497.0,238.2724340969621,81.69151321091272,154.20993006345668
242844,18792,242844.0,40240.0,242844.0,37466.0,230.4916820426686,68.40857192668568,136.69991309209536
242844,18777,242844.0,40179.0,242844.0,37444.0,222.64816349384387,55.06859268231017,119.10346497775959
242844,18762,242844.0,40153.0,242844.0,37442.0,214.74454075724458,41.67731735072573,101.42597645564308
242844,18765,242844.0,40215.0,242844.0,37435.0,206.78265109250594,28.238245257381777,83.6718040385008
242844,18780,242844.0,40236.0,242844.0,37439.0,198.76346093857768,14.752753112957294,65.8445124810803
242854,18763,242854.0,40234.0,242854.0,37432.0,190.68728920554207,1.221110970898394,47.94730589212077
242854,18775,242854.0,40233.0,242854.0,37392.0,182.55412353201717,-12.356399146750164,29.983438924981897
242854,18795,242854.0,40250.0,242854.0,37448.0,174.36393437616027,-25.978751721955973,11.956502698853
242854,18784,242854.0,40262.0,242854.0,37420.0,166.11711037882418,-39.643566207706954,-6.129147535778657
242854,18771,242854.0,40200.0,242854.0,37358.0,157.8149077338253,-53.3465042325372,-24.267835257771026
242854,18726,242854.0,40126.0,242854.0,37302.0,149.45956748966904,-67.08120179603543,-42.452576418841545
242864,18716,242864.0,40102.0,242864.0,37302.0,141.05398741002466,-80.84009884363456,-60.67582817824564
242864,18696,242864.0,40081.0,242864.0,37271.0,132.60119116749036,-94.61561192212434,-78.9302180067624
242864,18690,242864.0,40043.0,242864.0,37225.0,124.10390845682468,-108.40095601557982,-97.20889317806507
242864,18686,242864.0,40044.0,242864.0,37242.0,115.56437116629098,-122.19060770250485,-115.50577420427726
242864,18687,242864.0,40079.0,242864.0,37225.0,106.98429718766221,-135.98046449038384,-133.8156861303113
242864,18688,242864.0,40065.0,242864.0,37224.0,98.36503345826048,-149.7674859949534,-152.13415135066066
242875,18686,242875.0,40047.0,242875.0,37204.0,89.70779948701278,-163.54904578515266,-170.45702423421494
242875,18684,242875.0,40050.0,242875.0,37224.0,81.01395238990455,-177.3225140980146,-188.78015187000528
242875,18690,242875.0,40105.0,242875.0,37216.0,72.2852430327107,-191.08494200218684,-207.09893763292996
242875,18687,242875.0,40066.0,242875.0,37175.0,63.52409560955192,-204.8323917706083,-225.40783402401803
242875,18634,242875.0,39993.0,242875.0,37126.0,54.73380536072284,-218.5593041473146,-243.70017373554379
242875,18617,242875.0,39963.0,242875.0,37097.0,45.91836090845112,-232.25873236794553,-261.9685718542611
242885,18593,242885.0,39920.0,242885.0,37056.0,37.081880985455825,-245.92332371558075,-280.20561205116167
242885,18596,242885.0,39871.0,242885.0,37034.0,28.228064103174916,-259.5463627890214,-298.4044810562609
242885,18563,242885.0,39853.0,242885.0,37034.0,19.359889829444512,-273.12268040921447,-316.55940594654953
242885,18572,242885.0,39903.0,242885.0,37002.0,10.47945823059996,-286.6492664740248,-334.6658054225819
242885,18583,242885.0,39888.0,242885.0,37024.0,1.587941073238369,-300.1251639682703,-352.72019573751527
242885,18581,242885.0,39916.0,242885.0,37020.0,-7.314203506508306,-313.5507393459816,-370.71988583606037
242895,18582,242895.0,39911.0,242895.0,37005.0,-16.226823739993677,-326.9268494231667,-388.6624658737113
242895,18603,242895.0,39958.0,242895.0,37011.0,-25.149658550508377,-340.2540383503599,-406.54528753937745
242895,18588,242895.0,39954.0,242895.0,36978.0,-34.08189728992403,-353.531602757977,-424.36509007424866
242895,18546,242895.0,39887.0,242895.0,36936.0,-43.021844422790934,-366.7567476825312,-442.11784898441886
242895,18529,242895.0,39808.0,242895.0,36899.0,-51.96702107973698,-379.9245436337634,-459.79901552739807
242895,18498,242895.0,39753.0,242895.0,36877.0,-60.91467115680712,-393.0290066661429,-477.4040702031972
242906,18515,242906.0,39761.0,242906.0,36869.0,-69.86227134234554,-406.0646175887566,-494.92902005544875
242906,18483,242906.0,39721.0,242906.0,36826.0,-78.80777397882326,-419.02736374856397,-512.3706517211369
242906,18482,242906.0,39732.0,242906.0,36822.0,-87.7496637883159,-431.91513356121163,-529.7266901131561
242906,18479,242906.0,39767.0,242906.0,36832.0,-96.68700256816834,-444.72767640547227,-546.9958972447021
242906,18481,242906.0,39775.0,242906.0,36798.0,-105.61940322049952,-457.4660672423437,-564.1779311629164
242906,18474,242906.0,39745.0,242906.0,36824.0,-114.54685422463353,-470.1318621599918,-581.2730277734129
242916,18474,242916.0,39765.0,242916.0,36802.0,-123.4694957557453,-482.72649325023633,-598.2816391413332
242916,18474,242916.0,39787.0,242916.0,36813.0,-132.38741221483843,-495.2508886133743,-615.2039958922321
242916,18486,242916.0,39760.0,242916.0,36755.0,-141.30037843686148,-507.7049329510918,-632.0397313219228
242916,18442,242916.0,39733.0,242916.0,36747.0,-150.20758386538682,-520.0869751468219,-648.7878323235675
242916,18423,242916.0,39667.0,242916.0,36680.0,-159.10759981345888,-532.3938948458821,-665.446975836611
242916,18404,242916.0,39617.0,242916.0,36669.0,-167.99872745188776,-544.6218474891762,-682.016117285041
242926,18385,242926.0,39577.0,242926.0,36648.0,-176.87947158166793,-556.7674349300469,-698.4951003407273
242926,18384,242926.0,39576.0,242926.0,36625.0,-185.74888930130072,-568.8288403385233,-714.8850512667809
242926,18370,242926.0,39594.0,242926.0,36657.0,-194.60676909296058,-580.8064397753898,-731.1884688013361
242926,18390,242926.0,39615.0,242926.0,36630.0,-203.4536282156135,-592.7026699044357,-747.4089832399127
242926,18378,242926.0,39642.0,242926.0,36627.0,-212.29051222489255,-604.5212955189903,-763.5509161845214
242926,18380,242926.0,39608.0,242926.0,36620.0,-221.11868160449978,-616.2664856068619,-779.618932266671
242937,18396,242937.0,39646.0,242937.0,36630.0,-229.93929678656053,-627.9421046140809,-795.6177665246821
242937,18366,242937.0,39639.0,242937.0,36635.0,-238.753103551579,-639.5512005738428,-811.5518006381274
242937,18344,242937.0,39563.0,242937.0,36599.0,-247.56025638991787,-651.0956070147212,-827.4245425172282
242937,18333,242937.0,39524.0,242937.0,36539.0,-256.3604720578521,-662.576117939743,-843.2384199295484
242937,18319,242937.0,39523.0,242937.0,36504.0,-265.1533473797467,-673.993345097013,-858.9952239928089
242937,18315,242937.0,39476.0,242937.0,36492.0,-273.9385761976333,-685.3485633748711,-874.6969393705574
242947,18279,242947.0,39451.0,242947.0,36476.0,-282.7160816700582,-696.6442650200554,-890.346372205782
242947,18291,242947.0,39466.0,242947.0,36462.0,-291.48619142371797,-707.8846330965254,-905.9473753753211
242947,18286,242947.0,39487.0,242947.0,36477.0,-300.24977258825606,-719.0757094683706,-921.5048126337542
242947,18305,242947.0,39513.0,242947.0,36453.0,-309.0081121913796,-730.2249354026122,-937.024330332624
242947,18293,242947.0,39499.0,242947.0,36478.0,-317.7625489617634,-741.3402932848292,-952.5119871573727
242947,18282,242947.0,39513.0,242947.0,36452.0,-326.5141033982949,-752.4295268173915,-967.9738267047594
242957,18273,242957.0,39570.0,242957.0,36461.0,-335.26331248848703,-763.4994819547417,-983.415455450039
242957,18265,242957.0,39479.0,242957.0,36440.0,-344.0102366689267,-774.5553740628568,-998.8417007956834
242957,18242,242957.0,39481.0,242957.0,36388.0,-352.75451961416366,-785.6003979785921,-1014.2564643806836
242957,18225,242957.0,39395.0,242957.0,36342.0,-361.4955271616793,-796.6361563790811,-1029.6629991782672
242957,18201,242957.0,39339.0,242957.0,36346.0,-370.232622048303,-807.6637221964758,-1045.0645859707201
242957,18186,242957.0,39332.0,242957.0,36307.0,-378.9655238839805,-818.684974792068,-1060.4651314943058
242968,18179,242968.0,39355.0,242968.0,36291.0,-387.69464712377896,-829.7036391516297,-1075.8694756532295
242968,18188,242968.0,39376.0,242968.0,36307.0,-396.4212774085378,-840.7254269868479,-1091.283553381118
242968,18189,242968.0,39385.0,242968.0,36309.0,-405.14747900399277,-851.7573969970197,-1106.714293619305
242968,18190,242968.0,39391.0,242968.0,36298.0,-413.8757899641314,-862.807100755703,-1122.1691702292553
242968,18187,242968.0,39367.0,242968.0,36291.0,-422.6088769741044,-873.8819147031888,-1137.6557142518136
242968,18193,242968.0,39433.0,242968.0,36294.0,-431.34923681743373,-884.9885701554151,-1153.1811795342858
242978,18189,242978.0,39417.0,242978.0,36296.0,-440.0989099853979,-896.1325330234715,-1168.7522137597111
242978,18161,242978.0,39326.0,242978.0,36267.0,-448.8592468286573,-907.3173544599429,-1184.3744719170713
242978,18139,242978.0,39289.0,242978.0,36210.0,-457.63091237173535,-918.5448462706918,-1200.0524593724083
242978,18115,242978.0,39266.0,242978.0,36176.0,-466.41420057830885,-929.8161821613683,-1215.789918037234
242978,18102,242978.0,39242.0,242978.0,36160.0,-475.2094840044382,-941.133003959158,-1231.5905814466148
242978,18075,242978.0,39242.0,242978.0,36118.0,-484.01762681026,-952.4980308776023,-1247.4588453067927
242988,18101,242988.0,39220.0,242988.0,36146.0,-492.840274094223,-963.915307351213,-1263.4001570843561
242988,18104,242988.0,39248.0,242988.0,36142.0,-501.679843480851,-975.3902148195016,-1279.4210253294127
242988,18100,242988.0,39263.0,242988.0,36139.0,-510.5391642710092,-986.9291785252492,-1295.528608084975
242988,18097,242988.0,39260.0,242988.0,36139.0,-519.4210494263475,-998.5390367797711,-1311.7301594521643
242988,18089,242988.0,39263.0,242988.0,36118.0,-528.3280330312307,-1010.2263396282567,-1328.032597172385
242988,18092,242988.0,39273.0,242988.0,36127.0,-537.2622164835327,-1021.9968053849391,-1344.4421970721783
242999,18076,242999.0,39273.0,242999.0,36079.0,-546.2251302464413,-1033.8548376989704,-1360.9643858223158
242999,18056,242999.0,39214.0,242999.0,36065.0,-555.2176616898847,-1045.803143449082,-1377.6037228803102
242999,18031,242999.0,39153.0,242999.0,36024.0,-564.2401764684699,-1057.8428823811284,-1394.3641503676404
242999,18010,242999.0,39128.0,242999.0,35994.0,-573.2928516204965,-1069.9745406516192,-1411.249423713016
242999,18009,242999.0,39097.0,242999.0,36001.0,-582.3760665710766,-1082.199044561992,-1428.263542819628
242999,17985,242999.0,39067.0,242999.0,35966.0,-591.4906779908231,-1094.51861662013,-1445.4109812594982
243008,17996,243008.0,39102.0,243008.0,35994.0,-600.6381440920737,-1106.9372747252203,-1462.6966405106548
243008,18003,243008.0,39133.0,243008.0,35961.0,-609.820482145111,-1119.4607740504412,-1480.1256019479335
243008,17997,243008.0,39129.0,243008.0,35957.0,-619.0400045296105,-1132.095864002328,-1497.702809999362
243008,17990,243008.0,39128.0,243008.0,35950.0,-628.2989728974728,-1144.8493397013833,-1515.4328380880588
243008,17993,243008.0,39182.0,243008.0,35952.0,-637.5993585838715,-1157.7272803800029,-1533.3196704229458
243008,17995,243008.0,39196.0,243008.0,35948.0,-646.9426484877423,-1170.7341749834402,-1551.36634367024
243018,17977,243018.0,39118.0,243018.0,35909.0,-656.3296113670702,-1183.8719327678994,-1569.574559687785
243018,17934,243018.0,39044.0,243018.0,35877.0,-665.7602086631907,-1197.139661102463,-1587.944568739715
243018,17918,243018.0,39002.0,243018.0,35824.0,-675.2338825581571,-1210.5346718214664,-1606.4754890833956
243018,17908,243018.0,38990.0,243018.0,35815.0,-684.7500796040051,-1224.053941062695,-1625.165913162667
243018,17901,243018.0,38927.0,243018.0,35792.0,-694.3086335261596,-1237.6951909133334,-1644.0144503267663
243018,17898,243018.0,38963.0,243018.0,35784.0,-703.9098736497986,-1251.4575484233305,-1663.0199693395327
243029,17891,243029.0,38992.0,243029.0,35792.0,-713.5545682341645,-1265.3417253862356,-1682.1815386976143
243029,17887,243029.0,39010.0,243029.0,35786.0,-723.2438079390876,-1279.3494234527977,-1701.4981032463786
243029,17885,243029.0,38998.0,243029.0,35772.0,-732.9788698760678,-1293.482272167221,-1720.9679983153694
243029,17882,243029.0,38992.0,243029.0,35764.0,-742.761054117397,-1307.7409839003938,-1740.588521999616
243029,17910,243029.0,39061.0,243029.0,35779.0,-752.5914238199204,-1322.1247721866143,-1760.355585885604
243029,17882,243029.0,39010.0,243029.0,35711.0,-762.4703963105645,-1336.6305943068198,-1780.2633633675289
243039,17851,243039.0,38961.0,243039.0,35702.0,-772.3974198565882,-1351.2524589769635,-1800.3041744895622
243039,17824,243039.0,38878.0,243039.0,35673.0,-782.3710963325569,-1365.9816208751356,-1820.4687390459173
243039,17816,243039.0,38879.0,243039.0,35615.0,-792.3896587346376,-1380.8076723166994,-1840.7465553392694
243039,17808,243039.0,38827.0,243039.0,35615.0,-802.451382650267,-1395.7196985775086,-1861.1263259678806
243039,17781,243039.0,38811.0,243039.0,35595.0,-812.5547779336065,-1410.7070378026858,-1881.596345979304
243039,17784,243039.0,38867.0,243039.0,35620.0,-822.6987103944039,-1425.7596336997299,-1902.1445299578245
243049,17797,243049.0,38876.0,243049.0,35604.0,-832.882451523926,-1440.8677202978831,-1922.757987357589
243049,17785,243049.0,38851.0,243049.0,35580.0,-843.1054863037025,-1456.0208957675134,-1943.42244194042
243049,17785,243049.0,38852.0,243049.0,35586.0,-853.3671722150311,-1471.2073323774944,-1964.12182763218
243049,17798,243049.0,38911.0,243049.0,35589.0,-863.6664356529814,-1486.413305072676,-1984.837984365707
243049,17788,243049.0,38898.0,243049.0,35587.0,-874.0014450603952,-1501.6224501642248,-2005.550171116611
243049,17770,243049.0,38828.0,243049.0,35538.0,-884.3692810596644,-1516.8148760108782,-2026.2345242208694
243060,17737,243060.0,38797.0,243060.0,35490.0,-894.7658505394959,-1531.9670085694859,-2046.863919010851
243060,17700,243060.0,38739.0,243060.0,35455.0,-905.1861864525549,-1547.052334356919,-2067.408415653891
243060,17717,243060.0,38737.0,243060.0,35449.0,-915.6249634611179,-1562.0423838705387,-2087.8359217498096
243060,17683,243060.0,38679.0,243060.0,35440.0,-926.0768653173322,-1576.907505022998,-2108.1125586244652
243060,17683,243060.0,38722.0,243060.0,35420.0,-936.5367029599144,-1591.6173485755799,-2128.202619024577
243060,17683,243060.0,38741.0,243060.0,35418.0,-946.9994474179599,-1606.140870222095,-2148.0683581309704
243070,17684,243070.0,38725.0,243070.0,35421.0,-957.4601513817065,-1620.4457167404312,-2167.669734399933
243070,17679,243070.0,38738.0,243070.0,35403.0,-967.9137029411291,-1634.4974302987075,-2186.9640366993353
243070,17687,243070.0,38745.0,243070.0,35373.0,-978.3545209367725,-1648.258852431091,-2205.90553058142
243070,17696,243070.0,38757.0,243070.0,35403.0,-988.7762082833235,-1661.6895547692275,-2224.445268762658
243070,17683,243070.0,38722.0,243070.0,35367.0,-999.171131073239,-1674.7452431003485,-2242.530866946364
243070,17644,243070.0,38672.0,243070.0,35319.0,-1009.5301240212501,-1687.3775124779734,-2260.1062627646097
243081,17623,243081.0,38615.0,243081.0,35310.0,-1019.8426037965918,-1699.5342927806284,-2277.111848088875
243081,17616,243081.0,38590.0,243081.0,35269.0,-1030.0970014951379,-1711.160852712497,-2293.484925928155
243081,17603,243081.0,38553.0,243081.0,35243.0,-1040.2811321071877,-1722.2008863203177,-2309.1601720665176
243081,17567,243081.0,38544.0,243081.0,35238.0,-1050.3823981408027,-1732.5973559393747,-2324.070050844256
243081,17583,243081.0,38579.0,243081.0,35239.0,-1060.387999806615,-1742.2929395748124,-2338.1450698142967
243081,17585,243081.0,38596.0,243081.0,35240.0,-1070.28505503078,-1751.229872067176,-2351.313699392032
243091,17586,243091.0,38585.0,243091.0,35213.0,-1080.0604050774875,-1759.34927498928,-2363.5021034304577
243091,17577,243091.0,38576.0,243091.0,35220.0,-1089.7002478601717,-1766.5905397429542,-2374.633966357159
243091,17603,243091.0,38639.0,243091.0,35213.0,-1099.1898057911553,-1772.8909721877812,-2384.630433430081
243091,17590,243091.0,38616.0,243091.0,35195.0,-1108.512951720823,-1778.1852960272959,-2393.410035040482
243091,17553,243091.0,38555.0,243091.0,35193.0,-1117.6518622565704,-1782.4051262680628,-2400.88865630235
243091,17543,243091.0,38514.0,243091.0,35133.0,-1126.5870268288036,-1785.4792000685338,-2406.979712412508
243101,17523,243101.0,38453.0,243101.0,35114.0,-1135.2976009383442,-1787.33453312924,-2411.5946761820787
243101,17507,243101.0,38451.0,243101.0,35091.0,-1143.761784465617,-1787.897894775821,-2414.6439241044577
243101,17496,243101.0,38407.0,243101.0,35081.0,-1151.9571164299168,-1787.0970880272528,-2416.03757596937
243101,17496,243101.0,38429.0,243101.0,35071.0,-1159.8606929703492,-1784.8618831953863,-2415.6861143716915
243101,17500,243101.0,38444.0,243101.0,35077.0,-1167.449224276036,-1781.1245486483642,-2413.500817367222
243101,17491,243101.0,38485.0,243101.0,35072.0,-1174.6989129921683,-1775.8198514831129,-2409.394043590043
243112,17481,243112.0,38469.0,243112.0,35063.0,-1181.585302587575,-1768.8846476719982,-2403.2794536439246
243112,17491,243112.0,38478.0,243112.0,35074.0,-1188.083207759741,-1760.257541393259,-2395.0722899964376
243112,17519,243112.0,38550.0,243112.0,35078.0,-1194.166567796677,-1749.8787633223717,-2384.689679712653
243112,17479,243112.0,38480.0,243112.0,35043.0,-1199.8080962193894,-1737.6899865526545,-2372.0509526451306
243112,17450,243112.0,38451.0,243112.0,35032.0,-1204.9790938436513,-1723.634413967221,-2357.078228693421
243112,17432,243112.0,38424.0,243112.0,35009.0,-1209.649804579182,-1707.6577521281365,-2339.697398153413
243122,17426,243122.0,38401.0,243122.0,34987.0,-1213.7900538307665,-1689.7097456625092,-2319.8393114770997
243122,17411,243122.0,38385.0,243122.0,34959.0,-1217.369739404532,-1669.7456586692633,-2297.4410816570535
243122,17389,243122.0,38382.0,243122.0,34972.0,-1220.3591698161629,-1647.7275893949698,-2272.447469069476
243122,17405,243122.0,38435.0,243122.0,35006.0,-1222.729390604421,-1623.6255103220599,-2244.812063419034
243122,17423,243122.0,38491.0,243122.0,35073.0,-1224.4523518744236,-1597.4176928702084,-2214.497861832666
243122,17428,243122.0,38485.0,243122.0,35082.0,-1225.5007196811034,-1569.0905014824218,-2181.477208164283
243132,17419,243132.0,38525.0,243132.0,35124.0,-1225.847524414492,-1538.6381487200015,-2145.73156825054
243132,17429,243132.0,38616.0,243132.0,35141.0,-1225.4659708685922,-1506.0626586996132,-2107.251571036514
243132,17443,243132.0,38654.0,243132.0,35179.0,-1224.3293805129292,-1471.3735311062524,-2066.0372999757183
243132,17414,243132.0,38624.0,243132.0,35189.0,-1222.4111211270767,-1434.5871745238626,-2022.0987135751113
243132,17397,243132.0,38587.0,243132.0,35207.0,-1219.6847108420563,-1395.7271105136087,-1975.4562456626295
243132,17385,243132.0,38605.0,243132.0,35217.0,-1216.1242917230375,-1354.8253425227729,-1926.1416659870283
243143,17380,243143.0,38662.0,243143.0,35286.0,-1211.7052693471492,-1311.9240105487506,-1874.1990608332176
243143,17382,243143.0,38696.0,243143.0,35343.0,-1206.4048379067522,-1267.0763692310693,-1819.6855359562637
243143,17401,243143.0,38782.0,243143.0,35435.0,-1200.2022924624275,-1220.3470070383796,-1762.6713631418008
243143,17418,243143.0,38861.0,243143.0,35530.0,-1193.079084555673,-1171.8115739698815,-1703.2396049615745
243143,17414,243143.0,38955.0,243143.0,35622.0,-1185.0186886308327,-1121.5560723431456,-1641.485355083957
243143,17445,243143.0,39036.0,243143.0,35702.0,-1176.0064700949688,-1069.675821552603,-1577.5148100156155
243153,17448,243153.0,39146.0,243153.0,35798.0,-1166.0295940010265,-1016.2742943720694,-1511.4444221663712
243153,17458,243153.0,39248.0,243153.0,35944.0,-1155.076926258408,-961.4618379183775,-1443.400057952339
243153,17468,243153.0,39316.0,243153.0,36015.0,-1143.1390087339753,-905.3543002253771,-1373.5158799262135
243153,17463,243153.0,39354.0,243153.0,36124.0,-1130.2081672892741,-848.0719271863779,-1301.9331107662736
243153,17450,243153.0,39414.0,243153.0,36177.0,-1116.2787894827427,-789.7389187246533,-1228.799136197586
243153,17477,243153.0,39477.0,243153.0,36302.0,-1101.3477863441944,-730.4834945937247,-1154.267015133262
243163,17481,243163.0,39542.0,243163.0,36417.0,-1085.4150279281032,-670.4380104460641,-1078.4950016894584
243163,17508,243163.0,39642.0,243163.0,36490.0,-1068.4835604841576,-609.7388630006017,-1001.645780681647
243163,17529,243163.0,39790.0,243163.0,36653.0,-1050.559653811939,-548.5259472937289,-923.8855531421985
243163,17572,243163.0,39901.0,243163.0,36795.0,-1031.652711076747,-486.9413742344044,-845.3829160063973
243163,17592,243163.0,40015.0,243163.0,36897.0,-1011.7750125503633,-425.1276281057169,-766.3072897753486
243163,17618,243163.0,40127.0,243163.0,37034.0,-990.9414002297656,-363.2257058356138,-686.8272347679202
243174,17657,243174.0,40265.0,243174.0,37169.0,-969.1690324553473,-301.3733933199362,-607.1089803592446
243174,17691,243174.0,40343.0,243174.0,37273.0,-946.4771432904515,-239.70353057166233,-527.3149877255154
243174,17707,243174.0,40368.0,243174.0,37334.0,-922.8867494438331,-178.3425627890325,-447.6026803639347
243174,17709,243174.0,40398.0,243174.0,37413.0,-898.4205044604909,-117.41002671501315,-368.12381068671334
243174,17723,243174.0,40447.0,243174.0,37524.0,-873.1029038935263,-57.01902486011977,-289.0243908121338
243174,17755,243174.0,40513.0,243174.0,37593.0,-846.9607112000107,2.723012449375119,-210.44463420894044
243184,17779,243184.0,40563.0,243184.0,37685.0,-820.023285836082,61.713851562569516,-132.51873144451156
243184,17809,243184.0,40643.0,243184.0,37773.0,-792.3227033960827,119.85630240567502,-55.37464572084377
243184,17875,243184.0,40747.0,243184.0,37891.0,-763.8937073138393,177.058362780999,20.866144957090228
243184,17899,243184.0,40829.0,243184.0,37976.0,-734.7734344211394,233.2338089204586,96.08915942681506
243184,17951,243184.0,40884.0,243184.0,38069.0,-705.00097799793,288.3030855145728,170.1875815753233
243184,17983,243184.0,40958.0,243184.0,38116.0,-674.616993533106,342.1940365959016,243.062767042637
243194,18055,243194.0,41050.0,243194.0,38242.0,-643.6633337905984,394.8424049698872,314.624464386681
243194,18082,243194.0,41075.0,243194.0,38289.0,-612.1825722312224,446.1923473950193,384.79099472847656
243194,18108,243194.0,41051.0,243194.0,38341.0,-580.2175308139468,496.19666605881775,453.4894474448133
243194,18119,243194.0,41077.0,243194.0,38381.0,-547.8111264998204,544.8161571195376,520.6555242197926
243194,18158,243194.0,41081.0,243194.0,38406.0,-515.0065937581608,592.0182620152332,586.2328840723144
243194,18205,243194.0,41075.0,243194.0,38442.0,-481.8477599092313,637.7756400665799,650.1721735929214
243205,18220,243205.0,41142.0,243205.0,38507.0,-448.37911690865644,682.0648921347058,712.4299870820907
243205,18266,243205.0,41208.0,243205.0,38585.0,-414.6458075480372,724.8657215877845,772.968128550016
243205,18330,243205.0,41274.0,243205.0,38661.0,-380.6936015282722,766.1608955960412,831.7534400843717
243205,18369,243205.0,41341.0,243205.0,38727.0,-346.56865149898033,805.9368151666527,888.7580642684707
243205,18415,243205.0,41387.0,243205.0,38775.0,-312.31703972435906,844.1842391394482,943.9597855551458
243205,18467,243205.0,41453.0,243205.0,38824.0,-277.9843567289218,880.8989379463728,997.3421742526539
243215,18516,243215.0,41532.0,243215.0,38893.0,-243.61532257612538,916.0823381399796,1048.8945338471235
243215,18532,243215.0,41465.0,243215.0,38906.0,-209.25342299782073,949.7421011587458,1098.6118019555597
243215,18552,243215.0,41431.0,243215.0,38915.0,-174.94077951205816,981.8919138171561,1146.4942636056057
243215,18584,243215.0,41435.0,243215.0,38945.0,-140.7183755652652,1012.5500450661464,1192.5468179834916
243215,18612,243215.0,41451.0,243215.0,38971.0,-106.6264167437788,1041.7375286832755,1236.7780050779702
243215,18649,243215.0,41448.0,243215.0,39008.0,-72.70459099180653,1069.4768860494335,1279.1991907538354
243225,18695,243225.0,41504.0,243225.0,39066.0,-38.99217693345042,1095.7913822856544,1319.8240557053186
243225,18750,243225.0,41545.0,243225.0,39101.0,-5.527954486336853,1120.704719923893,1358.668410197407
243225,18784,243225.0,41576.0,243225.0,39142.0,27.650095649602235,1144.2412240080923,1395.7502289292702
243225,18827,243225.0,41632.0,243225.0,39187.0,60.50514905792045,1166.4262993002783,1431.089713262451
243225,18873,243225.0,41635.0,243225.0,39227.0,93.00181888957013,1187.2869038146814,1464.7093620241167
243225,18918,243225.0,41709.0,243225.0,39271.0,125.10642731521193,1206.8519730958985,1496.6341170189912
243236,18949,243236.0,41704.0,243236.0,39305.0,156.78731888390348,1225.1528409114053,1526.89156026498
243236,18956,243236.0,41674.0,243236.0,39291.0,188.01505498133122,1242.22349554645,1555.5120042994713
243236,18983,243236.0,41641.0,243236.0,39296.0,218.76229613778537,1258.1001769039765,1582.528187302073
243236,19004,243236.0,41635.0,243236.0,39306.0,249.00344195089872,1272.8202445138872,1607.9745295660928
243236,19046,243236.0,41622.0,243236.0,39312.0,278.7143006945022,1286.4208900328551,1631.8862963301494
243236,19059,243236.0,41592.0,243236.0,39342.0,307.8719270634434,1298.9380492220319,1654.2989451462263
243246,19093,243246.0,41688.0,243246.0,39359.0,336.45453170664337,1310.4055951921748,1675.2477214175137
243246,19130,243246.0,41702.0,243246.0,39401.0,364.44139044333645,1320.8552124632013,1694.7675171601581
243246,19173,243246.0,41739.0,243246.0,39441.0,391.81287124819073,1330.3170660986918,1712.893003998196
243246,19203,243246.0,41781.0,243246.0,39455.0,418.55065050937435,1338.8206901509827,1729.6589906966165
243246,19265,243246.0,41818.0,243246.0,39496.0,444.638048366039,1346.3958090876406,1745.1008219767646
243246,19276,243246.0,41841.0,243246.0,39510.0,470.060437171717,1353.0732025375876,1759.254704158684
243256,19283,243256.0,41805.0,243256.0,39497.0,494.8055455350466,1358.885393824008,1772.1579139886699
243256,19295,243256.0,41730.0,243256.0,39478.0,518.8633750918536,1363.8666108333182,1783.848656755949
243256,19308,243256.0,41712.0,243256.0,39479.0,542.2257850510944,1368.0517348526844,1794.3654652428627
243256,19335,243256.0,41691.0,243256.0,39493.0,564.8860605464777,1371.4747523332016,1803.7464802924492
243256,19349,243256.0,41688.0,243256.0,39474.0,586.8386350592496,1374.1675017695138,1812.0289476975204
243256,19359,243256.0,41741.0,243256.0,39487.0,608.0789104739952,1376.1590505541694,1819.2488573361557
243267,19388,243267.0,41747.0,243267.0,39533.0,628.6030636505727,1377.4757635242277,1825.440688955488
243267,19446,243267.0,41787.0,243267.0,39551.0,648.4079631137877,1378.1419023886303,1830.6375508136857
243267,19460,243267.0,41799.0,243267.0,39555.0,667.4914266916501,1378.1803848387297,1834.8716898290631
243267,19488,243267.0,41845.0,243267.0,39575.0,685.8526724727003,1377.6135527933957,1838.1749451596065
243267,19513,243267.0,41819.0,243267.0,39620.0,703.4926393567521,1376.4639308141072,1840.5790834549834
243267,19531,243267.0,41861.0,243267.0,39578.0,720.4141650804856,1374.7548140849296,1842.1162150959535
243277,19517,243277.0,41791.0,243277.0,39554.0,736.6220540672505,1372.5105435625749,1842.8189767163913
243277,19523,243277.0,41747.0,243277.0,39545.0,752.1228690679534,1369.7562570754812,1842.720096489768
243277,19522,243277.0,41720.0,243277.0,39529.0,766.9244423967045,1366.5169476236717,1841.851658856061
243277,19536,243277.0,41704.0,243277.0,39511.0,781.0353534518752,1362.8162449662366,1840.2444865522912
243277,19529,243277.0,41676.0,243277.0,39510.0,794.4645200110567,1358.6754681335872,1837.9276389218194
243277,19568,243277.0,41716.0,243277.0,39515.0,807.2209010082388,1354.1130573972675,1834.9280336114648
243288,19578,243288.0,41775.0,243288.0,39543.0,819.3133874132991,1349.1445873893642,1831.270362740402
243288,19606,243288.0,41766.0,243288.0,39564.0,830.7509355686618,1343.783561123457,1826.977409930747
243288,19619,243288.0,41776.0,243288.0,39564.0,841.542815202874,1338.0424622871767,1822.0706520479916
243288,19648,243288.0,41828.0,243288.0,39569.0,851.6988665976482,1331.933525025728,1816.5708352808279
243288,19664,243288.0,41830.0,243288.0,39566.0,861.2297868441733,1325.4694737651193,1810.4983305837704
243288,19638,243288.0,41763.0,243288.0,39542.0,870.147355825515,1318.6642569538278,1803.8732779271363
243298,19634,243298.0,41734.0,243298.0,39517.0,878.4643283780697,1311.5330821947998,1796.7154782218108
243298,19641,243298.0,41683.0,243298.0,39493.0,886.1939639235543,1304.0915681607328,1789.0439877503336
243298,19641,243298.0,41653.0,243298.0,39491.0,893.3495513644855,1296.3545733821238,1780.8765844639631
243298,19640,243298.0,41609.0,243298.0,39459.0,899.9441210761729,1288.3350778320914,1772.2293301717448
243298,19656,243298.0,41627.0,243298.0,39485.0,905.9902504820684,1280.0432402929648,1763.1162968617973
243298,19662,243298.0,41703.0,243298.0,39511.0,911.4999587490506,1271.4860398897476,1753.5495942542134
243308,19682,243308.0,41713.0,243308.0,39500.0,916.4847509109086,1262.6679446601527,1743.5398438388754
243308,19685,243308.0,41710.0,243308.0,39509.0,920.9557725824518,1253.5922062330797,1733.096817706574
243308,19692,243308.0,41738.0,243308.0,39502.0,924.9239757303601,1244.261914306652,1722.229889697349
243308,19729,243308.0,41763.0,243308.0,39526.0,928.400280973892,1234.6807298571455,1710.9483774696703
243308,19732,243308.0,41690.0,243308.0,39490.0,931.395869625135,1224.8535418365689,1699.261920890364
243308,19715,243308.0,41666.0,243308.0,39467.0,933.9225383307307,1214.7866263010533,1687.1807021645125
243319,19693,243319.0,41611.0,243319.0,39446.0,935.9927354935342,1204.4869961605125,1674.7152787134778
243319,19714,243319.0,41608.0,243319.0,39411.0,937.61920219331,1193.9614088337032,1661.8761519224452
243319,19688,243319.0,41543.0,243319.0,39386.0,938.814589572939,1183.215499074675,1648.673263676338
243319,19677,243319.0,41583.0,243319.0,39378.0,939.5911818031354,1172.2531096204402,1635.1154932079457
243319,19700,243319.0,41596.0,243319.0,39393.0,939.9605906582931,1161.0760299547483,1621.210362387789
243319,19706,243319.0,41616.0,243319.0,39403.0,939.9335933276946,1149.6844162689122,1606.9641879721103
243329,19711,243329.0,41616.0,243329.0,39416.0,939.5202830819287,1138.0776314984657,1592.382648185418
243329,19730,243329.0,41615.0,243329.0,39408.0,938.7303523356218,1126.2550075870095,1577.471502368058
243329,19752,243329.0,41685.0,243329.0,39427.0,937.5734268290735,1114.21650974974,1562.2372489824195
243329,19757,243329.0,41692.0,243329.0,39418.0,936.0595295359485,1101.963695346728,1546.6877157112906
243329,19734,243329.0,41635.0,243329.0,39392.0,934.1995100598349,1089.5008540254703,1530.832563216288
243329,19727,243329.0,41567.0,243329.0,39345.0,932.0051376583424,1076.8354224452519,1514.6834554048644
243339,19679,243339.0,41501.0,243339.0,39292.0,929.4887806430652,1063.977177631544,1498.2536793550598
243339,19691,243339.0,41496.0,243339.0,39287.0,926.6628195116862,1050.936797630983,1481.557374400631
243339,19656,243339.0,41438.0,243339.0,39258.0,923.5390362673961,1037.7246209164946,1464.6088333879434
243339,19693,243339.0,41502.0,243339.0,39260.0,920.1282082149032,1024.349964436752,1447.4221731437044
243339,19704,243339.0,41492.0,243339.0,39264.0,916.4400738270763,1010.8211396222868,1430.0113534601167
243339,19705,243339.0,41547.0,243339.0,39256.0,912.4836925962961,997.1461822367052,1412.3904753351383
243350,19702,243350.0,41509.0,243350.0,39245.0,908.2678970191345,983.3339072413089,1394.5742102816037
243350,19703,243350.0,41509.0,243350.0,39237.0,903.8015429781719,969.3947298544159,1376.57815180108
243350,19732,243350.0,41539.0,243350.0,39266.0,899.0936756073557,955.3411068002004,1358.419143182455
243350,19716,243350.0,41520.0,243350.0,39229.0,894.1538349838778,941.1879657172598,1340.1157652727918
243350,19683,243350.0,41427.0,243350.0,39189.0,888.9923354065241,926.9530757715113,1321.6887570130436
243350,19668,243350.0,41373.0,243350.0,39120.0,883.6201395159419,912.6566264038946,1303.16086220487
243360,19657,243360.0,41337.0,243360.0,39096.0,878.0483795424116,898.3199266251744,1284.5560411289803
243360,19670,243360.0,41330.0,243360.0,39084.0,872.2879563841304,883.9640863230251,1265.8985643597703
243360,19633,243360.0,41265.0,243360.0,39045.0,866.3493982963664,869.6092010282459,1247.212457514613
243360,19641,243360.0,41294.0,243360.0,39048.0,860.2427724245168,855.2738350758272,1228.521265805672
243360,19663,243360.0,41337.0,243360.0,39055.0,853.9775901550217,840.974861205931,1209.8480283404042
243360,19659,243360.0,41337.0,243360.0,39030.0,847.5629690425255,826.7280566995815,1191.2155362858955
243370,19643,243370.0,41299.0,243370.0,39017.0,841.0079983872843,812.5490871788465,1172.6466899899938
243370,19656,243370.0,41383.0,243370.0,39005.0,834.321960085743,798.4542097226587,1154.1646831393327
243370,19670,243370.0,41327.0,243370.0,39016.0,827.5144631448194,784.4608971497204,1135.7931346318178
243370,19642,243370.0,41282.0,243370.0,38968.0,820.5957080942655,770.588435548192,1117.5563293067278
243370,19618,243370.0,41225.0,243370.0,38920.0,813.5766462330874,756.857794274906,1099.47928951622
243370,19589,243370.0,41190.0,243370.0,38868.0,806.468721727614,743.290686853602,1081.5873064128928
243381,19587,243381.0,41161.0,243381.0,38874.0,799.2833419182272,729.9084777876992,1063.905120378487
243381,19568,243381.0,41106.0,243381.0,38821.0,792.0314215268327,716.731272560501,1046.456277974633
243381,19558,243381.0,41106.0,243381.0,38832.0,784.7231056363714,703.7771294341314,1029.2628062833683
243381,19566,243381.0,41171.0,243381.0,38807.0,777.3676063355197,691.0616190634,1012.3450703159436
243381,19583,243381.0,41151.0,243381.0,38813.0,769.9732316279368,678.5982008456232,995.7218107543702
243381,19570,243381.0,41164.0,243381.0,38815.0,762.5476852322066,666.3991524142434,979.4103775551373
243391,19560,243391.0,41141.0,243391.0,38807.0,755.098404273364,654.4762909124044,963.4271163059308
243391,19581,243391.0,41215.0,243391.0,38813.0,747.6327302175256,642.8414350439926,947.7878217711882
243391,19586,243391.0,41173.0,243391.0,38808.0,740.1581111294956,631.5070668922356,932.5081811886234
243391,19564,243391.0,41127.0,243391.0,38747.0,732.6824604823611,620.486990741329,917.6040853749905
243391,19530,243391.0,41058.0,243391.0,38703.0,725.2143363378245,609.7962073362423,903.091469169035
243391,19513,243391.0,41034.0,243391.0,38688.0,717.7626633910361,599.4498918312239,888.9855957032773
243401,19505,243401.0,40994.0,243401.0,38661.0,710.3362141440233,589.462146826734,875.3002696881008
243401,19484,243401.0,40930.0,243401.0,38632.0,702.943190933197,579.8449185737259,862.0473131368797
243401,19479,243401.0,40970.0,243401.0,38668.0,695.5909571028465,570.6070415026105,849.2362666661155
243401,19502,243401.0,41015.0,243401.0,38656.0,688.2859028976251,561.7537931844322,836.8744434846695
243401,19496,243401.0,41033.0,243401.0,38664.0,681.0335854735267,553.2874592995046,824.9673701645125
243401,19480,243401.0,41014.0,243401.0,38665.0,673.8390557990795,545.2084470279879,813.5193002737739
243412,19496,243412.0,41088.0,243412.0,38656.0,666.7070747772002,537.5161979994302,802.5336225978524
243412,19511,243412.0,41108.0,243412.0,38682.0,659.6422852030357,530.2100748107537,792.0132245142267
243412,19482,243412.0,41018.0,243412.0,38634.0,652.649533676322,523.2903506324843,781.9608367123199
243412,19459,243412.0,40973.0,243412.0,38608.0,645.7340731602699,516.7584094536935,772.3791385742495
243412,19453,243412.0,40938.0,243412.0,38570.0,638.9013687793686,510.6157339985994,763.2703671150498
243412,19430,243412.0,40921.0,243412.0,38551.0,632.1567191778889,504.86254540649134,754.6355912965728
243422,19414,243422.0,40904.0,243422.0,38522.0,625.5049178993282,499.4968393710503,746.473987587995
243422,19421,243422.0,40906.0,243422.0,38558.0,618.9499586679832,494.51383898310553,738.7823292373618
243422,19432,243422.0,40958.0,243422.0,38573.0,612.4949139389587,489.90585625484505,731.5549523691529
243422,19421,243422.0,40971.0,243422.0,38577.0,606.1420999166683,485.662734496021,724.7842617461868
243422,19440,243422.0,40955.0,243422.0,38579.0,599.8933700903578,481.77266536491646,718.4613797237896
243422,19417,243422.0,41010.0,243422.0,38584.0,593.750375310618,478.2228729591838,712.5765986479256
243432,19442,243432.0,41073.0,243432.0,38586.0,587.7147721288591,475.0003110229949,707.1196814972379
243432,19439,243432.0,41033.0,243432.0,38582.0,581.7884481487022,472.0927541281387,702.0801102384019
243432,19399,243432.0,40983.0,243432.0,38564.0,575.9737461181682,469.4896376710754,697.4472275806202
243432,19373,243432.0,40937.0,243432.0,38541.0,570.2733770711192,467.18177282706523,693.2101510435434
243432,19374,243432.0,40935.0,243432.0,38529.0,564.6899192340803,465.1602342912767,689.3574313516071
243432,19368,243432.0,40899.0,243432.0,38513.0,559.2253316435164,463.4152852422351,685.8765931227833
243443,19346,243443.0,40872.0,243443.0,38514.0,553.8807414315576,461.93558267724376,682.753730242789
243443,19366,243443.0,40966.0,243443.0,38543.0,548.6563448470702,460.7076432092329,679.9733141823805
243443,19369,243443.0,40968.0,243443.0,38557.0,543.5514138819042,459.71601693827137,677.5183836765848
243443,19371,243443.0,40971.0,243443.0,38555.0,538.5645258700903,458.94418399585317,675.3710393630057
243443,19371,243443.0,40989.0,243443.0,38562.0,533.6938784674763,458.37536274126427,673.5128958415478
243443,19368,243443.0,41025.0,243443.0,38595.0,528.9375139899421,457.9929812148513,671.9253905405707
243453,19388,243453.0,41093.0,243453.0,38593.0,524.293495662113,457.78135675882413,670.5901725853138
243453,19372,243453.0,41028.0,243453.0,38573.0,519.7601390453335,457.72670170409026,669.4895196448907
243453,19346,243453.0,40935.0,243453.0,38550.0,515.336179304659,457.8175550655393,668.60639883978
243453,19335,243453.0,40916.0,243453.0,38545.0,511.0206274742372,458.0438129887412,667.9240832374453
243453,19320,243453.0,40904.0,243453.0,38539.0,506.8123704035951,458.3950160369593,667.425652331765
243453,19314,243453.0,40898.0,243453.0,38510.0,502.70978155144076,458.8591038462731,667.09358954263
243463,19294,243463.0,40937.0,243463.0,38530.0,498.71042564036236,459.42193296673963,666.9094145530084
243463,19331,243463.0,40966.0,243463.0,38557.0,494.81086937129135,460.0674146032969,666.8534704530531
243463,19328,243463.0,41006.0,243463.0,38585.0,491.00676422251047,460.7781998571546,666.9051718698395
243463,19326,243463.0,40991.0,243463.0,38575.0,487.2932014421449,461.53659525433875,667.0436155516419
243463,19320,243463.0,41021.0,243463.0,38576.0,483.6650115284293,462.3252659157148,667.2480703957613
243463,19348,243463.0,41078.0,243463.0,38638.0,480.11690109459295,463.12775728371076,667.4982383067401
243474,19343,243474.0,41028.0,243474.0,38608.0,476.64367417451246,463.9291415359805,667.7746487922682
243474,19321,243474.0,40996.0,243474.0,38587.0,473.2405320648221,464.7164148216169,668.0590786653989
243474,19314,243474.0,40968.0,243474.0,38569.0,469.90313009705903,465.47805892087763,668.3344490505477
243474,19294,243474.0,40930.0,243474.0,38571.0,466.62732268743713,466.203022741386,668.5842751596311
243474,19301,243474.0,40939.0,243474.0,38542.0,463.4088335813251,466.8796967465478,668.7921388968294
243474,19288,243474.0,40926.0,243474.0,38538.0,460.24303154044674,467.4951721018624,668.9412475665833
243484,19304,243484.0,40998.0,243484.0,38598.0,457.1248541117409,468.0349933666532,669.0141176712684
243484,19298,243484.0,41018.0,243484.0,38571.0,454.0488695093689,468.4835893081433,668.9926959951698
243484,19291,243484.0,41009.0,243484.0,38591.0,451.00940189465615,468.8251758794831,668.8587910428597
243484,19313,243484.0,41039.0,243484.0,38619.0,448.0006332074761,469.0445186669886,668.59441673731
243484,19319,243484.0,41094.0,243484.0,38631.0,445.01677482035836,469.1274642368341,668.1821683570635
243484,19332,243484.0,41124.0,243484.0,38657.0,442.0524225271277,469.0617609555448,667.6058033006183
243494,19317,243494.0,41046.0,243494.0,38625.0,439.1029493399806,468.83802402052703,666.8507884325769
243494,19285,243494.0,40992.0,243494.0,38597.0,436.1646509201082,468.4498575126044,665.9044482352683
243494,19276,243494.0,40974.0,243494.0,38579.0,433.23448391564835,467.8927856931648,664.7555482877648
243494,19253,243494.0,40951.0,243494.0,38570.0,430.3095430363863,467.1628376526429,663.3935917336186
243494,19261,243494.0,40906.0,243494.0,38548.0,427.3865724316884,466.25546544023035,661.8082055185663
243494,19261,243494.0,40960.0,243494.0,38575.0,424.461693605581,465.1647695106117,659.9887260248767
243505,19270,243505.0,40970.0,243505.0,38612.0,421.5303965226308,463.8832077074872,657.9241443146487
243505,19275,243505.0,41025.0,243505.0,38587.0,418.5877211756888,462.4020591536794,655.6035226286417
243505,19273,243505.0,41002.0,243505.0,38586.0,415.6285002401768,460.7123235370864,653.0164575098036
243505,19266,243505.0,41026.0,243505.0,38586.0,412.6475435717245,458.8054813263866,650.1531750357808
243505,19302,243505.0,41089.0,243505.0,38625.0,409.63977078109457,456.6740484109919,647.004531692438
243505,19292,243505.0,41064.0,243505.0,38612.0,406.60047418423096,454.31230588615074,643.5623158240171
243515,19274,243515.0,41000.0,243515.0,38605.0,403.52566169358056,451.7169421298278,639.8196799566995
243515,19248,243515.0,40968.0,243515.0,38561.0,400.4120993398434,448.88679381517113,635.7712428468576
243515,19233,243515.0,40929.0,243515.0,38574.0,397.25693010536463,445.82173251258604,631.4127481434166
243515,19234,243515.0,40951.0,243515.0,38549.0,394.05716059170686,442.52152058222015,626.7406117282242
243515,19238,243515.0,40906.0,243515.0,38504.0,390.8093373895954,438.9851281366412,621.7515359619562
243515,19235,243515.0,40944.0,243515.0,38543.0,387.5095022946999,435.21043216593245,616.4420675086935
243526,19244,243526.0,40950.0,243526.0,38569.0,384.15330505802893,431.1941966755375,610.8083841917268
243526,19273,243526.0,40960.0,243526.0,38559.0,380.73622725045,426.9323986618675,604.8466954963287
243526,19249,243526.0,41007.0,243526.0,38558.0,377.2539578510913,422.4208170510938,598.5538622107391
243526,19256,243526.0,41042.0,243526.0,38576.0,373.70273046999336,417.655862458252,591.9277658157855
243526,19264,243526.0,41030.0,243526.0,38568.0,370.079458417537,412.63563979276444,584.9675815164318
243526,19255,243526.0,40982.0,243526.0,38555.0,366.3818336823797,407.36072776222784,577.6740723508253
243536,19228,243536.0,40946.0,243536.0,38513.0,362.60841015162055,401.83410666023013,570.0496514322231
243536,19203,243536.0,40884.0,243536.0,38487.0,358.7584121107017,396.06029715246007,562.0980200425843
243536,19204,243536.0,40883.0,243536.0,38460.0,354.8312599765619,390.044179475398,553.8234988768058
243536,19195,243536.0,40825.0,243536.0,38449.0,350.8261330400429,383.7899077765943,545.2303437380157
243536,19195,243536.0,40882.0,243536.0,38442.0,346.7417675646418,377.30015825041545,536.3222681588295
243536,19194,243536.0,40881.0,243536.0,38452.0,342.5764214636621,370.5759477175432,527.1022618577119
243546,19206,243546.0,40913.0,243546.0,38469.0,338.3279408369512,363.61711565201813,517.5727474070729
243546,19208,243546.0,40902.0,243546.0,38456.0,333.9939547288529,356.42310534588967,507.73601429882586
243546,19198,243546.0,40915.0,243546.0,38454.0,329.5721354373222,348.9936171996562,497.5946733078647
243546,19231,243546.0,40968.0,243546.0,38486.0,325.06043337815504,341.3291725936552,487.15200559856135
243546,19208,243546.0,40952.0,243546.0,38432.0,320.45734930893695,333.43187975136937,476.41232790212973
243546,19194,243546.0,40878.0,243546.0,38413.0,315.762179214143,325.3061243152014,465.38118342107566
243557,19167,243557.0,40831.0,243557.0,38401.0,310.97495262300777,316.95838721332973,454.06509320842446
243557,19164,243557.0,40780.0,243557.0,38350.0,306.0960603346807,308.39609860897065,442.47109247366564
243557,19154,243557.0,40800.0,243557.0,38348.0,301.12586701433486,299.6263291245237,430.60625397788044
243557,19138,243557.0,40727.0,243557.0,38323.0,296.06446245345876,290.6549272528264,418.4772246022638
243557,19145,243557.0,40800.0,243557.0,38329.0,290.9114968444187,281.48609059546123,406.0899408081087
243557,19152,243557.0,40809.0,243557.0,38353.0,285.6661243516221,272.1224334776099,393.44967859869155
243567,19159,243567.0,40828.0,243567.0,38326.0,280.32716629307356,262.5657268616347,380.5614438571547
243567,19145,243567.0,40823.0,243567.0,38321.0,274.8934089595728,252.81789357675143,367.43042563164084
243567,19168,243567.0,40849.0,243567.0,38345.0,269.3638559931686,242.88177714725305,354.0622835158595
243567,19194,243567.0,40876.0,243567.0,38332.0,263.7380345195599,232.76182984795457,340.46349357911816
243567,19160,243567.0,40791.0,243567.0,38302.0,258.0164866003315,222.464790710471,326.64179515073045
243567,19132,243567.0,40732.0,243567.0,38262.0,252.20108376738708,211.99973002139444,312.6063173073878
243577,19098,243577.0,40720.0,243577.0,38204.0,246.29475177941248,201.3771160608435,298.36714803321865
243577,19084,243577.0,40655.0,243577.0,38206.0,240.3007836278669,190.60757162202253,283.934552177716
243577,19079,243577.0,40639.0,243577.0,38169.0,234.2221899690596,179.70086031839082,269.318268941813
243577,19052,243577.0,40574.0,243577.0,38135.0,228.06128723050273,168.66496473623863,254.5270686766604
243577,19083,243577.0,40669.0,243577.0,38169.0,221.8194868720234,157.5053573134105,239.56845333151705
243577,19085,243577.0,40716.0,243577.0,38182.0,215.49734441519328,146.2251679432406,224.4487127561655
243588,19095,243588.0,40680.0,243588.0,38166.0,209.09493699834383,134.82644441973673,209.17352886154777
243588,19085,243588.0,40699.0,243588.0,38156.0,202.61234075235933,123.31146946335139,193.74866399292796
243588,19086,243588.0,40739.0,243588.0,38166.0,196.0499509745505,111.68349676976112,178.18035893088722
243588,19084,243588.0,40705.0,243588.0,38125.0,189.40865116175553,99.94740989505698,162.47559007692507
243588,19065,243588.0,40664.0,243588.0,38087.0,182.68991385686115,88.11030385800967,146.64215728125941
243588,19041,243588.0,40579.0,243588.0,38054.0,175.89576851763655,76.18130730083942,130.68836530777583
243598,19027,243598.0,40512.0,243598.0,38026.0,169.02854326819602,64.17044665560508,114.62242415416131
243598,19014,243598.0,40482.0,243598.0,37963.0,162.09048772555548,52.08699320297728,98.45180473675589
243598,19004,243598.0,40495.0,243598.0,38001.0,155.08345896300347,39.93804756393513,82.18262658117601
243598,19018,243598.0,40536.0,243598.0,38010.0,148.0087656543384,27.728037260663655,65.81943345411935
243598,19008,243598.0,40549.0,243598.0,38014.0,140.86722497905032,15.459244496591623,49.36568052995233
243598,19005,243598.0,40564.0,243598.0,38000.0,133.65935938952418,3.132876288032662,32.824542357928976
243608,19012,243608.0,40561.0,243608.0,37991.0,126.38558143059743,-9.24991002108652,16.19949712457469
243608,19033,243608.0,40603.0,243608.0,37997.0,119.04642932402805,-21.68717972139757,-0.505333142484119
243608,19024,243608.0,40626.0,243608.0,37998.0,111.6429868628403,-34.17532510270712,-17.28482347036288
243608,19000,243608.0,40555.0,243608.0,37938.0,104.17729736082816,-46.70810737220586,-34.13246200898493
243608,18949,243608.0,40411.0,243608.0,37864.0,96.6523729435923,-59.27650847802249,-51.040414994426214
243608,18924,243608.0,40372.0,243608.0,37868.0,89.0716432872797,-71.87016407656654,-68.0002958085015
243619,18939,243619.0,40388.0,243619.0,37836.0,81.43818774364564,-84.47951986557928,-85.00404745873459
243619,18912,243619.0,40370.0,243619.0,37800.0,73.75427488962202,-97.0971169083316,-102.0444125774552
243619,18935,243619.0,40358.0,243619.0,37799.0,66.02130654454214,-109.71776946755165,-119.11519761563738
243619,18933,243619.0,40417.0,243619.0,37799.0,58.23998404681316,-122.33830543659315,-136.2114326515491
243619,18944,243619.0,40416.0,243619.0,37806.0,50.410648170739876,-134.95694442021784,-153.32918821961607
243619,18935,243619.0,40396.0,243619.0,37792.0,42.533701586201516,-147.57235810222585,-170.46508980193255
243629,18931,243629.0,40379.0,243629.0,37793.0,34.60993777885352,-160.18302008710987,-187.6158073691323
243629,18947,243629.0,40454.0,243629.0,37805.0,26.640764267838733,-172.78691812560947,-204.77759699322655
243629,18904,243629.0,40367.0,243629.0,37743.0,18.62839496630437,-185.3810884525717,-221.94587643879868
243629,18893,243629.0,40332.0,243629.0,37720.0,10.575874021990955,-197.96125360778967,-239.11510806484625
243629,18873,243629.0,40306.0,243629.0,37693.0,2.4867974988378023,-210.52223773780742,-256.2791531119241
243629,18841,243629.0,40291.0,243629.0,37656.0,-5.6351093478685925,-223.0587810812408,-273.4317818546747
243639,18838,243639.0,40282.0,243639.0,37642.0,-13.786421702958364,-235.5660515698538,-290.56710101767953
243639,18835,243639.0,40201.0,243639.0,37611.0,-21.964362802617075,-248.03994275361958,-307.6799047247806
243639,18824,243639.0,40231.0,243639.0,37599.0,-30.16692999747164,-260.47755080283196,-324.76593500545084
243639,18850,243639.0,40260.0,243639.0,37606.0,-38.39279935779052,-272.87755953932196,-341.8219913156886
243639,18838,243639.0,40259.0,243639.0,37589.0,-46.6410453162224,-285.239918381841,-358.8457961234586
243639,18827,243639.0,40239.0,243639.0,37577.0,-54.91078063045882,-297.56506217196613,-375.83569559319324
243650,18804,243650.0,40243.0,243650.0,37552.0,-63.2009899038905,-309.8533852413849,-392.7904463913527
243650,18845,243650.0,40296.0,243650.0,37603.0,-71.51055062699908,-322.1048988883756,-409.70905022386785
243650,18819,243650.0,40230.0,243650.0,37554.0,-79.8380856025903,-334.3186574000424,-426.59034271576127
243650,18794,243650.0,40158.0,243650.0,37504.0,-88.18167310408711,-346.4924099892572,-443.4325673780387
243650,18774,243650.0,40137.0,243650.0,37477.0,-96.53885800964264,-358.6231991236948,-460.23353777446573
243650,18748,243650.0,40104.0,243650.0,37450.0,-104.90703480598427,-370.7085086675253,-476.99128271381517
243660,18732,243660.0,40082.0,243660.0,37405.0,-113.28392529038427,-382.74715850543294,-493.70466051154403
243660,18726,243660.0,40073.0,243660.0,37422.0,-121.66798510605213,-394.73983036782295,-510.373810838041
243660,18748,243660.0,40119.0,243660.0,37458.0,-130.05858942640305,-406.6892390557979,-527.0002397933426
243660,18749,243660.0,40095.0,243660.0,37390.0,-138.45584403612327,-418.59977905279993,-543.5863560729022
243660,18734,243660.0,40120.0,243660.0,37413.0,-146.86015742280898,-430.47684476650124,-560.1349701842769
243660,18737,243660.0,40100.0,243660.0,37406.0,-155.27191386710138,-442.3262249657407,-576.6491027020243
243670,18751,243670.0,40190.0,243670.0,37404.0,-163.69128597613354,-454.1535004208438,-593.1317250681159
243670,18732,243670.0,40152.0,243670.0,37373.0,-172.11797821171825,-465.9631025665434,-609.585357971134
243670,18701,243670.0,40056.0,243670.0,37366.0,-180.55101474158812,-477.7574559788368,-626.0118550583577
243670,18684,243670.0,40029.0,243670.0,37307.0,-188.98887113699828,-489.5372062719723,-642.4124710680062
243670,18658,243670.0,40001.0,243670.0,37263.0,-197.42990137963324,-501.3024098902904,-658.7882547984211
243670,18649,243670.0,40002.0,243670.0,37263.0,-205.8727971411613,-513.0535646257224,-675.1407284206578
243681,18635,243681.0,39910.0,243681.0,37232.0,-214.31693974791318,-524.7921651474397,-691.4724645422168
243681,18638,243681.0,39981.0,243681.0,37233.0,-222.76259630091317,-536.5211983803302,-707.7872999094136
243681,18637,243681.0,39975.0,243681.0,37250.0,-231.21092759094864,-548.2453722608682,-724.0902484000665
243681,18641,243681.0,39985.0,243681.0,37239.0,-239.663817920829,-559.97065077105,-740.3871152110864
243681,18655,243681.0,39990.0,243681.0,37238.0,-248.12356525246884,-571.7034735405996,-756.6839274396486
243681,18657,243681.0,40038.0,243681.0,37232.0,-256.5924518621223,-583.4500281535452,-772.9864399167489
243691,18652,243691.0,40053.0,243691.0,37245.0,-265.07227233924846,-595.2153280730714,-789.2997161096253
243691,18628,243691.0,39976.0,243691.0,37187.0,-273.56401111672926,-607.0022295661793,-805.6277353481623
243691,18597,243691.0,39925.0,243691.0,37144.0,-282.0678495913403,-618.8112030366495,-821.9733338239841
243691,18577,243691.0,39872.0,243691.0,37124.0,-290.58351899433796,-630.6411946146208,-838.3386957741905
243691,18565,243691.0,39828.0,243691.0,37099.0,-299.11080067973205,-642.4909809835295,-854.7260223918897
243691,18554,243691.0,39809.0,243691.0,37060.0,-307.6499208701289,-654.3604002296282,-871.1380120950466
243701,18554,243701.0,39819.0,243701.0,37069.0,-316.20174272521933,-666.2511754174047,-887.5782006468266
243701,18540,243701.0,39852.0,243701.0,37090.0,-324.76779822234505,-678.1670839934588,-904.0510517579464
243701,18565,243701.0,39879.0,243701.0,37069.0,-333.35019624939116,-690.1133798721985,-920.5615754508838
243701,18559,243701.0,39874.0,243701.0,37050.0,-341.9513562715431,-702.0957635533704,-937.1147755825623
243701,18540,243701.0,39857.0,243701.0,37045.0,-350.5736363157023,-714.1194627095067,-953.7153675428738
243701,18570,243701.0,39891.0,243701.0,37061.0,-359.2190555491369,-726.1886962759909,-970.3676303864438
243712,18552,243712.0,39884.0,243712.0,37022.0,-367.8890466238606,-738.3062244006458,-987.075097789781
243712,18536,243712.0,39801.0,243712.0,37002.0,-376.58416487423494,-750.4729254383886,-1003.8402819788137
243712,18476,243712.0,39780.0,243712.0,36953.0,-385.30408216788146,-762.6879705947657,-1020.6647705019616
243712,18474,243712.0,39704.0,243712.0,36907.0,-394.0480839541034,-774.9497580853218,-1037.5497220769753
243712,18487,243712.0,39722.0,243712.0,36915.0,-402.8156809632575,-787.2570462588941,-1054.4965368239054
243712,18449,243712.0,39656.0,243712.0,36876.0,-411.6068498835142,-799.609814197199,-1071.507342643062
243722,18455,243722.0,39697.0,243722.0,36884.0,-420.42203456947277,-812.0097627998331,-1088.5851438862771
243722,18459,243722.0,39703.0,243722.0,36897.0,-429.2621749143309,-824.4603895668623,-1105.7337051060852
243722,18464,243722.0,39737.0,243722.0,36868.0,-438.1285974287475,-836.9664791756275,-1122.9571778848751
243722,18447,243722.0,39722.0,243722.0,36870.0,-447.0227128598067,-849.5331939057321,-1140.2596568116182
243722,18462,243722.0,39746.0,243722.0,36883.0,-455.9457413974185,-862.1652069645745,-1157.6448344724668
243722,18469,243722.0,39775.0,243722.0,36871.0,-464.89845733395885,-874.8659473681075,-1175.115569150069
243732,18430,243732.0,39708.0,243732.0,36831.0,-473.88087826660797,-887.6368631489479,-1192.6734096429043
243732,18410,243732.0,39635.0,243732.0,36786.0,-482.8921700002876,-900.4771945543039,-1210.3185061474003
243732,18381,243732.0,39581.0,243732.0,36749.0,-491.93097357172826,-913.3848015682538,-1228.0500629814837
243732,18358,243732.0,39569.0,243732.0,36715.0,-500.9959500240386,-926.3575904378995,-1245.8670558923775
243732,18353,243732.0,39538.0,243732.0,36677.0,-510.0862879820987,-939.3946488216578,-1263.7689306465222
243732,18345,243732.0,39544.0,243732.0,36679.0,-519.202032406326,-952.4968062920503,-1281.7561594797028
243743,18356,243743.0,39566.0,243743.0,36681.0,-528.3441495519286,-965.6667133052285,-1299.8304793563295
243743,18356,243743.0,39561.0,243743.0,36667.0,-537.5143382512159,-978.9084628949295,-1317.994700716996
243743,18348,243743.0,39568.0,243743.0,36658.0,-546.7147028435866,-992.2269492879789,-1336.2523173652214
243743,18354,243743.0,39591.0,243743.0,36675.0,-555.9474475774149,-1005.6272183070307,-1354.6071339471223
243743,18363,243743.0,39621.0,243743.0,36698.0,-565.2145984934883,-1019.1137122760808,-1373.0627368799792
243743,18344,243743.0,39595.0,243743.0,36634.0,-574.5176738001286,-1032.6893323780232,-1391.6217661191724
243753,18326,243753.0,39546.0,243753.0,36592.0,-583.857444340497,-1046.3547595040309,-1410.2855502505242
243753,18299,243753.0,39491.0,243753.0,36590.0,-593.2339905260037,-1060.1085616994333,-1429.0544346934162
243753,18274,243753.0,39450.0,243753.0,36542.0,-602.6470354743568,-1073.9480375906787,-1447.9283010898507
243753,18257,243753.0,39407.0,243753.0,36521.0,-612.0964025679261,-1087.8703202569127,-1466.906913594518
243753,18258,243753.0,39378.0,243753.0,36489.0,-621.5824173257517,-1101.8733915158446,-1485.9902559855814
243753,18274,243753.0,39428.0,243753.0,36515.0,-631.1060370535224,-1115.9567436199181,-1505.1788009123088
243764,18242,243764.0,39440.0,243764.0,36516.0,-640.668667786175,-1130.1212937959147,-1524.4733652237562
243764,18258,243764.0,39427.0,243764.0,36503.0,-650.2719275303513,-1144.3685860496103,-1543.8745230348572
243764,18254,243764.0,39446.0,243764.0,36483.0,-659.9174852833469,-1158.6999217333414,-1563.3819994681273
243764,18256,243764.0,39467.0,243764.0,36491.0,-669.6068240021747,-1173.1156758514908,-1582.9943162394527
243764,18270,243764.0,39521.0,243764.0,36503.0,-679.3408809286578,-1187.6144186171268,-1602.708448282978
243764,18241,243764.0,39417.0,243764.0,36435.0,-689.119668438329,-1202.1918544048217,-1622.5193518337926
243774,18205,243774.0,39359.0,243774.0,36400.0,-698.9421020448124,-1216.8404625216288,-1642.4198092896927
243774,18178,243774.0,39313.0,243774.0,36367.0,-708.8062784076602,-1231.5503863416645,-1662.4008824317054
243774,18163,243774.0,39298.0,243774.0,36339.0,-718.7100637396745,-1246.3108141686664,-1682.4525755609795
243774,18151,243774.0,39266.0,243774.0,36301.0,-728.6516122107705,-1261.1109434807515,-1702.5643465883543
243774,18136,243774.0,39258.0,243774.0,36306.0,-738.6296606084794,-1275.9404661574122,-1722.7254663926083
243774,18149,243774.0,39283.0,243774.0,36303.0,-748.6436377615297,-1290.7897227610367,-1742.9251215505744
243784,18157,243784.0,39298.0,243784.0,36306.0,-758.6935442450605,-1305.649392640059,-1763.1521171024453
243784,18148,243784.0,39283.0,243784.0,36292.0,-768.7795841753835,-1320.5097646929537,-1783.3943335089166
243784,18146,243784.0,39288.0,243784.0,36283.0,-778.9017595663744,-1335.3600161080371,-1803.638215418757
243784,18157,243784.0,39361.0,243784.0,36296.0,-789.059570931091,-1350.1875702348416,-1823.8683493116396
243784,18149,243784.0,39306.0,243784.0,36287.0,-799.2517128305354,-1364.9771838469428,-1844.0669726127314
243784,18122,243784.0,39271.0,243784.0,36223.0,-809.4757805810071,-1379.7101042002691,-1864.2134997818835
243795,18071,243795.0,39201.0,243795.0,36209.0,-819.728289699567,-1394.364099803955,-1884.2844727241513
243795,18073,243795.0,39165.0,243795.0,36181.0,-830.0051397065635,-1408.9143634865572,-1904.253938212526
243795,18065,243795.0,39140.0,243795.0,36144.0,-840.3021520533579,-1423.3346429009443,-1924.0938422642755
243795,18049,243795.0,39095.0,243795.0,36121.0,-850.6152937489956,-1437.5981560613297,-1943.7743492139225
243795,18051,243795.0,39128.0,243795.0,36130.0,-860.940669789762,-1451.6781773961095,-1963.2641086463684
243795,18052,243795.0,39171.0,243795.0,36156.0,-871.274442371707,-1465.54806244767,-1982.5301655720916
243805,18050,243805.0,39151.0,243805.0,36110.0,-881.6126304689003,-1479.1805178078864,-2001.5374015326788
243805,18045,243805.0,39151.0,243805.0,36114.0,-891.9508222845475,-1492.5466352311948,-2020.2479711403266
243805,18067,243805.0,39212.0,243805.0,36120.0,-902.2838654674022,-1505.6151744888978,-2038.6210104199924
243805,18052,243805.0,39220.0,243805.0,36102.0,-912.6054765542694,-1518.35171545522,-2056.6123287939854
243805,18023,243805.0,39129.0,243805.0,36063.0,-922.9078811157414,-1530.7176743782734,-2074.1740657988357
243805,18008,243805.0,39087.0,243805.0,36046.0,-933.1817762279528,-1542.6701426770169,-2091.2546600230016
243815,17976,243815.0,39048.0,243815.0,35999.0,-943.4166296887571,-1554.1628429520285,-2107.7991601460035
243815,17964,243815.0,39005.0,243815.0,35978.0,-953.6010956912917,-1565.1473961250697,-2123.7496935616864
243815,17949,243815.0,38973.0,243815.0,35965.0,-963.723397535215,-1575.5743810925244,-2139.045954719906
243815,17936,243815.0,38959.0,243815.0,35944.0,-973.7715988124742,-1585.394210701291,-2153.6255470838755
243815,17951,243815.0,39031.0,243815.0,35956.0,-983.733712851886,-1594.5575989770512,-2167.424097676663
243815,17958,243815.0,39050.0,243815.0,35958.0,-993.597563788061,-1603.0151597972322,-2180.375128020241
243826,17958,243826.0,39038.0,243826.0,35931.0,-1003.3503794078923,-1610.7163065765462,-2192.4097381915553
243826,17939,243826.0,39011.0,243826.0,35904.0,-1012.9783489011949,-1617.6083672709055,-2203.456423872732
243826,17957,243826.0,39099.0,243826.0,35940.0,-1022.4663564011526,-1623.636244189923,-2213.4411621915083
243826,17940,243826.0,39058.0,243826.0,35916.0,-1031.797793628155,-1628.7419707186248,-2222.2873963022876
243826,17929,243826.0,38976.0,243826.0,35873.0,-1040.9543671335905,-1632.8642112591235,-2229.9158725334105
243826,17869,243826.0,38942.0,243826.0,35812.0,-1049.9161253152934,-1635.9386918187417,-2236.2449235013264
243836,17875,243836.0,38904.0,243836.0,35803.0,-1058.6618899531222,-1637.8995915536182,-2241.1914203341885
243836,17874,243836.0,38880.0,243836.0,35799.0,-1067.1697913715254,-1638.6809826102326,-2244.671829994306
243836,17842,243836.0,38851.0,243836.0,35766.0,-1075.417513283504,-1638.2179459855938,-2246.6028886111917
243836,17843,243836.0,38893.0,243836.0,35778.0,-1083.3823795603325,-1636.4473877811424,-2246.9020210096464
243836,17853,243836.0,38924.0,243836.0,35791.0,-1091.041463757243,-1633.308298902859,-2245.4876507782215
243836,17845,243836.0,38901.0,243836.0,35770.0,-1098.3715359462183,-1628.7414056037896,-2242.279302358501
243846,17846,243846.0,38932.0,243846.0,35770.0,-1105.348833432421,-1622.6887612712894,-2237.1976738539825
243846,17858,243846.0,38940.0,243846.0,35784.0,-1111.9488261005586,-1615.093595056077,-2230.1648835063193
243846,17868,243846.0,38970.0,243846.0,35802.0,-1118.1459265709664,-1605.9001541142097,-2221.104673839277
243846,17841,243846.0,38956.0,243846.0,35766.0,-1123.913133821318,-1595.0534583278727,-2209.9424849187353
243846,17803,243846.0,38886.0,243846.0,35710.0,-1129.2219288287781,-1582.4993861944704,-2196.605866668373
243846,17794,243846.0,38840.0,243846.0,35699.0,-1134.0426578571119,-1568.1856218462308,-2181.0256252432187
243857,17779,243857.0,38811.0,243857.0,35696.0,-1138.3451452710588,-1552.0634204131406,-2163.1373313994136
243857,17766,243857.0,38812.0,243857.0,35684.0,-1142.099178631525,-1534.089483071392,-2142.882579890111
243857,17745,243857.0,38805.0,243857.0,35703.0,-1145.2748710871683,-1514.2273766853928,-2120.2099129060466
243857,17774,243857.0,38887.0,243857.0,35743.0,-1147.8429708395424,-1492.4483476411588,-2095.0754802624856
243857,17771,243857.0,38912.0,243857.0,35750.0,-1149.7749425809568,-1468.7314116358275,-2067.4433550116937
243857,17762,243857.0,38919.0,243857.0,35778.0,-1151.042793517849,-1443.0629267671338,-2037.285665763694
243867,17777,243867.0,38967.0,243867.0,35791.0,-1151.6189201286975,-1415.4362799772446,-2004.5828382852367
243867,17782,243867.0,39046.0,243867.0,35836.0,-1151.4760332276057,-1385.851741934458,-1969.323945246962
243867,17784,243867.0,39054.0,243867.0,35864.0,-1150.5870144967666,-1354.316041302948,-1931.5069927272289
243867,17762,243867.0,39004.0,243867.0,35874.0,-1148.9248085810518,-1320.8420226618687,-1891.1391539354734
243867,17736,243867.0,38993.0,243867.0,35892.0,-1146.4626106570154,-1285.4492863816267,-1848.2371930550157
243867,17734,243867.0,39030.0,243867.0,35921.0,-1143.1743989164636,-1248.165694676112,-1802.828176098914
243877,17728,243877.0,39066.0,243877.0,35950.0,-1139.0355558119772,-1209.0286928658338,-1754.9502577539647
243877,17736,243877.0,39086.0,243877.0,36010.0,-1134.023309742484,-1168.0859511406384,-1704.653324758308
243877,17745,243877.0,39171.0,243877.0,36089.0,-1128.1169514218852,-1125.395608913424,-1651.999324570349
243877,17763,243877.0,39271.0,243877.0,36166.0,-1121.2978661367388,-1081.0261262842453,-1597.062123901151
243877,17770,243877.0,39319.0,243877.0,36264.0,-1113.5494270825363,-1035.0555181229493,-1539.9269355751212
243877,17764,243877.0,39417.0,243877.0,36319.0,-1104.8568879928673,-987.5702862831006,-1480.6895440565845
243888,17788,243888.0,39538.0,243888.0,36448.0,-1095.2074091639274,-938.6643307523386,-1419.4555231888442
243888,17824,243888.0,39651.0,243888.0,36574.0,-1084.590075690039,-888.437523277346,-1356.3392852020688
243888,17822,243888.0,39684.0,243888.0,36632.0,-1072.9956897635234,-836.9939748444772,-1291.462763305419
243888,17804,243888.0,39707.0,243888.0,36715.0,-1060.4165721430338,-784.4408235239503,-1224.9541795070363
243888,17809,243888.0,39703.0,243888.0,36790.0,-1046.846781877145,-730.8881869065791,-1156.947383463731
243888,17818,243888.0,39808.0,243888.0,36862.0,-1032.2826513170226,-676.4499336539625,-1087.5815679847638
243898,17819,243898.0,39876.0,243898.0,36988.0,-1016.7232642381551,-621.2442506329993,-1017.0009804450248
243898,17821,243898.0,39940.0,243898.0,37086.0,-1000.1708265869904,-565.3934616047031,-945.354348351651
