c_ts,c_val,d_ts,d_val,e_ts,e_val,c_val_filtered,d_val_filtered,e_val_filtered
802,8213,802,7958,802.0,29698.0,-788.1367733506613,-188.28481859107328,-453.27908759870513
802,8242,802,7937,802.0,29719.0,-756.860158584266,-176.86321438271028,-433.24396095262676
802,8291,802,7975,802.0,29733.0,-724.7124925894674,-165.20523292884556,-412.65846036974403
802,8316,802,7968,802.0,29771.0,-691.7467150352735,-153.33202487425424,-391.55909282993065
802,8357,802,7988,802.0,29802.0,-658.017780873787,-141.26613579979536,-369.98433293815486
802,8398,802,8003,802.0,29840.0,-623.5827083044126,-129.03155912373182,-347.9744557687758
812,8526,812,8055,812.0,29858.0,-588.500434783958,-116.65367780985034,-325.5712737416181
812,8626,812,8080,812.0,29903.0,-552.8309672348521,-104.15889982899708,-302.81791788536924
812,8672,812,8106,812.0,29934.0,-516.633800265454,-91.57405131463003,-279.75864189678975
812,8690,812,8142,812.0,29984.0,-479.96648281275054,-78.92578357552031,-256.43853224733664
812,8701,812,8143,812.0,30027.0,-442.8841488733143,-66.24010440833706,-232.90308040709448
812,8719,812,8163,812.0,30084.0,-405.4399396300631,-53.54208142166979,-209.19761977640036
823,8717,823,8174,823.0,30096.0,-367.68584365283505,-40.855752958901746,-185.36670680540362
823,8762,823,8180,823.0,30121.0,-329.67364380477875,-28.20415474108404,-161.45369375503913
823,8812,823,8168,823.0,30141.0,-291.4556838065937,-15.609449306877252,-137.50065760321888
823,8857,823,8192,823.0,30171.0,-253.08518968090425,-3.0932222581161,-113.5485298881116
823,8896,823,8215,823.0,30198.0,-214.61624960216625,9.32323552295611,-89.6371994650707
823,8987,823,8242,823.0,30226.0,-176.10366695803918,21.61892954277431,-65.80553018237754
833,9121,833,8268,833.0,30245.0,-137.6024116661432,33.773439848358976,-42.091352890902044
833,9191,833,8270,833.0,30292.0,-99.16628144600747,45.7672598030444,-18.531462904531168
833,9210,833,8297,833.0,30319.0,-60.84625292221267,57.582014010384285,4.838465336893137
833,9248,833,8334,833.0,30371.0,-22.689528640447634,69.20061267995322,27.98412652080276
833,9246,833,8367,833.0,30425.0,15.260442374811873,80.60759194499644,50.87301095238024
833,9237,833,8329,833.0,30437.0,52.96329989692413,91.78955973360235,73.47496789262004
843,9273,843,8338,843.0,30445.0,90.38071394833423,102.73525188148233,95.76261537831465
843,9309,843,8336,843.0,30468.0,127.47532837981112,113.43507952255118,117.71131417928541
843,9346,843,8331,843.0,30469.0,164.21012472597113,123.88057691936632,139.29884439583748
843,9398,843,8344,843.0,30502.0,200.5481853034737,134.0639726620576,160.5050445376802
843,9441,843,8357,843.0,30514.0,236.45267462821448,143.97788451884344,181.31152511735263
843,9554,843,8393,843.0,30525.0,271.88709297072205,153.61524140534874,201.701463490861
854,9659,854,8416,854.0,30550.0,306.8161088247721,162.96951366316182,221.65939150545432
854,9696,854,8431,854.0,30592.0,341.20701193878267,172.03514664211605,241.17102709932237
854,9721,854,8440,854.0,30631.0,375.0310595045157,180.80795494821217,260.22337094457384
854,9728,854,8453,854.0,30663.0,408.2639576588142,189.28532980218483,278.8050969302212
854,9729,854,8477,854.0,30692.0,440.8854913706108,197.46634666200077,296.9070244150663
854,9742,854,8446,854.0,30683.0,472.87869611137137,205.35184402345038,314.5224297690978
864,9762,864,8438,864.0,30708.0,504.22891803732045,212.94426701164804,331.6470356034861
864,9766,864,8462,864.0,30718.0,534.9229797912235,220.24720086358332,348.278760882803
864,9817,864,8445,864.0,30723.0,564.9485030113763,227.26494635634293,364.41745467345004
864,9842,864,8457,864.0,30750.0,594.2934669168799,234.00229492241124,380.06466622014534
864,9920,864,8444,864.0,30724.0,622.9461409959508,240.46430499535307,395.2233886283609
864,10022,864,8486,864.0,30758.0,650.8955500433885,246.65608145979854,409.8977073045395
874,10079,874,8500,874.0,30811.0,678.1325933486478,252.58280089170853,424.0925129394817
874,10099,874,8512,874.0,30803.0,704.6514156616793,258.25003908865517,437.8136047273239
874,10093,874,8514,874.0,30816.0,730.450204544954,263.6641254953193,451.0679671276671
874,10112,874,8532,874.0,30881.0,755.5310864552123,268.8323179218949,463.8638719055725
874,10069,874,8545,874.0,30860.0,779.8994170828059,273.7629106767548,476.2110419985711
874,10068,874,8507,874.0,30853.0,803.5626966001669,278.46531635239415,488.12084051754107
885,10104,885,8489,885.0,30865.0,826.5293201354073,282.9498316068568,499.6060454234864
885,10128,885,8501,885.0,30866.0,848.8076853705263,287.2270056932645,510.6803491554599
885,10127,885,8478,885.0,30877.0,870.405839146817,291.307008061703,521.3579733822231
885,10171,885,8472,885.0,30871.0,891.3312742667358,295.1991768371457,531.6533923732645
885,10266,885,8543,885.0,30894.0,911.5908904075384,298.9117255922912,541.5810613279157
885,10348,885,8526,885.0,30892.0,931.191683524331,302.4518853666911,551.1551937233625
895,10352,895,8553,895.0,30922.0,950.1421270878336,305.82643107295894,560.3896479319192
895,10364,895,8550,895.0,30905.0,968.4533059160003,309.0420982653471,569.2978862260234
895,10358,895,8566,895.0,30944.0,986.1391506806642,312.1057787425079,577.8929227546791
895,10342,895,8602,895.0,30986.0,1003.215967008357,315.02472951431577,586.1873794582604
895,10320,895,8531,895.0,30965.0,1019.701580506925,317.80680907368793,594.1938134228969
895,10330,895,8536,895.0,30962.0,1035.614267201068,320.46034206656657,601.9249752817833
906,10337,906,8533,906.0,30974.0,1050.9717663075478,322.993488663447,609.3936258946469
906,10345,906,8534,906.0,30983.0,1065.7906095298886,325.4136587033473,616.6121921936649
906,10361,906,8537,906.0,30976.0,1080.085703580368,327.7272678414205,623.5925754656707
906,10407,906,8554,906.0,30954.0,1093.870108743015,329.9396796404666,630.3459295413684
906,10500,906,8585,906.0,30985.0,1107.1552720385587,332.0553334010714,636.8822445932209
906,10543,906,8588,906.0,30995.0,1119.9519877704734,334.07812636192466,643.2100073670805
916,10562,916,8580,916.0,30996.0,1132.2717511607473,336.0118376330248,649.3361702587608
916,10541,916,8598,916.0,31029.0,1144.1276871336074,337.86032053011155,655.2662630208758
916,10546,916,8579,916.0,31052.0,1155.5346228168353,339.627501636649,661.0045780702143
916,10488,916,8609,916.0,31095.0,1166.508477378783,341.31735241363896,666.5545951605802
916,10495,916,8558,916.0,31067.0,1177.0652318178077,342.9338352556335,671.919550164199
916,10487,916,8574,916.0,31057.0,1187.2197736717092,344.4806801836226,677.1026985809418
926,10497,926,8564,926.0,31059.0,1196.9850026811273,345.96099205148363,682.1070348722593
926,10500,926,8550,926.0,31063.0,1206.371298130068,347.3768986179563,686.9348034568992
926,10543,926,8563,926.0,31067.0,1215.3862523457115,348.7292859358367,691.5871797148104
926,10627,926,8600,926.0,31067.0,1224.0348541881667,350.0176796823968,696.0641067688179
926,10710,926,8618,926.0,31086.0,1232.3204804820602,351.240527392173,700.3641848027868
926,10699,926,8631,926.0,31125.0,1240.2465090369205,352.3958208930355,704.4847161315714
937,10708,937,8624,937.0,31142.0,1247.8176242462177,353.4816582936999,708.4220720140535
937,10684,937,8635,937.0,31135.0,1255.040163507212,354.4965169013458,712.1722274919687
937,10655,937,8641,937.0,31182.0,1261.9216783478173,355.4393423602714,715.7311506922102
937,10631,937,8607,937.0,31177.0,1268.4700480257954,356.30956536429767,719.0951013594133
937,10627,937,8586,937.0,31152.0,1274.692398337954,357.1068678920331,722.2608913635395
937,10622,937,8585,937.0,31185.0,1280.5941451516987,357.830607921749,725.2258644577048
947,10655,947,8593,947.0,31149.0,1286.1783911269008,358.4792507235086,727.9876581272302
947,10668,947,8591,947.0,31173.0,1291.445760462789,359.0501224574159,730.5439722535801
947,10699,947,8591,947.0,31140.0,1296.3946128893058,359.53938697123925,732.8923062255394
947,10798,947,8651,947.0,31171.0,1301.021614623111,359.94215481881054,735.0296585079464
947,10829,947,8652,947.0,31190.0,1305.322866683279,360.25292294561535,736.9523810080401
947,10849,947,8670,947.0,31205.0,1309.2954024564042,360.46629864862655,738.6563724985567
957,10823,957,8660,957.0,31211.0,1312.9382754917394,360.57758097646024,740.1374857453477
957,10802,957,8698,957.0,31251.0,1316.252749896691,360.58306617163936,741.3919218134316
957,10762,957,8672,957.0,31255.0,1319.2417188340728,360.4802938394595,742.4166683454165
957,10746,957,8658,957.0,31246.0,1321.9086951233558,360.26819348631244,743.2099596697735
957,10751,957,8626,957.0,31231.0,1324.25676647118,359.9468502108955,743.771447181181
957,10738,957,8627,957.0,31226.0,1326.2878430782807,359.5169199432683,744.101968745755
968,10749,968,8617,968.0,31228.0,1328.0022299182863,358.9790423163465,744.2031701115197
968,10759,968,8619,968.0,31230.0,1329.3984022151894,358.33347174258273,744.0772373391436
968,10859,968,8661,968.0,31229.0,1330.4731541081953,357.57998739311967,743.7267847277743
968,10910,968,8667,968.0,31218.0,1331.2225333902156,356.7181812349115,743.1547828179046
968,10930,968,8676,968.0,31227.0,1331.6434612271933,355.7480249676758,742.3644312758398
968,10927,968,8684,968.0,31241.0,1331.7351971268815,354.67037385963425,741.3590656106693
978,10896,978,8682,978.0,31262.0,1331.4999814144958,353.4872718875121,740.1422817805839
978,10847,978,8693,978.0,31293.0,1330.94279654497,352.20214516814093,738.7183473864096
978,10823,978,8660,978.0,31276.0,1330.0704556280668,350.819891707936,737.0927698142025
978,10810,978,8642,978.0,31258.0,1328.890434906018,349.346723675649,735.2726690569774
978,10815,978,8612,978.0,31246.0,1327.4099437689135,347.78966085788494,733.2666737383659
978,10797,978,8592,978.0,31244.0,1325.6354040988901,346.15580259847695,731.084512125875
988,10811,988,8604,988.0,31251.0,1323.5721768250014,344.45163501717514,728.7366762952798
988,10837,988,8616,988.0,31215.0,1321.2244707298787,342.6826545844082,726.2342461575454
988,10929,988,8644,988.0,31225.0,1318.5957308235475,340.85347176882266,723.5886665954015
988,10937,988,8673,988.0,31219.0,1315.689759107676,338.96832779632905,720.8114409293427
988,10939,988,8656,988.0,31223.0,1312.5121163177266,337.0317875903808,717.9139487905593
988,10929,988,8663,988.0,31231.0,1309.0709990660773,335.049252573672,714.9074487438729
999,10883,999,8686,999.0,31291.0,1305.3773372080746,333.02718389580195,711.803307791564
999,10834,999,8623,999.0,31228.0,1301.4442386600535,330.97320387628264,708.6135039364733
999,10815,999,8626,999.0,31243.0,1297.2859331047935,328.8959317696757,705.3509784756142
999,10815,999,8601,999.0,31224.0,1292.916653323307,326.8044321869844,702.0294895553097
999,10801,999,8599,999.0,31215.0,1288.3499171408707,324.7076219569567,698.6632701280139
999,10804,999,8571,999.0,31195.0,1283.5982054931294,322.6138314430675,695.2667165269886
1008,10775,1008,8582,1008.0,31196.0,1278.672765005904,320.5304208735723,691.8540363748343
1008,10882,1008,8619,1008.0,31212.0,1273.5835650456706,318.46357891488674,688.438976788772
1008,10936,1008,8634,1008.0,31185.0,1268.3399755164044,316.4185966905957,685.034774087624
1008,10924,1008,8621,1008.0,31179.0,1262.9523148252392,314.400485501043,681.6541282581529
1008,10886,1008,8638,1008.0,31192.0,1257.433209293825,312.4144503500488,678.3090277152538
1008,10867,1008,8631,1008.0,31202.0,1251.7978307340618,310.4660916158946,675.0106586984194
1018,10819,1018,8644,1018.0,31242.0,1246.063276882687,308.5615451603237,671.7696640239323
1018,10782,1018,8604,1018.0,31205.0,1240.2476304968009,306.7075708107894,668.596647618648
1018,10749,1018,8610,1018.0,31205.0,1234.3688685885527,304.9114129540505,665.5025076007997
1018,10754,1018,8580,1018.0,31179.0,1228.443821579606,303.1804289773275,662.4983162652179
1018,10745,1018,8577,1018.0,31188.0,1222.4874934621862,301.52164924882754,659.5949449460704
1018,10756,1018,8566,1018.0,31185.0,1216.5128274299245,299.9413655445249,656.8027733876829
1029,10778,1029,8557,1029.0,31135.0,1210.53080317077,298.4447861508779,654.1314933956087
1029,10853,1029,8597,1029.0,31148.0,1204.5509382561129,297.0358525596663,651.5897413308251
1029,10891,1029,8581,1029.0,31141.0,1198.5824118239777,295.7173511539535,649.1845996139601
1029,10885,1029,8587,1029.0,31179.0,1192.6355734580522,294.4912084522684,646.9213838518771
1029,10831,1029,8617,1029.0,31192.0,1186.7230011528195,293.358731019235,644.8039116605946
1029,10796,1029,8610,1029.0,31222.0,1180.8594826895278,292.3208749721847,642.8351113496083
1039,10742,1039,8648,1039.0,31226.0,1175.0610981032146,291.37866038830106,641.0177315379826
1039,10708,1039,8588,1039.0,31192.0,1169.343941083022,290.5335383230191,639.3548541120856
1039,10708,1039,8570,1039.0,31190.0,1163.7228956899135,289.78734208689707,637.8499311573528
1039,10715,1039,8572,1039.0,31174.0,1158.2108281106762,289.1417154785913,636.5064105227741
1039,10685,1039,8570,1039.0,31183.0,1152.8182941656173,288.59749956538417,635.3273222744408
1039,10703,1039,8566,1039.0,31167.0,1147.553442413818,288.15446449541935,634.3150242566305
1049,10751,1049,8580,1049.0,31148.0,1142.422039663395,287.8112568018199,633.4709892922467
1049,10803,1049,8611,1049.0,31155.0,1137.4280415772564,287.56550756712693,632.7954862198012
1049,10827,1049,8595,1049.0,31176.0,1132.574813411824,287.4141743434976,632.2873065026902
1049,10801,1049,8620,1049.0,31183.0,1127.8664077964659,287.3539307192222,631.9438116305146
1049,10785,1049,8634,1049.0,31188.0,1123.308207318182,287.3814660119674,631.7612325453681
1049,10732,1049,8642,1049.0,31226.0,1118.9067435660836,287.4938328034892,631.7350107088491
1060,10694,1060,8593,1060.0,31214.0,1114.6689029300505,287.6887311137099,631.8601910452406
1060,10657,1060,8576,1060.0,31193.0,1110.6007820368163,287.9643144458333,632.1317434564328
1060,10656,1060,8548,1060.0,31201.0,1106.7065224831695,288.31846718754275,632.5445216509252
1060,10681,1060,8579,1060.0,31210.0,1102.9875435946456,288.7480249625705,633.0930071809709
1060,10668,1060,8601,1060.0,31204.0,1099.4423795061298,289.24846215293826,633.7712051491983
1060,10696,1060,8582,1060.0,31186.0,1096.0668958902588,289.8141134815212,634.5726189119509
1070,10782,1070,8585,1070.0,31183.0,1092.854773050415,290.4384522038393,635.4900388688393
1070,10817,1070,8630,1070.0,31207.0,1089.7985934629742,291.1141781961515,636.5152386428783
1070,10809,1070,8645,1070.0,31201.0,1086.8913842019397,291.8335006532955,637.6388804213387
1070,10782,1070,8639,1070.0,31234.0,1084.1277017709972,292.58873907385555,638.8506782942043
1070,10760,1070,8655,1070.0,31265.0,1081.503751601727,293.3728177973986,640.1397551314992
1070,10706,1070,8675,1070.0,31267.0,1079.0167973788257,294.17953291213536,641.4952074926538
1080,10680,1080,8624,1080.0,31237.0,1076.6641841172639,295.0037435353715,642.9065996398707
1080,10701,1080,8586,1080.0,31253.0,1074.4422928169597,295.84119827482886,644.364000473191
1080,10681,1080,8607,1080.0,31251.0,1072.3458801073014,296.6878007406711,645.8577276443531
1080,10669,1080,8578,1080.0,31248.0,1070.3678313408584,297.53884244419703,647.3781836788054
1080,10678,1080,8613,1080.0,31239.0,1068.4989569721436,298.3886383242184,648.9157601372364
1080,10740,1080,8622,1080.0,31228.0,1066.7279235212775,299.2305245852112,650.4606239482489
1091,10811,1091,8640,1091.0,31264.0,1065.0418658207507,300.0571562963399,652.0024651507889
1091,10825,1091,8659,1091.0,31255.0,1063.427784110722,300.86098151609974,653.5304593315591
1091,10813,1091,8666,1091.0,31269.0,1061.8740059379063,301.6347282525629,655.0334552100644
1091,10772,1091,8677,1091.0,31277.0,1060.3708653230435,302.3718356896124,656.500167134723
1091,10728,1091,8658,1091.0,31316.0,1058.9103810033005,303.0667388407371,657.9193930847213
1091,10706,1091,8651,1091.0,31303.0,1057.485276072989,303.7148894631297,659.2804022220746
1101,10697,1101,8632,1101.0,31296.0,1056.0878776011905,304.3124951982442,660.573289979498
1101,10686,1101,8628,1101.0,31290.0,1054.7093012196483,304.85610458328745,661.7889934225257
1101,10695,1101,8626,1101.0,31301.0,1053.3389897475759,305.34221007759317,662.9190663673039
1101,10701,1101,8627,1101.0,31293.0,1051.964533294336,305.76698457274165,663.9555120349469
1101,10737,1101,8623,1101.0,31272.0,1050.5717792785993,306.1261555513213,664.8906654233795
1101,10818,1101,8643,1101.0,31267.0,1049.145398706638,306.4149724983698,665.7169151916809
1112,10845,1112,8676,1112.0,31273.0,1047.6700892674662,306.6283648417302,666.4263037593832
1112,10842,1112,8676,1112.0,31299.0,1046.132065619819,306.7613978284085,667.0103114522766
1112,10818,1112,8686,1112.0,31330.0,1044.5200359547355,306.8098261466663,667.4600536335214
1112,10778,1112,8657,1112.0,31339.0,1042.8252686171625,306.77040546202636,667.7668425232441
1112,10731,1112,8674,1112.0,31335.0,1041.040911046157,306.64086486141014,667.9227942392704
1112,10734,1112,8661,1112.0,31318.0,1039.160931663799,306.41973458586637,667.9211231342238
1122,10697,1122,8632,1122.0,31321.0,1037.1791321888836,306.1061647158522,667.7560508253514
1122,10695,1122,8649,1122.0,31315.0,1035.0884289081666,305.6996397450062,667.4225567921386
1122,10702,1122,8602,1122.0,31309.0,1032.8803444286007,305.1995951450888,666.9161731023623
1122,10708,1122,8634,1122.0,31310.0,1030.544776928849,304.60504724812176,666.2328254551995
1122,10786,1122,8655,1122.0,31278.0,1028.0702232488713,303.91440646050336,665.3686377157653
1122,10858,1122,8647,1122.0,31315.0,1025.4447091023706,303.12568026110466,664.3196818620232
1132,10855,1132,8678,1132.0,31328.0,1022.6574085544331,302.2369000872461,663.0819001271442
1132,10825,1132,8664,1132.0,31313.0,1019.7001153110081,301.24649491819974,661.6513674322547
1132,10811,1132,8668,1132.0,31327.0,1016.5677202371103,300.15355697325145,660.0245927036877
1132,10760,1132,8697,1132.0,31379.0,1013.2578026162071,298.9580177835999,658.1987438448155
1132,10700,1132,8633,1132.0,31339.0,1009.7697339904294,297.6607751379887,656.1720777654417
1132,10690,1132,8626,1132.0,31304.0,1006.103442402912,296.2635442468261,653.9442821152309
1143,10700,1143,8634,1143.0,31299.0,1002.2582519397621,294.7683136988545,651.516174276265
1143,10675,1143,8584,1143.0,31311.0,998.2322792321097,293.17679876145877,648.8890773734859
1143,10679,1143,8618,1143.0,31304.0,994.0222412411212,291.49005386451677,646.0645208704261
1143,10698,1143,8622,1143.0,31267.0,989.6233728561187,289.70824017042105,643.0441928575827
1143,10786,1143,8660,1143.0,31318.0,985.029721540068,287.8308031857159,639.8298019774494
1143,10818,1143,8641,1143.0,31264.0,980.2352400999679,285.85701183663326,636.42296225978
1153,10817,1153,8656,1153.0,31290.0,975.2353843178989,283.7864482051311,632.8251837839789
1153,10783,1153,8679,1153.0,31296.0,970.028292801604,281.61931437602453,629.0378537640285
1153,10721,1153,8671,1153.0,31322.0,964.6149359981171,279.35676484432867,625.0624022812533
1153,10683,1153,8623,1153.0,31334.0,958.9983133502578,277.00116733233176,620.9008003462441
1153,10672,1153,8640,1153.0,31304.0,953.1822328327212,274.5559317547387,616.5561089392315
1153,10634,1153,8615,1153.0,31295.0,947.1702596617872,272.0250630822763,612.0326883797718
1163,10634,1163,8598,1163.0,31267.0,940.964995966014,269.41279619518514,607.335962689166
1163,10631,1163,8559,1163.0,31274.0,934.5676083396313,266.7231891560321,602.4719937930917
1163,10625,1163,8586,1163.0,31243.0,927.9776295074561,263.95956346673086,597.4471224043783
1163,10692,1163,8596,1163.0,31224.0,921.1931069173058,261.12415950048,592.2676450382047
1163,10759,1163,8622,1163.0,31231.0,914.2113653986955,258.218328774545,586.9394298200847
1163,10753,1163,8633,1163.0,31233.0,907.0304851209722,255.24311120955267,581.4676469493647
1174,10729,1174,8644,1174.0,31240.0,899.6507441167768,252.19988364716946,575.8568099300626
1174,10691,1174,8633,1174.0,31255.0,892.0751552142441,249.09087923444494,570.1110525220174
1174,10639,1174,8654,1174.0,31272.0,884.3090589069185,245.91950679118128,564.2345522169611
1174,10610,1174,8591,1174.0,31235.0,876.3591929976463,242.69046401074786,558.2319928405813
1174,10583,1174,8594,1174.0,31240.0,868.2326395487362,239.4095168878128,552.1087787700462
1174,10573,1174,8574,1174.0,31220.0,859.9359666555844,236.08296343675642,545.8709196617623
1184,10555,1184,8533,1184.0,31221.0,851.4746801762104,232.71705674533217,539.5248364534455
1184,10549,1184,8567,1184.0,31192.0,842.8529103326681,229.3174964479266,533.0772078455072
1184,10567,1184,8534,1184.0,31195.0,834.0732945575238,225.88908556087375,526.5347801536233
1184,10641,1184,8565,1184.0,31169.0,825.1372891760768,222.43566987452635,519.9041362697598
1184,10675,1184,8568,1184.0,31162.0,816.0462315994082,218.9602909405316,513.191459941532
1184,10645,1184,8578,1184.0,31174.0,806.8028534523455,215.4655140758658,506.402341703599
1194,10626,1194,8597,1194.0,31180.0,797.4123197327882,211.95387461502702,499.5417901818725
1194,10572,1194,8586,1194.0,31198.0,787.8823041573562,208.42832494415995,492.6145477484696
1194,10490,1194,8561,1194.0,31197.0,778.2222644413847,204.89252033040225,485.62558691220994
1194,10480,1194,8539,1194.0,31152.0,768.4421763069632,201.3507208377069,478.5805019384894
1194,10458,1194,8510,1194.0,31144.0,758.5512298318233,197.80730921123052,471.4854757839139
1194,10452,1194,8531,1194.0,31145.0,748.5570423281874,194.26621601225605,464.34690311086496
1205,10446,1205,8525,1205.0,31121.0,738.4653854393714,190.73060601791943,457.17109213960913
1205,10429,1205,8496,1205.0,31113.0,728.2801368186429,187.20285611795708,449.9641179867169
1205,10502,1205,8510,1205.0,31112.0,718.00343393969,183.6844967651808,442.7316653892399
1205,10565,1205,8524,1205.0,31097.0,707.6364386949546,180.17610476026388,435.4789112107492
1205,10554,1205,8544,1205.0,31091.0,697.1808786400642,176.6774893276496,428.21047690015223
1205,10523,1205,8543,1205.0,31095.0,686.640537123284,173.18818562560995,420.9303940703451
1215,10465,1215,8538,1215.0,31112.0,676.0217329806302,169.70792987114987,413.64218827772794
1215,10430,1215,8554,1215.0,31133.0,665.3327694254017,166.2369380000091,406.34924276447913
1215,10384,1215,8541,1215.0,31094.0,654.5829104746044,162.77608904970225,399.05533073740696
1215,10364,1215,8499,1215.0,31082.0,643.7813440365935,159.32699504103252,391.7648910849115
1215,10330,1215,8487,1215.0,31070.0,632.9363276719236,155.8917063880232,384.48285312750755
1215,10347,1215,8478,1215.0,31045.0,622.0545997115055,152.47212159347083,377.2142854819725
1225,10320,1225,8492,1225.0,31035.0,611.1411343945142,149.06953829191048,369.964067205628
1225,10335,1225,8476,1225.0,31004.0,600.199186167702,145.68454997851953,362.7365345141846
1225,10405,1225,8497,1225.0,31020.0,589.2306371460651,142.31713862829199,355.5351292263627
1225,10420,1225,8492,1225.0,31025.0,578.2369370092551,138.96684176124592,348.3622450972257
1225,10411,1225,8515,1225.0,31030.0,567.2204693096068,135.6330182346609,341.21941561151436
1225,10375,1225,8493,1225.0,31019.0,556.1855326135009,132.31517229764358,334.1076731626974
1236,10337,1236,8495,1236.0,31041.0,545.1384749742847,129.01316593112924,327.0278508811173
1236,10263,1236,8512,1236.0,31037.0,534.0871070606984,125.72728305791273,319.980881710212
1236,10233,1236,8471,1236.0,30989.0,523.0396224188491,122.45828121294909,312.9680683881107
1236,10218,1236,8448,1236.0,31003.0,512.0033969893348,119.20729507439924,305.99104097883605
1236,10202,1236,8452,1236.0,30962.0,500.98414724693316,115.9754056504072,299.05142619329877
1236,10197,1236,8462,1236.0,30979.0,489.9855681553613,112.7632191200318,292.15053200541274
1246,10190,1246,8418,1246.0,30943.0,479.00925445424446,109.57074064093729,285.2891385795914
1246,10247,1246,8442,1246.0,30968.0,468.05489098943747,106.39727597608169,278.46736713604116
1246,10291,1246,8478,1246.0,30958.0,457.12099736969446,103.24135486828393,271.6846854152686
1246,10293,1246,8485,1246.0,30936.0,446.20626539362786,100.1010930679316,264.9400335453641
1246,10267,1246,8458,1246.0,30941.0,435.31085584953314,96.97483722900225,258.23186795407406
1246,10236,1246,8469,1246.0,30952.0,424.43697271687586,93.8614937063993,251.55812942748946
1256,10193,1256,8511,1256.0,30996.0,413.58866618141394,90.76060403624072,244.91648546373608
1256,10137,1256,8441,1256.0,30965.0,402.77113961482894,87.6725718724897,238.30495423770634
1256,10113,1256,8420,1256.0,30951.0,391.9897728830771,84.5986973601764,231.72245895361044
1256,10087,1256,8399,1256.0,30936.0,381.24913502612947,81.54057573913516,225.16888563620626
1256,10084,1256,8400,1256.0,30907.0,370.5522856542116,78.49929119322778,218.64476986130302
1256,10059,1256,8438,1256.0,30886.0,359.9004256303216,75.47503325312434,212.15085932322341
1267,10089,1267,8389,1267.0,30881.0,349.2928078979181,72.46720250445608,205.68762912667984
1267,10167,1267,8462,1267.0,30874.0,338.72710471078744,69.47468584697168,199.2549035852319
1267,10173,1267,8425,1267.0,30888.0,328.2005530474047,66.49618394341576,192.85173426819495
1267,10169,1267,8419,1267.0,30887.0,317.71147959227415,63.53056255557067,186.47653834792993
1267,10112,1267,8407,1267.0,30896.0,307.2602622984606,60.57691817579524,180.12740620658076
1267,10090,1267,8455,1267.0,30903.0,296.849325848165,57.634449054940546,173.80246906529283
1277,10005,1277,8461,1277.0,30899.0,286.48242193351086,54.70268210381636,167.50027002533625
1277,9993,1277,8402,1277.0,30891.0,276.1635221257902,51.78197069350608,161.22006369543897
1277,9980,1277,8387,1277.0,30857.0,265.89570975205186,48.87351863750996,154.96190076174412
1277,9962,1277,8391,1277.0,30858.0,255.68049968858043,45.97879070691192,148.7264307379562
1277,9948,1277,8388,1277.0,30829.0,245.5175758590118,43.09898556455289,142.51455645850024
1277,9955,1277,8345,1277.0,30799.0,235.40468128226303,40.23482606446248,136.32704957628073
1287,10012,1287,8372,1287.0,30824.0,225.33778412320066,37.386324873821934,130.16413513373493
1287,10053,1287,8375,1287.0,30814.0,215.31189217296333,34.552563846723274,124.02526576952016
1287,10053,1287,8403,1287.0,30816.0,205.32243897059095,31.73184129946685,117.90923530820385
1287,10044,1287,8411,1287.0,30810.0,195.36657185440697,28.922175071114737,111.8143909250008
1287,9979,1287,8411,1287.0,30815.0,185.4437268594054,26.121878096222247,105.7387759507593
1287,9954,1287,8429,1287.0,30844.0,175.55535697425216,23.330016315113426,99.68033895344422
1298,9892,1298,8389,1298.0,30821.0,165.7040728096316,20.546686232563786,93.63732450407474
1298,9869,1298,8378,1298.0,30803.0,155.8925760959704,17.772994774400274,87.60861700557348
1298,9856,1298,8354,1298.0,30781.0,146.12268949376858,15.010672631799821,81.59370169803367
1298,9867,1298,8355,1298.0,30794.0,136.3947700056044,12.26155176443109,75.59235215396848
1298,9841,1298,8327,1298.0,30792.0,126.7076030729852,9.527145810329046,69.60445711761474
1298,9857,1298,8342,1298.0,30751.0,117.05853247509253,6.808339419594972,63.63004943016267
1308,9926,1308,8361,1308.0,30737.0,107.44380177711673,4.10525729608969,57.66916670312605
1308,9940,1308,8350,1308.0,30748.0,97.85947167022141,1.4174424361111164,51.7214567187516
1308,9937,1308,8345,1308.0,30782.0,88.30276557448315,-1.2558588147143723,45.78601324823319
1308,9902,1308,8376,1308.0,30764.0,78.77305840866893,-3.915535579772836,39.86173573567271
1308,9846,1308,8357,1308.0,30760.0,69.27201885943464,-6.562423347003005,33.94783241192022
1308,9792,1308,8374,1308.0,30779.0,59.80294766057864,-9.19702215889913,28.044088430139027
1318,9767,1318,8343,1318.0,30743.0,50.36964169758198,-11.819324446291546,22.151004273797525
1318,9748,1318,8328,1318.0,30692.0,40.975293817089096,-14.428894153222359,16.26974575124484
1318,9748,1318,8327,1318.0,30721.0,31.621804639913762,-17.02518096376008,10.401680927344728
1318,9725,1318,8299,1318.0,30704.0,22.30951235133398,-19.607897626478234,4.547890485950234
1318,9717,1318,8281,1318.0,30691.0,13.037103633126208,-22.177393607587703,-1.2909478229594242
1318,9777,1318,8320,1318.0,30665.0,3.8016692960550245,-24.735014958956754,-7.114610314323727
1329,9830,1329,8319,1329.0,30672.0,-5.40067037294034,-27.283152900963557,-12.923579206799673
1329,9828,1329,8352,1329.0,30673.0,-14.573408573673078,-29.824829299566886,-18.71925840212282
1329,9809,1329,8316,1329.0,30713.0,-23.718279558113863,-32.36315085567884,-24.5038557049146
1329,9752,1329,8341,1329.0,30693.0,-32.83468828866489,-34.90099416221955,-30.279903110523946
1329,9733,1329,8377,1329.0,30696.0,-41.920037261530524,-37.4408183259597,-36.049724727030025
1329,9662,1329,8308,1329.0,30698.0,-50.97056196321114,-39.98435007891942,-41.8151456981584
1339,9635,1339,8314,1339.0,30663.0,-59.98237957516676,-42.532479264686174,-47.57741170411725
1339,9626,1339,8298,1339.0,30672.0,-68.95254664259642,-45.08565403654029,-53.33726636948131
1339,9623,1339,8297,1339.0,30689.0,-77.87976964929067,-47.64434063738048,-59.09506714116321
1339,9617,1339,8303,1339.0,30649.0,-86.76460466744993,-50.20921990107678,-64.85071903002938
1339,9618,1339,8295,1339.0,30639.0,-95.60936063884355,-52.78119938282998,-70.60363060276552
1339,9688,1339,8300,1339.0,30598.0,-104.41775889213523,-55.36135037780349,-76.35302816576609
1350,9718,1350,8319,1350.0,30625.0,-113.1940432531294,-57.950794085493555,-82.09846423822262
1350,9720,1350,8311,1350.0,30615.0,-121.94158314460742,-60.55047010630108,-87.84009940408293
1350,9677,1350,8313,1350.0,30614.0,-130.66170821779087,-63.16085604510465,-93.57863006269201
1350,9647,1350,8308,1350.0,30646.0,-139.35340582568233,-65.78180818847693,-99.31503813927395
1350,9562,1350,8339,1350.0,30640.0,-148.01387928147687,-68.41245443821919,-105.05020321409188
1350,9552,1350,8274,1350.0,30623.0,-156.63966337538386,-71.05104844238599,-110.7844458537445
1360,9538,1360,8247,1360.0,30604.0,-165.22779534899064,-73.695122914325,-116.51734008500785
1360,9500,1360,8254,1360.0,30591.0,-173.77657597367738,-76.34215468405682,-122.24790428707297
1360,9505,1360,8260,1360.0,30582.0,-182.28599165138758,-78.99019920012427,-127.97492564787478
1360,9498,1360,8221,1360.0,30560.0,-190.75798579535547,-81.63809790889627,-133.69724417556938
1360,9556,1360,8220,1360.0,30552.0,-199.19637712153713,-84.28563295748444,-139.41402058745757
1360,9585,1360,8282,1360.0,30553.0,-207.60615766534477,-86.9337324655938,-145.1249860889552
1370,9610,1370,8280,1370.0,30555.0,-215.99225541188514,-89.58420020861578,-150.83054455173794
1370,9587,1370,8257,1370.0,30534.0,-224.35827744748758,-92.23902432767142,-156.53171698278015
1370,9568,1370,8278,1370.0,30568.0,-232.70578596924088,-94.89995712735967,-162.23004767354394
1370,9510,1370,8323,1370.0,30593.0,-241.0342952568874,-97.5683355494917,-167.9273364128552
1370,9446,1370,8252,1370.0,30554.0,-249.34194503997855,-100.24470717419175,-173.6250894644312
1370,9424,1370,8235,1370.0,30528.0,-257.62667623165396,-102.92868061910224,-179.32417292792638
1381,9414,1381,8219,1381.0,30534.0,-265.88742338631516,-105.61946172714883,-185.02503473358888
1381,9423,1381,8216,1381.0,30523.0,-274.12478967588834,-108.3165898594442,-190.72808038277833
1381,9402,1381,8221,1381.0,30520.0,-282.3411558442464,-111.02033802716932,-196.43380577091023
1381,9406,1381,8203,1381.0,30487.0,-290.54056917667504,-113.73181936999427,-202.1428469531196
1381,9491,1381,8272,1381.0,30494.0,-298.7284528880424,-116.45289913333212,-207.85616742245531
1381,9511,1381,8244,1381.0,30520.0,-306.9106926171929,-119.18578664157636,-213.57521693626404
1391,9503,1391,8269,1391.0,30505.0,-315.09218081971585,-121.93241851858207,-219.3017603282516
1391,9484,1391,8240,1391.0,30500.0,-323.27569313677907,-124.69404188325629,-225.0375239952283
1391,9433,1391,8254,1391.0,30490.0,-331.46162074375377,-127.47111281676143,-230.78403439538636
1391,9386,1391,8213,1391.0,30509.0,-339.6484452705604,-130.26338054691763,-236.54261005718018
1391,9327,1391,8234,1391.0,30506.0,-347.83373974187657,-133.07009864762563,-242.3142257578885
1391,9324,1391,8205,1391.0,30467.0,-356.01538594840895,-135.89026409789693,-248.09929537933198
1401,9297,1401,8191,1401.0,30459.0,-364.1925651217863,-138.72283565323147,-253.89772554006584
1401,9309,1401,8190,1401.0,30450.0,-372.36627305491095,-141.567020602578,-259.7092764192822
1401,9306,1401,8160,1401.0,30436.0,-380.53941230695614,-144.42261172789966,-265.53389990891776
1401,9363,1401,8191,1401.0,30415.0,-388.7164918195148,-147.2902571131334,-271.37196605613553
1401,9409,1401,8188,1401.0,30421.0,-396.9027780343347,-150.17152114691987,-277.2244971954739
1401,9411,1401,8215,1401.0,30407.0,-405.1029378591435,-153.06862741844998,-283.0933510703022
1412,9375,1412,8211,1412.0,30440.0,-413.3197925908215,-155.98399881234786,-288.9812092274934
1412,9348,1412,8228,1412.0,30447.0,-421.55386263399726,-158.91979306220782,-294.89127551401623
1412,9306,1412,8227,1412.0,30457.0,-429.8037090067588,-161.87750654646186,-300.8267149519328
1412,9228,1412,8190,1412.0,30423.0,-438.06675591799797,-164.85773125992569,-306.79013240802453
1412,9214,1412,8191,1412.0,30405.0,-446.3404608898371,-167.8602369325385,-312.7834532096573
1412,9214,1412,8172,1412.0,30398.0,-454.623478346066,-170.8843256597952,-318.8082137220051
1422,9198,1422,8130,1422.0,30387.0,-462.9162865243545,-173.92926072486415,-324.8659258877211
1422,9198,1422,8140,1422.0,30382.0,-471.2212959634994,-176.9947837952339,-330.95828699753076
1422,9208,1422,8141,1422.0,30359.0,-479.54275929807216,-180.08159301727795,-337.0873034480702
1422,9276,1422,8161,1422.0,30400.0,-487.8863891979996,-183.19145012324321,-343.2553668831289
1422,9322,1422,8152,1422.0,30354.0,-496.2583322016368,-186.32692664605014,-349.4651652799283
1422,9298,1422,8198,1422.0,30360.0,-504.6636439849742,-189.4910097738163,-355.7195483056099
1432,9259,1432,8183,1432.0,30364.0,-513.1051381132374,-192.68660217138978,-362.02154923209935
1432,9219,1432,8175,1432.0,30358.0,-521.583267861391,-195.91602900880378,-368.37438523341314
1432,9163,1432,8184,1432.0,30366.0,-530.0968406721186,-199.18080709845185,-374.781288239492
1432,9136,1432,8141,1432.0,30353.0,-538.6440775168157,-202.4816780942856,-381.2452957647124
1432,9131,1432,8150,1432.0,30341.0,-547.2236245869726,-205.8188166616015,-387.7691230346627
1432,9101,1432,8130,1432.0,30338.0,-555.8352158295934,-209.1921549037736,-394.3551689336524
1443,9091,1443,8118,1443.0,30334.0,-564.4800268381055,-212.601679353225,-401.00557878680434
1443,9084,1443,8108,1443.0,30314.0,-573.1609265235825,-216.04769445404065,-407.7222708102395
1443,9140,1443,8121,1443.0,30283.0,-581.8824909402183,-219.53105455720709,-414.5070496078139
1443,9192,1443,8124,1443.0,30299.0,-590.6503663405892,-223.0531984723063,-421.3618956959218
1443,9199,1443,8146,1443.0,30289.0,-599.4699246633147,-226.615913695196,-428.28919017501266
1443,9171,1443,8147,1443.0,30282.0,-608.3448851893256,-230.22091931295216,-435.291692349197
1453,9137,1453,8129,1453.0,30298.0,-617.2766813449866,-233.86945978781404,-442.37240176035095
1453,9087,1453,8166,1453.0,30342.0,-626.2647040866132,-237.5620613498525,-449.53425395940246
1453,9041,1453,8113,1453.0,30301.0,-635.3071121934538,-241.29838620456303,-456.7795082657997
1453,9022,1453,8106,1453.0,30275.0,-644.4018674738752,-245.0772493002279,-464.10925848113493
1453,9007,1453,8088,1453.0,30263.0,-653.5476347123458,-248.89696968154283,-471.52355015913406
1453,8990,1453,8053,1453.0,30256.0,-662.7443238052215,-252.7559026617181,-479.02182107853696
1463,8978,1463,8059,1463.0,30243.0,-671.993361142904,-256.6529687029152,-486.60319136603664
1463,8989,1463,8080,1463.0,30211.0,-681.2978096392599,-260.5880212017921,-494.2666336405025
1463,9049,1463,8094,1463.0,30197.0,-690.6621491595854,-264.56176786801615,-502.01126200357214
1463,9096,1463,8089,1463.0,30203.0,-700.0913691782891,-268.57530641378594,-509.8367014569709
1463,9077,1463,8102,1463.0,30196.0,-709.5895071041184,-272.6296570198544,-517.7432665952363
1463,9057,1463,8095,1463.0,30206.0,-719.1584355489513,-276.72544535247596,-525.7318585187083
1474,8974,1474,8104,1474.0,30222.0,-728.7975905392818,-280.8626632509596,-533.8036690032126
1474,8927,1474,8091,1474.0,30208.0,-738.5047074000056,-285.0404787385247,-541.9597526153932
1474,8914,1474,8066,1474.0,30195.0,-748.2771008924287,-289.2571783325124,-550.2006529247531
1474,8893,1474,8056,1474.0,30190.0,-758.1127591057616,-293.5103529864083,-558.5262831330588
1474,8873,1474,8020,1474.0,30170.0,-768.0109213112671,-297.797305456267,-566.9359882541012
1474,8865,1474,8017,1474.0,30144.0,-777.9723705405329,-302.11555976531497,-575.4286937336599
1484,8866,1484,8006,1484.0,30144.0,-787.9995926889571,-306.463337258542,-584.0031627910842
1484,8909,1484,8002,1484.0,30111.0,-798.096638199982,-310.8398617087338,-592.658285614476
1484,8962,1484,8018,1484.0,30119.0,-808.2684130553043,-315.24544900595896,-601.3933134274293
1484,8976,1484,8033,1484.0,30097.0,-818.5193584805847,-319.6813490757017,-610.2080212717991
1484,8939,1484,8048,1484.0,30100.0,-828.852067656162,-324.1493116869367,-619.1027772692144
1484,8894,1484,8044,1484.0,30129.0,-839.2666366536816,-328.6510258714877,-628.0784536108623
1494,8854,1494,8066,1494.0,30136.0,-849.7609822542986,-333.18762718335256,-637.1360254654358
1494,8789,1494,8008,1494.0,30107.0,-860.3317563056928,-337.75938810310714,-646.27596099405
1494,8784,1494,8002,1494.0,30100.0,-870.9754458619063,-342.36578785555747,-655.4978618329919
1494,8763,1494,7984,1494.0,30073.0,-881.6892969568155,-347.0059838921251,-664.8005260512854
1494,8743,1494,7958,1494.0,30068.0,-892.471827363541,-351.6793592316494,-674.1821947997543
1494,8732,1494,7975,1494.0,30053.0,-903.3230700828801,-356.3859331898231,-683.640776270447
1505,8740,1505,7963,1505.0,30029.0,-914.2446993855513,-361.12657075274814,-693.1740166656699
1505,8802,1505,8014,1505.0,30033.0,-925.2398066822061,-365.90286512162436,-702.7796688359784
1505,8851,1505,7993,1505.0,29996.0,-936.3119578594726,-370.71667518971736,-712.4556606824376
1505,8828,1505,7980,1505.0,30014.0,-947.4636716355899,-375.5696113451078,-722.2002350629816
1505,8795,1505,8000,1505.0,30012.0,-958.69518094517,-380.4628115537764,-732.0119722261647
1505,8742,1505,8005,1505.0,30010.0,-970.0041835668089,-385.39683768397816,-741.8895794792753
1515,8691,1515,8005,1515.0,30014.0,-981.3864787838584,-390.37138241067225,-751.8315473029849
1515,8639,1515,7969,1515.0,29989.0,-992.8370570727443,-395.38498703370266,-761.8358642132064
1515,8628,1515,7931,1515.0,29979.0,-1004.351270578401,-400.4351688943092,-771.8999017286166
1515,8617,1515,7924,1515.0,29991.0,-1015.9257060901266,-405.51900902819364,-782.0204351092423
1515,8600,1515,7910,1515.0,29953.0,-1027.5585744760124,-410.6338277650595,-792.1936259136568
1515,8613,1515,7898,1515.0,29923.0,-1039.2497563181537,-415.7776245661516,-802.4150615947268
1525,8620,1525,7928,1525.0,29899.0,-1051.0006049934047,-420.9492538479675,-812.6801153401851
1525,8677,1525,7938,1525.0,29934.0,-1062.8133797157682,-426.1482700723134,-822.9843996414995
1525,8689,1525,7946,1525.0,29884.0,-1074.6902052992114,-431.3744259530273,-833.3238766146792
1525,8672,1525,7954,1525.0,29880.0,-1086.6318338105002,-436.6270848600069,-843.6947810395192
1525,8639,1525,7943,1525.0,29903.0,-1098.6368252949833,-441.9047720694952,-854.0936577820614
1525,8580,1525,7949,1525.0,29926.0,-1110.701523975196,-447.20490131543545,-864.5171899301575
1536,8531,1536,7903,1536.0,29900.0,-1122.8207429521503,-452.52370300255416,-874.9615971739174
1536,8498,1536,7895,1536.0,29885.0,-1134.9888377735163,-457.8564432092588,-885.422096309122
1536,8486,1536,7884,1536.0,29847.0,-1147.2007278538913,-463.19787288805236,-895.8928590917125
1536,8468,1536,7836,1536.0,29840.0,-1159.4525360516986,-468.5427009919377,-906.3673562961271
1536,8454,1536,7865,1536.0,29842.0,-1171.7418627483748,-473.8860451441747,-916.8387218710623
1536,8464,1536,7875,1536.0,29824.0,-1184.0678483541758,-479.22369407190274,-927.2998722937724
1546,8551,1546,7859,1546.0,29780.0,-1196.43084218577,-484.5519472080804,-937.743527050676
1546,8545,1546,7862,1546.0,29805.0,-1208.8313236023978,-489.86730884816325,-948.1624077211671
1546,8553,1546,7901,1546.0,29803.0,-1221.2684093194625,-495.1662697122974,-958.5493932905222
1546,8496,1546,7893,1546.0,29803.0,-1233.7388353154856,-500.4449109247264,-968.8973040855967
1546,8489,1546,7892,1546.0,29772.0,-1246.2367897878673,-505.6983366016068,-979.1985553885406
1546,8407,1546,7885,1546.0,29820.0,-1258.754356446577,-510.92030349735126,-989.4449582145263
1557,8384,1557,7836,1557.0,29798.0,-1271.282335602315,-516.1032077466296,-999.6274388241516
1557,8339,1557,7795,1557.0,29759.0,-1283.8112692550048,-521.2385078287886,-1009.7356489087289
1557,8360,1557,7814,1557.0,29741.0,-1296.3323001274978,-526.3175070933019,-1019.7579463666146
1557,8326,1557,7829,1557.0,29717.0,-1308.83754924031,-531.3319153072669,-1029.681834025414
1557,8327,1557,7790,1557.0,29710.0,-1321.3201256365899,-536.273845467791,-1039.4944397972681
1557,8351,1557,7811,1557.0,29699.0,-1333.7739850496293,-541.1356751727317,-1049.1828079621434
1567,8427,1567,7828,1567.0,29693.0,-1346.193384776424,-545.9099994621022,-1058.7340161571115
1567,8413,1567,7836,1567.0,29683.0,-1358.571649620604,-550.5893536086558,-1068.1351872953146
1567,8391,1567,7836,1567.0,29718.0,-1370.899795511419,-555.1657000306741,-1077.3733846905513
1567,8365,1567,7833,1567.0,29732.0,-1383.1658528986081,-559.630009440351,-1086.4352066491529
1567,8308,1567,7842,1567.0,29733.0,-1395.3550076005351,-563.9720235138186,-1095.306058693667
1567,8243,1567,7811,1567.0,29701.0,-1407.450306528664,-568.1801245017473,-1103.9695025335684
1577,8232,1577,7798,1577.0,29664.0,-1419.4337466239012,-572.2413910388918,-1112.4071254568585
1577,8216,1577,7768,1577.0,29619.0,-1431.2872962508884,-576.1419417127255,-1120.5990217433355
1577,8197,1577,7752,1577.0,29681.0,-1442.9934388052907,-579.8674737132794,-1128.524483970678
1577,8188,1577,7750,1577.0,29651.0,-1454.5353645791758,-583.4038067764542,-1136.1622269056757
1577,8187,1577,7727,1577.0,29614.0,-1465.8970381036647,-586.7372932391675,-1143.4901547656482
1577,8249,1577,7751,1577.0,29604.0,-1477.0629917582692,-589.8550602554853,-1150.4854071467303
1588,8295,1588,7765,1588.0,29606.0,-1488.0174758319629,-592.7450117579192,-1157.1247855185156
1588,8285,1588,7788,1588.0,29617.0,-1498.7430080484762,-595.39547118169,-1163.3849903332818
1588,8242,1588,7788,1588.0,29620.0,-1509.2191184047063,-597.7945887947786,-1169.2424630788737
1588,8215,1588,7798,1588.0,29618.0,-1519.4220184417818,-599.9297993630605,-1174.6730546150907
1588,8135,1588,7811,1588.0,29627.0,-1529.3251430005862,-601.7874276801697,-1179.6517249550711
1588,8113,1588,7754,1588.0,29598.0,-1538.900198932728,-603.352466659146,-1184.1523521783902
1598,8088,1598,7750,1598.0,29581.0,-1548.1183411536983,-604.608753062699,-1188.1477625924863
1598,8070,1598,7710,1598.0,29562.0,-1556.9510620757947,-605.539602065574,-1191.6100659587596
1598,8068,1598,7723,1598.0,29553.0,-1565.3706779652032,-606.1285530844609,-1194.511142855201
1598,8059,1598,7689,1598.0,29546.0,-1573.3505345601761,-606.359942060678,-1196.82306853354
1598,8080,1598,7683,1598.0,29517.0,-1580.8649773642476,-606.2193492875333,-1198.518453936347
1598,8168,1598,7731,1598.0,29524.0,-1587.8888992730238,-605.6939374473754,-1199.5708100041675
1608,8160,1608,7730,1608.0,29522.0,-1594.396615432586,-604.7723970005196,-1199.954889607195
1608,8157,1608,7753,1608.0,29527.0,-1600.3604789953968,-603.4444649387622,-1199.6468460561662
1608,8114,1608,7779,1608.0,29541.0,-1605.7501169141256,-601.7003572587538,-1198.624200911142
1608,8074,1608,7799,1608.0,29556.0,-1610.532582140709,-599.5301984676389,-1196.8656744757523
1608,7993,1608,7741,1608.0,29553.0,-1614.6732228639723,-596.9235395126997,-1194.3509201801007
1608,7989,1608,7772,1608.0,29531.0,-1618.1370249693634,-593.8693408703891,-1191.0603679380713
1619,7979,1619,7707,1619.0,29554.0,-1620.8899188466578,-590.356433274603,-1186.9753471299389
1619,7971,1619,7720,1619.0,29543.0,-1622.8995437074113,-586.374175138348,-1182.0783137780277
1619,7960,1619,7705,1619.0,29548.0,-1624.1355575208456,-581.9131532173192,-1176.3529902628234
1619,7975,1619,7681,1619.0,29527.0,-1624.569811330973,-576.9657932830855,-1169.7845415894026
1619,8068,1619,7722,1619.0,29509.0,-1624.1762128708851,-571.5268305070645,-1162.3599728835347
1619,8091,1619,7762,1619.0,29566.0,-1622.9298311241464,-565.5934495636632,-1154.0686332384203
1629,8092,1629,7781,1629.0,29560.0,-1620.8054875590344,-559.1648315381483,-1144.9024094397314
1629,8066,1629,7775,1629.0,29573.0,-1617.7767738622954,-552.2414416475599,-1134.8555370554552
1629,8031,1629,7795,1629.0,29607.0,-1613.8160110223619,-544.8246143298642,-1123.9243954443414
1629,7982,1629,7801,1629.0,29622.0,-1608.8949866958596,-536.9164478339242,-1112.1073273450302
1629,7973,1629,7796,1629.0,29600.0,-1602.9861277101845,-528.5197795890077,-1099.4044345946897
1629,7943,1629,7746,1629.0,29606.0,-1596.0637200434928,-519.6383677545136,-1085.817667753497
1639,7953,1639,7764,1639.0,29615.0,-1588.1048958582633,-510.2775095559373,-1071.3512723624867
1639,7951,1639,7787,1639.0,29648.0,-1579.0903135257581,-500.44477855253274,-1056.0121890451405
1639,7977,1639,7820,1639.0,29662.0,-1569.0045151788636,-490.1502775881837,-1039.8101381537697
1639,8014,1639,7811,1639.0,29662.0,-1557.8359340795278,-479.40639098509183,-1022.7575425334419
1639,8113,1639,7869,1639.0,29695.0,-1545.5763984972345,-468.2274565859462,-1004.8695552163301
1639,8123,1639,7888,1639.0,29728.0,-1532.2200130799717,-456.6294078399493,-986.1641228351975
1650,8133,1650,7890,1650.0,29757.0,-1517.761897615408,-444.62928631124475,-966.6618353461229
1650,8125,1650,7929,1650.0,29782.0,-1502.1975544218085,-432.24484670747836,-946.3856039769056
1650,8106,1650,7967,1650.0,29838.0,-1485.5230345251607,-419.4942640000485,-925.3603164908506
1650,8074,1650,7949,1650.0,29839.0,-1467.735653847053,-406.3957417176157,-903.6124589083528
1650,8085,1650,7911,1650.0,29890.0,-1448.8350429803054,-392.9673729534593,-881.1697696657956
1650,8090,1650,7950,1650.0,29878.0,-1428.8241805185548,-379.2276319303505,-858.0610649924083
1660,8112,1660,7943,1660.0,29906.0,-1407.7100820919109,-365.19604424161287,-834.3162912704074
1660,8129,1660,7978,1660.0,29936.0,-1385.5041490452695,-350.89349482885916,-809.9667427304144
1660,8170,1660,7984,1660.0,29930.0,-1362.222299969084,-336.34223983962,-785.0452795858365
1660,8282,1660,8024,1660.0,29989.0,-1337.8847349538573,-321.5657997726237,-759.5865051123164
1660,8350,1660,8045,1660.0,29999.0,-1312.5149637392647,-306.5887291425777,-733.6268742939475
1660,8373,1660,8083,1660.0,30048.0,-1286.1382691308293,-291.4362497626352,-707.2046357731291
1670,8384,1670,8111,1670.0,30118.0,-1258.7805034684745,-276.13378732763204,-680.3595735421037
1670,8382,1670,8130,1670.0,30164.0,-1230.4678001706036,-260.70649143527334,-653.132433811163
1670,8370,1670,8157,1670.0,30196.0,-1201.227041668769,-245.17883941306377,-625.5641167194266
1670,8379,1670,8148,1670.0,30212.0,-1171.0867428931492,-229.57440813674424,-597.6950686984987
1670,8407,1670,8130,1670.0,30240.0,-1140.0780074143663,-213.9159547087458,-569.5651129680049
1670,8436,1670,8152,1670.0,30261.0,-1108.2352092456586,-198.22588213076733,-541.2135630513121
1681,8465,1681,8178,1681.0,30289.0,-1075.5963142877263,-182.52675936056514,-512.6793994566749
1681,8514,1681,8185,1681.0,30296.0,-1042.202979929465,-166.84150848985598,-484.0014596755616
1681,8584,1681,8213,1681.0,30304.0,-1008.1004295458538,-151.19334937432743,-455.21874950943374
1681,8713,1681,8271,1681.0,30373.0,-973.3368172235153,-135.60563048946565,-426.37084005582267
1681,8779,1681,8247,1681.0,30446.0,-937.9618485297949,-120.10147240788135,-397.497909937099
1681,8812,1681,8320,1681.0,30459.0,-902.0250726670649,-104.70338099478516,-368.64017245236664
1691,8812,1691,8331,1691.0,30515.0,-865.5747733059178,-89.43290850172542,-339.8371578799056
1691,8823,1691,8369,1691.0,30563.0,-828.657913863377,-74.31018374749004,-311.1272361635399
1691,8824,1691,8358,1691.0,30570.0,-791.3208260325478,-59.35345235321142,-282.5472410950065
1691,8852,1691,8346,1691.0,30603.0,-753.6101401726852,-44.57898862826181,-254.13224129765047
1691,8878,1691,8341,1691.0,30629.0,-715.5736140340492,-30.001497914125537,-225.91558633568042
1691,8918,1691,8353,1691.0,30649.0,-677.2606923459621,-15.634776124922666,-197.92904872315296
1701,8965,1701,8364,1701.0,30679.0,-638.7227754710375,-1.4922495869496402,-170.20294539576219
1701,9043,1701,8360,1701.0,30701.0,-600.0131692073891,12.41271456011225,-142.7662639190478
1701,9142,1701,8417,1701.0,30725.0,-561.1865541980565,26.066646893987183,-115.6467823270126
1701,9253,1701,8485,1701.0,30765.0,-522.2978052581275,39.456182169902775,-88.87115938621605
1701,9303,1701,8457,1701.0,30793.0,-483.4003207596254,52.56878592253969,-62.46492962206685
1701,9320,1701,8483,1701.0,30832.0,-444.5445362364686,65.39341880625466,-36.4523678375258
1712,9305,1712,8470,1712.0,30875.0,-405.77737129370496,77.92061493146502,-10.856256698754692
1712,9301,1712,8531,1712.0,30901.0,-367.1427822304762,90.14230441902191,14.302425184975618
1712,9329,1712,8506,1712.0,30938.0,-328.6829372023161,102.0518398645221,39.00482661761782
1712,9359,1712,8519,1712.0,30918.0,-290.43931632161207,113.64410555321058,63.23438322456025
1712,9382,1712,8515,1712.0,30959.0,-252.45339127858858,124.91538584836081,86.97665769920468
1712,9447,1712,8482,1712.0,30951.0,-214.7669640718999,135.86296256728463,110.21895249721308
1722,9499,1722,8529,1722.0,30992.0,-177.42218778001757,146.48457706191243,132.9499423477547
1722,9585,1722,8552,1722.0,30994.0,-140.46115671089194,156.77808898987797,155.15942414041706
1722,9699,1722,8555,1722.0,31042.0,-103.92498564227515,166.74161315147978,176.83818253854236
1722,9752,1722,8571,1722.0,31043.0,-67.85238084697323,176.37382888233867,197.97797367901524
1722,9766,1722,8596,1722.0,31089.0,-32.27818120764857,185.6741483856539,218.57157869202615
1722,9795,1722,8628,1722.0,31135.0,2.7673850669950752,194.6429302267203,238.61296171355843
1732,9785,1732,8641,1732.0,31176.0,37.25859163387122,203.28189585599608,258.0976945218299
1732,9770,1732,8624,1732.0,31167.0,71.17353944264573,211.5945265369523,277.02352656765174
1732,9790,1732,8596,1732.0,31170.0,104.49309938062902,219.58605004359322,295.3906229427364
1732,9796,1732,8607,1732.0,31188.0,137.19978249314363,227.26292392670223,313.201300367459
1732,9831,1732,8593,1732.0,31196.0,169.2768804279525,234.63217945632476,330.4596133251182
1732,9870,1732,8599,1732.0,31217.0,200.7079718029131,241.70093769416474,347.17108169128926
1743,9923,1743,8614,1743.0,31199.0,231.47681933530725,248.4761055726848,363.3424868817133
1743,10047,1743,8623,1743.0,31230.0,261.56779993038515,254.9642618756037,378.9815764743794
1743,10100,1743,8657,1743.0,31235.0,290.9670483624582,261.17177539754334,394.09674185308177
1743,10125,1743,8652,1743.0,31256.0,319.6639750587193,267.1050963822877,408.69684064517025
1743,10118,1743,8665,1743.0,31267.0,347.6522558433478,272.7710510394206,422.79114749865926
1743,10118,1743,8696,1743.0,31304.0,374.92982852193984,278.17704381342094,436.3893762524525
1753,10100,1753,8715,1753.0,31323.0,401.49817376334215,283.33134324483115,449.5018480796068
1753,10085,1753,8657,1753.0,31340.0,427.3612486761343,288.2434086831207,462.13979314772064
1753,10099,1753,8631,1753.0,31313.0,452.52429970873095,292.92370308519776,474.31553452148853
1753,10114,1753,8640,1753.0,31336.0,476.99284011114776,297.3828479150842,486.04231514747175
1753,10142,1753,8637,1753.0,31333.0,500.77202453582504,301.6307856197593,497.3339051399911
1753,10176,1753,8658,1753.0,31317.0,523.8664165664488,305.67642897012684,508.2042338172648
1764,10232,1764,8661,1764.0,31323.0,546.2800964001033,309.52767755405273,518.6669752216771
1764,10324,1764,8675,1764.0,31345.0,568.0172218653795,313.19158257427625,528.7350907305472
1764,10345,1764,8704,1764.0,31364.0,589.083101327345,316.67458886476606,538.4206177150558
1764,10366,1764,8699,1764.0,31390.0,609.485341212084,319.98287210823673,547.7348070431337
1764,10365,1764,8707,1764.0,31410.0,629.2344446644584,323.1226678334323,556.688455236306
1764,10351,1764,8739,1764.0,31437.0,648.3437254995504,326.10049080326667,565.292307468011
1774,10307,1774,8742,1774.0,31424.0,666.8286666306915,328.92340850995333,573.5574258180637
1774,10307,1774,8686,1774.0,31435.0,684.7058095771858,331.5992936862567,581.4953443466421
1774,10312,1774,8677,1774.0,31417.0,701.991516578744,334.136567888963,589.1179296821448
1774,10335,1774,8680,1774.0,31436.0,718.7010945417123,336.54345209497717,596.4370742482205
1774,10328,1774,8653,1774.0,31427.0,734.8483794674542,338.8272927116244,603.4644038870312
1774,10356,1774,8675,1774.0,31439.0,750.4455157732041,340.9941549991571,610.2110743786103
1784,10458,1784,8700,1784.0,31411.0,765.5029786342584,343.0486512964068,616.6875674432067
1784,10511,1784,8723,1784.0,31441.0,780.0303327418517,344.99416980110374,622.9033927814486
1784,10524,1784,8726,1784.0,31448.0,794.0376522525614,346.83342280511044,628.8668496221862
1784,10516,1784,8742,1784.0,31472.0,807.5366666498628,348.5689621430413,634.585068060542
1784,10498,1784,8711,1784.0,31497.0,820.5410007819219,350.2034553417674,640.0643076590667
1784,10461,1784,8768,1784.0,31508.0,833.0656341657545,351.73975476434657,645.3103815384147
1795,10442,1795,8707,1795.0,31495.0,845.1258867323556,353.1809377481677,650.3290296887361
1795,10458,1795,8715,1795.0,31489.0,856.736282672699,354.5302488397181,655.1259923948593
1795,10442,1795,8702,1795.0,31496.0,867.9096926042878,355.79074570570566,659.7067714487466
1795,10449,1795,8697,1795.0,31498.0,878.6568102695608,356.96485504024287,664.0763562174807
1795,10471,1795,8706,1795.0,31494.0,888.9857913470719,358.0540893168134,668.239070220876
1795,10526,1795,8707,1795.0,31468.0,898.9021855797505,359.05893038340514,672.1983903320456
1805,10628,1805,8731,1805.0,31504.0,908.4095484884185,359.97888997351527,675.9566332340595
1805,10640,1805,8755,1805.0,31504.0,917.5108336700871,360.8127916391709,679.514751872092
1805,10643,1805,8737,1805.0,31520.0,926.209919985745,361.5592134073496,682.8724421787216
1805,10641,1805,8741,1805.0,31544.0,934.5124235657329,362.216807873461,686.028422430537
1805,10608,1805,8771,1805.0,31588.0,942.4256771228684,362.78439251769527,688.9808528646134
1805,10549,1805,8766,1805.0,31596.0,949.958103050267,363.2611097956529,691.7280048721757
1815,10544,1815,8735,1815.0,31575.0,957.1180630520453,363.6466631112559,694.268926857665
1815,10549,1815,8729,1815.0,31560.0,963.9126009393019,363.94122598004225,696.6036352880523
1815,10552,1815,8726,1815.0,31560.0,970.3466571236384,364.1450163002383,698.7327884647551
1815,10556,1815,8722,1815.0,31565.0,976.4227869756483,364.25791821393165,700.6572639555758
1815,10572,1815,8714,1815.0,31543.0,982.141089459383,364.27927702807466,702.3779007322383
1815,10665,1815,8708,1815.0,31546.0,987.4994167942564,364.2077316153682,703.8952744509622
1826,10740,1826,8766,1826.0,31543.0,992.4943326166226,364.0411450310497,705.2094127643419
1826,10751,1826,8762,1826.0,31580.0,997.1228409590353,363.77692075774246,706.3196449284245
1826,10738,1826,8776,1826.0,31596.0,1001.3839896332629,363.41264190858135,707.2248143870588
1826,10709,1826,8789,1826.0,31607.0,1005.2794920647066,362.9466266990508,707.9238057852206
1826,10676,1826,8795,1826.0,31650.0,1008.813377720752,362.378311214768,708.4161597874836
1826,10620,1826,8751,1826.0,31610.0,1011.9910576136165,361.70848583261807,708.7026360944288
1836,10624,1836,8728,1836.0,31591.0,1014.8181103446161,360.9391161580498,708.7854595597028
1836,10621,1836,8743,1836.0,31602.0,1017.2992074438869,360.0727484567743,708.6680449871262
1836,10632,1836,8721,1836.0,31610.0,1019.4375562777718,359.1119872402403,708.3546133776885
1836,10634,1836,8724,1836.0,31589.0,1021.2348037208624,358.05925742061675,707.8500981936585
1836,10704,1836,8729,1836.0,31578.0,1022.6912507391946,356.9166769172106,707.1600925909808
1836,10778,1836,8752,1836.0,31564.0,1023.8066267460893,355.6860659468262,706.2905622393894
1846,10796,1846,8761,1846.0,31589.0,1024.581575488882,354.36922851828405,705.2474996177543
1846,10768,1846,8737,1846.0,31579.0,1025.0191866555283,352.9683421484768,704.0368150596171
1846,10758,1846,8765,1846.0,31594.0,1025.1256928471473,351.48616837014623,702.6644704295051
1846,10718,1846,8780,1846.0,31616.0,1024.91025895449,349.92618311969466,701.136719650116
1846,10656,1846,8769,1846.0,31614.0,1024.3842280089955,348.2928879719906,699.4604619562814
1846,10635,1846,8741,1846.0,31600.0,1023.559970956783,346.5920754505638,697.6435983891208
1857,10626,1857,8702,1857.0,31587.0,1022.4496293988543,344.83062126242515,695.6951140555151
1857,10630,1857,8695,1857.0,31557.0,1021.0642507744487,343.01581136886665,693.6248130440564
1857,10627,1857,8715,1857.0,31582.0,1019.4134572698813,341.1546610380751,691.4428979641378
1857,10647,1857,8700,1857.0,31580.0,1017.5054518036584,339.2536486093868,689.1597216390329
1857,10723,1857,8704,1857.0,31561.0,1015.3473769679699,337.31877065659165,686.7858219318068
1857,10772,1857,8719,1857.0,31537.0,1012.9463302128793,335.3556329981117,684.3318953401039
1867,10773,1867,8740,1867.0,31549.0,1010.310923723898,333.369646164902,681.8084924843145
1867,10746,1867,8728,1867.0,31558.0,1007.4525792586205,331.3664202561083,679.2257488229094
1867,10699,1867,8708,1867.0,31590.0,1004.385875656629,329.352077706649,676.5935023835906
1867,10646,1867,8740,1867.0,31591.0,1001.1279466254382,327.3332773629003,673.9217819917103
1867,10604,1867,8701,1867.0,31583.0,997.6972926086828,325.31716418085693,671.2213560442833
1867,10574,1867,8705,1867.0,31560.0,994.1124210620701,323.31133135183103,668.5039833016393
1877,10572,1877,8692,1877.0,31529.0,990.3906909706105,321.32363880025423,665.7822135675217
1877,10574,1877,8666,1877.0,31529.0,986.5476200624348,319.3619201904077,663.0688694219472
1877,10576,1877,8674,1877.0,31536.0,982.5966885729125,317.433651046139,660.3765566870126
1877,10620,1877,8650,1877.0,31502.0,978.5495318052548,315.54561820978427,657.7174298742194
1877,10690,1877,8693,1877.0,31493.0,974.4166181872664,313.7037381344012,655.1029956737884
1877,10714,1877,8688,1877.0,31518.0,970.2085662396336,311.9131796180774,652.5438083899519
1888,10691,1888,8692,1888.0,31497.0,965.9376528584382,310.17873817086786,650.0493321792788
1888,10641,1888,8707,1888.0,31529.0,961.6186261631747,308.5051987599208,647.6280689149393
1888,10616,1888,8701,1888.0,31549.0,957.2684622817123,306.8975997527708,645.28785625522
1888,10543,1888,8703,1888.0,31525.0,952.9054278429106,305.36145051626556,643.0363174238778
1888,10528,1888,8662,1888.0,31515.0,948.5478625028552,303.9027770351702,640.8811710287277
1888,10516,1888,8653,1888.0,31514.0,944.2130027030411,302.52783145173703,638.8301456809666
1898,10503,1898,8663,1898.0,31498.0,939.9161941638818,301.24259687680455,636.8907237985001
1898,10497,1898,8641,1898.0,31495.0,935.6705188775038,300.052435355318,635.0699207656979
1898,10500,1898,8620,1898.0,31497.0,931.4866256449515,298.96187879850663,633.3740951642525
1898,10582,1898,8657,1898.0,31478.0,927.3728750416859,297.9743724846416,631.8088080650332
1898,10648,1898,8651,1898.0,31458.0,923.3362537985229,297.0921895460093,630.3786421351813
1898,10633,1898,8662,1898.0,31512.0,919.3840401001328,296.3166762047432,629.0869702653051
1908,10606,1908,8678,1908.0,31506.0,915.525250194959,295.6485909068752,627.9360256972689
1908,10563,1908,8668,1908.0,31515.0,911.7709999133601,295.08840374131603,626.9273605619298
1908,10496,1908,8702,1908.0,31543.0,908.1338516266225,294.63658242272595,626.06232848124
1908,10466,1908,8648,1908.0,31494.0,904.6265834181874,294.2938122023211,625.342407019944
1908,10460,1908,8643,1908.0,31483.0,901.2608576750085,294.06093315180965,624.7692000659472
1908,10441,1908,8617,1908.0,31492.0,898.0462764200064,293.9384632587768,624.3440330726188
1919,10437,1919,8640,1919.0,31497.0,894.9898999247027,293.926018964432,624.0675741905909
1919,10441,1919,8655,1919.0,31504.0,892.0960097395347,294.0220763275288,623.9398171874607
1919,10486,1919,8668,1919.0,31467.0,889.3661402021256,294.22418413452795,623.9601772188682
1919,10554,1919,8657,1919.0,31478.0,886.7996757692308,294.52936592055534,624.1273554204315
1919,10594,1919,8624,1919.0,31492.0,884.3951658912862,294.93429004383404,624.43906745595
1919,10575,1919,8678,1919.0,31489.0,882.1519162612873,295.4351107695156,624.8919881931145
1929,10545,1929,8688,1929.0,31502.0,880.0710044805107,296.02745604372865,625.4819227002313
1929,10503,1929,8709,1929.0,31526.0,878.1552810038758,296.70690813581894,626.2040397491755
1929,10439,1929,8656,1929.0,31523.0,876.4085556769408,297.4695462338535,627.053198312366
1929,10413,1929,8684,1929.0,31509.0,874.8343239337505,298.31200472773014,628.0242579250742
1929,10421,1929,8633,1929.0,31509.0,873.4344777677554,299.23112623035945,629.1121180880305
1929,10414,1929,8632,1929.0,31507.0,872.2085154042771,300.22348062771164,630.3115334213862
1939,10410,1939,8645,1939.0,31508.0,871.1533062898899,301.2848615714422,631.6169415115589
1939,10425,1939,8646,1939.0,31507.0,870.2630835788906,302.4100013539437,633.0223744532647
1939,10501,1939,8656,1939.0,31490.0,869.5296925502877,303.5926196576392,634.5213672489346
1939,10557,1939,8679,1939.0,31498.0,868.9435120208443,304.825638380907,636.1067802885299
1939,10564,1939,8685,1939.0,31496.0,868.4950105529201,306.1015060766962,637.7705968328542
1939,10541,1939,8699,1939.0,31528.0,868.1761302857749,307.4126059195055,639.5038758444409
1950,10516,1950,8708,1950.0,31537.0,867.9807863328244,308.75163411119524,641.2969798246304
1950,10464,1950,8693,1950.0,31565.0,867.904490092335,310.1118740889045,643.1400354448349
1950,10429,1950,8669,1950.0,31537.0,867.9434184433086,311.4872271315156,645.0234087163784
1950,10426,1950,8661,1950.0,31532.0,868.0932770636274,312.87188625407856,646.9378853841151
1950,10425,1950,8679,1950.0,31534.0,868.3484072745391,314.2598782238085,648.8744779281749
1950,10407,1950,8643,1950.0,31547.0,868.7013429823128,315.6447794721697,650.8241751727517
1960,10418,1960,8671,1960.0,31542.0,869.1426033946027,317.0195514607781,652.7779019255215
1960,10453,1960,8667,1960.0,31519.0,869.6606408079753,318.3764167871936,654.7265331146168
1960,10529,1960,8711,1960.0,31512.0,870.2422817324839,319.7069664883443,656.6606793979277
1960,10572,1960,8703,1960.0,31547.0,870.8739227771933,321.0025716447426,658.5703457284872
1960,10550,1960,8734,1960.0,31543.0,871.5430769626888,322.25490729903174,660.4448638781478
1960,10526,1960,8725,1960.0,31593.0,872.2393683036962,323.4564048024814,662.2732226898949
1970,10503,1970,8733,1970.0,31589.0,872.954537929485,324.60056606916265,664.044626407192
1970,10431,1970,8717,1970.0,31566.0,873.6817413482768,325.68209343229125,665.7490041799056
1970,10426,1970,8685,1970.0,31561.0,874.4144487840426,326.6967563862725,667.3771068211006
1970,10410,1970,8693,1970.0,31579.0,875.1452746405473,327.6409771744282,668.9202397073641
1970,10422,1970,8680,1970.0,31567.0,875.865193679144,328.511345830915,670.3700793643507
1970,10416,1970,8686,1970.0,31577.0,876.5632574886656,329.30431371561957,671.7186812775459
1981,10433,1981,8678,1981.0,31567.0,877.2265990544771,330.01605149107195,672.9584869452138
1981,10507,1981,8692,1981.0,31555.0,877.8407257801725,330.64238261521984,674.0822393631647
1981,10563,1981,8717,1981.0,31532.0,878.3904292127005,331.1788612806048,675.0827383808385
1981,10560,1981,8708,1981.0,31583.0,878.8612734740959,331.6210657630668,675.9525191385741
1981,10559,1981,8719,1981.0,31583.0,879.2409019546172,331.96494339875517,676.6838403509965
1981,10513,1981,8734,1981.0,31582.0,879.5195252458686,332.2070494776549,677.269067672985
1991,10473,1991,8742,1991.0,31628.0,879.6895704679248,332.3447975553064,677.701106338548
1991,10416,1991,8711,1991.0,31595.0,879.744698729639,332.3767192659535,677.973784150354
1991,10431,1991,8676,1991.0,31563.0,879.6785471537133,332.30239171027245,678.0820615965691
1991,10436,1991,8678,1991.0,31568.0,879.4837886359467,332.1218887828915,678.0217495453174
1991,10428,1991,8673,1991.0,31579.0,879.1518373984483,331.83514298905135,677.7890119307974
1991,10418,1991,8686,1991.0,31569.0,878.6728767849472,331.4416285695048,677.3801777128048
2001,10453,2001,8676,2001.0,31549.0,878.035873639483,330.9403537981547,676.7917428372897
2001,10536,2001,8703,2001.0,31546.0,877.2289094483419,330.32998235933337,676.0202000727872
2001,10572,2001,8696,2001.0,31555.0,876.2403142842913,329.6090413365022,675.0617575487695
2001,10548,2001,8713,2001.0,31568.0,875.0602477474035,328.77620573302704,673.9122516920299
2001,10528,2001,8713,2001.0,31568.0,873.6817174251024,327.8305867141783,672.567335632197
2001,10483,2001,8694,2001.0,31619.0,872.1005737675644,326.77193861233286,671.0228521401183
2011,10429,2011,8726,2011.0,31580.0,870.3147588506505,325.6007381749258,669.2753426637067
2011,10388,2011,8664,2011.0,31574.0,868.3231228450657,324.31817046404376,667.3224234336345
2011,10411,2011,8654,2011.0,31573.0,866.1241786135024,322.9258938983964,665.1627393538544
2011,10390,2011,8660,2011.0,31534.0,863.7153267252515,321.42549535940526,662.795663720775
2011,10376,2011,8648,2011.0,31564.0,861.092609634486,319.81801577196063,660.2209826153912
2011,10399,2011,8626,2011.0,31536.0,858.2506146521799,318.1037383671676,657.4386732722083
2021,10459,2021,8664,2021.0,31529.0,855.1826169060927,316.28203722563563,654.4488027421335
2021,10522,2021,8678,2021.0,31530.0,851.8814521958861,314.3514318004724,651.2513970959901
2021,10524,2021,8694,2021.0,31518.0,848.3410612575649,312.310065998384,647.8462811671588
2021,10499,2021,8669,2021.0,31539.0,844.5579042555873,310.15629818428073,644.2330365636113
2021,10472,2021,8706,2021.0,31553.0,840.5315191642899,307.88903991612403,640.4111690208231
2021,10404,2021,8713,2021.0,31570.0,836.2641735494151,305.5080094004673,636.380543792016
2032,10359,2032,8651,2032.0,31539.0,831.7598728495609,303.01403123968004,632.1419109970254
2032,10345,2032,8681,2032.0,31537.0,827.023056985199,300.40902225494176,627.6971546337084
2032,10331,2032,8609,2032.0,31534.0,822.0574992049785,297.6955641962251,623.0492085579373
2032,10315,2032,8623,2032.0,31494.0,816.8656883357756,294.8763263645055,618.2018660255387
2032,10314,2032,8609,2032.0,31510.0,811.4485304019292,291.95349794361476,613.1595353186984
2032,10342,2032,8634,2032.0,31486.0,805.8052764450615,288.92848090265056,607.926975738945
2042,10429,2042,8657,2042.0,31471.0,799.9339780456495,285.80204779614144,602.5091129878801
2042,10451,2042,8657,2042.0,31468.0,793.8327660213257,282.5748612040486,596.9108508106174
2042,10437,2042,8640,2042.0,31477.0,787.501519269256,279.2480107476424,591.1369090991462
2042,10403,2042,8670,2042.0,31495.0,780.9429564532447,275.8232944501058,585.1919210232447
2042,10359,2042,8692,2042.0,31509.0,774.1627093518701,272.3034710557265,579.080861885847
2042,10283,2042,8648,2042.0,31464.0,767.1685922882693,268.69270382796395,572.8095626519589
2052,10253,2052,8615,2052.0,31464.0,759.9693568578533,264.99674444295937,566.3848910967818
2052,10251,2052,8602,2052.0,31432.0,752.5733728856497,261.22247840706996,559.8145072887162
2052,10235,2052,8584,2052.0,31437.0,744.9877938905049,257.37720822726163,553.1065007896159
2052,10208,2052,8569,2052.0,31411.0,737.2182411987419,253.4681031469657,546.2691258641934
2052,10228,2052,8553,2052.0,31388.0,729.2686503061034,249.5017970053957,539.3105777749021
2052,10302,2052,8547,2052.0,31367.0,721.141422988392,245.484036855743,532.2386601424824
2063,10357,2063,8557,2063.0,31395.0,712.8384374989834,241.41944891421895,525.06043215269
2063,10351,2063,8589,2063.0,31402.0,704.3628014049602,237.3115997423023,517.7821996266479
2063,10293,2063,8610,2063.0,31376.0,695.7203128572418,233.1634880983853,510.4098901980096
2063,10255,2063,8605,2063.0,31381.0,686.9197619986238,228.97831353264735,502.94937324074675
2063,10202,2063,8602,2063.0,31424.0,677.9722058783908,224.76011687378735,495.4066393525254
2063,10143,2063,8568,2063.0,31380.0,668.8898135899456,220.51401524501952,487.7881812040651
2073,10134,2073,8535,2073.0,31368.0,659.6846435317971,216.2459808808968,480.1013833001376
2073,10111,2073,8521,2073.0,31329.0,650.3676478751318,211.96225464819148,472.35443272072223
2073,10094,2073,8512,2073.0,31311.0,640.9481082544044,207.66868954642985,464.5558173842702
2073,10092,2073,8518,2073.0,31336.0,631.4333768625233,203.3703417166995,456.7138385750635
2073,10111,2073,8509,2073.0,31292.0,621.8288457502574,199.07136948569973,448.83643494945136
2073,10169,2073,8507,2073.0,31293.0,612.1383707436794,194.77508648014935,440.93117811706225
2083,10198,2083,8521,2083.0,31277.0,602.3653440702983,190.48405332369973,433.00515217139645
2083,10176,2083,8515,2083.0,31263.0,592.5141059216824,186.20025232766525,425.0647756114603
2083,10150,2083,8532,2083.0,31291.0,582.5909440224304,181.92536734930718,417.1157435111239
2083,10089,2083,8554,2083.0,31288.0,572.6042176172743,177.66116065272507,409.16322531480023
2083,10029,2083,8521,2083.0,31292.0,562.5636825678883,173.40992849712399,401.2123180691633
2083,9990,2083,8494,2083.0,31270.0,552.479308709397,169.1747298074083,393.2684715949507
2094,9997,2094,8467,2094.0,31224.0,542.360082949846,164.95908226852683,385.3375737739527
2094,9959,2094,8482,2094.0,31227.0,532.213287541791,160.76638073463593,377.4256188698419
2094,9940,2094,8453,2094.0,31218.0,522.0441844371355,156.5995032989982,369.5382602265737
2094,9947,2094,8438,2094.0,31194.0,511.85577562722705,152.4606109907829,361.6805830895014
2094,10035,2094,8461,2094.0,31157.0,501.64889833205115,148.3509426844988,353.85693142330086
2094,10071,2094,8471,2094.0,31177.0,491.4232499047881,144.2707893109558,346.07056393098395
2104,10065,2104,8477,2104.0,31196.0,481.179140034034,140.21983958052186,338.32346495230917
2104,10026,2104,8476,2104.0,31181.0,470.9189138481522,136.1976563814863,330.61663392878387
2104,9977,2104,8487,2104.0,31176.0,460.64732139914975,132.204043033788,322.9505417131479
2104,9930,2104,8493,2104.0,31207.0,450.3709649810434,128.23935202120558,315.3254339355108
2104,9887,2104,8453,2104.0,31160.0,440.09729768061476,124.3047402492866,307.74161092017846
2104,9859,2104,8432,2104.0,31162.0,429.8335615100914,120.40211177805884,300.19962342658795
2114,9835,2114,8420,2114.0,31153.0,419.58589964336244,116.53365692483115,292.7002061126272
2114,9815,2114,8408,2114.0,31143.0,409.35872752720667,112.70131147397521,285.24415511841596
2114,9814,2114,8402,2114.0,31130.0,399.15435255632684,108.90639698778409,277.83229545229074
2114,9844,2114,8404,2114.0,31113.0,388.97292109589716,105.14943608893645,270.46541268127726
2114,9914,2114,8436,2114.0,31083.0,378.81296799737396,101.43018314737276,263.1440578306763
2114,9925,2114,8392,2114.0,31108.0,368.67270822551717,97.74788856598443,255.8682821312309
2125,9920,2125,8415,2125.0,31101.0,358.5515930251344,94.10152346736416,248.63755456017827
2125,9875,2125,8431,2125.0,31096.0,348.4513252222048,90.48986766297915,241.4509775238563
2125,9816,2125,8435,2125.0,31115.0,338.37593093969366,86.91177460918504,234.3075962985867
2125,9768,2125,8429,2125.0,31101.0,328.3310050424947,83.36662147858613,227.20671118403385
2125,9724,2125,8386,2125.0,31069.0,318.32252683508216,79.85453558701394,220.14812763340404
2125,9708,2125,8393,2125.0,31081.0,308.3557032027254,76.37618874964923,213.13214605302437
2135,9690,2135,8378,2135.0,31045.0,298.43414257276726,72.93239633726924,206.15937222279143
2135,9678,2135,8366,2135.0,31045.0,288.55941822395346,69.52383064244731,199.2305324847324
2135,9679,2135,8344,2135.0,31034.0,278.7309155973579,66.15079996350187,192.3462936798707
2135,9731,2135,8372,2135.0,30989.0,268.94599998287254,62.813006367242195,185.50706150158766
2135,9802,2135,8378,2135.0,30994.0,259.2008364816106,59.509520919910756,178.71266415353847
2135,9807,2135,8393,2135.0,30990.0,249.4919655209451,56.23913019626039,171.96199213065807
2145,9768,2145,8353,2145.0,30990.0,239.81792369675975,53.00076065271307,165.25288149727055
2145,9711,2145,8390,2145.0,31011.0,230.17992650463327,49.793644960733985,158.58229736069825
2145,9654,2145,8408,2145.0,31048.0,220.58137419510126,46.61743270125379,151.94679534344937
2145,9610,2145,8319,2145.0,30988.0,211.026674500936,43.47243769347472,145.34318424097575
2145,9598,2145,8333,2145.0,31002.0,201.51999937068,40.35950794317267,138.76892451068227
2145,9573,2145,8304,2145.0,30996.0,192.06439448811898,37.27934416242613,132.22207852903819
2156,9558,2156,8319,2156.0,30965.0,182.6612960927216,34.2319043092989,125.7011931526377
2156,9543,2156,8322,2156.0,30963.0,173.31025465931668,31.216234115034638,119.20519761657152
2156,9557,2156,8330,2156.0,30941.0,164.00879658474446,28.230604202813595,112.73317920371841
2156,9639,2156,8332,2156.0,30952.0,154.75271125984477,25.272797999990132,106.28417230813716
2156,9663,2156,8325,2156.0,30935.0,145.53714203037623,22.340384549967894,99.85709853408798
2156,9648,2156,8334,2156.0,30924.0,136.35818772428001,19.430893317598986,93.45078905378892
2166,9627,2166,8315,2166.0,30930.0,127.2140799212923,16.54191332320005,87.06397592774198
2166,9576,2166,8348,2166.0,30945.0,118.10544430795073,13.671179416778955,80.6953515839001
2166,9499,2166,8347,2166.0,30945.0,109.03475949399035,10.816781355704165,74.34386850717925
2166,9477,2166,8306,2166.0,30890.0,100.00522373948081,7.977453256440697,68.00906466106676
2166,9439,2166,8280,2166.0,30895.0,91.0194625988621,5.152520521920735,61.69098968891706
2166,9432,2166,8293,2166.0,30884.0,82.0785651073686,2.3413909574795753,55.38981285599368
2176,9423,2176,8268,2176.0,30881.0,73.18156378714082,-0.45692623108874386,49.10557009058243
2176,9425,2176,8264,2176.0,30863.0,64.32527749364931,-3.2440529482951206,42.83812499665987
2176,9488,2176,8292,2176.0,30845.0,55.50455962965373,-6.02235571127693,36.58709694227207
2176,9547,2176,8268,2176.0,30832.0,46.713210855335774,-8.79487937981446,30.35164896980143
2176,9538,2176,8299,2176.0,30834.0,37.94554632353095,-11.565109134866475,24.130240773096716
2176,9531,2176,8301,2176.0,30817.0,29.19788300674361,-14.33667596355906,17.920494499559254
2187,9480,2187,8309,2187.0,30887.0,20.469218738307518,-17.112973164873495,11.719304966705636
2187,9417,2187,8341,2187.0,30887.0,11.760995815286265,-19.89668781363997,5.523412925011371
2187,9361,2187,8277,2187.0,30855.0,3.0761252571636533,-22.689382670268117,-0.6697204412203064
2187,9357,2187,8277,2187.0,30837.0,-5.582325598054922,-25.49144415522221,-6.861454077926851
2187,9322,2187,8244,2187.0,30827.0,-14.212189292667404,-28.302537999354115,-13.052157368355097
2187,9303,2187,8243,2187.0,30799.0,-22.812810125297915,-31.122218403642762,-19.241602900974726
2197,9316,2197,8240,2197.0,30804.0,-31.38540402060437,-33.95035882356609,-25.429292530672
2197,9318,2197,8251,2197.0,30760.0,-39.93313403323555,-36.78731939158507,-31.61474102306579
2197,9397,2197,8274,2197.0,30775.0,-48.46066467660637,-39.633808482938434,-37.79776586565356
2197,9431,2197,8256,2197.0,30777.0,-56.97302701831018,-42.49051127021619,-43.97869016979939
2197,9398,2197,8237,2197.0,30769.0,-65.47407368495885,-45.3577969016622,-50.15828463098683
2197,9384,2197,8249,2197.0,30776.0,-73.96538371690906,-48.23574308430966,-56.33753960778847
2208,9328,2208,8257,2208.0,30785.0,-82.44612107237049,-51.12423724049938,-62.51741907933422
2208,9250,2208,8266,2208.0,30783.0,-90.91368079279687,-54.02282234781171,-68.69854586388351
2208,9227,2208,8234,2208.0,30754.0,-99.36489417207929,-56.930416987142735,-74.88090509499182
2208,9226,2208,8210,2208.0,30735.0,-107.79731338116198,-59.84530828935834,-81.06383307199872
2208,9207,2208,8197,2208.0,30739.0,-116.20995030989127,-62.76555542905544,-87.24629148878387
2208,9200,2208,8177,2208.0,30718.0,-124.60346969783438,-65.68955075298175,-93.42712552934154
2218,9191,2218,8171,2218.0,30690.0,-132.98021906723557,-68.61649373032733,-99.60523300967151
2218,9259,2218,8221,2218.0,30672.0,-141.34407520346542,-71.5466178982561,-105.77986721110142
2218,9298,2218,8208,2218.0,30679.0,-149.69969023090164,-74.4809563139307,-111.95104915491606
2218,9300,2218,8203,2218.0,30719.0,-158.051104796068,-77.42082157299339,-118.1196967403871
2218,9273,2218,8221,2218.0,30690.0,-166.4004527199453,-80.36745772792173,-124.2872562343249
2218,9244,2218,8220,2218.0,30695.0,-174.747432930919,-83.32184383393647,-130.45520035816236
2228,9182,2228,8254,2228.0,30708.0,-183.0895749302275,-86.28436374469706,-136.62475518007096
2228,9134,2228,8179,2228.0,30679.0,-191.42307721611814,-89.25444129441007,-142.79672625504702
2228,9108,2228,8178,2228.0,30667.0,-199.7439637508104,-92.23059012351388,-148.97139767117375
2228,9087,2228,8156,2228.0,30655.0,-208.04915383828438,-95.21098542354807,-155.14866992462305
2228,9076,2228,8157,2228.0,30634.0,-216.33715816281733,-98.19407195281372,-161.32833340614212
2228,9065,2228,8149,2228.0,30636.0,-224.6084273891587,-101.17888053364987,-167.51031560498467
2239,9086,2239,8156,2239.0,30619.0,-232.8654302719674,-104.16512795507296,-173.69485549094702
2239,9169,2239,8172,2239.0,30612.0,-241.11225686890202,-107.1531428098206,-179.88260507738033
2239,9181,2239,8158,2239.0,30621.0,-249.3534553748209,-110.14362334877765,-186.0746804196067
2239,9174,2239,8166,2239.0,30622.0,-257.5924707818132,-113.13738114899792,-192.2725851293921
2239,9138,2239,8174,2239.0,30617.0,-265.83059186630794,-116.13516771611162,-198.47797399439128
2239,9111,2239,8190,2239.0,30636.0,-274.06679496411266,-119.13744233988152,-204.6923639172852
2249,9035,2249,8173,2249.0,30623.0,-282.2982639146985,-122.14402452013064,-210.91682046054768
2249,8996,2249,8161,2249.0,30608.0,-290.5213959755746,-125.15386165742012,-217.1516806672501
2249,8984,2249,8133,2249.0,30592.0,-298.73303475184355,-128.16512450840548,-223.39650033528136
2249,8966,2249,8118,2249.0,30574.0,-306.931426339671,-131.17559603690222,-229.6502479988987
2249,8952,2249,8090,2249.0,30556.0,-315.1166883094621,-134.1832019373033,-235.91160802007124
2249,8977,2249,8082,2249.0,30533.0,-323.29094740721155,-137.1865675438999,-242.17933008653057
2259,9024,2259,8106,2259.0,30529.0,-331.45806300033837,-140.18543321830845,-248.45259884829892
2259,9073,2259,8117,2259.0,30534.0,-339.622675149981,-143.180673267631,-254.73129623707405
2259,9073,2259,8126,2259.0,30525.0,-347.78874517171107,-146.17390018950283,-261.01602900037824
2259,9051,2259,8139,2259.0,30528.0,-355.95825638421513,-149.16693551834572,-267.3079922865146
2259,9012,2259,8149,2259.0,30536.0,-364.1306618167464,-152.16131924532448,-273.6087846170482
2259,8963,2259,8156,2259.0,30559.0,-372.30314965373464,-155.15784359648256,-279.92010136082956
2270,8890,2270,8118,2270.0,30526.0,-380.4715220400134,-158.1562102895777,-286.243290476163
2270,8866,2270,8070,2270.0,30517.0,-388.6314728149039,-161.15512492489773,-292.57906593712016
2270,8859,2270,8079,2270.0,30500.0,-396.7798413404612,-164.1529337521822,-298.92759129681565
2270,8837,2270,8070,2270.0,30499.0,-404.9153791189209,-167.14832727629653,-305.28872694846564
2270,8840,2270,8055,2270.0,30490.0,-413.039033340684,-170.140681720116,-311.6621800201516
2270,8856,2270,8033,2270.0,30472.0,-421.1539477492031,-173.1302407531582,-318.0475589320139
2280,8927,2280,8081,2280.0,30441.0,-429.2650310420096,-176.11831559047278,-324.4445107133914
2280,8976,2280,8088,2280.0,30455.0,-437.37779523259655,-179.10717156464045,-330.8530139465487
2280,8951,2280,8080,2280.0,30454.0,-445.4966985864695,-182.09949589902754,-337.2735845021548
2280,8917,2280,8120,2280.0,30461.0,-453.6239016263538,-185.0978351699132,-343.7071633647389
2280,8890,2280,8100,2280.0,30466.0,-461.7590472446162,-188.10413796900878,-350.154787721115
2280,8801,2280,8095,2280.0,30449.0,-469.89986248995274,-191.1193743607838,-356.6172557547246
2290,8776,2290,8060,2290.0,30447.0,-478.04327038368615,-194.14346480482448,-363.09492880354776
2290,8754,2290,8050,2290.0,30428.0,-486.1866920799016,-197.17560755720058,-369.58771335944357
2290,8726,2290,8034,2290.0,30402.0,-494.32904769184006,-200.21477991832398,-376.095194568592
2290,8723,2290,8015,2290.0,30387.0,-502.4713263385738,-203.26020288126006,-382.616933378774
2290,8734,2290,8013,2290.0,30363.0,-510.61684483986085,-206.31172670957568,-389.1528848473055
2290,8801,2290,8013,2290.0,30355.0,-518.77101896453,-209.37010913310866,-395.7038141737074
2301,8862,2301,8059,2301.0,30389.0,-526.9403334582638,-212.43701414844514,-402.2715323688735
2301,8851,2301,8039,2301.0,30364.0,-535.130662473541,-215.514616049739,-408.85876737772514
2301,8816,2301,8077,2301.0,30359.0,-543.3458124385988,-218.60501101393788,-415.4688507111648
2301,8784,2301,8044,2301.0,30361.0,-551.5870622808245,-221.7097275940306,-422.10557163109354
2301,8741,2301,8040,2301.0,30394.0,-559.8535875648764,-224.82948986298828,-428.77306117379635
2301,8670,2301,8030,2301.0,30373.0,-568.1433334045963,-227.96428375653016,-435.4754063854542
2311,8667,2311,7976,2311.0,30369.0,-576.4541337944372,-231.11366588024362,-442.2161929677934
2311,8648,2311,7989,2311.0,30336.0,-584.784735406416,-234.27727430361682,-448.99835869142964
2311,8636,2311,7986,2311.0,30332.0,-593.1353596193437,-237.45535314382738,-455.8243898450339
2311,8620,2311,7994,2311.0,30320.0,-601.5079161425507,-240.64893881923746,-462.69662182755485
2311,8638,2311,7971,2311.0,30296.0,-609.9060867868862,-243.8597605791437,-469.6174758332784
2311,8727,2311,8007,2311.0,30301.0,-618.3350142179587,-247.09013252623578,-476.5896538135138
2321,8735,2321,8007,2321.0,30285.0,-626.8001847690496,-250.3427601779456,-483.61629163584905
2321,8729,2321,7988,2321.0,30293.0,-635.3058653876944,-253.62038864262593,-490.70099345270717
2321,8699,2321,8003,2321.0,30290.0,-643.8540416600457,-256.9255574348772,-497.84773706104124
2321,8646,2321,8010,2321.0,30333.0,-652.444277725505,-260.2604982728144,-505.0605934767367
2321,8573,2321,7985,2321.0,30291.0,-661.0743705295647,-263.62697543112995,-512.3432261988598
2321,8562,2321,7978,2321.0,30303.0,-669.7415414111648,-267.0262082168419,-519.6984493134571
2332,8533,2332,7960,2332.0,30265.0,-678.4436389169023,-270.4590535987664,-527.1281296699574
2332,8539,2332,7946,2332.0,30244.0,-687.1798712743531,-273.92632550338703,-534.6333966162689
2332,8490,2332,7929,2332.0,30262.0,-695.951123225304,-277.429139441529,-542.2149750740441
2332,8518,2332,7932,2332.0,30214.0,-704.7601567505807,-280.96924398451034,-549.8734233543936
2332,8557,2332,7974,2332.0,30214.0,-713.6115863775732,-284.54913667895056,-557.6092959260629
2332,8610,2332,7971,2332.0,30205.0,-722.511175674849,-288.1717275693804,-565.4233849189656
2342,8621,2342,7956,2342.0,30200.0,-731.4644588461964,-291.83976071935274,-573.3168966605111
2342,8610,2342,7977,2342.0,30207.0,-740.4753308002655,-295.5554489803255,-581.2914235827401
2342,8571,2342,7972,2342.0,30196.0,-749.5452450325974,-299.32029966559406,-589.3487802697914
2342,8512,2342,7969,2342.0,30235.0,-758.6732559830108,-303.13489631173377,-597.4907218122228
2342,8446,2342,7947,2342.0,30205.0,-767.8568390411383,-306.9987498105628,-605.7185079892948
2342,8434,2342,7927,2342.0,30180.0,-777.0931704988277,-310.91041114783025,-614.0325277441144
2352,8414,2352,7914,2352.0,30168.0,-786.380288733959,-314.8678194553348,-622.432323901091
2352,8392,2352,7868,2352.0,30153.0,-795.7177643396245,-318.8687842334727,-630.9169128820565
2352,8404,2352,7892,2352.0,30143.0,-805.1069905576142,-322.9115289506063,-639.4850574268171
2352,8421,2352,7887,2352.0,30109.0,-814.5511668813441,-326.99506538004977,-648.1354660393245
2352,8467,2352,7882,2352.0,30128.0,-824.0548017474495,-331.11920445139896,-656.8670143122024
2352,8526,2352,7896,2352.0,30109.0,-833.6226208956174,-335.28437971099413,-665.6788687713351
2363,8484,2363,7910,2363.0,30080.0,-843.2581119730092,-339.49140887087395,-674.5704768499207
2363,8469,2363,7908,2363.0,30097.0,-852.9624277183036,-343.74111451234603,-683.5416233677212
2363,8403,2363,7906,2363.0,30117.0,-862.7342345065805,-348.03391927567117,-692.5924280644808
2363,8332,2363,7876,2363.0,30121.0,-872.5704455113765,-352.36965228977317,-701.7229482616402
2363,8320,2363,7883,2363.0,30059.0,-882.4674782983667,-356.7476356380173,-710.9326537852704
2363,8312,2363,7863,2363.0,30067.0,-892.4224439874669,-361.16689706343965,-720.2203691274575
2373,8279,2373,7856,2373.0,30039.0,-902.4337803698133,-365.6263510837154,-729.5846444153757
2373,8267,2373,7837,2373.0,30045.0,-912.501527388034,-370.12498294803714,-739.0240634618197
2373,8258,2373,7828,2373.0,30045.0,-922.6275769153932,-374.66209415607784,-748.5372906178143
2373,8303,2373,7843,2373.0,29983.0,-932.8157268394915,-379.2375124307745,-758.1230264649181
2373,8368,2373,7845,2373.0,29995.0,-943.0711002468219,-383.85158200774566,-767.780184043031
2373,8367,2373,7829,2373.0,30016.0,-953.3988122217787,-388.50494638984446,-777.5081783980731
2383,8367,2383,7849,2383.0,29990.0,-963.8024811102798,-393.1983461671704,-787.3068518874169
2383,8319,2383,7846,2383.0,29988.0,-974.2833571630009,-397.9324460513946,-797.1761465683603
2383,8246,2383,7859,2383.0,30037.0,-984.8403699888503,-402.70754944451244,-807.1158252130323
2383,8203,2383,7812,2383.0,29980.0,-995.471023949595,-407.5233280189288,-817.1250628716699
2383,8186,2383,7818,2383.0,29937.0,-1006.1726861843335,-412.3788475986515,-827.2021477966103
2383,8158,2383,7799,2383.0,29938.0,-1016.9436197403988,-417.2728599967098,-837.3448037568686
2394,8146,2394,7741,2394.0,29925.0,-1027.7835635579827,-422.20418477257016,-847.5507675042718
2394,8134,2394,7786,2394.0,29923.0,-1038.6940435139354,-427.1721930864189,-857.8180224404147
2394,8141,2394,7786,2394.0,29898.0,-1049.6784853593126,-432.1771164337291,-868.1447735506958
2394,8230,2394,7764,2394.0,29885.0,-1060.7418987987996,-437.21987874407074,-878.5294732986273
2394,8252,2394,7821,2394.0,29857.0,-1071.889768341026,-442.30173718187365,-888.9709977006673
2394,8244,2394,7777,2394.0,29872.0,-1083.1263956450198,-447.4239097112919,-899.4688734682921
2404,8203,2404,7790,2404.0,29878.0,-1094.4536605435965,-452.5872136752053,-910.023305311732
2404,8174,2404,7805,2404.0,29906.0,-1105.87076321524,-457.7918691565282,-920.6348050981834
2404,8083,2404,7798,2404.0,29890.0,-1117.3747713868524,-463.0372950840107,-931.3035220261487
2404,8065,2404,7739,2404.0,29871.0,-1128.9617014093437,-468.32190617376295,-942.0286522434726
2404,8043,2404,7759,2404.0,29866.0,-1140.627736638806,-473.64330535096144,-952.8082173040957
2404,8023,2404,7752,2404.0,29826.0,-1152.3700631418499,-478.99869563796324,-963.6391467353172
2415,8016,2415,7701,2415.0,29786.0,-1164.1872439117642,-484.3851048155832,-974.5175858544723
2415,7992,2415,7710,2415.0,29788.0,-1176.0793805970195,-489.79963745715,-985.4394350012088
2415,8045,2415,7726,2415.0,29765.0,-1188.0480890950707,-495.239819186153,-996.4008531731045
2415,8107,2415,7719,2415.0,29774.0,-1200.0959287902392,-500.7036123154445,-1007.3984590608846
2415,8113,2415,7717,2415.0,29754.0,-1212.2250465963764,-506.1891252086995,-1018.429294363308
2415,8087,2415,7728,2415.0,29765.0,-1224.4356388076949,-511.6943554170036,-1029.4906871040166
2425,8041,2425,7743,2425.0,29766.0,-1236.7251616173685,-517.2169302293565,-1040.5800271909243
2425,7996,2425,7741,2425.0,29783.0,-1249.0885230367921,-522.753696975789,-1051.6943834789156
2425,7920,2425,7708,2425.0,29764.0,-1261.5189426212955,-528.3003493472286,-1062.8299927824614
2425,7906,2425,7720,2425.0,29745.0,-1274.009149290148,-533.8513610164334,-1073.9818637857807
2425,7887,2425,7659,2425.0,29721.0,-1286.5524944874292,-539.4002084871181,-1085.143718586467
2425,7880,2425,7648,2425.0,29710.0,-1299.1435761608818,-544.9398226353909,-1096.3082072765699
2435,7853,2435,7643,2435.0,29701.0,-1311.778426380537,-550.4632084361947,-1107.467146845572
2435,7865,2435,7632,2435.0,29657.0,-1324.4545501350622,-555.963921443168,-1118.6116976200396
2435,7955,2435,7669,2435.0,29659.0,-1337.1706454428095,-561.4361664909264,-1129.7326110664699
2435,7968,2435,7657,2435.0,29655.0,-1349.9255110793697,-566.874530968862,-1140.8205006704761
2435,7962,2435,7657,2435.0,29662.0,-1362.716392920711,-572.2735451099918,-1151.86586096357
2435,7930,2435,7666,2435.0,29648.0,-1375.5377605821927,-577.627346724341,-1162.8588127402245
2446,7880,2446,7662,2446.0,29660.0,-1388.3810264592316,-582.9294546064809,-1173.788789289323
2446,7804,2446,7669,2446.0,29662.0,-1401.2350879546323,-588.1725192697049,-1184.644212533541
2446,7757,2446,7622,2446.0,29619.0,-1414.087488767581,-593.3481564529363,-1195.4121756132004
2446,7751,2446,7631,2446.0,29617.0,-1426.9257766307255,-598.4470599398934,-1206.0783629963992
2446,7742,2446,7606,2446.0,29584.0,-1439.7384305282899,-603.4593251538377,-1216.6272793636722
2446,7739,2446,7605,2446.0,29598.0,-1452.515121009714,-608.3747369317736,-1227.0425246450197
2456,7721,2456,7577,2456.0,29562.0,-1465.246599427819,-613.1829894144239,-1237.3069295252167
2456,7764,2456,7595,2456.0,29541.0,-1477.924455234158,-617.8739051608916,-1247.4026672966538
2456,7822,2456,7600,2456.0,29548.0,-1490.5404906951082,-622.4375141821312,-1257.3114822485315
2456,7825,2456,7606,2456.0,29543.0,-1503.0854563001062,-626.8638515616838,-1267.0148489844812
2456,7794,2456,7607,2456.0,29531.0,-1515.547657120354,-631.1426014825186,-1276.4938892177288
2456,7774,2456,7607,2456.0,29557.0,-1527.9122378968455,-635.262788334403,-1285.729164018846
2466,7715,2466,7610,2466.0,29563.0,-1540.1612889062076,-639.212553690551,-1294.7003320111694
2466,7650,2466,7611,2466.0,29526.0,-1552.2745363093609,-642.9789689192721,-1303.3856842663488
2466,7631,2466,7572,2466.0,29520.0,-1564.2304455358867,-646.5479323858095,-1311.7619228553024
2466,7613,2466,7556,2466.0,29501.0,-1576.0073214586125,-649.9043520105431,-1319.804331490225
2466,7598,2466,7554,2466.0,29499.0,-1587.583968916741,-653.0326156601343,-1327.4870394999805
2466,7596,2466,7538,2466.0,29485.0,-1598.9399365387467,-655.917032130453,-1334.7831775631594
2477,7608,2477,7537,2477.0,29460.0,-1610.0554963237075,-658.5420873936798,-1341.6650009096265
2477,7680,2477,7566,2477.0,29435.0,-1620.9112119117945,-660.8925368496705,-1348.1041488245496
2477,7695,2477,7550,2477.0,29440.0,-1631.4868634622812,-662.9532571807978,-1354.0720534896273
2477,7689,2477,7545,2477.0,29448.0,-1641.7600171500048,-664.7089918697881,-1359.54022789554
2477,7661,2477,7569,2477.0,29438.0,-1651.704996821516,-666.1442316940652,-1364.480239468668
2477,7617,2477,7575,2477.0,29458.0,-1661.2926713875918,-667.2430768901008,-1368.863505921355
2487,7542,2487,7540,2487.0,29455.0,-1670.4909980739994,-667.9889884007939,-1372.6610457885508
2487,7512,2487,7532,2487.0,29416.0,-1679.2661524719197,-668.3647889428601,-1375.8432817162918
2487,7486,2487,7513,2487.0,29419.0,-1687.5838497593693,-668.3530641826908,-1378.3801423097116
2487,7476,2487,7531,2487.0,29422.0,-1695.4103522395271,-667.9366306582036,-1380.2414068310052
2487,7467,2487,7487,2487.0,29382.0,-1702.713010486114,-667.0988402996268,-1381.3969861104551
2487,7456,2487,7499,2487.0,29391.0,-1709.4604990497687,-665.8238718535414,-1381.8172074245742
2497,7511,2497,7521,2497.0,29358.0,-1715.6228024163656,-664.0970380751278,-1381.4732479917939
2497,7581,2497,7504,2497.0,29374.0,-1721.1706385553643,-661.9048521843381,-1380.337586496413
2497,7571,2497,7510,2497.0,29375.0,-1726.0741550931732,-659.23492893621,-1378.3843136919313
2497,7565,2497,7528,2497.0,29381.0,-1730.301572971361,-656.0759696577917,-1375.5892260666371
2497,7520,2497,7544,2497.0,29394.0,-1733.8186143650087,-652.417685944936,-1371.9297620938262
2497,7478,2497,7554,2497.0,29427.0,-1736.5888312477687,-648.2505146542865,-1367.3848304177127
2508,7419,2508,7520,2508.0,29407.0,-1738.574570600141,-643.5653673711888,-1361.9345165396949
2508,7405,2508,7515,2508.0,29402.0,-1739.738281961926,-638.3537586952903,-1355.559907487048
2508,7384,2508,7526,2508.0,29386.0,-1740.0437617593761,-632.608271136768,-1348.2433143799008
2508,7383,2508,7536,2508.0,29391.0,-1739.45702597307,-626.3229258400632,-1339.9687781514294
2508,7381,2508,7511,2508.0,29393.0,-1737.9468062302522,-619.4933096136729,-1330.7225614984495
2508,7409,2508,7493,2508.0,29408.0,-1735.4847452877189,-612.1168126040008,-1320.49347376679
2518,7499,2518,7567,2518.0,29412.0,-1732.0451188726188,-604.1930415091924,-1309.2730332553788
2518,7538,2518,7564,2518.0,29422.0,-1727.603793387088,-595.7238620091839,-1297.0555624096257
2518,7525,2518,7569,2518.0,29436.0,-1722.136740068062,-586.7129631660241,-1283.838293074747
2518,7510,2518,7603,2518.0,29464.0,-1715.6190636157285,-577.1654921629882,-1269.6214334190156
2518,7482,2518,7619,2518.0,29492.0,-1708.0250256982945,-567.0878483100842,-1254.408079237366
2518,7416,2518,7628,2518.0,29498.0,-1699.3288334327412,-556.4873933064348,-1238.2039878399398
2528,7433,2528,7603,2528.0,29520.0,-1689.5058820079516,-545.3722718306983,-1221.0174087010812
2528,7410,2528,7610,2528.0,29550.0,-1678.5340131175888,-533.751631611748,-1202.8590394873736
2528,7416,2528,7613,2528.0,29558.0,-1666.394401423893,-521.6361152171306,-1183.741977677822
2528,7420,2528,7627,2528.0,29584.0,-1653.072138557211,-509.03827922366503,-1163.6816633793978
2528,7447,2528,7642,2528.0,29589.0,-1638.5566285744626,-495.9727967338513,-1142.6959201673753
2528,7508,2528,7681,2528.0,29614.0,-1622.841637499599,-482.4564529448219,-1120.8050995171195
2539,7614,2539,7664,2539.0,29614.0,-1605.9246937283863,-468.50798186161234,-1098.0322978884572
2539,7639,2539,7730,2539.0,29678.0,-1587.8057322482061,-454.14788122370214,-1074.4035668718066
2539,7638,2539,7757,2539.0,29708.0,-1568.4856182130563,-439.398132185826,-1049.9478869623063
2539,7637,2539,7797,2539.0,29748.0,-1547.9654706800259,-424.2816186977394,-1024.696809000814
2539,7618,2539,7807,2539.0,29831.0,-1526.2469423104903,-408.8214300355032,-998.683899956766
2539,7575,2539,7780,2539.0,29829.0,-1503.333106913416,-393.04048287234576,-971.9440628658913
2549,7599,2549,7818,2549.0,29835.0,-1479.2297159609016,-376.96166046835134,-944.5130192320992
2549,7618,2549,7827,2549.0,29878.0,-1453.9463989733304,-360.6081606296182,-916.4273392949646
2549,7639,2549,7818,2549.0,29893.0,-1427.4973562774942,-344.00369551629444,-887.7247559198207
2549,7671,2549,7835,2549.0,29939.0,-1399.9016186864676,-327.1726943206185,-858.444321773303
2549,7728,2549,7844,2549.0,29966.0,-1371.1830861207611,-310.1406416060948,-828.626398437059
2549,7828,2549,7921,2549.0,30001.0,-1341.3701745574685,-292.93423885870135,-798.3125773760221
2559,7904,2559,7932,2559.0,30017.0,-1310.49480340496,-275.58107879346926,-767.5456285888179
2559,7944,2559,7959,2559.0,30063.0,-1278.590938930121,-258.10901368808345,-736.3695524906175
2559,7961,2559,7996,2559.0,30127.0,-1245.6934030424434,-240.54564588309464,-704.8295717418578
2559,7980,2559,8017,2559.0,30200.0,-1211.837442156065,-222.91797597944554,-672.9717458958746
2559,7944,2559,8018,2559.0,30210.0,-1177.0590428612566,-205.25210665774716,-640.8422296633798
2559,7977,2559,8017,2559.0,30263.0,-1141.3958192146747,-187.57319552296912,-608.4866488801083
2570,7986,2570,8053,2570.0,30291.0,-1104.8881183385377,-169.90570267293663,-575.9498436275159
2570,8048,2570,8054,2570.0,30301.0,-1067.5798452559507,-152.27362861412422,-543.2758272746626
2570,8088,2570,8059,2570.0,30349.0,-1029.5187749344004,-134.70063447022613,-510.50790332142765
2570,8143,2570,8067,2570.0,30364.0,-990.7564492661672,-117.21025214346844,-477.6888799237871
2570,8244,2570,8101,2570.0,30390.0,-951.3477707616182,-99.82617556188904,-444.86126736333205
2570,8356,2570,8146,2570.0,30450.0,-911.3501132010143,-82.57231856948346,-412.0674489718899
2580,8414,2580,8168,2580.0,30480.0,-870.8218381952514,-65.47247881610178,-379.3496946101278
2580,8465,2580,8207,2580.0,30525.0,-829.8207460258348,-48.54979912756903,-346.7499505641017
2580,8483,2580,8226,2580.0,30586.0,-788.4031408810637,-31.82626438877861,-314.3095400775503
2580,8493,2580,8266,2580.0,30652.0,-746.6236948063852,-15.322269622740066,-282.0687124505929
2580,8478,2580,8238,2580.0,30666.0,-704.5360073563656,0.9436989439493004,-250.06599687112248
2580,8529,2580,8247,2580.0,30685.0,-662.1936244129331,16.955041808414933,-218.3377401375095
2590,8555,2590,8268,2590.0,30701.0,-619.6510186040719,32.69665942851208,-186.91816093832824
2590,8613,2590,8247,2590.0,30750.0,-576.9641329208494,48.15452713198124,-155.8397029701431
2590,8671,2590,8262,2590.0,30765.0,-534.190491824759,63.31531921519752,-125.13328103387869
2590,8738,2590,8279,2590.0,30792.0,-491.3889792106769,78.16599972236372,-94.82838059979554
2590,8850,2590,8329,2590.0,30819.0,-448.6192469568316,92.69362723745019,-64.95320006152383
2590,8959,2590,8338,2590.0,30866.0,-405.94059228545996,106.8855845817352,-35.534802337753035
2601,9002,2601,8359,2601.0,30895.0,-363.4103728437449,120.73000110883089,-6.599098838750706
2601,9041,2601,8392,2601.0,30949.0,-321.0826153075335,134.21608063542726,21.829353296704767
2601,9046,2601,8419,2601.0,31009.0,-279.007455156573,147.3344062188466,49.72772736888271
2601,9033,2601,8429,2601.0,31025.0,-237.2314706328043,160.07733343218848,77.07547748339061
2601,9063,2601,8399,2601.0,31025.0,-195.7986461646483,172.43922554616404,103.85475624848925
2601,9100,2601,8402,2601.0,31046.0,-154.75146589571523,184.41621314233515,130.05032810572538
2611,9135,2611,8415,2611.0,31073.0,-114.13163601454835,196.00561798208957,155.64914482189545
2611,9175,2611,8404,2611.0,31096.0,-73.98040413566218,207.20546422232917,180.6400167201707
2611,9235,2611,8415,2611.0,31135.0,-34.33866459761862,218.0141600467059,205.01351364768652
2611,9321,2611,8430,2611.0,31125.0,4.753224519354035,228.43023443281612,228.76195843669132
2611,9445,2611,8482,2611.0,31136.0,43.25620742113347,238.45228696233642,251.8792602070015
2611,9484,2611,8478,2611.0,31202.0,81.13393763783279,248.07931464488104,274.36057562374276
2621,9520,2621,8503,2621.0,31209.0,118.3542222336389,257.31118307207123,296.2022071062876
2621,9551,2621,8521,2621.0,31242.0,154.88977986290206,266.1489586104766,317.4018352895307
2621,9546,2621,8583,2621.0,31289.0,190.71825906948698,274.59525948362943,337.95878230312974
2621,9546,2621,8508,2621.0,31282.0,225.8217403265819,282.65473498508675,357.87424928071323
2621,9530,2621,8514,2621.0,31314.0,260.18578529038587,290.3341485931933,377.1514775296524
2621,9550,2621,8479,2621.0,31298.0,293.79821195599925,297.6417248556926,395.7956592863213
2632,9579,2632,8507,2632.0,31348.0,326.6479766658333,304.5862677875725,413.8136789064414
2632,9611,2632,8513,2632.0,31363.0,358.72447706387743,311.17663740627245,431.21396157881566
2632,9663,2632,8511,2632.0,31343.0,390.01731279812225,317.4216407935676,448.00647993949997
2632,9797,2632,8532,2632.0,31372.0,420.51658122574463,323.3300763434686,464.2026086917988
2632,9870,2632,8543,2632.0,31386.0,450.2140241574989,328.9108074665278,479.81479048966037
2632,9887,2632,8586,2632.0,31405.0,479.1047567975331,334.173001054755,494.85635068489785
2642,9885,2642,8568,2642.0,31408.0,507.1884944197416,339.1265607739882,509.3414828038908
2642,9890,2642,8562,2642.0,31444.0,534.4696576724066,343.78245537390796,523.2852282651106
2642,9851,2642,8587,2642.0,31492.0,560.9566641281963,348.15271503704423,536.703581423737
2642,9841,2642,8534,2642.0,31469.0,586.66076617358,352.25024719154806,549.6138469525979
2642,9850,2642,8573,2642.0,31453.0,611.5946717638385,356.08856651724557,562.0348341813519
2642,9885,2642,8561,2642.0,31451.0,635.7714070887841,359.6815034920354,573.9864547625732
2653,9891,2653,8523,2653.0,31486.0,659.2037324129842,363.0430043751161,585.4890590016234
2653,9931,2653,8563,2653.0,31495.0,681.9039447409236,366.186854217141,596.563117331991
2653,9984,2653,8550,2653.0,31476.0,703.8839029836474,369.1263892343984,607.2292260497611
2653,10083,2653,8550,2653.0,31478.0,725.1555059368786,371.8744470228294,617.5079550075977
2653,10126,2653,8580,2653.0,31486.0,745.73182707928,374.4434246657944,627.4194151860465
2653,10129,2653,8571,2653.0,31506.0,765.6284706974038,376.8453937283632,636.982887493544
2663,10115,2663,8639,2663.0,31541.0,784.8643110851174,379.09242351453236,646.2167772595194
2663,10111,2663,8635,2663.0,31565.0,803.4612905140973,381.19718302275226,655.1389160621761
2663,10052,2663,8581,2663.0,31552.0,821.4435647632613,383.1735439538237,663.7670018531924
2663,10044,2663,8561,2663.0,31549.0,838.8362302663065,385.0365226020074,672.118782176912
2663,10059,2663,8548,2663.0,31560.0,855.6639093692681,386.8014812586007,680.2118483717572
2663,10057,2663,8536,2663.0,31564.0,871.949700864048,388.4832544548825,688.0633376712044
2673,10073,2673,8546,2673.0,31563.0,887.7146285881227,390.0955901377125,695.6897531089617
2673,10118,2673,8518,2673.0,31541.0,902.9773951056034,391.650832454952,703.1067569976608
2673,10186,2673,8564,2673.0,31564.0,917.7545612211311,393.1597384562216,710.3288038898993
2673,10274,2673,8555,2673.0,31562.0,932.0614320187499,394.63150319099793,717.3687845393333
2673,10266,2673,8572,2673.0,31577.0,945.9134768663605,396.07402928379554,724.2378746792833
2673,10267,2673,8597,2673.0,31593.0,959.3274936287005,397.49427878971153,730.9455477338763
2684,10234,2684,8566,2684.0,31612.0,972.3218345869432,398.8985977905662,737.4997025349335
2684,10186,2684,8620,2684.0,31644.0,984.9157137601146,400.2929568388722,743.9069462138139
2684,10198,2684,8571,2684.0,31632.0,997.1279937205693,401.68310906568104,750.1729773719892
2684,10192,2684,8525,2684.0,31622.0,1008.9759956828984,403.07451600398497,756.302806232673
2684,10196,2684,8563,2684.0,31630.0,1020.4747349972902,404.47179202872985,762.3006092190788
2684,10184,2684,8539,2684.0,31639.0,1031.636454011182,405.8780780589623,768.1694302921733
2694,10213,2694,8543,2694.0,31620.0,1042.4702170764608,407.2948057887827,773.9109839079892
2694,10274,2694,8554,2694.0,31639.0,1052.9817636170546,408.72163581453754,779.5254745074596
2694,10373,2694,8551,2694.0,31648.0,1063.1740965652525,410.1564320026022,785.0114122528951
2694,10397,2694,8550,2694.0,31649.0,1073.0489253751714,411.5953125847791,790.3655727415985
2694,10403,2694,8582,2694.0,31690.0,1082.6082794864426,413.03272745857646,795.5831068203161
2694,10384,2694,8588,2694.0,31675.0,1091.8553976850217,414.4616751456639,800.657764180205
2704,10380,2704,8637,2704.0,31748.0,1100.794707105521,415.874185055825,805.5822470789067
2704,10296,2704,8612,2704.0,31736.0,1109.4311710467796,417.26195397302683,810.3487368878884
2704,10315,2704,8610,2704.0,31756.0,1117.7691511795808,418.6168091729455,814.9494985821709
2704,10320,2704,8591,2704.0,31715.0,1125.8111847025918,419.9307211873131,819.3771930818161
2704,10328,2704,8590,2704.0,31772.0,1133.557297606931,421.1954838557285,823.6247782953774
2704,10347,2704,8614,2704.0,31737.0,1141.0048762440924,422.40242215065507,827.6853694458887
2715,10376,2715,8588,2715.0,31719.0,1148.1487896003619,423.54233041774785,831.5521560506877
2715,10462,2715,8626,2715.0,31747.0,1154.981847360816,424.60555227176576,835.2181086539813
2715,10510,2715,8672,2715.0,31734.0,1161.4958691500328,425.5822287543215,838.675641484308
2715,10554,2715,8650,2715.0,31795.0,1167.6832437475261,426.4628992204175,841.9166097058496
2715,10544,2715,8656,2715.0,31801.0,1173.5383774823663,427.2391254008801,844.9327103183689
2715,10496,2715,8661,2715.0,31800.0,1179.0583986154243,427.9037119367907,847.716090666991
2725,10451,2725,8679,2725.0,31826.0,1184.2428062332142,428.4507543589728,850.2598106759372
2725,10434,2725,8661,2725.0,31826.0,1189.0923045771701,428.875800088096,852.5580983449192
2725,10422,2725,8607,2725.0,31838.0,1193.6075048359114,429.17585551631703,854.606586936334
2725,10424,2725,8621,2725.0,31801.0,1197.7879942577533,429.34890945206445,856.402447020062
2725,10440,2725,8623,2725.0,31813.0,1201.6318515075143,429.39328468400856,857.9442192425486
2725,10448,2725,8606,2725.0,31813.0,1205.1355374634509,429.3073196194056,859.2314774345273
2735,10509,2735,8618,2735.0,31773.0,1208.2941331906231,429.0892910143943,860.2645447202483
2735,10588,2735,8630,2735.0,31797.0,1211.1020992440556,428.7373856005819,861.0441756302384
2735,10612,2735,8634,2735.0,31797.0,1213.5546879934661,428.24983399256246,861.5712325469858
2735,10588,2735,8645,2735.0,31804.0,1215.649456659067,427.6251947917625,861.8466195484427
2735,10585,2735,8641,2735.0,31837.0,1217.387031236199,426.86263109139765,861.8714796964018
2735,10540,2735,8677,2735.0,31858.0,1218.7709756728077,425.96217133095683,861.6476071709951
2746,10494,2746,8658,2746.0,31837.0,1219.8070860305295,424.9250455906552,861.1780094518062
2746,10467,2746,8635,2746.0,31827.0,1220.5022896387654,423.753951613809,860.4672390247483
2746,10463,2746,8604,2746.0,31820.0,1220.8634465599798,422.4529024369183,859.5212739307731
2746,10471,2746,8594,2746.0,31817.0,1220.896510521876,421.0266434012537,858.3472080712727
2746,10464,2746,8597,2746.0,31828.0,1220.6061988655408,419.4800290010517,856.9530505920168
2746,10494,2746,8588,2746.0,31785.0,1219.9959972871268,417.81766702850484,855.3476320980044
2756,10574,2756,8598,2756.0,31807.0,1219.0685376740616,416.04381974638676,853.5404211444373
2756,10615,2756,8618,2756.0,31785.0,1217.8266646179031,414.16248504086695,851.5412507232535
2756,10612,2756,8625,2756.0,31791.0,1216.2749840869328,412.1776958662378,849.360132531159
2756,10601,2756,8630,2756.0,31807.0,1214.4210563314134,410.093964994782,847.0072072749158
2756,10554,2756,8628,2756.0,31825.0,1212.275712764482,407.91666446952144,844.4929015223026
2756,10513,2756,8659,2756.0,31827.0,1209.8525714489483,405.65230925279445,841.8283332677793
2766,10469,2766,8617,2766.0,31814.0,1207.1670139315586,403.30883595945113,839.0257250500305
2766,10463,2766,8580,2766.0,31798.0,1204.234989293716,400.8956437339846,836.0985368909664
2766,10418,2766,8553,2766.0,31784.0,1201.0719950435325,398.4230651272804,833.061276162415
2766,10435,2766,8531,2766.0,31766.0,1197.692325418838,395.90146702444486,829.9291296564451
2766,10436,2766,8554,2766.0,31741.0,1194.108625064691,393.34049937237234,826.7175226299214
2766,10477,2766,8540,2766.0,31720.0,1190.331915599885,390.7487868448013,823.441594222174
2777,10569,2777,8556,2777.0,31731.0,1186.372284893464,388.1339902846496,820.1156595861466
2777,10570,2777,8568,2777.0,31750.0,1182.2402933257479,385.50302920245565,816.7529334770434
2777,10558,2777,8592,2777.0,31747.0,1177.9485340976282,382.8624529375997,813.3656828085436
2777,10523,2777,8571,2777.0,31766.0,1173.5124365568797,380.21893799201047,809.9656114487002
2777,10474,2777,8625,2777.0,31781.0,1168.950069278812,377.57974739675353,806.564278530849
2777,10407,2777,8563,2777.0,31773.0,1164.2812297731348,374.95310534320663,803.1735438243277
2787,10409,2787,8546,2787.0,31770.0,1159.5261501126804,372.34829458617884,799.8059224102677
2787,10385,2787,8533,2787.0,31733.0,1154.7043339104944,369.7752335071899,796.4746438803082
2787,10372,2787,8519,2787.0,31717.0,1149.8338720882564,367.2438421711296,793.1933448238019
2787,10367,2787,8502,2787.0,31721.0,1144.9310728977116,364.76357145099047,789.9755520305523
2787,10379,2787,8497,2787.0,31703.0,1140.0102558634424,362.3430422911181,786.8342716750118
2787,10466,2787,8509,2787.0,31686.0,1135.0839701819853,359.9897786195553,783.7817447630493
2797,10492,2797,8540,2797.0,31723.0,1130.1639912601713,357.7102339816285,780.8292550981325
2797,10501,2797,8528,2797.0,31701.0,1125.2628541514755,355.51018045694644,777.987126986748
2797,10454,2797,8553,2797.0,31702.0,1120.3950371040598,353.39521477676357,775.2649082716574
2797,10414,2797,8547,2797.0,31715.0,1115.5771573307675,351.3711649106378,772.6714833702811
2797,10350,2797,8529,2797.0,31719.0,1110.8272331708215,349.44435848449643,770.215172672102
2797,10311,2797,8499,2797.0,31705.0,1106.163398646176,347.6216030832482,767.9039313344692
2808,10307,2808,8477,2808.0,31706.0,1101.60254137438,345.9097608588315,765.7454630480692
2808,10285,2808,8481,2808.0,31691.0,1097.159308489166,344.31513174290774,763.7471513761843
2808,10282,2808,8455,2808.0,31664.0,1092.8455812247194,342.8429587261994,761.9158509180265
2808,10294,2808,8441,2808.0,31699.0,1088.6702456845842,341.49706715091327,760.2575927015986
2808,10324,2808,8452,2808.0,31632.0,1084.639273581548,340.2795103591339,758.7773351303937
2808,10401,2808,8501,2808.0,31652.0,1080.7563393155726,339.19044621033214,757.4786833931131
2818,10422,2818,8476,2818.0,31685.0,1077.024078420376,338.2285074850138,756.3635731336233
2818,10416,2818,8493,2818.0,31686.0,1073.4455804761478,337.39134237100745,755.4323452720239
2818,10393,2818,8514,2818.0,31672.0,1070.025361538836,336.67595877772015,754.6841815579909
2818,10356,2818,8533,2818.0,31693.0,1066.7694800365753,336.07908099044084,754.1173767001056
2818,10295,2818,8491,2818.0,31692.0,1063.6849477640303,335.5976017277271,753.7294288805244
2818,10267,2818,8502,2818.0,31696.0,1060.7786462542122,335.22873710222575,753.5171956013435
2828,10235,2828,8454,2828.0,31672.0,1058.0560579458524,334.9697388764192,753.4770137565982
2828,10233,2828,8468,2828.0,31690.0,1055.5201984723594,334.8173968339958,753.6046261814963
2828,10237,2828,8471,2828.0,31697.0,1053.1709684729253,334.767606587568,753.8950766955161
2828,10262,2828,8460,2828.0,31661.0,1051.0049895979946,334.8151992328338,754.3427174624277
2828,10325,2828,8491,2828.0,31663.0,1049.0159894742706,334.9539884633797,754.9410900311267
2828,10377,2828,8504,2828.0,31684.0,1047.195830847188,335.17698472007794,755.6826215551009
2839,10403,2839,8516,2839.0,31702.0,1045.5360373576304,335.47683323555566,756.5585553117227
2839,10380,2839,8504,2839.0,31680.0,1044.0292212235536,335.84628596476125,757.5592230242445
2839,10341,2839,8482,2839.0,31717.0,1042.6697493037223,336.27838383954014,758.6743030943003
2839,10300,2839,8530,2839.0,31747.0,1041.453443378547,336.76636172102417,759.8930670777941
2839,10252,2839,8511,2839.0,31717.0,1040.3766022015402,337.3036648276386,761.2048312709276
2839,10275,2839,8473,2839.0,31724.0,1039.4348534225255,337.88410316550437,762.5993061438585
2849,10233,2849,8508,2849.0,31700.0,1038.6223110916449,338.5017313353188,764.0665140986969
2849,10228,2849,8482,2849.0,31695.0,1037.931079373764,339.1505631979252,765.5964418304311
2849,10244,2849,8464,2849.0,31698.0,1037.3508658988703,339.824404913928,767.1786623689277
2849,10303,2849,8492,2849.0,31700.0,1036.8689154757728,340.5166567996439,768.8020728393478
2849,10385,2849,8486,2849.0,31707.0,1036.4707582871583,341.22016919844503,770.4548211360407
2849,10390,2849,8501,2849.0,31709.0,1036.1417527300382,341.92736507214954,772.1243530648076
2860,10400,2860,8505,2860.0,31726.0,1035.8686826697262,342.6304858587367,773.797517601756
2860,10374,2860,8552,2860.0,31756.0,1035.6406587617416,343.321908221201,775.460797455586
2860,10325,2860,8548,2860.0,31786.0,1035.4491643822798,343.9946735925838,777.1007968961951
2860,10260,2860,8531,2860.0,31769.0,1035.2873294909323,344.643054692902,778.7049043072327
2860,10239,2860,8498,2860.0,31760.0,1035.1486027040164,345.2626917583705,780.2617271686745
2860,10243,2860,8481,2860.0,31740.0,1035.025376317038,345.85014891170727,781.761026670455
2870,10225,2870,8469,2870.0,31750.0,1034.9081270998793,346.4022085429624,783.1933425550686
2870,10232,2870,8471,2870.0,31735.0,1034.7850569350876,346.9152741608516,784.5496485085177
2870,10264,2870,8474,2870.0,31724.0,1034.6420110056406,347.3850477716707,785.8211072171546
2870,10348,2870,8474,2870.0,31735.0,1034.462880332925,347.8064535752573,786.9988221774208
2870,10424,2870,8526,2870.0,31718.0,1034.2308715961644,348.1737797860808,788.0736209511317
2870,10411,2870,8507,2870.0,31723.0,1033.9304180790878,348.48109945213065,789.0359086078886
2880,10387,2880,8526,2880.0,31746.0,1033.5487244518308,348.72280450565836,789.8755855823122
2880,10359,2880,8517,2880.0,31786.0,1033.0761768592588,348.89394562555907,790.5822346516713
2880,10285,2880,8530,2880.0,31803.0,1032.505760381904,348.9903841581514,791.1457433010037
2880,10267,2880,8521,2880.0,31785.0,1031.8319030961425,349.00890398390993,791.5570703890362
2880,10237,2880,8488,2880.0,31767.0,1031.0491395771053,348.94721667962773,791.8086292427757
2880,10228,2880,8490,2880.0,31750.0,1030.1510230706583,348.8037002068988,791.8941012858995
2891,10231,2891,8464,2891.0,31763.0,1029.129450448076,348.57694203431475,791.8079941228957
2891,10246,2891,8487,2891.0,31758.0,1027.9743839725807,348.2653437629871,791.5453530780252
2891,10290,2891,8445,2891.0,31715.0,1026.674024783575,347.86688849208986,791.1016283945075
2891,10382,2891,8516,2891.0,31730.0,1025.2156084108533,347.37905276595865,790.4723845816229
2891,10404,2891,8489,2891.0,31743.0,1023.5869258956948,346.79898863844005,789.6529350327309
2891,10382,2891,8486,2891.0,31735.0,1021.7780366487827,346.12390915037713,788.6382845427443
2901,10351,2901,8505,2901.0,31759.0,1019.7822101284708,345.3513089914957,787.4233414263391
2901,10327,2901,8542,2901.0,31790.0,1017.5958113027143,344.47912971263634,786.0032557113832
2901,10237,2901,8486,2901.0,31781.0,1015.217508545604,343.5061488371093,784.373954395376
2901,10225,2901,8485,2901.0,31766.0,1012.6470347998816,342.43217604791687,782.5326492813389
2901,10222,2901,8452,2901.0,31738.0,1009.88384204933,341.257694243547,780.4779127747777
2901,10208,2901,8479,2901.0,31733.0,1006.9262400514326,339.98331783500385,778.2093197061208
2911,10200,2911,8459,2911.0,31736.0,1003.7710719766701,338.60951349108706,775.727011401043
2911,10225,2911,8441,2911.0,31721.0,1000.4136092915458,337.1365286757611,773.0314572420514
2911,10309,2911,8471,2911.0,31704.0,996.8478420497761,335.564287142153,770.1233307473772
2911,10356,2911,8458,2911.0,31736.0,993.0676059057475,333.89235458481284,767.0033686119751
2911,10341,2911,8462,2911.0,31704.0,989.0682869908246,332.1200978983937,763.6723503015759
2911,10303,2911,8494,2911.0,31708.0,984.8480808289132,330.24691258363924,760.1311819851917
2922,10270,2922,8481,2922.0,31719.0,980.408149738573,328.2725446248425,756.3809087158883
2922,10194,2922,8483,2922.0,31751.0,975.7518851934544,326.19747244917295,752.4228511279587
2922,10184,2922,8461,2922.0,31738.0,970.8837122333496,324.0230798165073,748.2590750544239
2922,10173,2922,8429,2922.0,31701.0,965.8079053325906,321.7514921271719,743.8928398647689
2922,10142,2922,8418,2922.0,31688.0,960.5278264114561,319.3851165785576,739.3285458295766
2922,10131,2922,8430,2922.0,31683.0,955.0454836772606,316.9261168104165,734.5712856382453
2932,10135,2932,8434,2932.0,31657.0,949.3611723942959,314.376186234991,729.6264309816413
2932,10179,2932,8420,2932.0,31652.0,943.473403939025,311.73665236383846,724.4993410591368
2932,10256,2932,8453,2932.0,31658.0,937.3795359653313,309.00866518195204,719.1951280804246
2932,10273,2932,8438,2932.0,31627.0,931.077202877053,306.19343511918834,713.7185443491517
2932,10242,2932,8423,2932.0,31642.0,924.5659253909735,303.2924942686571,708.0739300517045
2932,10229,2932,8447,2932.0,31660.0,917.8479946430681,300.3078006980087,702.265227667405
2942,10173,2942,8487,2942.0,31669.0,910.9284203716735,297.24190031375025,696.296289512146
2942,10113,2942,8445,2942.0,31666.0,903.8142385624587,294.09843155363586,690.171427688395
2942,10088,2942,8420,2942.0,31638.0,896.5133908905432,290.88251343473604,683.8958298970033
2942,10048,2942,8384,2942.0,31599.0,889.0335035874444,287.60046436093955,677.4755434782292
2942,10054,2942,8360,2942.0,31609.0,881.3809499965475,284.25903366084367,670.9170558439206
2942,10045,2942,8364,2942.0,31615.0,873.5603544315114,280.86462730406674,664.2269082297491
2953,10049,2953,8338,2953.0,31594.0,865.5745148758699,277.42279269392344,657.4116825436774
2953,10123,2953,8378,2953.0,31550.0,857.4247383015226,273.9380109050771,650.4780534940484
2953,10161,2953,8384,2953.0,31570.0,849.1118050435388,270.41384273383153,643.4325273486113
2953,10143,2953,8381,2953.0,31545.0,840.6374589616847,266.8533980568323,636.2811059073733
2953,10125,2953,8389,2953.0,31566.0,832.0056057602658,263.2598167237297,629.0292195113078
2953,10088,2953,8383,2953.0,31561.0,823.2226487032049,259.63656052741,621.6819086544148
2963,10023,2963,8397,2963.0,31600.0,814.2970931301896,255.98762542413544,614.2442115202505
2963,9970,2963,8375,2963.0,31566.0,805.2386097981138,252.31774471637107,606.721728939217
2963,9972,2963,8325,2963.0,31544.0,796.0568178422245,248.63239688361864,599.1210427994259
2963,9932,2963,8323,2963.0,31513.0,786.7603132233771,244.93738113325958,591.4496335726006
2963,9914,2963,8292,2963.0,31495.0,777.3561143772516,241.23813251435945,583.7153979257937
2963,9910,2963,8310,2963.0,31509.0,767.8492779012724,237.5391852044486,575.9261790176938
2973,9958,2973,8305,2973.0,31464.0,758.2427751216186,233.84396593392748,568.0895480257559
2973,10020,2973,8317,2973.0,31452.0,748.5380847086047,230.15489311883314,560.2126524943305
2973,10047,2973,8310,2973.0,31458.0,738.7366206298389,226.47363385768236,552.3019390065914
2973,10014,2973,8337,2973.0,31473.0,728.8413781373624,222.80139526262067,544.3630292218791
2973,9983,2973,8337,2973.0,31470.0,718.8578951412808,219.1392966099687,536.4010000082765
2973,9939,2973,8355,2973.0,31473.0,708.7942232747973,215.4888526191931,528.4208529686209
2984,9851,2984,8347,2984.0,31454.0,698.6601755971541,211.8524585348391,520.4278797483686
2984,9825,2984,8303,2984.0,31424.0,688.4660834084076,208.2336604168119,512.4277732006576
2984,9803,2984,8253,2984.0,31422.0,678.2214301888929,204.63689688165462,504.4264518534362
2984,9801,2984,8244,2984.0,31400.0,667.9339310080658,201.06666361381863,496.42977153293253
2984,9776,2984,8250,2984.0,31389.0,657.6091906714057,197.52662263072182,488.4433040632556
2984,9789,2984,8231,2984.0,31366.0,647.250655015297,194.01915804739832,480.47214237924464
2994,9852,2994,8258,2994.0,31341.0,636.8598632604103,190.5453235878668,472.52063271104555
2994,9907,2994,8280,2994.0,31373.0,626.4374060448597,187.1050522483509,464.59210855389074
2994,9891,2994,8256,2994.0,31353.0,615.9845445466713,183.69761795485283,456.6888812705608
2994,9862,2994,8269,2994.0,31351.0,605.5046143828896,180.32205981864243,448.812497334183
2994,9824,2994,8278,2994.0,31354.0,595.0034816374495,176.97739091891563,440.9639767873984
2994,9744,2994,8288,2994.0,31406.0,584.4890933963363,173.66284257802008,433.14410369051944
3003,9702,3003,8229,3003.0,31352.0,573.9704079457582,170.37813403720443,425.35399922020076
3003,9683,3003,8265,3003.0,31326.0,563.4560706797126,167.123429593389,417.59556454552944
3003,9654,3003,8201,3003.0,31323.0,552.9533595835758,163.89902367925507,409.87131584092947
3003,9646,3003,8216,3003.0,31293.0,542.467594302484,160.70497244484517,402.1839311192155
3003,9630,3003,8206,3003.0,31289.0,532.0018405970123,157.54072849917705,394.5359216429418
3003,9658,3003,8192,3003.0,31266.0,521.5568594221988,154.4049063076988,386.9293893793258
3014,9751,3014,8224,3014.0,31261.0,511.1315959880918,151.2952410003579,379.3658097070693
3014,9762,3014,8225,3014.0,31254.0,500.7245406525852,148.20876491858286,371.8458797814652
3014,9726,3014,8222,3014.0,31252.0,490.3354597762004,145.14219994639453,364.3694770308782
3014,9703,3014,8238,3014.0,31261.0,479.96639161356296,142.09234310638502,356.93576216239484
3014,9638,3014,8261,3014.0,31280.0,469.6215591519325,139.0564131395905,349.54347119730994
3014,9585,3014,8236,3014.0,31271.0,459.3065782606167,136.03249173015536,342.19140060305824
3024,9550,3024,8215,3024.0,31260.0,449.02729898158015,133.01981458795035,334.87888115740174
3024,9536,3024,8177,3024.0,31228.0,438.78866632135015,130.01857246274847,327.60595523084345
3024,9520,3024,8175,3024.0,31209.0,428.5939767778159,127.02932127773488,320.37317857826633
3024,9512,3024,8147,3024.0,31193.0,418.44455878149563,124.05235957954346,313.18120448731145
3024,9521,3024,8146,3024.0,31182.0,408.33973326242653,121.08725745223802,306.030385018483
3024,9573,3024,8178,3024.0,31160.0,398.2771210783194,118.1326117685314,298.9204884804694
3034,9603,3034,8180,3034.0,31165.0,388.2535199240059,115.18619778553173,291.85049265638804
3034,9617,3034,8184,3034.0,31161.0,378.26624554812804,112.24544832039072,284.8184902152459
3034,9594,3034,8167,3034.0,31194.0,368.3143828600271,109.30786392258887,277.8218439516181
3034,9539,3034,8205,3034.0,31165.0,358.3993864233015,106.37121245842258,270.8576020279537
3034,9467,3034,8218,3034.0,31222.0,348.5247632227207,103.43382376286988,263.92301544600076
3034,9423,3034,8137,3034.0,31149.0,338.69495300922586,100.4949935905708,257.01601617185173
3045,9405,3045,8147,3045.0,31157.0,328.91394645196044,97.55491003777391,250.13542326661286
3045,9380,3045,8115,3045.0,31129.0,319.18423594025705,94.61399924866768,243.28072328150557
3045,9373,3045,8163,3045.0,31130.0,309.50625272036825,91.67238656279,236.45172244002862
3045,9366,3045,8110,3045.0,31107.0,299.87813041828963,88.72983736330917,229.64833977859246
3045,9407,3045,8097,3045.0,31085.0,290.29577874445886,85.7857769280983,222.8704319718351
3045,9473,3045,8140,3045.0,31082.0,280.753526469054,82.8390837099048,216.1175344934676
3055,9484,3055,8159,3055.0,31073.0,271.24547342095843,79.8881174702102,209.3886203031401
3055,9476,3055,8132,3055.0,31076.0,261.76704978920793,76.93125954822011,202.68202380518068
3055,9438,3055,8127,3055.0,31088.0,252.3159916201363,73.9673683151151,195.9955624893463
3055,9393,3055,8176,3055.0,31106.0,242.89243312978385,70.99588272803499,189.32687856286498
3055,9316,3055,8139,3055.0,31092.0,233.49824743950535,68.01703542163204,182.67395813750568
3055,9299,3055,8087,3055.0,31084.0,224.13588262833412,65.03208023613064,176.03557304956178
