c_ts,c_val,d_ts,d_val,e_ts,e_val,c_val_filtered,d_val_filtered,e_val_filtered
422.0,13032.0,422.0,24084.0,422.0,23795.0,-230.00857468482877,-145.27164893237187,-240.18699855477806
422.0,13024.0,422.0,24063.0,422.0,23818.0,-237.07540135084508,-150.12414879063155,-244.50948081496892
422.0,13038.0,422.0,24095.0,422.0,23815.0,-244.27750088662094,-155.0015881890178,-248.93125935840865
422.0,13049.0,422.0,24113.0,422.0,23839.0,-251.61039009576882,-159.89890534728423,-253.45414923126899
422.0,13045.0,422.0,24148.0,422.0,23859.0,-259.0689643686193,-164.81060400404328,-258.07866330760083
422.0,13025.0,422.0,24099.0,422.0,23813.0,-266.64714601511145,-169.7299970186903,-262.80352658936135
432.0,13001.0,432.0,24078.0,432.0,23796.0,-274.33782821147304,-174.64887253116336,-267.6255455516192
432.0,12967.0,432.0,24014.0,432.0,23762.0,-282.13318963506487,-179.55793097807364,-272.54005315910854
432.0,12971.0,432.0,24015.0,432.0,23771.0,-290.02521811584796,-184.4477443081364,-277.5415916912936
432.0,12942.0,432.0,23994.0,432.0,23755.0,-298.00617641998815,-189.30969937691358,-282.6244004426351
432.0,12945.0,432.0,24007.0,432.0,23759.0,-306.0688950661313,-194.13655344907139,-287.7826194231852
432.0,12953.0,432.0,24043.0,432.0,23768.0,-314.20690658559465,-198.9224968450215,-293.0103084034595
442.0,12966.0,442.0,24015.0,442.0,23761.0,-322.4143283657735,-203.66279379468097,-298.30132803734097
442.0,12954.0,442.0,24026.0,442.0,23758.0,-330.6855003587071,-208.3533538160664,-303.64916825206495
442.0,12958.0,442.0,24055.0,442.0,23787.0,-339.01462474259404,-212.99047459933948,-309.04679088815914
442.0,12978.0,442.0,24093.0,442.0,23811.0,-347.3954947441174,-217.57042059762864,-314.48629252641365
442.0,12961.0,442.0,24105.0,442.0,23802.0,-355.82116508291983,-222.0885784167895,-319.9582845254549
442.0,12942.0,442.0,24041.0,442.0,23768.0,-364.28365126329095,-226.53864447157173,-325.4513831334108
453.0,12907.0,453.0,24011.0,453.0,23728.0,-372.7739635215625,-230.91256753214876,-330.95228960282043
453.0,12893.0,453.0,23977.0,453.0,23714.0,-381.2825181844256,-235.2013414796694,-336.44644650914483
453.0,12878.0,453.0,23951.0,453.0,23704.0,-389.7996656643728,-239.39607176273518,-341.9188173825335
453.0,12868.0,453.0,23964.0,453.0,23710.0,-398.3160945727925,-243.4888281160277,-347.35438536992
453.0,12874.0,453.0,23996.0,453.0,23702.0,-406.82303737902146,-247.47301263853893,-352.73830462309604
453.0,12889.0,453.0,24030.0,453.0,23701.0,-415.3122333915145,-251.3430431350491,-358.055872863017
463.0,12873.0,463.0,24002.0,463.0,23707.0,-423.77564934496985,-255.0935866885337,-363.29246725971757
463.0,12890.0,463.0,24031.0,463.0,23713.0,-432.2051359507372,-258.7189264827217,-368.4334218431593
463.0,12890.0,463.0,24063.0,463.0,23710.0,-440.5921238843724,-262.2125632421954,-373.46381251657925
463.0,12914.0,463.0,24069.0,463.0,23726.0,-448.92724210369965,-265.56665483518964,-378.3682088370035
463.0,12873.0,463.0,24044.0,463.0,23716.0,-457.1998769936738,-268.7713610401388,-383.1304234047167
463.0,12839.0,463.0,23990.0,463.0,23695.0,-465.39802477227556,-271.81467859018005,-387.7333403124299
473.0,12832.0,473.0,23942.0,473.0,23680.0,-473.50866415756644,-274.68308453757766,-392.1590053132635
473.0,12799.0,473.0,23949.0,473.0,23667.0,-481.5183582644877,-277.3626807128324,-396.3889742118283
473.0,12806.0,473.0,23933.0,473.0,23659.0,-489.4137360418887,-279.84016985127744,-400.40470958777433
473.0,12802.0,473.0,23967.0,473.0,23656.0,-497.18175856219386,-282.1032651511929,-404.18788275862175
473.0,12820.0,473.0,23973.0,473.0,23674.0,-504.8097038093439,-284.14058023176074,-407.72051074637864
473.0,12820.0,473.0,23973.0,473.0,23702.0,-512.284876457704,-285.94123261575226,-410.984805392108
484.0,12801.0,484.0,23936.0,484.0,23673.0,-519.5942474517658,-287.49455978076105,-413.9627594864786
484.0,12802.0,484.0,23994.0,484.0,23669.0,-526.7242747418528,-288.79014848186216,-416.6358509539265
484.0,12837.0,484.0,24031.0,484.0,23689.0,-533.6608307226898,-289.81770009577883,-418.9850741184439
484.0,12817.0,484.0,24037.0,484.0,23686.0,-540.388919092123,-290.5662952051493,-420.9909708091389
484.0,12793.0,484.0,23965.0,484.0,23666.0,-546.8923151554789,-291.02363654665294,-422.6335141887421
484.0,12767.0,484.0,23961.0,484.0,23649.0,-553.1536015888445,-291.1761489752115,-423.89216972823056
494.0,12734.0,494.0,23906.0,494.0,23613.0,-559.1546669672624,-291.00988220011175,-424.74632622558056
494.0,12740.0,494.0,23890.0,494.0,23621.0,-564.8773579860205,-290.51162579562424,-425.1759518185305
494.0,12727.0,494.0,23921.0,494.0,23616.0,-570.303972275893,-289.6698503917837,-425.16217411501873
494.0,12749.0,494.0,23946.0,494.0,23629.0,-575.417430494794,-288.47509297689425,-424.68755640059834
494.0,12736.0,494.0,23950.0,494.0,23646.0,-580.2011748102658,-286.91966120845296,-423.736074575496
494.0,12737.0,494.0,23959.0,494.0,23629.0,-584.6389825307517,-284.99712249449465,-422.29294311515736
504.0,12735.0,504.0,23994.0,504.0,23629.0,-588.7148633909887,-282.7019201076474,-420.3445293715016
504.0,12746.0,504.0,23990.0,504.0,23667.0,-592.413008638023,-280.02899107595357,-417.8784133572111
504.0,12760.0,504.0,24068.0,504.0,23681.0,-595.7176345862824,-276.97323223400474,-414.88326561211875
504.0,12745.0,504.0,24019.0,504.0,23660.0,-598.6127110363982,-273.52882472470725,-411.3484767720205
504.0,12732.0,504.0,23973.0,504.0,23629.0,-601.0817976792458,-269.6888603177608,-407.26405727935634
504.0,12697.0,504.0,23936.0,504.0,23638.0,-603.1082237551939,-265.4458950627447,-402.6210969687677
515.0,12693.0,515.0,23917.0,515.0,23627.0,-604.6756013781118,-260.7932321675368,-397.41241248073885
515.0,12680.0,515.0,23942.0,515.0,23637.0,-605.76843020979,-255.72610662669854,-391.63299827591436
515.0,12701.0,515.0,23935.0,515.0,23642.0,-606.3725187805871,-250.2422942024665,-385.28027540278447
515.0,12713.0,515.0,23968.0,515.0,23668.0,-606.4750671247621,-244.34221370766636,-378.35418269653877
515.0,12697.0,515.0,23995.0,515.0,23685.0,-606.0644921353019,-238.0287270538328,-370.8570659679411
515.0,12716.0,515.0,23992.0,515.0,23673.0,-605.1302773487749,-231.3067463331971,-362.79346029844555
525.0,12714.0,525.0,23993.0,525.0,23723.0,-603.6629426502327,-224.18290283367006,-354.16994952428234
525.0,12759.0,525.0,24100.0,525.0,23764.0,-601.6539257961045,-216.66531425875095,-344.9949428907187
525.0,12751.0,525.0,24103.0,525.0,23765.0,-599.0952364268717,-208.7629237773883,-335.27812379703926
525.0,12734.0,525.0,24053.0,525.0,23743.0,-595.979103434342,-200.48454219125037,-325.02995284696823
525.0,12731.0,525.0,24013.0,525.0,23749.0,-592.2979903314294,-191.83870800470538,-314.26175106017985
525.0,12706.0,525.0,24012.0,525.0,23754.0,-588.0450031585241,-182.83467069251878,-302.9861969592647
536.0,12709.0,536.0,24005.0,536.0,23764.0,-583.214448317754,-173.48360037114372,-291.2177656328715
536.0,12701.0,536.0,24030.0,536.0,23778.0,-577.8023766275951,-163.79934561277832,-278.97296769620516
536.0,12748.0,536.0,24067.0,536.0,23794.0,-571.8069336620033,-153.79865605512117,-266.27045850419887
536.0,12760.0,536.0,24118.0,536.0,23854.0,-565.2283060292523,-143.5008713773875,-253.13097053375523
536.0,12770.0,536.0,24126.0,536.0,23866.0,-558.0683385265922,-132.92720157368427,-239.57693476588625
536.0,12783.0,536.0,24142.0,536.0,23885.0,-550.3301823881852,-122.10001681442547,-225.63193205977282
546.0,12813.0,546.0,24208.0,546.0,23920.0,-542.0181000399125,-111.04236477935352,-211.32029152088785
546.0,12844.0,546.0,24235.0,546.0,23961.0,-533.1371996055061,-99.77739297553138,-196.66677439299548
546.0,12844.0,546.0,24239.0,546.0,23937.0,-523.6930160564477,-88.32755590360946,-181.69619900653313
546.0,12813.0,546.0,24189.0,546.0,23950.0,-513.6912687086267,-76.71417701880165,-166.43331156485968
546.0,12810.0,546.0,24169.0,546.0,23948.0,-503.1381652261633,-64.95788688077715,-150.90310635892675
546.0,12820.0,546.0,24185.0,546.0,23982.0,-492.04109611503793,-53.079671688538866,-135.1312687856473
556.0,12841.0,556.0,24170.0,556.0,23974.0,-480.40919332933635,-41.10181714670506,-119.14443477228988
556.0,12852.0,556.0,24248.0,556.0,24001.0,-468.25351596634897,-29.048348297668156,-102.97033659858297
556.0,12887.0,556.0,24282.0,556.0,24077.0,-455.5869902430132,-16.944833048799126,-86.63782210746217
556.0,12906.0,556.0,24310.0,556.0,24089.0,-442.4242106506293,-4.81760528246005,-70.17645499088405
556.0,12927.0,556.0,24338.0,556.0,24087.0,-428.7811504392655,7.307117697597988,-53.61587330692305
556.0,12937.0,556.0,24367.0,556.0,24127.0,-414.67491452610716,19.40387816973427,-36.98549012946148
567.0,13000.0,567.0,24427.0,567.0,24198.0,-400.1235464545517,31.448554302498195,-20.314383595880656
567.0,13010.0,567.0,24409.0,567.0,24206.0,-385.14567838587334,43.419030456045306,-3.6307986446400378
567.0,12994.0,567.0,24394.0,567.0,24180.0,-369.76011865666976,55.29562833740283,13.038459198123292
567.0,13002.0,567.0,24376.0,567.0,24188.0,-353.98585187338887,67.06086462371579,29.667994166822552
567.0,13008.0,567.0,24342.0,567.0,24196.0,-337.8424995014812,78.69862271513034,46.23320620267947
567.0,13036.0,567.0,24331.0,567.0,24230.0,-321.3507910625229,90.19307513286259,62.7097409173187
577.0,13057.0,577.0,24373.0,577.0,24240.0,-304.5327660228945,101.52769101401321,79.07330996042259
577.0,13089.0,577.0,24439.0,577.0,24270.0,-287.4117218867541,112.68486956179936,95.29974497319733
577.0,13117.0,577.0,24453.0,577.0,24309.0,-270.01200289217127,123.64646509879503,111.36515437453244
577.0,13153.0,577.0,24446.0,577.0,24316.0,-252.3586933155338,134.39462145920743,127.24619388047586
577.0,13160.0,577.0,24496.0,577.0,24358.0,-234.4772874518159,144.91222823649406,142.92037665127344
577.0,13224.0,577.0,24566.0,577.0,24384.0,-216.39340021985484,155.18325849229308,158.36636513143748
587.0,13254.0,587.0,24585.0,587.0,24416.0,-198.13238805234352,165.19358951639032,173.56433637500038
587.0,13255.0,587.0,24564.0,587.0,24415.0,-179.7188367470148,174.93199954168836,188.49636083180894
587.0,13243.0,587.0,24528.0,587.0,24412.0,-161.17632627552484,184.39047673528142,203.14653215118017
587.0,13261.0,587.0,24497.0,587.0,24407.0,-142.52775709743236,193.5635676252292,217.5007008531037
587.0,13275.0,587.0,24469.0,587.0,24429.0,-123.7959073443273,202.4471719985783,231.5459763082115
587.0,13291.0,587.0,24494.0,587.0,24423.0,-105.00382145144255,211.03733693893975,245.27029295549823
598.0,13318.0,598.0,24538.0,598.0,24465.0,-86.1749950874879,219.32957429615755,258.6621646300598
598.0,13360.0,598.0,24557.0,598.0,24493.0,-67.33339003388693,227.3189688572691,271.71068406109316
598.0,13389.0,598.0,24563.0,598.0,24500.0,-48.50321349136175,235.00073333379385,284.4057881512093
598.0,13414.0,598.0,24564.0,598.0,24513.0,-29.708535916028097,242.37061534796356,296.738538448526
598.0,13431.0,598.0,24611.0,598.0,24520.0,-10.972971235855425,249.42504526377837,308.70117833788765
598.0,13508.0,598.0,24683.0,598.0,24590.0,7.680577281866874,256.16150056953654,320.28715544595207
608.0,13517.0,608.0,24675.0,608.0,24578.0,26.230365309157776,262.57941273894824,331.4914333053656
608.0,13505.0,608.0,24641.0,608.0,24569.0,44.65632110197953,268.68105000192116,342.3108860693576
608.0,13506.0,608.0,24574.0,608.0,24548.0,62.94006261966189,274.4714572689641,352.74420777460307
608.0,13511.0,608.0,24558.0,608.0,24562.0,81.06434794172264,279.9573296919546,362.7913079250486
608.0,13529.0,608.0,24559.0,608.0,24568.0,99.01243920643276,285.1455705109935,372.4526993764382
608.0,13567.0,608.0,24557.0,608.0,24575.0,116.76772871924891,290.04228986016585,381.7291699494647
618.0,13583.0,618.0,24606.0,618.0,24604.0,134.31370468240186,294.65244467236823,390.6216810983216
618.0,13611.0,618.0,24627.0,618.0,24600.0,151.63412554577621,298.9800486627209,399.1314086170636
618.0,13639.0,618.0,24616.0,618.0,24632.0,168.7132193564883,303.0287296202533,407.2598605951729
618.0,13659.0,618.0,24670.0,618.0,24638.0,185.53588232419435,306.8022352002632,415.0090260389478
618.0,13706.0,618.0,24694.0,618.0,24673.0,202.08792770474088,310.3049012586508,422.3815986306653
618.0,13749.0,618.0,24717.0,618.0,24684.0,218.3564806037473,313.5423578238652,429.3813079383698
629.0,13735.0,629.0,24663.0,629.0,24667.0,234.33049689489212,316.52217709490577,436.0132264447244
629.0,13720.0,629.0,24637.0,629.0,24638.0,250.00098168617387,319.2538399729169,442.28372847830167
629.0,13726.0,629.0,24624.0,629.0,24635.0,265.36058187449066,321.7479601714908,448.19994101273005
629.0,13736.0,629.0,24598.0,629.0,24653.0,280.40288497621566,324.015309988355,453.76903826225384
629.0,13761.0,629.0,24554.0,629.0,24650.0,295.1219223166654,326.06594084841976,458.99783721282677
629.0,13766.0,629.0,24615.0,629.0,24668.0,309.5119800054762,327.9083820947852,463.89271814898177
639.0,13788.0,639.0,24643.0,639.0,24700.0,323.56754992927995,329.549332575314,468.4597222282796
639.0,13819.0,639.0,24637.0,639.0,24689.0,337.28333393066725,330.99412604909134,472.70481375436304
639.0,13835.0,639.0,24646.0,639.0,24691.0,350.6543762311328,332.24737117301027,476.6341288644559
639.0,13854.0,639.0,24679.0,639.0,24717.0,363.67629796169604,333.3133004344273,480.25402223113724
639.0,13901.0,639.0,24731.0,639.0,24741.0,376.34554896465784,334.19619821350625,483.57115240110386
639.0,13914.0,639.0,24744.0,639.0,24755.0,388.6597620021636,334.9012538852929,486.59285043333
649.0,13898.0,649.0,24704.0,649.0,24723.0,400.6181184164094,335.4354532823991,489.32752067717627
649.0,13884.0,649.0,24633.0,649.0,24695.0,412.2213145028378,335.8077130211443,491.78459787774045
649.0,13883.0,649.0,24624.0,649.0,24686.0,423.4710112508236,336.0279741450454,493.97394093976175
649.0,13893.0,649.0,24598.0,649.0,24694.0,434.369143849348,336.10588418404274,495.90507993873894
649.0,13895.0,649.0,24584.0,649.0,24690.0,444.9174308994649,336.04976550717805,497.5867552169616
649.0,13946.0,649.0,24608.0,649.0,24726.0,455.11717232400315,335.8659951433298,499.02681707067086
660.0,13947.0,660.0,24667.0,660.0,24723.0,464.96937235102405,335.5589010438114,500.2324088473839
660.0,13965.0,660.0,24662.0,660.0,24734.0,474.47505598842656,335.1313405262426,501.2102935619416
660.0,13978.0,660.0,24692.0,660.0,24725.0,483.6354976594671,334.5855924368906,501.96708702262106
660.0,14002.0,660.0,24713.0,660.0,24765.0,492.4523437511175,333.92410152068925,502.50937093756284
660.0,14021.0,660.0,24749.0,660.0,24765.0,500.92780104894166,333.1501619329455,502.84392053615613
660.0,14031.0,660.0,24717.0,660.0,24754.0,509.0649051701025,332.26863289342396,502.9780545846115
670.0,14011.0,670.0,24628.0,670.0,24724.0,516.8676847638358,331.28617234443965,502.91973521024613
670.0,14001.0,670.0,24615.0,670.0,24724.0,524.3409866308589,330.2104440761873,502.67722302147956
670.0,13998.0,670.0,24613.0,670.0,24714.0,531.4899596124474,329.0487534503131,502.2585604723806
670.0,14009.0,670.0,24596.0,670.0,24699.0,538.3194945869453,327.8070687078214,501.6711584371536
670.0,14027.0,670.0,24634.0,670.0,24726.0,544.8339077839456,326.4896684617343,500.92151609752875
670.0,14035.0,670.0,24634.0,670.0,24718.0,551.0369178573794,325.09922091200957,500.0151346196408
680.0,14075.0,680.0,24631.0,680.0,24729.0,556.9318295608606,323.6371206046931,498.9566406019045
680.0,14063.0,680.0,24651.0,680.0,24742.0,562.5218449792936,322.1038033730055,497.7499774554698
680.0,14086.0,680.0,24699.0,680.0,24749.0,567.8103564999874,320.4990738133037,496.398638257122
680.0,14104.0,680.0,24729.0,680.0,24775.0,572.8011303500026,318.82280347254004,494.90600065505316
680.0,14113.0,680.0,24716.0,680.0,24769.0,577.4985101057541,317.0759187943703,493.27573740180367
680.0,14094.0,680.0,24688.0,680.0,24734.0,581.90761779065,315.26106765410236,491.51210002872983
691.0,14086.0,691.0,24637.0,691.0,24714.0,586.0342812423894,313.3825091088112,489.61975579422403
691.0,14079.0,691.0,24600.0,691.0,24710.0,589.8846390180869,311.44528091891675,487.60321015066813
691.0,14076.0,691.0,24594.0,691.0,24710.0,593.4646594298815,309.4540575526576,485.46625373270007
691.0,14077.0,691.0,24584.0,691.0,24718.0,596.7797536313047,307.4122064786344,483.2117190727214
691.0,14099.0,691.0,24599.0,691.0,24735.0,599.8345513750024,305.3213077156854,480.84153275968526
691.0,14128.0,691.0,24641.0,691.0,24732.0,602.63295259916,303.1811628473751,478.3569658114526
701.0,14119.0,701.0,24648.0,701.0,24751.0,605.1784627883131,300.9902873788015,475.75895267792174
701.0,14143.0,701.0,24655.0,701.0,24759.0,607.4745590154407,298.7466435900872,473.0484160944686
701.0,14158.0,701.0,24680.0,701.0,24764.0,609.5249509593539,296.44825572748385,470.2266240588826
701.0,14174.0,701.0,24716.0,701.0,24761.0,611.3338865359933,294.09376627572874,467.2955141382335
701.0,14163.0,701.0,24708.0,701.0,24754.0,612.9064999964304,291.68314180819584,464.2578676851262
701.0,14127.0,701.0,24637.0,701.0,24725.0,614.2489048653562,289.21817632324485,461.1172671160666
711.0,14126.0,711.0,24590.0,711.0,24698.0,615.3678251359707,286.70212626145667,457.87776330977704
711.0,14117.0,711.0,24590.0,711.0,24705.0,616.2699810669307,284.1385378627654,454.54331575016704
711.0,14117.0,711.0,24576.0,711.0,24714.0,616.9616037599856,281.5301207800286,451.1173533691827
711.0,14113.0,711.0,24584.0,711.0,24713.0,617.4481572342978,278.878191991653,447.60271905039417
711.0,14138.0,711.0,24633.0,711.0,24693.0,617.7342091140532,276.18264136584264,444.0018013843379
711.0,14142.0,711.0,24617.0,711.0,24730.0,617.823508443175,273.4423480047521,440.316594547749
722.0,14140.0,722.0,24624.0,722.0,24720.0,617.7192259576863,270.65576607075496,436.5488197932689
722.0,14157.0,722.0,24651.0,722.0,24713.0,617.4241624161295,267.8213259736052,432.70019347883175
722.0,14191.0,722.0,24732.0,722.0,24749.0,616.9409673808852,264.93794439908015,428.7726614674664
722.0,14192.0,722.0,24692.0,722.0,24738.0,616.2725747750371,262.0060257016093,424.7686605495314
722.0,14165.0,722.0,24639.0,722.0,24732.0,615.4226689422896,259.0283232843709,420.691463484094
722.0,14142.0,722.0,24569.0,722.0,24692.0,614.3957136330065,256.0096713488738,416.5452817589848
732.0,14135.0,732.0,24564.0,732.0,24689.0,613.1964790390946,252.95568406698433,412.33493775769097
732.0,14146.0,732.0,24549.0,732.0,24685.0,611.829495766956,249.8714055597137,408.06536928375886
732.0,14137.0,732.0,24556.0,732.0,24663.0,610.2987897519333,246.76055001302518,403.74127592123733
732.0,14147.0,732.0,24595.0,732.0,24682.0,608.6078554749629,243.62535606398438,399.36692326689894
732.0,14138.0,732.0,24596.0,732.0,24682.0,606.759685219144,240.46694201206168,394.9460907194005
732.0,14157.0,732.0,24583.0,732.0,24673.0,604.7568117556782,237.28587238745232,390.4821991149162
742.0,14151.0,742.0,24608.0,742.0,24713.0,602.6014149550097,234.0825310904804,385.97853106565856
742.0,14191.0,742.0,24662.0,742.0,24711.0,600.2955489039349,230.8574488079391,381.43858436111935
742.0,14193.0,742.0,24691.0,742.0,24701.0,597.8415542137042,227.61208656692938,376.8665542726268
742.0,14185.0,742.0,24597.0,742.0,24696.0,595.2425603325984,224.34980017260912,372.2676309662148
742.0,14169.0,742.0,24537.0,742.0,24649.0,592.502756010972,221.07588659582336,367.64791558396917
742.0,14124.0,742.0,24566.0,742.0,24646.0,589.6272052063481,217.7964491197073,363.01399732491984
753.0,14139.0,753.0,24536.0,753.0,24620.0,586.6212993632221,214.5172305553767,358.37235525466315
753.0,14124.0,753.0,24521.0,753.0,24623.0,583.490202084869,211.24310645437203,353.7288376030122
753.0,14130.0,753.0,24519.0,753.0,24636.0,580.2385754217543,207.97779899626258,349.0883883392866
753.0,14142.0,753.0,24560.0,753.0,24641.0,576.8705552350568,204.72366771510877,344.45509369352186
753.0,14141.0,753.0,24586.0,753.0,24644.0,573.3898864423442,201.4819776406312,339.83246953834
753.0,14152.0,753.0,24562.0,753.0,24640.0,569.80016336984,198.25360227540017,335.2237608158306
763.0,14140.0,763.0,24574.0,763.0,24655.0,566.1050577117303,195.0395866237244,330.6321537292124
763.0,14193.0,763.0,24639.0,763.0,24677.0,562.308548142902,191.84146702575254,326.0610382024988
763.0,14186.0,763.0,24625.0,763.0,24660.0,558.4153497857624,188.66186177815845,321.5144176382705
763.0,14140.0,763.0,24585.0,763.0,24648.0,554.4314098313707,185.50520296484126,316.99723717853504
763.0,14115.0,763.0,24529.0,763.0,24615.0,550.3638843042694,182.37776754014078,312.5153308254952
763.0,14103.0,763.0,24504.0,763.0,24603.0,546.2204864991878,179.28679300779234,308.07499940487423
774.0,14106.0,774.0,24490.0,774.0,24594.0,542.0087917189585,176.23930080696684,303.68247012885945
774.0,14093.0,774.0,24460.0,774.0,24571.0,537.7358825791255,173.2411695422861,299.3434460043968
774.0,14087.0,774.0,24515.0,774.0,24598.0,533.4082111939503,170.29660152815018,295.062805603525
774.0,14099.0,774.0,24525.0,774.0,24587.0,529.0315100496277,167.4081423378499,290.8445258688646
774.0,14111.0,774.0,24509.0,774.0,24603.0,524.6108363529286,164.5772066755862,286.69185005807367
774.0,14110.0,774.0,24548.0,774.0,24613.0,520.150834664621,161.80461264916727,282.6075752257937
784.0,14123.0,784.0,24563.0,784.0,24627.0,515.656084085417,159.09100296632988,278.59441865911515
784.0,14146.0,784.0,24617.0,784.0,24632.0,511.1314590088997,156.4375152639494,274.6554651933793
784.0,14121.0,784.0,24590.0,784.0,24619.0,506.58253971407186,153.84670356183625,270.7945577009293
784.0,14086.0,784.0,24517.0,784.0,24595.0,502.01582371760963,151.32309963055434,267.0164282759422
784.0,14071.0,784.0,24475.0,784.0,24554.0,497.4384240276803,148.87274635910538,263.32642023431856
784.0,14051.0,784.0,24453.0,784.0,24558.0,492.85743015606823,146.50188511609923,259.7298635143605
794.0,14053.0,794.0,24450.0,794.0,24544.0,488.2793384329461,144.21568128804736,256.2314432970554
794.0,14042.0,794.0,24464.0,794.0,24548.0,483.7097153238657,142.01753623644788,252.83484297799197
794.0,14067.0,794.0,24490.0,794.0,24562.0,479.1530955677304,139.9090138490423,249.5426613445149
794.0,14067.0,794.0,24494.0,794.0,24573.0,474.61313114666655,137.89021765587367,246.35656538935626
794.0,14071.0,794.0,24511.0,794.0,24563.0,470.09292213251223,135.96033513457937,243.27760379678048
794.0,14076.0,794.0,24509.0,794.0,24579.0,465.5953431054849,134.11811039525261,240.30648069490758
805.0,14100.0,805.0,24566.0,805.0,24594.0,461.1233346836106,132.3622837136094,237.44377546959862
805.0,14091.0,805.0,24550.0,805.0,24593.0,456.6802754160479,130.69218817351344,234.69025836699132
805.0,14063.0,805.0,24512.0,805.0,24575.0,452.270294303317,129.10829703195316,232.04719460407966
805.0,14044.0,805.0,24474.0,805.0,24539.0,447.89820206088694,127.61214303951958,229.51632125923547
805.0,14017.0,805.0,24450.0,805.0,24545.0,443.56901873257215,126.2055247064615,227.09942202454798
805.0,14022.0,805.0,24438.0,805.0,24514.0,439.2873889185677,124.88952159238221,224.79777499369118
815.0,13998.0,815.0,24450.0,815.0,24513.0,435.05713338028295,123.66377795766488,222.61168794854925
815.0,14029.0,815.0,24464.0,815.0,24542.0,430.881017826601,122.52624093330144,220.54018789236716
815.0,14030.0,815.0,24490.0,815.0,24557.0,426.7607954249486,121.47335322453654,218.58107124162595
815.0,14031.0,815.0,24487.0,815.0,24548.0,422.69750270951914,120.50052434897708,216.73132077792997
815.0,14030.0,815.0,24517.0,815.0,24552.0,418.6917720514259,119.60264171915988,214.98748468319096
815.0,14054.0,815.0,24554.0,815.0,24579.0,414.74404530062526,118.77460956736199,213.3458599002189
825.0,14064.0,825.0,24607.0,825.0,24606.0,410.8548747559672,118.0121647843617,211.8027936009726
825.0,14054.0,825.0,24558.0,825.0,24571.0,407.02535596518646,117.31290708868063,210.35519191973128
825.0,14008.0,825.0,24492.0,825.0,24560.0,403.2573523473351,116.67678475846155,209.00078477482765
825.0,13986.0,825.0,24457.0,825.0,24536.0,399.553169592152,116.10540864716111,207.73784938978295
825.0,13996.0,825.0,24440.0,825.0,24530.0,395.9148598903839,115.60065185240394,206.56465162512941
825.0,13984.0,825.0,24444.0,825.0,24521.0,392.3436982836199,115.1634679350733,205.47893504886332
836.0,13986.0,836.0,24439.0,836.0,24530.0,388.8400172557951,114.79329393699285,204.477581254989
836.0,14009.0,836.0,24498.0,836.0,24549.0,385.40323560720196,114.48797139310938,203.55651638521016
836.0,13998.0,836.0,24473.0,836.0,24547.0,382.0320431488119,114.2441104801911,202.71088419250134
836.0,13998.0,836.0,24474.0,836.0,24557.0,378.7246542128736,114.05757154926624,201.93533197350644
836.0,14009.0,836.0,24522.0,836.0,24567.0,375.4789559789816,113.92373023204694,201.22425369659857
836.0,14042.0,836.0,24560.0,836.0,24592.0,372.2926892821905,113.83786623279616,200.57205727632532
846.0,14027.0,846.0,24523.0,846.0,24584.0,369.1638623146104,113.79592891135735,199.97353914265386
846.0,14018.0,846.0,24498.0,846.0,24559.0,366.0911645603677,113.79503018849374,199.42416188520338
846.0,13988.0,846.0,24463.0,846.0,24547.0,363.0740025884753,113.8331164724432,198.91993967496634
846.0,13988.0,846.0,24447.0,846.0,24529.0,360.11215369733577,113.90811516575386,198.4569720856599
846.0,13972.0,846.0,24451.0,846.0,24525.0,357.20532480079174,114.01709818448364,198.03090976897835
846.0,13969.0,846.0,24445.0,846.0,24529.0,354.3528128685471,114.15576005423782,197.6365463934203
856.0,13971.0,856.0,24487.0,856.0,24587.0,351.55328514847446,114.31828758643626,197.2677312688147
856.0,13990.0,856.0,24501.0,856.0,24569.0,348.8047216940675,114.49763948903455,196.9177626983649
856.0,13982.0,856.0,24503.0,856.0,24557.0,346.10457285662204,114.68611669630258,196.5799263153607
856.0,13991.0,856.0,24533.0,856.0,24580.0,343.45000431080797,114.8759200802574,196.24768280473003
856.0,14012.0,856.0,24578.0,856.0,24601.0,340.8381224351119,115.05968971236356,195.9147015222268
856.0,14025.0,856.0,24588.0,856.0,24599.0,338.26630155656704,115.23128090518877,195.57515103329524
867.0,14004.0,867.0,24540.0,867.0,24590.0,335.73260505248544,115.38652429631571,195.22406059041427
867.0,13983.0,867.0,24505.0,867.0,24585.0,333.23596445170944,115.52329626724327,194.8574087013737
867.0,13966.0,867.0,24469.0,867.0,24554.0,330.77591220021674,115.64073591052355,194.47191668650194
867.0,13943.0,867.0,24447.0,867.0,24544.0,328.35204216756574,115.73810038588249,194.06462021070533
867.0,13942.0,867.0,24451.0,867.0,24556.0,325.96344480885415,115.81376261309913,193.6323585381263
867.0,13956.0,867.0,24468.0,867.0,24569.0,323.60830925534583,115.86463465979003,193.1714973104788
877.0,13960.0,877.0,24520.0,877.0,24573.0,321.2838522411785,115.8861949712739,192.6780266141557
877.0,13980.0,877.0,24500.0,877.0,24588.0,318.9865455931331,115.8730507355277,192.14784219951252
877.0,13964.0,877.0,24510.0,877.0,24572.0,316.71244404589095,115.8195619731745,191.57699748779876
877.0,13971.0,877.0,24535.0,877.0,24584.0,314.4574111203503,115.7201753920709,190.9618253084535
877.0,14006.0,877.0,24581.0,877.0,24617.0,312.21725937767474,115.56977578582936,190.2990246056517
877.0,14012.0,877.0,24554.0,877.0,24590.0,309.9880783795793,115.36434049190049,189.58590852973254
887.0,13971.0,887.0,24542.0,887.0,24575.0,307.76668572555246,115.10147208579247,188.8206116450837
887.0,13953.0,887.0,24496.0,887.0,24560.0,305.55066500382316,114.78029945921492,188.00189409415916
887.0,13940.0,887.0,24445.0,887.0,24531.0,303.33785112184813,114.40072914717004,187.12862170470646
887.0,13946.0,887.0,24453.0,887.0,24564.0,301.1257346246541,113.96233835701955,186.19923576182538
887.0,13942.0,887.0,24477.0,887.0,24572.0,298.9111513698655,113.46347433282008,185.21153021040323
887.0,13949.0,887.0,24506.0,887.0,24583.0,296.6902313364286,112.90110243502724,184.162873952972
898.0,13959.0,898.0,24520.0,898.0,24562.0,294.4584852468888,112.27132811378641,183.0505646356544
898.0,13947.0,898.0,24521.0,898.0,24568.0,292.2109623437526,111.57008289153788,181.87193961558125
898.0,13979.0,898.0,24501.0,898.0,24580.0,289.94242482148843,110.79355556268067,180.62430490550497
898.0,13981.0,898.0,24575.0,898.0,24608.0,287.6475977578536,109.93837682908621,179.30502216402425
898.0,13994.0,898.0,24614.0,898.0,24602.0,285.32156149101377,109.00210591463323,177.91188535698984
898.0,13993.0,898.0,24551.0,898.0,24587.0,282.9601530412604,107.98417508449911,176.4435038497569
908.0,13960.0,908.0,24514.0,908.0,24558.0,280.5601703110972,106.88635718105994,174.8993155856936
908.0,13944.0,908.0,24471.0,908.0,24557.0,278.11921122649625,105.71210253043871,173.27919396793956
908.0,13930.0,908.0,24464.0,908.0,24541.0,275.6351762561871,104.46532192750976,171.5829419049224
908.0,13928.0,908.0,24436.0,908.0,24537.0,273.10573187783393,103.14935223471628,169.80989968546947
908.0,13942.0,908.0,24446.0,908.0,24552.0,270.5280021953021,101.76627245118542,167.95870716927695
908.0,13952.0,908.0,24487.0,908.0,24563.0,267.89857985283214,100.31661669969692,166.0272951937913
918.0,13951.0,918.0,24511.0,918.0,24583.0,265.2137794369998,98.79967024863589,164.01316290421045
918.0,13952.0,918.0,24487.0,918.0,24582.0,262.46991288762564,97.214174507548,161.91381762211205
918.0,13956.0,918.0,24522.0,918.0,24573.0,259.66345549043086,95.55888651247533,159.72714662317355
918.0,13989.0,918.0,24570.0,918.0,24589.0,256.79122398892554,93.83298686089053,157.4515873331162
918.0,13979.0,918.0,24582.0,918.0,24595.0,253.85073489275504,92.03681574663985,155.08623361818434
918.0,13953.0,918.0,24514.0,918.0,24576.0,250.84056499245776,90.17269628802177,152.63100975850753
929.0,13922.0,929.0,24457.0,929.0,24547.0,247.76029322343987,88.24492231507601,150.08668952241175
929.0,13919.0,929.0,24439.0,929.0,24535.0,244.60997737961256,86.25867983807571,147.4545377351294
929.0,13915.0,929.0,24435.0,929.0,24526.0,241.3895805564345,84.21872774566118,144.73575443112117
929.0,13906.0,929.0,24425.0,929.0,24535.0,238.0986488611441,82.12858230809469,141.93105749159946
929.0,13922.0,929.0,24436.0,929.0,24540.0,234.73620599209278,79.9902053437698,139.04055955896627
929.0,13924.0,929.0,24477.0,929.0,24550.0,231.30081208579855,77.80404416166448,136.0639027791576
939.0,13923.0,939.0,24462.0,939.0,24557.0,227.7907666238231,75.56943738050681,133.0005339899364
939.0,13922.0,939.0,24466.0,939.0,24552.0,224.20431175834835,73.2851295924857,129.84999893885137
939.0,13941.0,939.0,24525.0,939.0,24573.0,220.53977944296165,70.94965811037433,126.61219078425677
939.0,13960.0,939.0,24559.0,939.0,24585.0,216.7958503890206,68.5619740744589,123.28763383690583
939.0,13928.0,939.0,24528.0,939.0,24548.0,212.9719491802727,66.12243961494826,119.8778106345762
939.0,13896.0,939.0,24465.0,939.0,24526.0,209.06839107686866,63.63341588988446,116.38520246253509
949.0,13886.0,949.0,24426.0,949.0,24513.0,205.08599720492296,61.09876201210764,112.81285708913686
949.0,13898.0,949.0,24410.0,949.0,24501.0,201.0255221556263,58.52261108634124,109.16380136340587
949.0,13871.0,949.0,24390.0,949.0,24475.0,196.88734728452258,55.908226660519745,105.44056773661441
949.0,13866.0,949.0,24396.0,949.0,24490.0,192.67135064689285,53.25728957584711,101.64480830813025
949.0,13888.0,949.0,24445.0,949.0,24519.0,188.3767613055557,50.56966976055176,97.77712785909921
949.0,13900.0,949.0,24454.0,949.0,24532.0,184.00221050458362,47.84379624296291,93.83738676116846
960.0,13896.0,960.0,24451.0,960.0,24508.0,179.54609912993703,45.07740479773814,89.8252754114167
960.0,13900.0,960.0,24484.0,960.0,24524.0,175.0069961515216,42.268177574134285,85.74067449869918
960.0,13924.0,960.0,24537.0,960.0,24557.0,170.3839244074062,39.41433345580785,81.58382538861878
960.0,13931.0,960.0,24490.0,960.0,24515.0,165.67672399833634,36.515438369292355,77.35564251431393
960.0,13871.0,960.0,24469.0,960.0,24533.0,160.88642046326785,33.57297013298958,73.05799776770164
960.0,13854.0,960.0,24442.0,960.0,24486.0,156.01511204468397,30.59010359297403,68.69366925278644
970.0,13848.0,970.0,24394.0,970.0,24470.0,151.06531934685177,27.570952773600652,64.26598469541781
970.0,13839.0,970.0,24368.0,970.0,24459.0,146.03936598857265,24.519624099546093,59.77827275134459
970.0,13815.0,970.0,24380.0,970.0,24438.0,140.93905325847695,21.439274845984613,55.233308293079546
970.0,13847.0,970.0,24401.0,970.0,24463.0,135.76546882864238,18.331583462547854,50.632951921981885
970.0,13851.0,970.0,24407.0,970.0,24478.0,130.51901041766556,15.196860354994328,45.97812527950518
970.0,13837.0,970.0,24417.0,970.0,24458.0,125.19970126655986,12.034507654244521,41.26912411997503
981.0,13843.0,981.0,24414.0,981.0,24482.0,119.80748575744886,8.843453569188199,36.50596960067779
981.0,13850.0,981.0,24479.0,981.0,24478.0,114.34235946108134,5.622565382070178,31.68864801843796
981.0,13870.0,981.0,24491.0,981.0,24511.0,108.80457645550547,2.371350740195737,26.817431238716722
981.0,13848.0,981.0,24441.0,981.0,24478.0,103.19501688273863,-0.9091660591275854,21.893310190162254
981.0,13836.0,981.0,24392.0,981.0,24442.0,97.51544355125557,-4.2161860812803695,16.91820142550594
981.0,13790.0,981.0,24377.0,981.0,24439.0,91.76837030245372,-7.545844179822325,11.894639345908502
991.0,13786.0,991.0,24348.0,991.0,24420.0,85.95655017917613,-10.894266685515788,6.825209017032762
991.0,13771.0,991.0,24293.0,991.0,24406.0,80.08236663987807,-14.258498850065592,1.7121040062442034
991.0,13768.0,991.0,24365.0,991.0,24395.0,74.14741712685719,-17.63727787154204,-3.4432009556551577
991.0,13775.0,991.0,24348.0,991.0,24456.0,68.15235367485462,-21.03131767452504,-8.6401079150952
991.0,13793.0,991.0,24393.0,991.0,24420.0,62.09697039051713,-24.442884898554723,-13.878621204094088
991.0,13780.0,991.0,24378.0,991.0,24408.0,55.98051551766923,-27.875099152055157,-19.15889957547938
1000.0,13782.0,1000.0,24413.0,1000.0,24423.0,49.80202369410625,-31.331327808316757,-24.48114697031542
1000.0,13820.0,1000.0,24449.0,1000.0,24436.0,43.560577350442315,-34.81458013923296,-29.845635497955385
1000.0,13803.0,1000.0,24464.0,1000.0,24434.0,37.25570369392972,-38.32668819959588,-35.25244778749712
1000.0,13780.0,1000.0,24377.0,1000.0,24407.0,30.887812184643337,-41.867567815757326,-40.70114714898196
1000.0,13732.0,1000.0,24345.0,1000.0,24394.0,24.458188845332927,-45.435338757922466,-46.190764099212174
1000.0,13733.0,1000.0,24306.0,1000.0,24368.0,17.968444181070083,-49.02741944894768,-51.7201235525751
1011.0,13717.0,1011.0,24318.0,1011.0,24352.0,11.419861912617193,-52.64177463014266,-57.28831842866467
1011.0,13710.0,1011.0,24304.0,1011.0,24359.0,4.8130107228719226,-56.27764822635041,-62.89514959894015
1011.0,13726.0,1011.0,24326.0,1011.0,24375.0,-1.8523830443269844,-59.93575920448018,-68.54131565974353
1011.0,13734.0,1011.0,24327.0,1011.0,24375.0,-8.577319964637752,-63.61816484179744,-74.22822706686773
1011.0,13719.0,1011.0,24353.0,1011.0,24372.0,-15.363203790668933,-67.32791280602297,-79.95763888887814
1011.0,13711.0,1011.0,24363.0,1011.0,24371.0,-22.21158053739191,-71.06853865086646,-85.73137736452125
1021.0,13751.0,1021.0,24385.0,1021.0,24381.0,-29.12401928053424,-74.8434612536283,-91.55117437906705
1021.0,13767.0,1021.0,24430.0,1021.0,24416.0,-36.101768331393885,-78.65526799627173,-97.41839326826519
1021.0,13730.0,1021.0,24383.0,1021.0,24363.0,-43.145117938731175,-82.50493208955515,-103.33358518848135
1021.0,13696.0,1021.0,24313.0,1021.0,24359.0,-50.253072553079164,-86.39147599060124,-109.29626052105866
1021.0,13671.0,1021.0,24304.0,1021.0,24339.0,-57.42371917856468,-90.31260300422355,-115.30513837949283
1021.0,13652.0,1021.0,24279.0,1021.0,24330.0,-64.6549498344533,-94.26584378081688,-121.35856865343206
1031.0,13652.0,1031.0,24259.0,1031.0,24326.0,-71.94506867937116,-98.24945280757561,-127.45482914099733
1031.0,13634.0,1031.0,24282.0,1031.0,24313.0,-79.29312803328276,-102.26292341878911,-133.59229579576686
1031.0,13654.0,1031.0,24289.0,1031.0,24299.0,-86.69903382260827,-106.30713149267478,-139.7695691145155
1031.0,13670.0,1031.0,24303.0,1031.0,24300.0,-94.16340226595406,-110.3840633282988,-145.98562349980148
1031.0,13650.0,1031.0,24319.0,1031.0,24308.0,-101.68716578393457,-114.49631790761245,-152.23989464605978
1031.0,13649.0,1031.0,24317.0,1031.0,24324.0,-109.27120739239643,-118.64658585753318,-158.5321370149352
1042.0,13681.0,1042.0,24373.0,1042.0,24338.0,-116.91616521581665,-122.83710706088252,-164.86201499505347
1042.0,13655.0,1042.0,24380.0,1042.0,24333.0,-124.62215413432727,-127.06894494249781,-171.22856335018827
1042.0,13651.0,1042.0,24314.0,1042.0,24295.0,-132.38842883448524,-131.34124129054405,-177.62981243747248
1042.0,13610.0,1042.0,24272.0,1042.0,24269.0,-140.2133403916706,-135.65117405349915,-184.06288583700433
1042.0,13589.0,1042.0,24216.0,1042.0,24261.0,-148.09468557220322,-139.99491360294508,-190.5245218875907
1042.0,13598.0,1042.0,24239.0,1042.0,24227.0,-156.03022022625572,-144.36892995372233,-197.01166101893784
1052.0,13580.0,1052.0,24193.0,1052.0,24239.0,-164.0179948304921,-148.77092251198576,-203.52190065486093
1052.0,13594.0,1052.0,24262.0,1052.0,24242.0,-172.05639082724116,-153.20018019939926,-210.0537408796111
1052.0,13579.0,1052.0,24261.0,1052.0,24252.0,-180.14399948375234,-157.65737809407733,-216.6065035675968
1052.0,13567.0,1052.0,24258.0,1052.0,24237.0,-188.2794971291097,-162.14394620347827,-223.18003430766368
1052.0,13574.0,1052.0,24243.0,1052.0,24242.0,-196.46160383742182,-166.66153652132573,-229.77446034972945
1052.0,13565.0,1052.0,24315.0,1052.0,24244.0,-204.6890527492543,-171.21176844119054,-236.3900572002462
1062.0,13581.0,1062.0,24333.0,1062.0,24286.0,-212.9604405579476,-175.7956817939073,-243.02700328208977
1062.0,13574.0,1062.0,24282.0,1062.0,24246.0,-221.27395515861997,-180.41281044666488,-249.6849012328047
1062.0,13536.0,1062.0,24243.0,1062.0,24208.0,-229.62713836020527,-185.06076485177147,-256.36245641912694
1062.0,13510.0,1062.0,24196.0,1062.0,24200.0,-238.01698323291356,-189.73583151701462,-263.0577558780694
1062.0,13504.0,1062.0,24169.0,1062.0,24178.0,-246.44040462111695,-194.43411794339562,-269.7688907127014
1062.0,13491.0,1062.0,24184.0,1062.0,24170.0,-254.89471257545813,-199.15258947636073,-276.49444844912824
1073.0,13492.0,1073.0,24187.0,1073.0,24172.0,-263.3778358351011,-203.88958736880176,-283.23379446140143
1073.0,13492.0,1073.0,24201.0,1073.0,24180.0,-271.88833187198367,-208.64476541162418,-289.9871425067121
1073.0,13483.0,1073.0,24218.0,1073.0,24192.0,-280.4252685611041,-213.41869612653278,-296.7553617750372
1073.0,13481.0,1073.0,24188.0,1073.0,24182.0,-288.98807668862275,-218.21242581036682,-303.539613540859
1073.0,13482.0,1073.0,24220.0,1073.0,24177.0,-297.57642797189965,-223.0271828143833,-310.3410379794306
1073.0,13515.0,1073.0,24301.0,1073.0,24212.0,-306.190013143904,-227.86400832785108,-317.1605417086536
1083.0,13492.0,1083.0,24239.0,1083.0,24192.0,-314.8280986956165,-232.72290084473434,-323.9984816301148
1083.0,13458.0,1083.0,24211.0,1083.0,24162.0,-323.48913144770484,-237.60204700231316,-330.8543320652468
1083.0,13423.0,1083.0,24169.0,1083.0,24137.0,-332.1708483401477,-242.49801911579885,-337.72675611177493
1083.0,13418.0,1083.0,24116.0,1083.0,24123.0,-340.8708550632059,-247.40675328444865,-344.6140994505944
1083.0,13423.0,1083.0,24148.0,1083.0,24106.0,-349.5871555271465,-252.32462820061045,-351.51493225425463
1083.0,13407.0,1083.0,24110.0,1083.0,24096.0,-358.3183084486334,-257.2491752772671,-358.4284469909076
1093.0,13413.0,1093.0,24163.0,1093.0,24111.0,-367.06334670553997,-262.17925628048073,-365.35468585647516
1093.0,13404.0,1093.0,24163.0,1093.0,24119.0,-375.8216618799172,-267.11479556364293,-372.2944966731387
1093.0,13421.0,1093.0,24156.0,1093.0,24129.0,-384.59283985788807,-272.0562450311468,-379.2491868988918
1093.0,13389.0,1093.0,24167.0,1093.0,24127.0,-393.3764313206268,-277.0041177779573,-386.2200538131035
1093.0,13410.0,1093.0,24210.0,1093.0,24137.0,-402.17177249605834,-281.9586409910821,-393.2079689300203
1093.0,13403.0,1093.0,24246.0,1093.0,24130.0,-410.97784809531925,-286.91910919593374,-400.213042914011
1104.0,13385.0,1104.0,24162.0,1104.0,24104.0,-419.79310336875824,-291.8830167756092,-407.23441347225867
1104.0,13353.0,1104.0,24134.0,1104.0,24074.0,-428.6153834045939,-296.84583796922976,-414.2703282403944
1104.0,13317.0,1104.0,24092.0,1104.0,24067.0,-437.4422466147573,-301.8018308433341,-421.31855709136704
1104.0,13337.0,1104.0,24080.0,1104.0,24045.0,-446.2715128384085,-306.74519957197236,-428.3768850028636
1104.0,13319.0,1104.0,24048.0,1104.0,24042.0,-455.10161913317756,-311.67101415312123,-435.4434791304883
1104.0,13294.0,1104.0,24059.0,1104.0,24046.0,-463.9316780877509,-316.57584118958357,-442.5170917029373
1114.0,13328.0,1114.0,24109.0,1114.0,24045.0,-472.761489645854,-321.45797660412677,-449.59706034541415
1114.0,13324.0,1114.0,24089.0,1114.0,24073.0,-481.5914315944726,-326.3170840975989,-456.6830815880502
1114.0,13299.0,1114.0,24081.0,1114.0,24048.0,-490.4221174220162,-331.1535955831025,-463.7748223435525
1114.0,13296.0,1114.0,24116.0,1114.0,24044.0,-499.25417771277114,-335.9683754957518,-470.8715919781854
1114.0,13334.0,1114.0,24165.0,1114.0,24067.0,-508.08822374983265,-340.7623514853597,-477.9722085572147
1114.0,13315.0,1114.0,24167.0,1114.0,24070.0,-516.9245744012768,-345.53565006609216,-485.07480227962105
1124.0,13293.0,1124.0,24124.0,1124.0,24025.0,-525.7628171049109,-350.2866621850507,-492.1764873381524
1124.0,13251.0,1124.0,24076.0,1124.0,24009.0,-534.6017493493897,-355.01185427356864,-499.273345462168
1124.0,13243.0,1124.0,24040.0,1124.0,23992.0,-543.4398281603538,-359.70649482778805,-506.3608669441361
1124.0,13250.0,1124.0,24016.0,1124.0,23989.0,-552.2756965755304,-364.36578057708414,-513.4344485767406
1124.0,13221.0,1124.0,24030.0,1124.0,23967.0,-561.1084168135078,-368.9857755016523,-520.4896916287059
1124.0,13237.0,1124.0,24061.0,1124.0,23980.0,-569.9374870780632,-373.56377631245664,-527.5225627388254
1135.0,13248.0,1135.0,24059.0,1135.0,23992.0,-578.7627513091132,-378.09802559095147,-534.5293935839894
1135.0,13225.0,1135.0,24046.0,1135.0,23988.0,-587.5841330929566,-382.5871774215455,-541.5066223144402
1135.0,13217.0,1135.0,24095.0,1135.0,23983.0,-596.401383970256,-387.0299142521955,-548.4504347284919
1135.0,13233.0,1135.0,24104.0,1135.0,24030.0,-605.2140242350177,-391.4245106389845,-555.3564408962391
1135.0,13255.0,1135.0,24104.0,1135.0,24018.0,-614.0211807737528,-395.7681435779684,-562.2191951095524
1135.0,13240.0,1135.0,24105.0,1135.0,23982.0,-622.8211074512615,-400.05628137884054,-569.0316523989004
1145.0,13205.0,1145.0,24039.0,1145.0,23951.0,-631.6107482990507,-404.28250937726085,-575.7851082022473
1145.0,13177.0,1145.0,24014.0,1145.0,23941.0,-640.3858009276629,-408.43895857924,-582.469720576868
1145.0,13155.0,1145.0,23980.0,1145.0,23928.0,-649.1412418112568,-412.5172463716959,-589.0751234677022
1145.0,13142.0,1145.0,23983.0,1145.0,23921.0,-657.8719371670979,-416.50946003977947,-595.5908075487572
1145.0,13161.0,1145.0,24012.0,1145.0,23918.0,-666.5730279331087,-420.4087037287032,-602.0063033700377
1145.0,13160.0,1145.0,24021.0,1145.0,23946.0,-675.2399250841178,-424.20901886939214,-608.3111813134258
1155.0,13159.0,1155.0,24042.0,1155.0,23935.0,-683.8679943692664,-427.9048482836538,-614.4947917958966
1155.0,13143.0,1155.0,24020.0,1155.0,23921.0,-692.4522382277293,-431.4904509347589,-620.5459099819572
1155.0,13157.0,1155.0,24051.0,1155.0,23941.0,-700.9871369347695,-434.9595245232029,-626.4525545084663
1155.0,13183.0,1155.0,24085.0,1155.0,23963.0,-709.4664467726819,-438.3048620809739,-632.2018207157562
1155.0,13171.0,1155.0,24106.0,1155.0,23962.0,-717.8827368491092,-441.5176946970985,-637.7794393859715
1155.0,13137.0,1155.0,24044.0,1155.0,23900.0,-726.2269217832004,-444.5869331070114,-643.1693568743391
1166.0,13116.0,1166.0,23991.0,1166.0,23894.0,-734.4882519124872,-447.49909363887934,-648.3538956442109
1166.0,13081.0,1166.0,23961.0,1166.0,23872.0,-742.6547795285579,-450.2392164797922,-653.3144228695899
1166.0,13101.0,1166.0,23965.0,1166.0,23853.0,-750.7139270972351,-452.79212302729303,-658.0320095986093
1166.0,13061.0,1166.0,23947.0,1166.0,23874.0,-758.6528441672341,-455.1432640198243,-662.4878564392799
1166.0,13079.0,1166.0,23948.0,1166.0,23869.0,-766.45855539271,-457.2790961888974,-666.6634357807931
1166.0,13086.0,1166.0,23973.0,1166.0,23888.0,-774.1179769843736,-459.1872084813427,-670.5403268720697
1176.0,13075.0,1176.0,23996.0,1176.0,23866.0,-781.6177332033002,-460.85614364793827,-674.099934588006
1176.0,13069.0,1176.0,23974.0,1176.0,23864.0,-788.9438987937826,-462.27493381617813,-677.3233474706769
1176.0,13089.0,1176.0,24051.0,1176.0,23896.0,-796.0818438548578,-463.4325993409311,-680.1913316022484
1176.0,13089.0,1176.0,24098.0,1176.0,23876.0,-803.0160217313435,-464.31742916260345,-682.6842059349184
1176.0,13088.0,1176.0,24023.0,1176.0,23858.0,-809.7296073112644,-464.915925664818,-684.781654342375
1176.0,13042.0,1176.0,23981.0,1176.0,23851.0,-816.2042634862622,-465.212333188819,-686.4628271569351
1187.0,13008.0,1187.0,23955.0,1187.0,23842.0,-822.4203763056395,-465.1894002577055,-687.7066984451934
1187.0,13004.0,1187.0,23911.0,1187.0,23800.0,-828.3577351294695,-464.829706162044,-688.492475296825
1187.0,12988.0,1187.0,23918.0,1187.0,23813.0,-833.9962233085425,-464.116825934108,-688.8001083692188
1187.0,12990.0,1187.0,23902.0,1187.0,23812.0,-839.3162083838691,-463.0361622406887,-688.6107950722435
1187.0,12995.0,1187.0,23966.0,1187.0,23820.0,-844.2986688772688,-461.5753071005446,-687.9071967625935
1187.0,13002.0,1187.0,23960.0,1187.0,23834.0,-848.9251210412241,-459.72381247058865,-686.6733786471311
1197.0,13002.0,1197.0,23950.0,1197.0,23833.0,-853.1773967773935,-457.4726594953535,-684.8946409243493
1197.0,12994.0,1197.0,23989.0,1197.0,23829.0,-857.0374210558925,-454.813922573322,-682.5573772700204
1197.0,13033.0,1197.0,24046.0,1197.0,23888.0,-860.4870339482843,-451.7404666408068,-679.6489631681916
1197.0,13005.0,1197.0,24053.0,1197.0,23872.0,-863.507730368745,-448.2451922454724,-676.1574498981184
1197.0,12987.0,1197.0,23970.0,1197.0,23870.0,-866.0804435847383,-444.32027386685587,-672.0711455381165
1197.0,12952.0,1197.0,23968.0,1197.0,23822.0,-868.1857454607857,-439.95733881858047,-667.3786014471665
1207.0,12948.0,1207.0,23940.0,1207.0,23809.0,-869.804462025249,-435.1485181761828,-662.0692292333099
1207.0,12960.0,1207.0,23946.0,1207.0,23808.0,-870.9182820246259,-429.8874997914961,-656.1342267996538
1207.0,12939.0,1207.0,23918.0,1207.0,23846.0,-871.510059567634,-424.1702315062591,-649.5672673951465
1207.0,12967.0,1207.0,23967.0,1207.0,23862.0,-871.5638903708339,-417.99539213198943,-642.3646018421321
1207.0,12967.0,1207.0,23977.0,1207.0,23862.0,-871.0650734627134,-411.3645230626253,-634.5247502051154
1207.0,12968.0,1207.0,24003.0,1207.0,23850.0,-869.9999548136257,-404.28172949322413,-626.0482950229585
1218.0,12962.0,1218.0,24023.0,1218.0,23872.0,-868.3558051470724,-396.75319809050234,-616.9380169753572
1218.0,12988.0,1218.0,24070.0,1218.0,23934.0,-866.1208234422096,-388.7866888382702,-607.1990147659038
1218.0,13017.0,1218.0,24111.0,1218.0,23952.0,-863.2840277417703,-380.3908571816834,-596.8383274871453
1218.0,12991.0,1218.0,24081.0,1218.0,23948.0,-859.834918297276,-371.57447098781427,-585.8642414407776
1218.0,12975.0,1218.0,24087.0,1218.0,23932.0,-855.7633039863086,-362.3460097664332,-574.2859611593373
1218.0,12963.0,1218.0,24043.0,1218.0,23939.0,-851.0596383968625,-352.7139433570382,-562.1138932805598
1228.0,12966.0,1228.0,24028.0,1228.0,23942.0,-845.7156311526204,-342.6875198111503,-549.3601847750498
1228.0,12959.0,1228.0,24033.0,1228.0,23949.0,-839.7247603921845,-332.27775053143733,-536.0391671032401
1228.0,12984.0,1228.0,24065.0,1228.0,23995.0,-833.0825874997219,-321.49817142108867,-522.1675945960145
1228.0,13001.0,1228.0,24089.0,1228.0,24007.0,-825.7868419126366,-310.3650376676786,-507.76459159420966
1228.0,13022.0,1228.0,24139.0,1228.0,24035.0,-817.8372457918372,-298.89699421682906,-492.8513624438794
1228.0,13028.0,1228.0,24150.0,1228.0,24053.0,-809.235216241427,-287.1144642579965,-477.4508984808945
1238.0,13049.0,1238.0,24168.0,1238.0,24072.0,-799.9836312710324,-275.0390445171081,-461.5877825066511
1238.0,13090.0,1238.0,24229.0,1238.0,24138.0,-790.0866210068681,-262.6930463389203,-445.28796656623115
1238.0,13089.0,1238.0,24261.0,1238.0,24152.0,-779.5492343062917,-250.09893497444952,-428.5783259358541
1238.0,13088.0,1238.0,24227.0,1238.0,24173.0,-768.3771324237571,-237.278646121826,-411.4860755041062
1238.0,13069.0,1238.0,24204.0,1238.0,24160.0,-756.576657645088,-224.25341242235513,-394.03846052015024
1238.0,13075.0,1238.0,24204.0,1238.0,24168.0,-744.1553171781516,-211.04441085338667,-376.26293331992053
1249.0,13114.0,1249.0,24232.0,1249.0,24209.0,-731.1223218659784,-197.6736333264658,-358.1875662279925
1249.0,13117.0,1249.0,24224.0,1249.0,24202.0,-717.4887929414967,-184.1643747024371,-339.84131118699395
1249.0,13141.0,1249.0,24270.0,1249.0,24242.0,-703.2676709236116,-170.54135976313245,-321.254060678077
1249.0,13166.0,1249.0,24333.0,1249.0,24297.0,-688.4735913993826,-156.83056706943574,-302.45657982202783
1249.0,13178.0,1249.0,24363.0,1249.0,24310.0,-673.1227677476171,-143.05856474987937,-283.4801609620462
1249.0,13210.0,1249.0,24355.0,1249.0,24348.0,-657.2328479508278,-129.2516224932236,-264.3561090159307
1259.0,13253.0,1259.0,24426.0,1259.0,24388.0,-640.8227125917874,-115.43512708445236,-245.11531967236147
1259.0,13292.0,1259.0,24482.0,1259.0,24422.0,-623.9120697817352,-101.63308410561311,-225.78786442719587
1259.0,13283.0,1259.0,24437.0,1259.0,24415.0,-606.5209273616297,-87.86736095671623,-206.40256932208294
1259.0,13289.0,1259.0,24423.0,1259.0,24418.0,-588.6693586278253,-74.15730384955071,-186.98691425661102
1259.0,13298.0,1259.0,24390.0,1259.0,24427.0,-570.3777491405247,-60.520329111244564,-167.56738348119617
1259.0,13296.0,1259.0,24397.0,1259.0,24444.0,-551.6672709961388,-46.97305711143886,-148.16997496008045
1269.0,13331.0,1269.0,24419.0,1269.0,24474.0,-532.56032485973,-33.53227386236378,-128.82054799172283
1269.0,13357.0,1269.0,24460.0,1269.0,24508.0,-513.080793237615,-20.21533523310532,-109.54489086250535
1269.0,13394.0,1269.0,24493.0,1269.0,24535.0,-493.2539909312137,-7.0399626342577335,-90.36853400162983
1269.0,13425.0,1269.0,24479.0,1269.0,24543.0,-473.1063827271137,5.976238499724644,-71.31648588925759
1269.0,13457.0,1269.0,24514.0,1269.0,24571.0,-452.66522333127676,18.81607052219846,-52.413105406167745
1269.0,13511.0,1269.0,24570.0,1269.0,24605.0,-431.9581571444079,31.462882673323463,-33.6820754123836
1280.0,13537.0,1280.0,24614.0,1280.0,24666.0,-411.01272033662815,43.90105990066843,-15.146193446195639
1280.0,13541.0,1280.0,24628.0,1280.0,24679.0,-389.8558596832145,56.11691657390122,3.1731608573257404
1280.0,13567.0,1280.0,24590.0,1280.0,24683.0,-368.51375261750775,68.09937228528625,21.256574756881037
1280.0,13563.0,1280.0,24576.0,1280.0,24663.0,-347.01196607944263,79.83984353262991,39.08668482468926
1280.0,13580.0,1280.0,24566.0,1280.0,24680.0,-325.37578938727324,91.33144676039942,56.64770438160474
1280.0,13611.0,1280.0,24565.0,1280.0,24707.0,-303.63060470879185,102.56806956956493,73.9248174496642
1290.0,13634.0,1290.0,24550.0,1290.0,24712.0,-281.80210812414543,113.54363210410662,90.90385460407339
1290.0,13670.0,1290.0,24598.0,1290.0,24755.0,-259.91629343323837,124.25156108610315,107.57124918778737
1290.0,13697.0,1290.0,24638.0,1290.0,24746.0,-237.99929298760634,134.6846770525297,123.91409424050465
1290.0,13733.0,1290.0,24634.0,1290.0,24776.0,-216.0771536297041,144.83560631344403,139.9201710652282
1290.0,13743.0,1290.0,24667.0,1290.0,24802.0,-194.17561367693227,154.69730502304725,155.5779275909984
1290.0,13810.0,1290.0,24705.0,1290.0,24863.0,-172.31991248742338,164.26343048994937,170.87663560814747
1300.0,13866.0,1300.0,24753.0,1300.0,24878.0,-150.53442130971877,173.52885945808526,185.80691140635105
1300.0,13863.0,1300.0,24722.0,1300.0,24873.0,-128.84198127525838,182.49040819632154,200.36130671935803
1300.0,13846.0,1300.0,24713.0,1300.0,24868.0,-107.26346986826269,191.1472041050224,214.53446637030322
1300.0,13851.0,1300.0,24669.0,1300.0,24837.0,-85.81812332456451,199.50030622073217,228.32270108036266
1300.0,13878.0,1300.0,24653.0,1300.0,24872.0,-64.52430262538905,207.55175678790664,241.7232407279402
1300.0,13890.0,1300.0,24672.0,1300.0,24892.0,-43.400073076637455,215.30353337908065,254.7336478094345
1311.0,13924.0,1311.0,24681.0,1311.0,24880.0,-22.463439018429483,222.75687506201513,267.3516482129147
1311.0,13972.0,1311.0,24710.0,1311.0,24929.0,-1.732326164069832,229.91215862397536,279.57513856734454
1311.0,13986.0,1311.0,24736.0,1311.0,24936.0,18.77567687454524,236.76915887256638,291.40223870203135
1311.0,14004.0,1311.0,24752.0,1311.0,24951.0,39.04363429676965,243.32750681705244,302.8314843992796
1311.0,14038.0,1311.0,24758.0,1311.0,24992.0,59.05539580446532,249.58716157418138,313.86206943309264
1311.0,14103.0,1311.0,24818.0,1311.0,25018.0,78.79573098043016,255.54881505569807,324.494161223629
1321.0,14107.0,1321.0,24848.0,1321.0,25018.0,98.25075729046443,261.2144743016413,334.72935084107655
1321.0,14103.0,1321.0,24793.0,1321.0,24998.0,117.40838090303544,266.58819309666575,344.57090950816007
1321.0,14111.0,1321.0,24748.0,1321.0,24994.0,136.25824889294307,271.6761979523692,354.0235439442198
1321.0,14105.0,1321.0,24745.0,1321.0,24987.0,154.7912516742033,276.4860238196916,363.0928042520808
1321.0,14126.0,1321.0,24727.0,1321.0,24987.0,172.9989342033199,281.02534133282245,371.7844740701473
1321.0,14153.0,1321.0,24701.0,1321.0,24993.0,190.8730591043489,285.30107437678214,380.1040945992381
1331.0,14190.0,1331.0,24800.0,1331.0,25025.0,208.40548794266198,289.3188927412036,388.0566951795131
1331.0,14210.0,1331.0,24762.0,1331.0,25044.0,225.58838294218265,293.0833143947588,395.64684357135684
1331.0,14231.0,1331.0,24753.0,1331.0,25049.0,242.41450882515164,296.5981885176311,402.87895304338383
1331.0,14236.0,1331.0,24789.0,1331.0,25074.0,258.87740837091576,299.8668447715015,409.7575931532424
1331.0,14271.0,1331.0,24848.0,1331.0,25083.0,274.97141550093977,302.89215759650256,416.28771907927046
1331.0,14330.0,1331.0,24875.0,1331.0,25107.0,290.6917509693892,305.6772438418518,422.47491649069343
1342.0,14315.0,1342.0,24837.0,1342.0,25108.0,306.03491130871214,308.2264799527193,428.32567191174235
1342.0,14312.0,1342.0,24810.0,1342.0,25073.0,320.9989970329714,310.5459117407196,433.8474882865298
1342.0,14302.0,1342.0,24780.0,1342.0,25046.0,335.5834924968898,312.6427530350445,439.0485460259363
1342.0,14301.0,1342.0,24765.0,1342.0,25080.0,349.788614852788,314.5244405029385,443.93697001174667
1342.0,14332.0,1342.0,24734.0,1342.0,25078.0,363.6146753260241,316.19770582642485,448.52028715646895
1342.0,14332.0,1342.0,24784.0,1342.0,25094.0,377.06172601443257,317.66786940441193,452.80537175049585
1352.0,14369.0,1352.0,24830.0,1352.0,25111.0,390.1294901860173,318.9387095224529,456.7986213446268
1352.0,14382.0,1352.0,24848.0,1352.0,25110.0,402.81745667809594,320.0131334756914,460.5061646210179
1352.0,14410.0,1352.0,24849.0,1352.0,25122.0,415.1250857912697,320.89416887103863,463.9340443796093
1352.0,14441.0,1352.0,24864.0,1352.0,25151.0,427.05210038552696,321.5856436039181,467.0883754399372
1352.0,14483.0,1352.0,24922.0,1352.0,25164.0,438.59889862012153,322.09263130184047,469.97563106275584
1352.0,14474.0,1352.0,24904.0,1352.0,25167.0,449.76707417573107,322.42207291627244,472.6030637612396
1362.0,14477.0,1362.0,24823.0,1362.0,25162.0,460.5597484791132,322.58326263881565,474.97900732361427
1362.0,14463.0,1362.0,24791.0,1362.0,25126.0,470.9814538176439,322.5873823573655,477.112843272449
1362.0,14457.0,1362.0,24772.0,1362.0,25105.0,481.03766236076854,322.4461713787484,479.01454447319657
1362.0,14466.0,1362.0,24761.0,1362.0,25110.0,490.734209866789,322.1706538867584,480.69393927967224
1362.0,14465.0,1362.0,24755.0,1362.0,25097.0,500.07681627957413,321.77037303874255,482.16007231539845
1362.0,14487.0,1362.0,24791.0,1362.0,25110.0,509.0707961263573,321.2530564798666,483.42085383585015
1373.0,14516.0,1373.0,24786.0,1373.0,25126.0,517.720996988481,320.624694758771,484.48295488768065
1373.0,14515.0,1373.0,24791.0,1373.0,25123.0,526.0319739708318,319.8898785922067,485.35191765594675
1373.0,14512.0,1373.0,24840.0,1373.0,25131.0,534.0081794284577,319.0521620540142,486.0323512656703
1373.0,14556.0,1373.0,24841.0,1373.0,25165.0,541.6539816210579,318.1145628380961,486.52812178927707
1373.0,14582.0,1373.0,24872.0,1373.0,25179.0,548.9737853527346,317.08027030244585,486.8427042761257
1373.0,14571.0,1373.0,24858.0,1373.0,25169.0,555.9724365888077,315.95330215154,486.9796966740395
1383.0,14559.0,1383.0,24774.0,1383.0,25135.0,562.6554940194982,314.73872311637894,486.9430867349722
1383.0,14548.0,1383.0,24794.0,1383.0,25142.0,569.0290051680777,313.442109801378,486.7370127507421
1383.0,14546.0,1383.0,24759.0,1383.0,25123.0,575.0989710260042,312.0685954543086,486.3652830997031
1383.0,14565.0,1383.0,24763.0,1383.0,25137.0,580.8708653198959,310.6221562455847,485.83101267442123
1383.0,14557.0,1383.0,24768.0,1383.0,25126.0,586.349394406319,309.10525020645866,485.1364489270427
1383.0,14583.0,1383.0,24769.0,1383.0,25136.0,591.5384470301601,307.5186973999619,484.28291660554714
1394.0,14589.0,1394.0,24780.0,1394.0,25157.0,596.4411488011713,305.8617668444136,483.27087099124594
1394.0,14598.0,1394.0,24805.0,1394.0,25179.0,601.0600070976142,304.13241349825324,482.10016685078176
1394.0,14620.0,1394.0,24844.0,1394.0,25171.0,605.3970936788224,302.3277503219807,480.7705329657881
1394.0,14657.0,1394.0,24887.0,1394.0,25177.0,609.4543155167243,300.4448870169128,479.281981061638
1394.0,14652.0,1394.0,24892.0,1394.0,25188.0,613.2338729378758,298.4820302884102,477.6350095026476
1394.0,14645.0,1394.0,24815.0,1394.0,25173.0,616.7386763299523,296.43930335727276,475.83072924398994
1404.0,14609.0,1404.0,24787.0,1404.0,25131.0,619.9723348088562,294.31860277641215,473.8708432168645
1404.0,14620.0,1404.0,24750.0,1404.0,25137.0,622.9386803272528,292.12254112031485,471.7572625756592
1404.0,14610.0,1404.0,24772.0,1404.0,25143.0,625.641185312248,289.8532930794827,469.49158843720153
1404.0,14622.0,1404.0,24733.0,1404.0,25140.0,628.0825954879076,287.51191962597557,467.0748921317135
1404.0,14644.0,1404.0,24771.0,1404.0,25139.0,630.2648364647993,285.09809936121536,464.50776558583243
1404.0,14659.0,1404.0,24785.0,1404.0,25156.0,632.1891879395238,282.610155712659,461.79041717166814
1414.0,14654.0,1414.0,24799.0,1414.0,25166.0,633.8566262788722,280.0454528428714,458.9228554994106
1414.0,14667.0,1414.0,24801.0,1414.0,25154.0,635.2680905748089,277.40097818581575,455.9051935235141
1414.0,14694.0,1414.0,24863.0,1414.0,25191.0,636.4246518986605,274.67391336357935,452.737943440662
1414.0,14712.0,1414.0,24873.0,1414.0,25197.0,637.3278285669326,271.8623939187048,449.42236308256525
1414.0,14688.0,1414.0,24859.0,1414.0,25172.0,637.9800271431856,268.96643365680245,445.96089627969747
1414.0,14683.0,1414.0,24819.0,1414.0,25152.0,638.3847306882843,265.98843486589874,442.35735300022134
1425.0,14658.0,1425.0,24745.0,1425.0,25140.0,638.5462540696052,262.93283109449067,438.61662276478205
1425.0,14661.0,1425.0,24725.0,1425.0,25118.0,638.4692746629617,259.8049514593032,434.7441843002058
1425.0,14645.0,1425.0,24720.0,1425.0,25099.0,638.1583852079456,256.60968311328224,430.7456197233663
1425.0,14657.0,1425.0,24761.0,1425.0,25125.0,637.6177739061285,253.35067846942425,426.6262018920038
1425.0,14669.0,1425.0,24746.0,1425.0,25112.0,636.8510943544032,250.03037416414128,422.39074295292954
1425.0,14680.0,1425.0,24781.0,1425.0,25127.0,635.8615838682894,246.65044928012463,418.04373832271875
1435.0,14684.0,1435.0,24778.0,1435.0,25131.0,634.6523551989592,243.21233621522038,413.5896157146606
1435.0,14681.0,1435.0,24798.0,1435.0,25139.0,633.2266692834912,239.71771937628802,409.03302228046545
1435.0,14715.0,1435.0,24842.0,1435.0,25171.0,631.5881403551787,236.16910056796064,404.37921042996084
1435.0,14712.0,1435.0,24797.0,1435.0,25147.0,629.7410291309586,232.57045327352708,399.634524195864
1435.0,14683.0,1435.0,24760.0,1435.0,25110.0,627.6905693150331,228.92757516151357,394.8067107422192
1435.0,14657.0,1435.0,24723.0,1435.0,25088.0,625.4429326540755,225.24766716083602,389.904682421014
1445.0,14654.0,1445.0,24714.0,1445.0,25068.0,623.0047311906907,221.53839593390816,384.9378444811033
1445.0,14663.0,1445.0,24706.0,1445.0,25070.0,620.3824875728798,217.8070709251499,379.91544955622794
1445.0,14637.0,1445.0,24710.0,1445.0,25078.0,617.5823889124051,214.06021097357288,374.84626398018986
1445.0,14677.0,1445.0,24716.0,1445.0,25076.0,614.6102349425063,210.3034516909592,369.7385780142832
1445.0,14669.0,1445.0,24710.0,1445.0,25084.0,611.4715478968866,206.5416557840865,364.60041197266224
1445.0,14658.0,1445.0,24726.0,1445.0,25067.0,608.1718358261439,202.77909459604834,359.4397257219898
1456.0,14673.0,1456.0,24735.0,1456.0,25063.0,604.7167703721565,199.01968856399287,354.26450582262595
1456.0,14686.0,1456.0,24776.0,1456.0,25086.0,601.1122848908412,195.26742989684513,349.08277052631115
1456.0,14700.0,1456.0,24789.0,1456.0,25080.0,597.3648578436688,191.52707638216094,343.9027109314377
1456.0,14682.0,1456.0,24760.0,1456.0,25062.0,593.4819245980194,187.80490976382222,338.7329558917255
1456.0,14656.0,1456.0,24728.0,1456.0,25025.0,589.4720673196852,184.10905259818105,333.58259411844176
1456.0,14610.0,1456.0,24682.0,1456.0,25020.0,585.344719632686,180.44906006167156,328.4607811813793
1466.0,14614.0,1466.0,24643.0,1466.0,25011.0,581.1094606506801,176.8349787051399,323.3762103916942
1466.0,14612.0,1466.0,24615.0,1466.0,25011.0,576.7753331824855,173.27620374791314,318.3367791658109
1466.0,14614.0,1466.0,24632.0,1466.0,25004.0,572.3505541269125,169.78048065798436,313.34948499715665
1466.0,14609.0,1466.0,24678.0,1466.0,25016.0,567.8425378446457,166.35348987369622,308.42044352514154
1466.0,14615.0,1466.0,24654.0,1466.0,25024.0,563.2579893965813,162.99917227154242,303.5550304980987
1466.0,14610.0,1466.0,24651.0,1466.0,24994.0,558.6030026487817,159.7202670041726,298.7581049318112
1476.0,14630.0,1476.0,24686.0,1476.0,25011.0,553.8832075469951,156.5185698122252,294.0341088916775
1476.0,14647.0,1476.0,24742.0,1476.0,25024.0,549.1040574278787,153.395286102007,289.3870821897217
1476.0,14634.0,1476.0,24739.0,1476.0,25035.0,544.2712703460492,150.35192191602857,284.82089338385526
1476.0,14618.0,1476.0,24687.0,1476.0,25013.0,539.3911672230051,147.39120074579012,280.3396403993693
1476.0,14597.0,1476.0,24663.0,1476.0,24988.0,534.4706394985767,144.51716830985447,275.94781387630184
1476.0,14567.0,1476.0,24619.0,1476.0,24974.0,529.5167744126552,141.7344508041364,271.6500308551965
1487.0,14579.0,1487.0,24638.0,1487.0,24987.0,524.536348165291,139.04729992433718,267.45060174121227
1487.0,14578.0,1487.0,24618.0,1487.0,24950.0,519.5354781471754,136.45895068885596,263.3532541963416
1487.0,14572.0,1487.0,24632.0,1487.0,24965.0,514.5195878281404,133.97138907236246,259.36096525543155
1487.0,14570.0,1487.0,24654.0,1487.0,24984.0,509.4935039965483,131.58540387926845,255.47585297864555
1487.0,14593.0,1487.0,24648.0,1487.0,24971.0,504.4615566552662,129.30086815166018,251.6993137261913
1487.0,14583.0,1487.0,24649.0,1487.0,24975.0,499.4277967673214,127.11709830364042,248.03229975148616
1497.0,14582.0,1497.0,24706.0,1497.0,24997.0,494.39629123332946,125.03317360529452,244.47551647893894
1497.0,14615.0,1497.0,24743.0,1497.0,25024.0,489.3713694949863,123.04853982549261,241.0297276364007
1497.0,14599.0,1497.0,24684.0,1497.0,24983.0,484.3579390035285,121.16393348002717,237.6962511858211
1497.0,14549.0,1497.0,24640.0,1497.0,24953.0,479.36175405663164,119.38178077971378,234.47716437760607
1497.0,14540.0,1497.0,24582.0,1497.0,24936.0,474.38919060180854,117.70547223174994,231.37487182887446
1497.0,14523.0,1497.0,24572.0,1497.0,24934.0,469.44659562926995,116.13798232637886,228.39139880781514
1507.0,14520.0,1507.0,24584.0,1507.0,24917.0,464.5397229550374,114.68067608166439,225.5278811801188
1507.0,14541.0,1507.0,24612.0,1507.0,24941.0,459.67349601826834,113.33282246084993,222.78432278927988
1507.0,14543.0,1507.0,24643.0,1507.0,24943.0,454.85211369965873,112.09186724201761,220.15960202405358
1507.0,14522.0,1507.0,24626.0,1507.0,24941.0,450.0793431742807,110.95409906854816,217.6516951931042
1507.0,14525.0,1507.0,24616.0,1507.0,24950.0,445.3586657467321,109.91514818630469,215.25792043981133
1507.0,14535.0,1507.0,24677.0,1507.0,24967.0,440.6932451883238,108.97015608298348,212.97513952344607
1518.0,14543.0,1518.0,24700.0,1518.0,24997.0,436.0860139243537,108.11414233093461,210.8001037304179
1518.0,14557.0,1518.0,24703.0,1518.0,24989.0,431.53998624716047,107.34284198439481,208.73000269853014
1518.0,14516.0,1518.0,24674.0,1518.0,24969.0,427.05858798935134,106.65344097055936,206.76292281295127
1518.0,14498.0,1518.0,24623.0,1518.0,24952.0,422.6456565004971,106.04459844183276,204.89787122732776
1518.0,14490.0,1518.0,24587.0,1518.0,24920.0,418.3050217729242,105.51569142126412,203.1343635473499
1518.0,14481.0,1518.0,24591.0,1518.0,24908.0,414.0400106044541,105.06569260813716,201.47178972754642
1528.0,14481.0,1528.0,24556.0,1528.0,24902.0,409.8531549763318,104.69222980533611,199.90876867174325
1528.0,14479.0,1528.0,24624.0,1528.0,24930.0,405.7460822820249,104.39109819283462,198.44274452973525
1528.0,14468.0,1528.0,24630.0,1528.0,24928.0,401.7194901883315,104.15635909607643,197.06999877926106
1528.0,14497.0,1528.0,24664.0,1528.0,24949.0,397.7731736966508,103.98100717009753,195.78596484779536
1528.0,14484.0,1528.0,24647.0,1528.0,24946.0,393.906181281494,103.85776096573052,194.58560052078053
1528.0,14508.0,1528.0,24685.0,1528.0,24955.0,390.1171122519056,103.77959663537322,193.46369280775556
1538.0,14517.0,1538.0,24752.0,1538.0,24994.0,386.40447643667557,103.74026582571395,192.41515208789556
1538.0,14514.0,1538.0,24678.0,1538.0,24966.0,382.76709599519097,103.73507319975108,191.43540902553437
1538.0,14474.0,1538.0,24661.0,1538.0,24920.0,379.2043652379282,103.76132083231256,190.5206432372468
1538.0,14469.0,1538.0,24597.0,1538.0,24943.0,375.71608719504354,103.81775180149499,189.66745732666806
1538.0,14446.0,1538.0,24606.0,1538.0,24931.0,372.3019780212098,103.90336948069708,188.87233639741348
1538.0,14444.0,1538.0,24594.0,1538.0,24930.0,368.9611670902935,104.01640969281684,188.13140111178816
1549.0,14438.0,1549.0,24601.0,1549.0,24915.0,365.69184659778415,104.15380170974265,187.44031680043804
1549.0,14471.0,1549.0,24634.0,1549.0,24945.0,362.49114558108283,104.31107566485402,186.79416852123384
1549.0,14470.0,1549.0,24648.0,1549.0,24938.0,359.35533364997605,104.48264969678485,186.187472200102
1549.0,14473.0,1549.0,24657.0,1549.0,24937.0,356.2802391649893,104.66237958931669,185.6143523675231
1549.0,14477.0,1549.0,24670.0,1549.0,24963.0,353.2615946109711,104.84409383144867,185.06870857875154
1549.0,14490.0,1549.0,24703.0,1549.0,24998.0,350.29525870187763,105.02203941045164,184.5444820082396
1559.0,14502.0,1559.0,24733.0,1559.0,24972.0,347.37748331785764,105.19145304260252,184.03617216471952
1559.0,14479.0,1559.0,24669.0,1559.0,24958.0,344.5052254034823,105.3491831411946,183.53922345777863
1559.0,14443.0,1559.0,24628.0,1559.0,24936.0,341.6762105055131,105.49373127004118,183.04987906995748
1559.0,14449.0,1559.0,24605.0,1559.0,24932.0,338.88855984238575,105.62439141458307,182.5646763219658
1559.0,14440.0,1559.0,24598.0,1559.0,24928.0,336.14028251589593,105.74008007762056,182.0799641162082
1559.0,14439.0,1559.0,24618.0,1559.0,24918.0,333.4289951760434,105.83856553718535,181.5915862606999
1569.0,14435.0,1569.0,24632.0,1569.0,24941.0,330.751830756694,105.91629058907775,181.09471258246143
1569.0,14436.0,1569.0,24660.0,1569.0,24951.0,328.1053926767414,105.96866945026697,180.58387463064776
1569.0,14449.0,1569.0,24646.0,1569.0,24951.0,325.4857707889277,105.99059180418121,180.05322838504432
1569.0,14450.0,1569.0,24638.0,1569.0,24949.0,322.8886819198329,105.97677593220477,179.49682962934943
1569.0,14465.0,1569.0,24705.0,1569.0,24978.0,320.3097209583144,105.9219144269672,178.90879670352766
1569.0,14491.0,1569.0,24741.0,1569.0,25013.0,317.7447084600733,105.82112667616295,178.2836056923181
1580.0,14470.0,1580.0,24717.0,1580.0,24989.0,315.19012883310256,105.6709145801848,177.61665584642512
1580.0,14465.0,1580.0,24660.0,1580.0,24973.0,312.6434426948924,105.46981014057677,176.9046945935066
1580.0,14435.0,1580.0,24623.0,1580.0,24931.0,310.103024593563,105.21797029868142,176.14565099426812
1580.0,14416.0,1580.0,24619.0,1580.0,24928.0,307.5677565304807,104.91605298917875,175.33797084106197
1580.0,14410.0,1580.0,24607.0,1580.0,24923.0,305.0364675705899,104.56420009191527,174.47989464328313
1580.0,14411.0,1580.0,24620.0,1580.0,24919.0,302.5074563578024,104.16150368558466,173.56900235309962
1590.0,14409.0,1590.0,24663.0,1590.0,24950.0,299.9782604998334,103.70594751182533,172.6020775112097
1590.0,14430.0,1590.0,24650.0,1590.0,24949.0,297.44566073793317,103.1947852292439,171.57526660783208
1590.0,14425.0,1590.0,24657.0,1590.0,24963.0,294.90586533989983,102.62505803148893,170.4844406690778
1590.0,14429.0,1590.0,24675.0,1590.0,24966.0,292.3547716075495,101.99391172728836,169.325554792734
1590.0,14465.0,1590.0,24721.0,1590.0,24987.0,289.7882297388878,101.29891169540917,168.09495112025664
1590.0,14458.0,1590.0,24718.0,1590.0,24983.0,287.20242452338783,100.53866947528843,166.78968227086455
1600.0,14446.0,1600.0,24669.0,1600.0,24980.0,284.59430821503355,99.71345119787813,165.4077966624471
1600.0,14398.0,1600.0,24641.0,1600.0,24945.0,281.9616759103336,98.82511221125277,163.94838950995867
1600.0,14395.0,1600.0,24624.0,1600.0,24919.0,279.30269734669486,97.87632753732053,162.4112617137401
1600.0,14403.0,1600.0,24622.0,1600.0,24937.0,276.6152714891334,96.86972724610553,160.79631214114104
1600.0,14382.0,1600.0,24578.0,1600.0,24893.0,273.89665728321745,95.80728070396061,159.10301544113838
1600.0,14403.0,1600.0,24596.0,1600.0,24939.0,271.14338064686643,94.6897818894877,157.33012503804156
1611.0,14410.0,1611.0,24606.0,1611.0,24949.0,268.3512822018152,93.51645595825804,155.47565596522128
1611.0,14419.0,1611.0,24654.0,1611.0,24958.0,265.5157544239038,92.28502297100749,153.53725685820382
1611.0,14401.0,1611.0,24664.0,1611.0,24954.0,262.63205299055886,90.99231392286265,151.51271617788507
1611.0,14450.0,1611.0,24697.0,1611.0,24969.0,259.6955225956698,89.63514974723118,149.40028298544655
1611.0,14459.0,1611.0,24723.0,1611.0,24972.0,256.7019458217726,88.21122434805385,147.19888125886507
1611.0,14424.0,1611.0,24674.0,1611.0,24950.0,253.6480799717559,86.71982985221132,144.90830279859637
1621.0,14415.0,1621.0,24657.0,1621.0,24926.0,250.53189427394602,85.16206594879944,142.52917840646148
1621.0,14376.0,1621.0,24609.0,1621.0,24912.0,247.35223638408763,83.54032691654083,140.06259377942428
1621.0,14366.0,1621.0,24596.0,1621.0,24902.0,244.108195382645,81.85737796153677,137.50954640210404
1621.0,14368.0,1621.0,24570.0,1621.0,24929.0,240.79848308243788,80.11542149552282,134.87056720311534
1621.0,14363.0,1621.0,24589.0,1621.0,24912.0,237.42106236305762,78.31539005271465,132.1456809864145
1621.0,14391.0,1621.0,24615.0,1621.0,24910.0,233.9731075738136,76.45668232103603,129.334545747346
1632.0,14388.0,1632.0,24616.0,1632.0,24929.0,230.45124243030676,74.53741916184322,126.43653207227905
1632.0,14378.0,1632.0,24647.0,1632.0,24912.0,226.85188347590577,72.55498285947779,123.45080334145504
1632.0,14386.0,1632.0,24658.0,1632.0,24915.0,223.17144231856747,70.50660490253196,120.37643520345891
1632.0,14421.0,1632.0,24689.0,1632.0,24935.0,219.40646163118828,68.39001046622579,117.21249744448946
1632.0,14422.0,1632.0,24703.0,1632.0,24949.0,215.55400274932546,66.20414193509944,113.95825815243562
1632.0,14406.0,1632.0,24655.0,1632.0,24941.0,211.61218580888323,63.94976320437581,110.61359317326024
1642.0,14352.0,1642.0,24591.0,1642.0,24894.0,207.58036039315937,61.629446952784704,107.17924672746972
1642.0,14347.0,1642.0,24572.0,1642.0,24900.0,203.45864366426474,59.24667570902122,103.65660522687479
1642.0,14336.0,1642.0,24562.0,1642.0,24891.0,199.24717813024156,56.804596971203665,100.04720890096617
1642.0,14331.0,1642.0,24572.0,1642.0,24869.0,194.94560890913021,54.305185103676436,96.35240188813626
1642.0,14361.0,1642.0,24598.0,1642.0,24880.0,190.55293024630006,51.74904062415709,92.57311467505053
1642.0,14362.0,1642.0,24592.0,1642.0,24898.0,186.06768308394803,49.13566290005991,88.70975860605577
1652.0,14363.0,1652.0,24625.0,1652.0,24886.0,181.4883822883223,46.463918981840166,84.76238421062988
1652.0,14352.0,1652.0,24610.0,1652.0,24884.0,176.81386597042027,43.7325143059813,80.73094548299866
1652.0,14370.0,1652.0,24642.0,1652.0,24904.0,172.0434455186332,40.940418750597345,76.61545154674602
1652.0,14373.0,1652.0,24664.0,1652.0,24920.0,167.1770587472772,38.08732295508224,72.41618378816457
1652.0,14357.0,1652.0,24667.0,1652.0,24901.0,162.2155212930547,35.17423825641579,68.13409987545032
1652.0,14337.0,1652.0,24608.0,1652.0,24877.0,157.1606475772977,32.20398120765017,63.77109680696677
1663.0,14314.0,1663.0,24577.0,1663.0,24848.0,152.01504298090958,29.1809982611195,59.32981320688859
1663.0,14301.0,1663.0,24535.0,1663.0,24840.0,146.78166228897305,26.110469816136657,54.81308413615588
1663.0,14285.0,1663.0,24524.0,1663.0,24839.0,141.46333872007915,22.997189308260914,50.22341058381156
1663.0,14279.0,1663.0,24512.0,1663.0,24858.0,136.0624008253794,19.844660380924566,45.56273294374785
1663.0,14292.0,1663.0,24579.0,1663.0,24835.0,130.58045002337795,16.654691269062894,40.83252863536546
1663.0,14296.0,1663.0,24586.0,1663.0,24835.0,125.01839381094302,13.42772508409854,36.03396060252939
1673.0,14303.0,1673.0,24544.0,1673.0,24848.0,119.37672043047112,10.163600356522949,31.16790664823742
1673.0,14295.0,1673.0,24601.0,1673.0,24854.0,113.65583484798233,6.8620254176694,26.235061817387248
1673.0,14317.0,1673.0,24641.0,1673.0,24867.0,107.85633864431287,3.5229001818649976,21.23625950296318
1673.0,14313.0,1673.0,24616.0,1673.0,24881.0,101.97932665331149,0.14705399313974965,16.17292018000984
1673.0,14289.0,1673.0,24595.0,1673.0,24831.0,96.02668413130513,-3.263037592890484,11.04743548005689
1673.0,14261.0,1673.0,24526.0,1673.0,24798.0,90.00111323954297,-6.703326138391034,5.863125309625332
1683.0,14237.0,1683.0,24493.0,1683.0,24782.0,83.90574509336847,-10.169090270397135,0.623614133308962
1683.0,14241.0,1683.0,24508.0,1683.0,24801.0,77.74358013953898,-13.656128105070593,-4.667892035810496
1683.0,14224.0,1683.0,24474.0,1683.0,24778.0,71.51709067853582,-17.16160279331598,-10.008914024748691
1683.0,14220.0,1683.0,24508.0,1683.0,24797.0,65.22804615044907,-20.684369296022226,-15.397664197886712
1683.0,14224.0,1683.0,24532.0,1683.0,24796.0,58.87744170687307,-24.224903898462628,-20.832902294633726
1683.0,14230.0,1683.0,24521.0,1683.0,24786.0,52.46554215306725,-27.784858763513654,-26.313729014179415
1694.0,14236.0,1694.0,24535.0,1694.0,24787.0,45.992103960423776,-31.366518763638936,-31.839416553551644
1694.0,14242.0,1694.0,24586.0,1694.0,24807.0,39.45671462409814,-34.97234875200836,-37.40929636911852
1694.0,14260.0,1694.0,24609.0,1694.0,24804.0,32.859190678999596,-38.604297295822434,-43.02251800758452
1694.0,14236.0,1694.0,24556.0,1694.0,24797.0,26.199993905119413,-42.26289930180789,-48.677699270205494
1694.0,14211.0,1694.0,24536.0,1694.0,24753.0,19.48045323069897,-45.94691613773294,-54.372785466227555
1694.0,14189.0,1694.0,24490.0,1694.0,24748.0,12.70257375291095,-49.6538350080296,-60.105324221550745
1704.0,14175.0,1704.0,24462.0,1704.0,24716.0,5.868560327536045,-53.38081275709395,-65.87300615185146
1704.0,14166.0,1704.0,24452.0,1704.0,24733.0,-1.0196387521968404,-57.12563918934487,-71.67415779823477
1704.0,14161.0,1704.0,24451.0,1704.0,24736.0,-7.9606182994485835,-60.88746094929911,-77.50795214367434
1704.0,14171.0,1704.0,24487.0,1704.0,24729.0,-14.95360675241966,-64.6670454384527,-83.37429628843509
1704.0,14163.0,1704.0,24505.0,1704.0,24752.0,-21.99836476114166,-68.46648967909249,-89.27356630521012
1704.0,14151.0,1704.0,24506.0,1704.0,24739.0,-29.09501126935072,-72.28855016775572,-95.20630665746637
1714.0,14161.0,1714.0,24527.0,1714.0,24732.0,-36.24392483423185,-76.13597007082214,-101.17295286223631
1714.0,14171.0,1714.0,24565.0,1714.0,24766.0,-43.44562911697051,-80.0108866564394,-107.17363607288934
1714.0,14170.0,1714.0,24546.0,1714.0,24772.0,-50.7005006392983,-83.91414686942517,-113.20786922553137
1714.0,14156.0,1714.0,24503.0,1714.0,24706.0,-58.008420217839955,-87.84479812062636,-119.27413094081896
1714.0,14129.0,1714.0,24473.0,1714.0,24682.0,-65.3686432952656,-91.80026019805649,-125.36994217350906
1714.0,14117.0,1714.0,24431.0,1714.0,24676.0,-72.77999036113465,-95.77713380705137,-131.49258338952478
1725.0,14113.0,1725.0,24440.0,1725.0,24681.0,-80.24118344689185,-99.77215405075157,-137.63977237601148
1725.0,14087.0,1725.0,24403.0,1725.0,24677.0,-87.75111016962762,-103.78291253738897,-143.80985754792744
1725.0,14090.0,1725.0,24439.0,1725.0,24670.0,-95.30901333978886,-107.80825511875796,-150.00172514612854
1725.0,14102.0,1725.0,24457.0,1725.0,24662.0,-102.91459807290198,-111.84829462094166,-156.21471584378793
1725.0,14100.0,1725.0,24470.0,1725.0,24659.0,-110.56790262838541,-115.90396170446849,-162.44862567675654
1725.0,14082.0,1725.0,24459.0,1725.0,24678.0,-118.26901393712404,-119.9763650343863,-168.70367596932357
1735.0,14087.0,1735.0,24475.0,1735.0,24681.0,-126.01790304657214,-124.0663492921939,-174.98029036737603
1735.0,14108.0,1735.0,24511.0,1735.0,24696.0,-133.81432989253005,-128.1741619586118,-181.2786708817119
1735.0,14092.0,1735.0,24471.0,1735.0,24668.0,-141.6575705100172,-132.29898802512966,-187.5983692351022
1735.0,14067.0,1735.0,24437.0,1735.0,24636.0,-149.5461124039532,-136.43867440339835,-193.93815302269348
1735.0,14032.0,1735.0,24411.0,1735.0,24597.0,-157.47771475558352,-140.59009534973853,-200.2963751450136
1735.0,14003.0,1735.0,24370.0,1735.0,24608.0,-165.44991243893327,-144.74998493075117,-206.67167048649634
1745.0,14003.0,1745.0,24380.0,1745.0,24617.0,-173.46068059496804,-148.91579545102513,-213.06345574348762
1745.0,14018.0,1745.0,24375.0,1745.0,24596.0,-181.5088591410771,-153.0862783799741,-219.47196328646805
1745.0,14024.0,1745.0,24397.0,1745.0,24602.0,-189.59409240821844,-157.26161786038736,-225.89809644176296
1745.0,14017.0,1745.0,24410.0,1745.0,24603.0,-197.71643774749492,-161.4431633827536,-232.34335510419527
1745.0,13987.0,1745.0,24416.0,1745.0,24617.0,-205.87605393753086,-165.63293971020974,-238.80969404187005
1745.0,14008.0,1745.0,24426.0,1745.0,24622.0,-214.07317176788365,-169.83312627073843,-245.29919647311692
1756.0,14023.0,1756.0,24445.0,1756.0,24616.0,-222.30806550086578,-174.04558893192635,-251.81367011485588
1756.0,14007.0,1756.0,24454.0,1756.0,24642.0,-230.58072772202024,-178.2713851714092,-258.35428099371353
1756.0,13979.0,1756.0,24429.0,1756.0,24592.0,-238.89052482475802,-182.51029116005853,-264.9212613948499
1756.0,13951.0,1756.0,24349.0,1756.0,24570.0,-247.2362702565701,-186.76075547254052,-271.5138942869596
1756.0,13941.0,1756.0,24343.0,1756.0,24558.0,-255.6166690026464,-191.02062346327546,-278.13093611331345
1756.0,13936.0,1756.0,24327.0,1756.0,24549.0,-264.0307650258285,-195.28824581969138,-284.77116226861307
1766.0,13912.0,1766.0,24330.0,1766.0,24535.0,-272.4781913526096,-199.56324483543017,-291.4337034066668
1766.0,13928.0,1766.0,24321.0,1766.0,24529.0,-280.95928556854244,-203.84678464370847,-298.11823130147087
1766.0,13933.0,1766.0,24364.0,1766.0,24538.0,-289.4750565687879,-208.14153362354386,-304.8250651174532
1766.0,13909.0,1766.0,24369.0,1766.0,24541.0,-298.02695600989375,-212.4512946578459,-311.55510500830883
1766.0,13916.0,1766.0,24372.0,1766.0,24559.0,-306.61666894793154,-216.78037399305236,-318.30954649100687
1766.0,13916.0,1766.0,24422.0,1766.0,24556.0,-315.2460268299179,-221.1329354796669,-325.0894504482794
1776.0,13933.0,1776.0,24443.0,1776.0,24558.0,-323.9168222032457,-225.51225911704063,-331.8953083643458
1776.0,13928.0,1776.0,24394.0,1776.0,24526.0,-332.6304218795286,-229.91989770892883,-338.72678085330085
1776.0,13894.0,1776.0,24348.0,1776.0,24511.0,-341.3874031337084,-234.3553690042924,-345.5827551760004
1776.0,13864.0,1776.0,24307.0,1776.0,24491.0,-350.18755895486345,-238.81680218497314,-352.46168937706926
1776.0,13856.0,1776.0,24302.0,1776.0,24474.0,-359.0303209003291,-243.30205908825388,-359.3620487978644
1776.0,13842.0,1776.0,24283.0,1776.0,24464.0,-367.9152454064191,-247.80964821902148,-366.2826953734755
1787.0,13837.0,1787.0,24286.0,1787.0,24467.0,-376.84228834413034,-252.33922316498592,-373.2231629757836
1787.0,13848.0,1787.0,24321.0,1787.0,24480.0,-385.81185973638446,-256.8917059296386,-380.183707532089
1787.0,13827.0,1787.0,24329.0,1787.0,24474.0,-394.8247072077046,-261.4689785288047,-387.16509348390247
1787.0,13835.0,1787.0,24316.0,1787.0,24463.0,-403.8817435074444,-266.0732966278143,-394.1683027626388
1787.0,13825.0,1787.0,24360.0,1787.0,24467.0,-412.9839152243253,-270.7067813399186,-401.1943767279304
1787.0,13840.0,1787.0,24415.0,1787.0,24496.0,-422.13203981294737,-275.3708353200345,-408.2442797364198
1797.0,13857.0,1797.0,24364.0,1797.0,24505.0,-431.3264834123024,-280.06521596613555,-415.31849694431514
1797.0,13813.0,1797.0,24336.0,1797.0,24486.0,-440.5667280052851,-284.78736673796146,-422.4164351255541
1797.0,13775.0,1797.0,24285.0,1797.0,24436.0,-449.8512286089507,-289.53269062384584,-429.53612230753725
1797.0,13769.0,1797.0,24243.0,1797.0,24412.0,-459.1778296684323,-294.295547274274,-436.6745563498034
1797.0,13754.0,1797.0,24243.0,1797.0,24420.0,-468.54435619550077,-299.070399203492,-443.8284212297233
1797.0,13742.0,1797.0,24237.0,1797.0,24389.0,-477.9489567592393,-303.8526599849523,-450.99461460293156
1807.0,13740.0,1807.0,24253.0,1807.0,24405.0,-487.39023886904226,-308.63900985694755,-458.17045924465987
1807.0,13755.0,1807.0,24283.0,1807.0,24412.0,-496.8672595437163,-313.42721935604425,-465.35371382060526
1807.0,13740.0,1807.0,24267.0,1807.0,24409.0,-506.3793104020176,-318.2156490563301,-472.5423567662103
1807.0,13732.0,1807.0,24265.0,1807.0,24410.0,-515.9256369453682,-323.00275738220853,-479.7342506071854
1807.0,13751.0,1807.0,24288.0,1807.0,24429.0,-525.5052519339014,-327.78684523454444,-486.92683654673806
1807.0,13760.0,1807.0,24364.0,1807.0,24433.0,-535.1166728934,-332.56566512289294,-494.11676428001755
1818.0,13738.0,1818.0,24316.0,1818.0,24409.0,-544.7574785578123,-337.335528575064,-501.29946926729014
1818.0,13708.0,1818.0,24268.0,1818.0,24393.0,-554.4240202383844,-342.09054330676724,-508.4689889947984
1818.0,13678.0,1818.0,24228.0,1818.0,24379.0,-564.1115998538288,-346.82286059422273,-515.6181357493459
1818.0,13658.0,1818.0,24193.0,1818.0,24341.0,-573.8149953393595,-351.5237448321668,-522.7388621771637
1818.0,13651.0,1818.0,24188.0,1818.0,24325.0,-583.5290057391877,-356.18469650696454,-529.8227449772471
1818.0,13659.0,1818.0,24198.0,1818.0,24348.0,-593.2487550860859,-360.79817756370096,-536.8614716311067
1828.0,13644.0,1828.0,24211.0,1828.0,24336.0,-602.9696823790518,-365.3577896767326,-543.8470066415192
1828.0,13661.0,1828.0,24219.0,1828.0,24344.0,-612.6873453113718,-369.85800482644004,-550.7713990967076
1828.0,13635.0,1828.0,24191.0,1828.0,24319.0,-622.3971836074796,-374.2937924231982,-557.6265616870312
1828.0,13631.0,1828.0,24240.0,1828.0,24343.0,-632.0943534207742,-378.6603900555262,-564.404181308074
1828.0,13646.0,1828.0,24293.0,1828.0,24385.0,-641.7736552043363,-382.9529164971238,-571.0955085506221
1828.0,13649.0,1828.0,24280.0,1828.0,24347.0,-651.429348795599,-387.1654547717997,-577.690797671792
1839.0,13614.0,1839.0,24257.0,1839.0,24333.0,-661.0548214841253,-391.2900931617198,-584.1788000568164
1839.0,13598.0,1839.0,24193.0,1839.0,24308.0,-670.6424735210545,-395.3167459894431,-590.5468153974497
1839.0,13580.0,1839.0,24178.0,1839.0,24280.0,-680.1839750883344,-399.2338576417219,-596.7811613148475
1839.0,13575.0,1839.0,24157.0,1839.0,24271.0,-689.6706156993064,-403.0294376790357,-602.867733990783
1839.0,13555.0,1839.0,24151.0,1839.0,24269.0,-699.0935277353213,-406.6918749171439,-608.7924821551682
1839.0,13572.0,1839.0,24147.0,1839.0,24287.0,-708.4437783263381,-410.21038919642785,-614.5416046507679
1849.0,13554.0,1849.0,24178.0,1849.0,24289.0,-717.7123156957799,-413.57516775256636,-620.1013910787759
1849.0,13555.0,1849.0,24162.0,1849.0,24276.0,-726.889808710662,-416.7771845115917,-625.4578901315213
1849.0,13539.0,1849.0,24184.0,1849.0,24249.0,-735.966525639823,-419.80785643116076,-630.5967521148399
1849.0,13560.0,1849.0,24231.0,1849.0,24305.0,-744.9322564721898,-422.6586302760655,-635.503294683116
1849.0,13573.0,1849.0,24288.0,1849.0,24305.0,-753.7760787653045,-425.32020060413146,-640.1623409645624
1849.0,13556.0,1849.0,24205.0,1849.0,24277.0,-762.4859026003427,-427.78141996309154,-644.5577111560303
1859.0,13531.0,1859.0,24202.0,1859.0,24265.0,-771.048110702731,-430.02878597526734,-648.6719529371055
1859.0,13512.0,1859.0,24146.0,1859.0,24249.0,-779.4476098237001,-432.0469630361049,-652.4865844313487
1859.0,13466.0,1859.0,24126.0,1859.0,24225.0,-787.6682493016616,-433.81980884460984,-655.9825406489701
1859.0,13457.0,1859.0,24114.0,1859.0,24232.0,-795.693441341942,-435.3313800824387,-659.1406074655913
1859.0,13469.0,1859.0,24111.0,1859.0,24207.0,-803.5067406835528,-436.5666931166563,-661.9417769647823
1859.0,13472.0,1859.0,24128.0,1859.0,24232.0,-811.0920361039673,-437.5120985703972,-664.3674680967018
1870.0,13471.0,1870.0,24158.0,1870.0,24234.0,-818.4333300069491,-438.15522976603245,-666.3995545769028
1870.0,13467.0,1870.0,24154.0,1870.0,24218.0,-825.5144283875889,-438.48459226553217,-668.0202168156553
1870.0,13452.0,1870.0,24186.0,1870.0,24224.0,-832.3187643049911,-438.48902764032647,-669.2118471451314
1870.0,13479.0,1870.0,24187.0,1870.0,24239.0,-838.8293209868892,-438.15722588964553,-669.9570757045934
1870.0,13474.0,1870.0,24207.0,1870.0,24247.0,-845.0284547571666,-437.4772727101324,-670.2386767320993
1870.0,13450.0,1870.0,24164.0,1870.0,24252.0,-850.8976102452725,-436.43633519853324,-670.0393011860572
1880.0,13424.0,1880.0,24127.0,1880.0,24195.0,-856.4172745066023,-435.0208040991692,-669.3413418373049
1880.0,13423.0,1880.0,24066.0,1880.0,24186.0,-861.56731231447,-433.21712168745944,-668.1272936378507
1880.0,13406.0,1880.0,24102.0,1880.0,24185.0,-866.32738576546,-431.0130184686627,-666.3805168395616
1880.0,13390.0,1880.0,24092.0,1880.0,24200.0,-870.6772645676033,-428.3984406955658,-664.085844874367
1880.0,13402.0,1880.0,24138.0,1880.0,24181.0,-874.5970802808703,-425.3657542276021,-661.2297886086428
1880.0,13392.0,1880.0,24147.0,1880.0,24198.0,-878.0674786154174,-421.9094051624584,-657.8006045876684
1890.0,13392.0,1890.0,24141.0,1890.0,24213.0,-881.069627930317,-418.0254199722433,-653.788361269274
1890.0,13384.0,1890.0,24150.0,1890.0,24217.0,-883.5852160995981,-413.71109947938504,-649.1848680370123
1890.0,13413.0,1890.0,24170.0,1890.0,24234.0,-885.5964525446077,-408.9649513266236,-643.9834875515843
1890.0,13418.0,1890.0,24265.0,1890.0,24271.0,-887.085895915456,-403.78640974306376,-638.1788984901176
1890.0,13413.0,1890.0,24212.0,1890.0,24264.0,-888.0361079998758,-398.1750370790992,-631.7667400850977
1890.0,13386.0,1890.0,24178.0,1890.0,24243.0,-888.4294582217409,-392.12986889163574,-624.743334939289
1901.0,13363.0,1901.0,24151.0,1901.0,24232.0,-888.2483565438066,-385.6497727960133,-617.1058707174132
1901.0,13362.0,1901.0,24143.0,1901.0,24237.0,-887.4758242743887,-378.73454183814033,-608.8529740475542
1901.0,13352.0,1901.0,24134.0,1901.0,24231.0,-886.0960734739647,-371.38591089986573,-599.9852780432777
1901.0,13361.0,1901.0,24150.0,1901.0,24243.0,-884.0948850361466,-363.60821887966927,-590.5058155133052
1901.0,13373.0,1901.0,24195.0,1901.0,24284.0,-881.4597697576676,-355.4086680119158,-580.4202115225098
1901.0,13377.0,1901.0,24200.0,1901.0,24290.0,-878.1799391624527,-346.7971093494999,-569.736569969189
1911.0,13377.0,1911.0,24200.0,1911.0,24307.0,-874.2461977874101,-337.78562333166553,-558.4651653006439
1911.0,13400.0,1911.0,24248.0,1911.0,24332.0,-869.650876678547,-328.3882573668112,-546.6182021899506
1911.0,13434.0,1911.0,24317.0,1911.0,24356.0,-864.387686973029,-318.62067112681694,-534.2096226066576
1911.0,13412.0,1911.0,24335.0,1911.0,24384.0,-858.4513885842317,-308.49926614878893,-521.2548162051814
1911.0,13418.0,1911.0,24317.0,1911.0,24387.0,-851.83756561099,-298.0401797064677,-507.7702922700647
1911.0,13414.0,1911.0,24275.0,1911.0,24382.0,-844.5427616060566,-287.2589822723186,-493.77353128378724
1921.0,13387.0,1921.0,24266.0,1921.0,24381.0,-836.5648554449515,-276.1713208960242,-479.2831835507914
1921.0,13413.0,1921.0,24276.0,1921.0,24411.0,-827.903546359045,-264.7939534889903,-464.3194807426941
1921.0,13416.0,1921.0,24281.0,1921.0,24411.0,-818.560782248757,-253.14551578684427,-448.9045400075456
1921.0,13444.0,1921.0,24325.0,1921.0,24462.0,-808.5409086709981,-241.2468099685705,-433.06243046448947
1921.0,13455.0,1921.0,24362.0,1921.0,24478.0,-797.850568789544,-229.12064063127275,-416.81901755481556
1921.0,13489.0,1921.0,24383.0,1921.0,24496.0,-786.4984917596646,-216.79127637293328,-400.2016613716577
1932.0,13503.0,1932.0,24395.0,1932.0,24530.0,-774.4952077842394,-204.28384587883912,-383.2389522911997
1932.0,13527.0,1932.0,24472.0,1932.0,24582.0,-761.8527340833002,-191.62385391530364,-365.9604486190732
1932.0,13576.0,1932.0,24536.0,1932.0,24622.0,-748.5842415581042,-178.83645620440552,-348.39616438974645
1932.0,13555.0,1932.0,24495.0,1932.0,24625.0,-734.703675456255,-165.94537296597434,-330.5758873164995
1932.0,13563.0,1932.0,24485.0,1932.0,24633.0,-720.2255603181521,-152.9722437389031,-312.5287630494303
1932.0,13599.0,1932.0,24478.0,1932.0,24618.0,-705.1651607694596,-139.93697721763226,-294.2834038160918
1942.0,13577.0,1942.0,24437.0,1942.0,24646.0,-689.5387163902503,-126.85864815788631,-275.8683666960535
1942.0,13590.0,1942.0,24464.0,1942.0,24659.0,-673.3636611180602,-113.7564590498002,-257.31263430322076
1942.0,13608.0,1942.0,24470.0,1942.0,24701.0,-656.6589865262761,-100.65052105596669,-238.64581767063325
1942.0,13661.0,1942.0,24522.0,1942.0,24725.0,-639.4454994901183,-87.56215609429987,-219.89804599129246
1942.0,13677.0,1942.0,24582.0,1942.0,24767.0,-621.7456619689636,-74.51358382035397,-201.0996515362457
1942.0,13703.0,1942.0,24570.0,1942.0,24794.0,-603.5831903178935,-61.52716281346295,-182.2807560339373
1952.0,13724.0,1952.0,24617.0,1952.0,24804.0,-584.9827554115564,-48.62466689979186,-163.47088300320357
1952.0,13789.0,1952.0,24673.0,1952.0,24870.0,-565.9697565072194,-35.82678005564449,-144.6986679222784
1952.0,13810.0,1952.0,24693.0,1952.0,24906.0,-546.5698968735377,-23.15243885532675,-125.99146695795685
1952.0,13809.0,1952.0,24687.0,1952.0,24874.0,-526.808659528988,-10.618074419407662,-107.37483297652108
1952.0,13804.0,1952.0,24618.0,1952.0,24880.0,-506.71116997663927,1.7625667744675866,-88.8724084046946
1952.0,13826.0,1952.0,24611.0,1952.0,24881.0,-486.30258272206004,13.97763317380759,-70.50647291007738
1963.0,13859.0,1963.0,24606.0,1963.0,24913.0,-465.60855363256815,26.01584103459018,-52.298614914582515
1963.0,13849.0,1963.0,24617.0,1963.0,24923.0,-444.6554694736008,37.86539146164179,-34.27008301569168
1963.0,13906.0,1963.0,24693.0,1963.0,24948.0,-423.47055520778895,49.51355292044127,-16.441867201559603
1963.0,13942.0,1963.0,24694.0,1963.0,25005.0,-402.08186831696503,60.94696020312642,1.165385598593673
1963.0,13962.0,1963.0,24728.0,1963.0,25013.0,-380.5180153434496,72.15230241733218,18.531689091262535
1963.0,14004.0,1963.0,24726.0,1963.0,25035.0,-358.80775973560674,83.11686009203487,35.63813947070889
1973.0,14019.0,1973.0,24790.0,1973.0,25062.0,-336.9797406591207,93.82881694690053,52.46716291752779
1973.0,14101.0,1973.0,24843.0,1973.0,25094.0,-315.06218447014254,104.27776968723077,69.00266018319724
1973.0,14100.0,1973.0,24824.0,1973.0,25107.0,-293.08242781575177,114.45558797780956,85.23023703363054
1973.0,14101.0,1973.0,24806.0,1973.0,25084.0,-271.0664720368935,124.35702995113604,101.13734703260093
1973.0,14116.0,1973.0,24739.0,1973.0,25099.0,-249.03901523187588,133.97944568240553,116.71304964629633
1973.0,14115.0,1973.0,24750.0,1973.0,25103.0,-227.02391661426597,143.3216578500008,131.94748324242806
1983.0,14147.0,1983.0,24717.0,1983.0,25110.0,-205.04470582822088,152.382661200555,146.83139737814787
1983.0,14164.0,1983.0,24761.0,1983.0,25140.0,-183.1249320440479,161.16068323149938,161.35586815127544
1983.0,14191.0,1983.0,24804.0,1983.0,25173.0,-161.2883136137495,169.65287326887432,175.5122414423834
1983.0,14242.0,1983.0,24829.0,1983.0,25198.0,-139.55870370883957,177.8556928573774,189.29237719264125
1983.0,14271.0,1983.0,24830.0,1983.0,25212.0,-117.95983676761091,185.76564328317386,202.68904726519537
1983.0,14301.0,1983.0,24860.0,1983.0,25225.0,-96.51490557382584,193.37979607586232,215.69622811498033
1994.0,14347.0,1994.0,24924.0,1994.0,25269.0,-75.24614628860797,200.69619742504403,228.30926826100438
1994.0,14369.0,1994.0,24929.0,1994.0,25272.0,-54.174454973284924,207.71455943639478,240.52511895964096
1994.0,14390.0,1994.0,24900.0,1994.0,25255.0,-33.31903691067913,214.4370136494489,252.34255132681358
1994.0,14382.0,1994.0,24854.0,1994.0,25238.0,-12.697276255916165,220.86818209254523,263.76197550240374
1994.0,14389.0,1994.0,24841.0,1994.0,25254.0,7.675022827735177,227.0143654592036,274.78482749843306
1994.0,14402.0,1994.0,24833.0,1994.0,25278.0,27.78312732604502,232.8824169312809,285.41300739435644
2003.0,14428.0,2003.0,24823.0,2003.0,25256.0,47.612894807161126,238.47885595884708,295.648662280904
2003.0,14450.0,2003.0,24868.0,2003.0,25301.0,67.1505341071798,243.80937963921866,305.4941095020075
2003.0,14500.0,2003.0,24865.0,2003.0,25313.0,86.3826360640175,248.87881399085484,314.95182120380207
2003.0,14512.0,2003.0,24873.0,2003.0,25321.0,105.29643225036614,253.69136935127892,324.0246036820763
2003.0,14527.0,2003.0,24892.0,2003.0,25337.0,123.88009595739055,258.25087392358625,332.7158216927172
2003.0,14562.0,2003.0,24924.0,2003.0,25369.0,142.12287537502004,262.5609873561082,341.0295522812787
2013.0,14617.0,2013.0,24989.0,2013.0,25375.0,160.01522529574044,266.6257200450988,348.97082587065677
2013.0,14617.0,2013.0,24945.0,2013.0,25383.0,177.54919065320252,270.45027624791777,356.54592411705073
2013.0,14611.0,2013.0,24910.0,2013.0,25338.0,194.7187548350338,274.0415692317677,363.76242878884216
2013.0,14612.0,2013.0,24872.0,2013.0,25331.0,211.51969971468236,277.40778093402673,370.62877659772755
2013.0,14605.0,2013.0,24865.0,2013.0,25336.0,227.94904033651187,280.55726137923256,377.1534775941185
2013.0,14622.0,2013.0,24857.0,2013.0,25343.0,244.00438045558133,283.4975001870955,383.34448255674374
2024.0,14629.0,2024.0,24877.0,2024.0,25356.0,259.6834015303583,286.2345240668981,389.2089358857859
2024.0,14669.0,2024.0,24928.0,2024.0,25386.0,274.9835904891785,288.77282327532646,394.7532206573843
2024.0,14691.0,2024.0,24930.0,2024.0,25411.0,289.9022670633552,291.1158311291204,399.9832551347563
2024.0,14716.0,2024.0,24930.0,2024.0,25407.0,304.4368520828249,293.2666103671054,404.904959577814
2024.0,14732.0,2024.0,24925.0,2024.0,25414.0,318.5851825435401,295.228232219521,409.5246098350474
2024.0,14775.0,2024.0,25006.0,2024.0,25458.0,332.3457784132909,297.00393712318566,413.84900669204876
2034.0,14781.0,2034.0,24999.0,2034.0,25438.0,345.718144215778,298.5976436183201,417.8857137350467
2034.0,14784.0,2034.0,24986.0,2034.0,25450.0,358.7030386560475,300.01473853240554,421.6433311274719
2034.0,14783.0,2034.0,24924.0,2034.0,25407.0,371.30247552792696,301.2623428784274,425.13147114060973
2034.0,14790.0,2034.0,24920.0,2034.0,25394.0,383.5194396914919,302.34869307036786,428.3603036207378
2034.0,14787.0,2034.0,24900.0,2034.0,25399.0,395.35751233769497,303.28214316203736,431.3398511999301
2034.0,14798.0,2034.0,24901.0,2034.0,25398.0,406.82051473173306,304.07038080457716,434.0794103426175
2045.0,14808.0,2045.0,24909.0,2045.0,25432.0,417.91221080122625,304.7200084433241,436.5873529006701
2045.0,14824.0,2045.0,24920.0,2045.0,25438.0,428.6361311872339,305.23643487272176,438.8712957382254
2045.0,14837.0,2045.0,24949.0,2045.0,25439.0,438.9955328071637,305.6240546772353,440.93845399668567
2045.0,14871.0,2045.0,24937.0,2045.0,25434.0,448.9934816757793,305.88663038540597,442.79588026425347
2045.0,14897.0,2045.0,24954.0,2045.0,25466.0,458.63311149592516,306.02766267675565,444.45052060793364
2045.0,14921.0,2045.0,25039.0,2045.0,25487.0,467.91806803606175,306.0507910122439,445.9093847240823
2055.0,14910.0,2055.0,24985.0,2055.0,25454.0,476.8529449124977,305.9605240771081,447.1799149766979
2055.0,14901.0,2055.0,24951.0,2055.0,25433.0,485.4434050740605,305.76286683472,448.2701028056399
2055.0,14890.0,2055.0,24896.0,2055.0,25440.0,493.69586844197727,305.4649920567659,449.1880952527865
2055.0,14879.0,2055.0,24910.0,2055.0,25412.0,501.6169314723428,305.0741402983567,449.9416495502061
2055.0,14903.0,2055.0,24871.0,2055.0,25406.0,509.21278962087695,304.5966000833108,450.5376824082888
2055.0,14917.0,2055.0,24872.0,2055.0,25411.0,516.4889215416925,304.0370514007466,450.98185102611285
2065.0,14924.0,2065.0,24917.0,2065.0,25437.0,523.4501097035,303.3981974435902,451.27831131461267
2065.0,14939.0,2065.0,24942.0,2065.0,25457.0,530.1005928533928,302.6809110987583,451.4298798088863
2065.0,14945.0,2065.0,24938.0,2065.0,25457.0,536.4441801816378,301.8849143130209,451.43849997207735
2065.0,14959.0,2065.0,24948.0,2065.0,25474.0,542.484339192425,301.00944794335237,451.30570519007495
2065.0,14992.0,2065.0,24992.0,2065.0,25491.0,548.2243381058066,300.05370138829784,451.03297517861324
2065.0,15017.0,2065.0,25018.0,2065.0,25492.0,553.6675762423441,299.01737842732757,450.62209705198336
2076.0,15003.0,2076.0,24956.0,2076.0,25479.0,558.8180577596759,297.90140940428137,450.0754702893372
2076.0,14986.0,2076.0,24916.0,2076.0,25442.0,563.6806261449977,296.7080832439877,449.3960944789102
2076.0,14969.0,2076.0,24900.0,2076.0,25426.0,568.2606841080615,295.44026333551136,448.5871102464783
2076.0,14984.0,2076.0,24926.0,2076.0,25432.0,572.5636193077546,294.1004036120871,447.6511219576207
2076.0,14980.0,2076.0,24862.0,2076.0,25420.0,576.594356678534,292.6900163838072,446.58969874969364
2076.0,14988.0,2076.0,24903.0,2076.0,25458.0,580.3571727792239,291.2093753164505,445.4032238091253
2086.0,15010.0,2086.0,24945.0,2086.0,25472.0,583.8556728478575,289.65736851715303,444.09110601223404
2086.0,15018.0,2086.0,24952.0,2086.0,25470.0,587.0929182837997,288.03192265112875,442.65227499014514
2086.0,15025.0,2086.0,24941.0,2086.0,25468.0,590.0716761080142,286.33078967756273,441.08562774215414
2086.0,15035.0,2086.0,24982.0,2086.0,25500.0,592.7946425694687,284.55209117209,439.39026088207464
2086.0,15061.0,2086.0,25002.0,2086.0,25509.0,595.2646347348431,282.69474374623064,437.5657577026308
2086.0,15060.0,2086.0,24976.0,2086.0,25496.0,597.4848653236269,280.75903881784876,435.6126292445993
2096.0,15029.0,2096.0,24948.0,2096.0,25482.0,599.4591630825439,278.74697808929295,433.5325754666435
2096.0,15012.0,2096.0,24898.0,2096.0,25442.0,601.1917945635399,276.66192759860326,431.3283054378937
2096.0,15019.0,2096.0,24879.0,2096.0,25428.0,602.6869053988864,274.5077198019692,429.0029670942509
2096.0,15035.0,2096.0,24871.0,2096.0,25446.0,603.9480544922359,272.2876548790785,426.5594880122992
2096.0,15001.0,2096.0,24898.0,2096.0,25440.0,604.9780717023538,270.00385851070405,424.00023387442
2096.0,15044.0,2096.0,24902.0,2096.0,25436.0,605.7790061820021,267.6572186395954,421.32702703408603
2107.0,15056.0,2107.0,24918.0,2107.0,25447.0,606.3521571875789,265.24773925093524,418.5412357153829
2107.0,15071.0,2107.0,24904.0,2107.0,25446.0,606.6984159723655,262.77495901373476,415.64385890965923
2107.0,15054.0,2107.0,24931.0,2107.0,25459.0,606.8187203939747,260.2382425246187,412.635695967043
2107.0,15092.0,2107.0,24974.0,2107.0,25496.0,606.7143105506548,257.63712427407273,409.51766155922076
2107.0,15097.0,2107.0,24987.0,2107.0,25475.0,606.3869432618833,254.97200283470343,406.29128443326874
2107.0,15078.0,2107.0,24952.0,2107.0,25460.0,605.8392130810512,252.2449626682338,402.95913290880947
2117.0,15052.0,2117.0,24898.0,2117.0,25442.0,605.0746519392653,249.46001927633384,399.5248048196791
2117.0,15054.0,2117.0,24881.0,2117.0,25425.0,604.097388775698,246.62249418710712,395.9925506232138
2117.0,15032.0,2117.0,24882.0,2117.0,25413.0,602.9116483176756,243.7380478439279,392.3668128856014
2117.0,15052.0,2117.0,24827.0,2117.0,25414.0,601.5213823228574,240.81194497195904,388.65183581480113
2117.0,15050.0,2117.0,24852.0,2117.0,25412.0,599.9301242202591,237.8485097531695,384.8514398178626
2117.0,15065.0,2117.0,24889.0,2117.0,25450.0,598.1410791675959,234.85079493287128,380.96905606310924
2127.0,15061.0,2127.0,24865.0,2127.0,25411.0,596.1573441774042,231.8207804208226,377.00801080466886
2127.0,15071.0,2127.0,24901.0,2127.0,25428.0,593.982122617282,228.7598807013323,372.9717902013008
2127.0,15073.0,2127.0,24948.0,2127.0,25443.0,591.6189046494648,225.66947968525866,368.8641398110224
2127.0,15099.0,2127.0,24972.0,2127.0,25455.0,589.0716883808492,222.55176817323186,364.6892819656971
2127.0,15092.0,2127.0,24928.0,2127.0,25426.0,586.3453124372958,219.41075435471993,360.4523014935293
2127.0,15068.0,2127.0,24861.0,2127.0,25409.0,583.4457480502493,216.252609442503,356.15928681110546
2138.0,15025.0,2138.0,24865.0,2138.0,25394.0,580.3799983706416,213.0849820169164,351.8170481323032
2138.0,15030.0,2138.0,24813.0,2138.0,25380.0,577.1555218471419,209.91589812061892,347.4326635407247
2138.0,15008.0,2138.0,24793.0,2138.0,25364.0,573.7795599081788,206.75281148729755,343.01306924886876
2138.0,15000.0,2138.0,24810.0,2138.0,25380.0,570.2586742968983,203.60183603899898,338.56475250890077
2138.0,15018.0,2138.0,24837.0,2138.0,25380.0,566.5984776430117,200.46737695941087,334.0936602827837
2138.0,15040.0,2138.0,24839.0,2138.0,25397.0,562.8036359883749,197.35238680581034,329.6053882217706
2148.0,15049.0,2148.0,24846.0,2148.0,25359.0,558.8782564124281,194.25891462553722,325.1054575077418
2148.0,15045.0,2148.0,24867.0,2148.0,25385.0,554.826434969527,191.18857561098608,320.5994183130474
2148.0,15076.0,2148.0,24913.0,2148.0,25409.0,550.6527017153248,188.1430626413564,316.0929051679098
2148.0,15051.0,2148.0,24912.0,2148.0,25399.0,546.3623849435314,185.12492428151785,311.59197391836994
2148.0,15028.0,2148.0,24870.0,2148.0,25372.0,541.9618236512488,182.1383056150558,307.1035116453943
2148.0,15006.0,2148.0,24834.0,2148.0,25350.0,537.4581791417634,179.18902851617895,302.6352194875649
2158.0,14997.0,2158.0,24762.0,2158.0,25342.0,532.8589265110288,176.28381897316655,298.1951782630735
2158.0,15005.0,2158.0,24793.0,2158.0,25328.0,528.1714042270618,173.42909614633112,293.7913690099684
2158.0,14995.0,2158.0,24789.0,2158.0,25299.0,523.4026381039973,170.6300514953851,289.4312898498297
2158.0,14987.0,2158.0,24796.0,2158.0,25330.0,518.559340274825,167.89043668980474,285.12162237734503
2158.0,15000.0,2158.0,24791.0,2158.0,25314.0,513.6479149681772,165.2127505106131,280.8680849500721
2158.0,15004.0,2158.0,24818.0,2158.0,25333.0,508.67453158305096,162.5984502340047,276.67556980193115
2169.0,14987.0,2169.0,24805.0,2169.0,25320.0,503.64531949305166,160.04821169661741,272.54838165960314
2169.0,14981.0,2169.0,24850.0,2169.0,25340.0,498.5664820070475,157.56229465464133,268.4904481823521
2169.0,15012.0,2169.0,24870.0,2169.0,25368.0,493.444290835724,155.14107411990813,264.50561136215777
2169.0,15002.0,2169.0,24851.0,2169.0,25339.0,488.2852441817411,152.78573360830217,260.59807867654195
2169.0,14981.0,2169.0,24810.0,2169.0,25328.0,483.0963680109785,150.49868113338712,256.772746496206
2169.0,14965.0,2169.0,24780.0,2169.0,25285.0,477.88526364371245,148.28324875628678,253.03504145766675
2179.0,14955.0,2179.0,24774.0,2179.0,25284.0,472.6598184656516,146.14289417860246,249.3903585691083
2179.0,14934.0,2179.0,24755.0,2179.0,25264.0,467.42783248029883,144.08044461181245,245.8434399120183
2179.0,14910.0,2179.0,24736.0,2179.0,25278.0,462.1966414014014,142.09756900402095,242.39795280782158
2179.0,14947.0,2179.0,24801.0,2179.0,25278.0,456.9727643707771,140.19447651710172,239.0563563452546
2179.0,14921.0,2179.0,24805.0,2179.0,25280.0,451.76180474812094,138.37011238106422,235.81999948806046
2179.0,14934.0,2179.0,24810.0,2179.0,25287.0,446.5686138817202,136.62285313917022,232.6893090220526
2189.0,14934.0,2189.0,24784.0,2189.0,25314.0,441.3974667366264,134.95108407693502,229.6640349153306
2189.0,14970.0,2189.0,24870.0,2189.0,25308.0,436.2522917180076,133.3534382943313,226.7436360452619
2189.0,14959.0,2189.0,24869.0,2189.0,25316.0,431.1371265621386,131.829272201101,223.92771117970275
2189.0,14950.0,2189.0,24796.0,2189.0,25293.0,426.05660790841387,130.37939973215157,221.2162485678126
2189.0,14914.0,2189.0,24759.0,2189.0,25261.0,421.0161159810306,129.00610177194898,218.60954641865715
2189.0,14902.0,2189.0,24750.0,2189.0,25264.0,416.0214649475955,127.71212946631685,216.10779819783392
2200.0,14876.0,2200.0,24726.0,2200.0,25248.0,411.0783512741007,126.49957965096853,213.71058760672867
2200.0,14885.0,2200.0,24723.0,2200.0,25257.0,406.1918351202455,125.36917455940127,211.4165664459618
2200.0,14885.0,2200.0,24746.0,2200.0,25269.0,401.3660549454287,124.31987897154994,209.22337204484916
2200.0,14884.0,2200.0,24765.0,2200.0,25272.0,396.60422575839925,123.34890740192147,207.12776811190497
2200.0,14882.0,2200.0,24786.0,2200.0,25278.0,391.90877112223654,122.45215576325342,205.1259159896955
2200.0,14877.0,2200.0,24785.0,2200.0,25263.0,387.2814248880854,121.62480664942152,203.21359023333076
2210.0,14884.0,2210.0,24799.0,2210.0,25305.0,382.7232924585817,120.86182908921484,201.38630625362774
2210.0,14924.0,2210.0,24837.0,2210.0,25312.0,378.2350273486647,120.15838708457957,199.63958681400715
2210.0,14924.0,2210.0,24851.0,2210.0,25315.0,373.81731120902754,119.5103999335728,197.96946263553852
2210.0,14881.0,2210.0,24808.0,2210.0,25280.0,369.4714126518405,118.91515937121956,196.3728551221527
2210.0,14858.0,2210.0,24766.0,2210.0,25265.0,365.19924202056205,118.37141879976406,194.8474730137609
2210.0,14845.0,2210.0,24733.0,2210.0,25237.0,361.0028069473516,117.87866935210421,193.39127770819448
2220.0,14852.0,2220.0,24712.0,2220.0,25236.0,356.88360087854323,117.43601365178633,192.00182291333093
2220.0,14827.0,2220.0,24715.0,2220.0,25258.0,352.8422827079856,117.04118572762115,190.67578440344494
2220.0,14861.0,2220.0,24765.0,2220.0,25272.0,348.87857866869274,116.69007937027973,189.4089207865346
2220.0,14854.0,2220.0,24779.0,2220.0,25283.0,344.99137003579085,116.37698940557819,188.19643301125427
2220.0,14856.0,2220.0,24781.0,2220.0,25259.0,341.17896260027044,116.09532519237129,187.03337061985738
2220.0,14865.0,2220.0,24787.0,2220.0,25278.0,337.43935581148264,115.8382258335623,185.91478538743314
2231.0,14886.0,2231.0,24884.0,2231.0,25299.0,333.7704873538771,115.59904897142489,184.8357701163139
2231.0,14875.0,2231.0,24849.0,2231.0,25301.0,330.17058273515494,115.37220692763267,183.79170653730563
2231.0,14866.0,2231.0,24813.0,2231.0,25291.0,326.63846828709745,115.15404480992548,182.77863545267476
2231.0,14829.0,2231.0,24753.0,2231.0,25254.0,323.1735643123604,114.94280354007343,181.79334654687045
2231.0,14823.0,2231.0,24750.0,2231.0,25248.0,319.7755017509436,114.73760721054967,180.8330159763044
2231.0,14818.0,2231.0,24718.0,2231.0,25249.0,316.4436011876454,114.5372863478563,179.89464481031288
2241.0,14815.0,2241.0,24737.0,2241.0,25250.0,313.17651575195316,114.3395653160391,178.97468697411537
2241.0,14822.0,2241.0,24747.0,2241.0,25276.0,309.97211483816955,114.14070497765226,178.0690084555608
2241.0,14835.0,2241.0,24784.0,2241.0,25258.0,306.82755405052967,113.93562699930563,177.17307872890822
2241.0,14840.0,2241.0,24797.0,2241.0,25238.0,303.7395152507828,113.71845313823741,176.28211930218032
2241.0,14816.0,2241.0,24781.0,2241.0,25269.0,300.7044791838705,113.4831500384922,175.39100716122294
2241.0,14823.0,2241.0,24803.0,2241.0,25282.0,297.7187960343489,113.22392556813136,174.4942246794648
2252.0,14864.0,2252.0,24893.0,2252.0,25307.0,294.7786693766612,112.93557925623989,173.58620221252136
2252.0,14853.0,2252.0,24835.0,2252.0,25317.0,291.88043409310336,112.61428258141883,172.66191796199823
2252.0,14832.0,2252.0,24792.0,2252.0,25261.0,289.02099683638403,112.25826715162447,171.71734649027158
2252.0,14815.0,2252.0,24767.0,2252.0,25245.0,286.19790893717396,111.8675021263183,170.7493330868498
2252.0,14802.0,2252.0,24760.0,2252.0,25244.0,283.4090050726012,111.44267664071191,169.75492447359278
2252.0,14782.0,2252.0,24720.0,2252.0,25244.0,280.6519214539332,110.98430280147163,168.7307448585593
2262.0,14779.0,2262.0,24729.0,2262.0,25268.0,277.92365145935247,110.49204650188106,167.672801947151
2262.0,14803.0,2262.0,24750.0,2262.0,25272.0,275.2202480745986,109.96426176573723,166.57666231109886
2262.0,14799.0,2262.0,24776.0,2262.0,25284.0,272.53684525756137,109.39799779039511,165.43781208393096
2262.0,14799.0,2262.0,24780.0,2262.0,25262.0,269.8679113340567,108.78947874156404,164.25196837029887
2262.0,14816.0,2262.0,24806.0,2262.0,25266.0,267.2074816144227,108.134708310266,163.01515330503676
2262.0,14844.0,2262.0,24863.0,2262.0,25315.0,264.54942706900044,107.43011414818156,161.72368267641207
2272.0,14850.0,2272.0,24838.0,2272.0,25291.0,261.8879494784332,106.6733780066024,160.37442946083894
2272.0,14839.0,2272.0,24811.0,2272.0,25269.0,259.2181433756795,105.8641096747604,158.96519036863342
2272.0,14786.0,2272.0,24763.0,2272.0,25252.0,256.53619188486573,105.00376374125506,157.49461111893652
2272.0,14802.0,2272.0,24710.0,2272.0,25239.0,253.8390003124299,104.09475264684147,155.96168670525103
2272.0,14781.0,2272.0,24743.0,2272.0,25262.0,251.12362176712966,103.13925787367833,154.3652981070176
2272.0,14766.0,2272.0,24746.0,2272.0,25239.0,248.38685942099596,102.13844346043268,152.7040424966758
2283.0,14779.0,2283.0,24761.0,2283.0,25243.0,245.62499896685173,101.092413790461,150.97622746342887
2283.0,14800.0,2283.0,24741.0,2283.0,25262.0,242.83369768737052,100.00052099357393,149.17985728343086
2283.0,14806.0,2283.0,24769.0,2283.0,25257.0,240.00822250839485,98.86156459521527,147.31272259434405
2283.0,14802.0,2283.0,24753.0,2283.0,25247.0,237.14388337080624,97.67390366747607,145.37259556017312
2283.0,14803.0,2283.0,24788.0,2283.0,25285.0,234.23633624979558,96.4356413908974,143.35736869760467
2283.0,14829.0,2283.0,24856.0,2283.0,25303.0,231.28175192002243,95.14507432838198,141.26531956618643
2293.0,14822.0,2293.0,24839.0,2293.0,25269.0,228.2770711870798,93.80159871660155,139.09560459417506
2293.0,14787.0,2293.0,24774.0,2293.0,25257.0,225.22026170845305,92.40655777048528,136.848514611511
2293.0,14755.0,2293.0,24706.0,2293.0,25239.0,222.11016770968027,90.96303434390691,134.52520272257448
2293.0,14759.0,2293.0,24721.0,2293.0,25223.0,218.94590207015307,89.47458485845564,132.12717592603133
2293.0,14762.0,2293.0,24731.0,2293.0,25215.0,215.72627258460048,87.94403959934161,129.6558216280239
2293.0,14761.0,2293.0,24736.0,2293.0,25237.0,212.4495986088403,86.37314031311149,127.11208233391595
2303.0,14756.0,2303.0,24753.0,2303.0,25239.0,209.11377444723047,84.762768128862,124.49643632692971
2303.0,14770.0,2303.0,24745.0,2303.0,25229.0,205.71635692664148,83.11328617201929,121.80912763872988
2303.0,14779.0,2303.0,24750.0,2303.0,25226.0,202.25471567287775,81.42480256043181,119.05033161784564
2303.0,14767.0,2303.0,24759.0,2303.0,25237.0,198.72629271011962,79.6973315053596,116.22016097022775
2303.0,14796.0,2303.0,24808.0,2303.0,25244.0,195.12886218320523,77.93104880985256,113.31872677783207
2303.0,14798.0,2303.0,24798.0,2303.0,25268.0,191.4608125407783,76.12685627182253,110.34640626722603
2314.0,14781.0,2314.0,24769.0,2314.0,25244.0,187.72149171967638,74.28697570519927,107.30423232388776
2314.0,14756.0,2314.0,24720.0,2314.0,25229.0,183.9113462233023,72.41496542881974,104.19411736672188
2314.0,14726.0,2314.0,24695.0,2314.0,25202.0,180.03162138568706,70.51499725377367,101.0186747714337
2314.0,14720.0,2314.0,24697.0,2314.0,25198.0,176.08376649326573,68.59086741171213,97.78074706271615
2314.0,14713.0,2314.0,24707.0,2314.0,25168.0,172.0688705486396,66.64533424936518,94.482899831292
2314.0,14713.0,2314.0,24723.0,2314.0,25184.0,167.98734112601608,64.68001530233272,91.12700068935824
2324.0,14741.0,2324.0,24736.0,2324.0,25191.0,163.8388708084372,62.695691882002194,87.71400056201897
2324.0,14743.0,2324.0,24708.0,2324.0,25189.0,159.62270535875626,60.69269934884386,84.2440204655891
2324.0,14723.0,2324.0,24736.0,2324.0,25199.0,155.33805375601074,58.67112781606518,80.71660208024738
2324.0,14716.0,2324.0,24733.0,2324.0,25212.0,150.9842738234205,56.63090409852374,77.13097437776858
2324.0,14757.0,2324.0,24785.0,2324.0,25248.0,146.5608415639742,54.572076670691004,73.48644761742725
2324.0,14748.0,2324.0,24759.0,2324.0,25214.0,142.06753729612132,52.49538255524139,69.78296913058816
2334.0,14719.0,2334.0,24721.0,2334.0,25183.0,137.50483241248025,50.40268936639613,66.02144830782859
2334.0,14704.0,2334.0,24674.0,2334.0,25174.0,132.8739526218955,48.29675798162597,62.203494612200444
2334.0,14677.0,2334.0,24672.0,2334.0,25157.0,128.1764820690263,46.1803581636334,58.330835721181415
2334.0,14654.0,2334.0,24649.0,2334.0,25164.0,123.41378756788089,44.05534214407149,54.40487108680108
2334.0,14671.0,2334.0,24645.0,2334.0,25154.0,118.58648551324225,41.92203631283843,50.426474191569326
2334.0,14677.0,2334.0,24702.0,2334.0,25156.0,113.69419225369364,39.779001554685536,46.395954414045974
2345.0,14683.0,2345.0,24693.0,2345.0,25167.0,108.73568135477342,37.62330590864593,42.31310764571563
2345.0,14681.0,2345.0,24723.0,2345.0,25152.0,103.70922515335371,35.451194240658296,38.17734552870317
2345.0,14695.0,2345.0,24681.0,2345.0,25174.0,98.61289802866759,33.25865920553362,33.9878628437537
2345.0,14717.0,2345.0,24755.0,2345.0,25184.0,93.44490822175578,31.041727429052116,29.743863300722552
2345.0,14702.0,2345.0,24737.0,2345.0,25188.0,88.20405134924715,28.79680708801972,25.444934819554334
2345.0,14683.0,2345.0,24721.0,2345.0,25162.0,82.8900691244558,26.52120021931428,21.091418495270347
2355.0,14667.0,2355.0,24674.0,2355.0,25125.0,77.50363202275517,24.213245607664263,16.684419128816614
2355.0,14637.0,2355.0,24663.0,2355.0,25126.0,72.04598839622025,21.871798899377595,12.225368268553694
2355.0,14618.0,2355.0,24675.0,2355.0,25104.0,66.51845405851626,19.495505336880242,7.7154615013751595
2355.0,14606.0,2355.0,24661.0,2355.0,25109.0,60.92185361009271,17.08239739599587,3.1552775581050696
2355.0,14622.0,2355.0,24630.0,2355.0,25123.0,55.256103696778354,14.629756664633987,-1.4553580657322414
2355.0,14624.0,2355.0,24680.0,2355.0,25112.0,49.52014257437503,12.133946591047959,-6.1172670150968145
2365.0,14628.0,2365.0,24687.0,2365.0,25118.0,43.71217157867457,9.59044487016314,-10.83169699698405
2365.0,14651.0,2365.0,24675.0,2365.0,25107.0,37.830024372878825,6.9942840258962065,-15.60017187719572
2365.0,14631.0,2365.0,24711.0,2365.0,25128.0,31.871572956582725,4.340536061522641,-20.424390654645293
2365.0,14657.0,2365.0,24773.0,2365.0,25145.0,25.835099668751155,1.624825140545994,-25.305993133313365
2365.0,14648.0,2365.0,24745.0,2365.0,25145.0,19.71960893800602,-1.1557875215993363,-30.24610522251615
2365.0,14623.0,2365.0,24684.0,2365.0,25126.0,13.525074781862884,-4.002046283318549,-35.244882380700545
2376.0,14596.0,2376.0,24647.0,2376.0,25081.0,7.25241766393566,-6.912745377569877,-40.301431631137774
2376.0,14577.0,2376.0,24602.0,2376.0,25070.0,0.9030994051445873,-9.885869627786064,-45.41424975858868
2376.0,14570.0,2376.0,24639.0,2376.0,25062.0,-5.52141496025763,-12.91978973964089,-50.581882249162476
2376.0,14564.0,2376.0,24606.0,2376.0,25056.0,-12.02004510556327,-16.013903080659503,-55.803388153301825
2376.0,14556.0,2376.0,24631.0,2376.0,25052.0,-18.59227041717537,-19.16874225146759,-61.078523893347295
2376.0,14578.0,2376.0,24642.0,2376.0,25071.0,-25.238132592591853,-22.385842880526695,-66.40774520561666
2386.0,14578.0,2386.0,24646.0,2386.0,25052.0,-31.958029422441882,-25.6674333627262,-71.79205151048168
2386.0,14572.0,2386.0,24658.0,2386.0,25068.0,-38.75234630525944,-29.016005185270387,-77.23276578959127
2386.0,14600.0,2386.0,24686.0,2386.0,25093.0,-45.62109345689021,-32.433864961563444,-82.73128232174241
2386.0,14578.0,2386.0,24715.0,2386.0,25110.0,-52.56355690428205,-35.922540607129804,-88.28859201166128
2386.0,14564.0,2386.0,24665.0,2386.0,25063.0,-59.57801588670489,-39.48209218572501,-93.9046844366994
2386.0,14531.0,2386.0,24657.0,2386.0,25044.0,-66.66177560910523,-43.11081712432275,-99.57836287155337
2396.0,14515.0,2396.0,24581.0,2396.0,25037.0,-73.8115558783503,-46.80566954563088,-105.30763014415106
2396.0,14490.0,2396.0,24569.0,2396.0,25013.0,-81.02402523960555,-50.56322579982208,-111.09020418907866
2396.0,14482.0,2396.0,24548.0,2396.0,25003.0,-88.29630262606946,-54.38079356226028,-116.92389825065504
2396.0,14501.0,2396.0,24581.0,2396.0,24993.0,-95.62627484548784,-58.25717080717742,-122.80693865783735
2396.0,14489.0,2396.0,24607.0,2396.0,25007.0,-103.012588333872,-62.19270867978142,-128.73817571620117
2396.0,14499.0,2396.0,24636.0,2396.0,25019.0,-110.45439821824127,-66.1887106844969,-134.71702385197193
2407.0,14472.0,2407.0,24629.0,2407.0,25014.0,-117.95113579552617,-70.24654459737786,-140.7431310474862
2407.0,14487.0,2407.0,24620.0,2407.0,25039.0,-125.5024179060386,-74.36695883533761,-146.81595365546224
2407.0,14523.0,2407.0,24674.0,2407.0,25021.0,-133.10790597110577,-78.54971252981824,-152.93434791517774
2407.0,14507.0,2407.0,24668.0,2407.0,25011.0,-140.7668435346813,-82.79312466505507,-159.09626926233187
2407.0,14464.0,2407.0,24604.0,2407.0,24979.0,-148.47754755253249,-87.09354836796678,-165.29876363257551
2407.0,14454.0,2407.0,24577.0,2407.0,24954.0,-156.23742617117443,-91.44546049607212,-171.5383115370919
2417.0,14424.0,2417.0,24533.0,2417.0,24944.0,-164.04347448331043,-95.8423467504011,-177.81137322360127
2417.0,14411.0,2417.0,24521.0,2417.0,24932.0,-171.8928193119903,-100.27779965197396,-184.11489218442398
2417.0,14412.0,2417.0,24514.0,2417.0,24933.0,-179.78312693269788,-104.7463701951809,-190.44659319920845
2417.0,14419.0,2417.0,24549.0,2417.0,24952.0,-187.71277263599984,-109.24396695454027,-196.805026438404
2417.0,14418.0,2417.0,24544.0,2417.0,24948.0,-195.6807094702075,-113.7677097252593,-203.1893394881601
2417.0,14417.0,2417.0,24510.0,2417.0,24921.0,-203.68617990310042,-118.31554948335082,-209.59896150521513
2427.0,14389.0,2427.0,24578.0,2427.0,24933.0,-211.72850114479564,-122.88605141129759,-216.03350106716516
2427.0,14425.0,2427.0,24611.0,2427.0,24970.0,-219.8069909434151,-127.4780132198089,-222.49270596149483
2427.0,14437.0,2427.0,24598.0,2427.0,24948.0,-227.92076674930303,-132.08953633903212,-228.97609840024427
2427.0,14394.0,2427.0,24603.0,2427.0,24912.0,-236.06829078124906,-136.7170903626767,-235.48254268561158
2427.0,14366.0,2427.0,24508.0,2427.0,24909.0,-244.24715683924518,-141.35526899985814,-242.01029377344537
2427.0,14346.0,2427.0,24495.0,2427.0,24885.0,-252.45447104277514,-145.99741371585029,-248.55741749150837
2438.0,14336.0,2438.0,24474.0,2438.0,24886.0,-260.687458253648,-150.636751079225,-255.1221615328467
2438.0,14312.0,2438.0,24464.0,2438.0,24882.0,-268.9439077412919,-155.26734988294083,-261.70314978835074
2438.0,14318.0,2438.0,24440.0,2438.0,24865.0,-277.2224541269667,-159.88465337572302,-268.2994425707965
2438.0,14334.0,2438.0,24450.0,2438.0,24878.0,-285.52266736714324,-164.48582153742532,-274.9105416991933
2438.0,14330.0,2438.0,24459.0,2438.0,24859.0,-293.8448303978076,-169.06989770681952,-281.5363647589969
2438.0,14304.0,2438.0,24488.0,2438.0,24874.0,-302.18958659178804,-173.63762156587336,-288.17716022373673
2448.0,14320.0,2448.0,24513.0,2448.0,24892.0,-310.5577808194197,-178.1908541120353,-294.8333128503392
2448.0,14344.0,2448.0,24569.0,2448.0,24909.0,-318.95035243626546,-182.7316692445687,-301.50491185064425
2448.0,14336.0,2448.0,24542.0,2448.0,24862.0,-327.367936143925,-187.26125155540439,-308.19120932776696
2448.0,14314.0,2448.0,24522.0,2448.0,24852.0,-335.8103568818657,-191.77906775120942,-314.89044050685305
2448.0,14260.0,2448.0,24430.0,2448.0,24827.0,-344.27654085452764,-196.28289248519945,-321.60015351831703
2448.0,14254.0,2448.0,24414.0,2448.0,24813.0,-352.76500055083443,-200.76978777748207,-328.3177088040147
2459.0,14239.0,2459.0,24407.0,2459.0,24777.0,-361.27451535165164,-205.23743504079266,-335.04074584804164
2459.0,14231.0,2459.0,24388.0,2459.0,24773.0,-369.80457469096376,-209.68506494440527,-341.7676759980826
2459.0,14250.0,2459.0,24445.0,2459.0,24809.0,-378.35549476127164,-214.11375245085492,-348.4980435976802
2459.0,14269.0,2459.0,24474.0,2459.0,24804.0,-386.9282067552399,-218.52607299869015,-355.2324134697053
2459.0,14232.0,2459.0,24436.0,2459.0,24800.0,-395.52379151490356,-222.92527765135594,-361.9718879772354
2459.0,14235.0,2459.0,24459.0,2459.0,24823.0,-404.14315316528746,-227.31463675144073,-368.71767053473314
2469.0,14250.0,2469.0,24499.0,2469.0,24817.0,-412.78696931556885,-231.6971422142106,-375.4707079208895
2469.0,14244.0,2469.0,24497.0,2469.0,24807.0,-421.4555535338046,-236.0750158887766,-382.23132231751566
2469.0,14222.0,2469.0,24491.0,2469.0,24807.0,-430.1485632941875,-240.44900163772087,-388.99898685179625
2469.0,14191.0,2469.0,24405.0,2469.0,24786.0,-438.8649318249976,-244.81810080241422,-395.7722911809134
