c_ts,c_val,d_ts,d_val,e_ts,e_val,c_val_filtered,d_val_filtered,e_val_filtered
35175,7204,35175,59580,35175.0,99285.0,214.10398292270017,196.71176511487855,272.12719113840353
35175,7191,35175,59615,35175.0,99278.0,210.99234285038173,197.2768553904502,267.98778572520587
35175,7196,35175,59611,35175.0,99279.0,207.81215707890308,197.79408303082943,263.8477125354868
35175,7185,35175,59595,35175.0,99268.0,204.57552554713703,198.26707393502042,259.72577786241146
35185,7170,35185,59582,35185.0,99240.0,201.29486816087513,198.70111456438437,255.64109456591572
35185,7149,35185,59534,35185.0,99210.0,197.9827880708021,199.10280500367966,251.6128351933017
35185,7145,35185,59545,35185.0,99212.0,194.6517805901098,199.47940968398748,247.6597450974027
35185,7150,35185,59586,35185.0,99231.0,191.31396138554888,199.8383224462213,243.79976099075478
35185,7149,35185,59589,35185.0,99222.0,187.98100579227463,200.18713747720474,240.05004598318123
35185,7149,35185,59617,35185.0,99186.0,184.66427659908578,200.5342348098302,236.42720172287358
35195,7124,35195,59546,35195.0,99185.0,181.374943623443,200.88926897220512,232.94719162804535
35195,7111,35195,59483,35195.0,99149.0,178.12390650064788,201.26292910985603,229.62495241013255
35195,7101,35195,59514,35195.0,99160.0,174.9215122306188,201.66587718053887,226.4739625286776
35195,7110,35195,59558,35195.0,99165.0,171.77727962142455,202.1078190794113,223.505977564366
35195,7110,35195,59545,35195.0,99174.0,168.69984076278115,202.59757046057737,220.73107778304794
35195,7097,35195,59533,35195.0,99141.0,165.6970607705187,203.1435968467025,218.1578939423993
35206,7084,35206,59500,35206.0,99116.0,162.7761007696442,203.75412111189306,215.79359817455872
35206,7078,35206,59469,35206.0,99117.0,159.9433004130089,204.43664021195647,213.6435159797016
35206,7077,35206,59510,35206.0,99153.0,157.2040011264314,205.19723945305412,211.71077800989218
35206,7096,35206,59528,35206.0,99153.0,154.5625061756997,206.04029701100737,209.99647085460836
35206,7098,35206,59538,35206.0,99166.0,152.02228261431145,206.96883147038432,208.500167323999
35206,7076,35206,59515,35206.0,99129.0,149.58627140351217,207.98502273541808,207.220352518835
35216,7063,35216,59459,35216.0,99122.0,147.25698381713116,209.09025862016813,206.15443606544136
35216,7059,35216,59476,35216.0,99115.0,145.03629701375007,210.2845471725414,205.29842543973143
35216,7069,35216,59502,35216.0,99145.0,142.92522796782896,211.56585121377037,204.64665306541764
35216,7075,35216,59520,35216.0,99134.0,140.9239427115733,212.93002911416906,204.19185480321568
35216,7064,35216,59543,35216.0,99151.0,139.03195633151813,214.37135151502258,203.92547656458612
35216,7062,35216,59531,35216.0,99140.0,137.24829300762696,215.8831084320917,203.8379461971965
35227,7053,35227,59482,35227.0,99127.0,135.5714907554433,217.45786979515967,203.91879151411203
35227,7042,35227,59482,35227.0,99132.0,133.99950554138016,219.0871426247769,204.15657644072041
35227,7048,35227,59551,35227.0,99142.0,132.52958362443997,220.76083994999163,204.53879322931058
35227,7059,35227,59574,35227.0,99163.0,131.15821551857778,222.46743801285723,205.05195800302323
35227,7053,35227,59567,35227.0,99149.0,129.88126880186098,224.19485850879133,205.6819221729307
35227,7044,35227,59534,35227.0,99130.0,128.6941683417391,225.93115341147168,206.41409660194535
35237,7030,35237,59509,35237.0,99129.0,127.59190752955186,227.66439779204828,207.23334207625962
35237,7037,35237,59528,35237.0,99115.0,126.56889471814978,229.38208445657241,208.12365404987887
35237,7048,35237,59560,35237.0,99161.0,125.61885560939126,231.07072706864636,209.06796797114816
35237,7051,35237,59598,35237.0,99183.0,124.73495771630147,232.71612750019773,210.04837712438984
35237,7042,35237,59575,35237.0,99189.0,123.91005186697444,234.304099399992,211.04678174633713
35237,7030,35237,59529,35237.0,99151.0,123.13678609789687,235.82091989284072,212.04548631977536
35247,7026,35247,59541,35247.0,99132.0,122.40750716928889,237.25304845577648,213.02721136073228
35247,7036,35247,59562,35247.0,99169.0,121.71410374202844,238.58657482284676,213.97465990546016
35247,7046,35247,59603,35247.0,99179.0,121.04801002492869,239.80717751362673,214.8703252968536
35247,7051,35247,59590,35247.0,99177.0,120.40042681709062,240.900670335828,215.69680188921535
35247,7046,35247,59590,35247.0,99161.0,119.76261046353378,241.8535747255221,216.43713580263307
35247,7029,35247,59537,35247.0,99149.0,119.1260235850319,242.65321851886446,217.07482166078586
35258,7024,35258,59528,35258.0,99149.0,118.4822507235346,243.28726040325134,217.5935369254131
35258,7035,35258,59543,35258.0,99150.0,117.82280667268321,243.74297639894638,217.97688958784659
35258,7043,35258,59599,35258.0,99184.0,117.13909680150931,244.00696041323008,218.20839426003494
35258,7040,35258,59598,35258.0,99186.0,116.42259845099673,244.06558735910656,218.27177230853084
35258,7034,35258,59587,35258.0,99167.0,115.66506535438478,243.90578190654708,218.15138835334935
35258,7020,35258,59547,35258.0,99148.0,114.85856714784106,243.51534249932422,217.8324027193646
35268,7018,35268,59553,35268.0,99157.0,113.9953581651952,242.8826308256843,217.30053915626235
35268,7025,35268,59589,35268.0,99176.0,113.0677194569376,241.9961533041868,216.54187102635515
35268,7027,35268,59620,35268.0,99174.0,112.06794022894454,240.84468659890192,215.5429502158998
35268,7018,35268,59608,35268.0,99183.0,110.98842883099465,239.41796169835007,214.29114362835458
35268,7021,35268,59556,35268.0,99155.0,109.8217977162071,237.7072026599261,212.77487413193336
35268,7006,35268,59549,35268.0,99153.0,108.56085583199908,235.7049395389573,210.98360649141546
35278,7016,35278,59547,35278.0,99146.0,107.19855522542136,233.40436089290944,208.9076393681456
35278,7028,35278,59585,35278.0,99155.0,105.72800339864355,230.79893262074933,206.5379364562382
35278,7026,35278,59590,35278.0,99166.0,104.14264889720877,227.8826273919276,203.86617515539612
35278,7010,35278,59568,35278.0,99166.0,102.43651892740911,224.65045929169074,200.88500497476733
35278,7009,35278,59523,35278.0,99136.0,100.60427445979539,221.09869651959886,197.5883095130307
35278,6991,35278,59520,35278.0,99112.0,98.64107693858455,217.22446897857435,193.9711626196059
35289,6999,35289,59523,35289.0,99129.0,96.54241450066178,213.0251735969527,190.02947690938154
35289,7015,35289,59593,35289.0,99141.0,94.30404571083389,208.49834328254536,185.75979203229534
35289,6991,35289,59572,35289.0,99118.0,91.92213988310885,203.64225076943737,181.1594476990573
35289,6990,35289,59537,35289.0,99110.0,89.39341782215132,198.45670507314128,176.22679754027453
35289,6975,35289,59495,35289.0,99086.0,86.71508668723584,192.9431805214796,170.96114008668428
35289,6976,35289,59471,35289.0,99081.0,83.88467026941589,187.1041650357776,165.36245798899455
35299,6975,35299,59501,35299.0,99102.0,80.89990476446528,180.9423913979861,159.4312306070326
35299,6991,35299,59527,35299.0,99080.0,77.7587851172814,174.46064151647263,153.1685122207954
35299,6971,35299,59526,35299.0,99085.0,74.45975796118847,167.66226121499867,146.57616454082847
35299,6968,35299,59491,35299.0,99061.0,71.00188515005584,160.55182285499728,139.6569864668882
35299,6941,35299,59452,35299.0,99041.0,67.38479781953649,153.13526380046537,132.4146600817644
35299,6938,35299,59429,35299.0,99026.0,63.60845922017879,145.41939534083133,124.85352897802258
35309,6955,35309,59467,35309.0,99052.0,59.6729407304901,137.41129590574232,116.97837878992098
35309,6959,35309,59489,35309.0,99035.0,55.578470087064346,129.1182683238137,108.79450715724224
35309,6952,35309,59471,35309.0,99031.0,51.32574575583712,120.54845803213621,100.30802832220303
35309,6919,35309,59400,35309.0,99005.0,46.91616732958087,111.71138119425032,91.52606815064703
35309,6910,35309,59378,35309.0,98978.0,42.351710747334835,102.61763999026942,82.45668140681846
35309,6914,35309,59364,35309.0,98958.0,37.634598044742006,93.27805952292533,73.10853557073042
35320,6925,35320,59384,35320.0,98979.0,32.76715012596895,83.70305144233149,63.49057950025485
35320,6910,35320,59443,35320.0,98970.0,27.75194795547941,73.90272606229573,53.61202449954504
35320,6909,35320,59358,35320.0,98937.0,22.592055198358423,63.88761299199243,43.48259500442265
35320,6883,35320,59336,35320.0,98921.0,17.29107556547916,53.66911570176549,33.112609435699596
35320,6873,35320,59294,35320.0,98888.0,11.85301845346953,43.25907839595729,22.51272091086213
35320,6875,35320,59322,35320.0,98896.0,6.282080019518844,32.66901729921949,11.693562349722868
35330,6882,35330,59334,35330.0,98897.0,0.5825560991860073,21.909867962529347,0.6655991873162748
35330,6863,35330,59365,35330.0,98886.0,-5.241028173422507,10.99246273027967,-10.560697322549174
35330,6841,35330,59304,35330.0,98865.0,-11.183810983093252,-0.07168697303433191,-21.974575117688573
35330,6837,35330,59224,35330.0,98820.0,-17.240721327417617,-11.270143738883434,-33.56496902765707
35330,6823,35330,59212,35330.0,98822.0,-23.406714050996214,-22.590304555376832,-45.32079448636381
35330,6826,35330,59234,35330.0,98822.0,-29.676906164359877,-34.02047473463665,-57.231255963444085
35340,6824,35340,59262,35340.0,98811.0,-36.04656401793494,-45.55016500374455,-69.28583251215923
35340,6823,35340,59254,35340.0,98810.0,-42.51096375186478,-57.169484641887124,-81.47401971084417
35340,6805,35340,59196,35340.0,98773.0,-49.06521826935338,-68.8684384727662,-93.7851136874985
35340,6800,35340,59171,35340.0,98733.0,-55.70420647915137,-80.6368788401376,-106.20826018103213
35340,6783,35340,59140,35340.0,98731.0,-62.422627229077335,-92.46508658466365,-118.7328256515525
35340,6773,35340,59184,35340.0,98731.0,-69.21511131506091,-104.34432363993258,-131.34876092363498
35351,6785,35351,59186,35351.0,98719.0,-76.07630471806877,-116.26676865769076,-144.04660557975257
35351,6764,35351,59179,35351.0,98709.0,-83.00082408168657,-128.2248804698982,-156.81725687730585
35351,6757,35351,59116,35351.0,98668.0,-89.9831493647238,-140.21086152269606,-169.651835389521
35351,6738,35351,59082,35351.0,98661.0,-97.01763395619264,-152.21681245876835,-182.54179944717083
35351,6723,35351,59071,35351.0,98644.0,-104.09865469374716,-164.23544251168994,-195.4791872474911
35351,6727,35351,59105,35351.0,98643.0,-111.22078864031286,-176.2606215916349,-208.45674001345503
35361,6724,35361,59120,35361.0,98640.0,-118.3788690695394,-188.28720563094583,-221.46780730050915
35361,6713,35361,59076,35361.0,98610.0,-125.56787429128201,-200.31034383416943,-234.50613992228938
35361,6694,35361,59041,35361.0,98605.0,-132.78281947903065,-212.3250653517527,-247.56576499207517
35361,6667,35361,59028,35361.0,98571.0,-140.01884391717783,-224.32652802292563,-260.641028282827
35361,6686,35361,59010,35361.0,98568.0,-147.27144526091206,-236.310506392815,-273.7267271995902
35361,6675,35361,59024,35361.0,98585.0,-154.5365796693162,-248.27363548950422,-286.81815646240784
35371,6686,35371,59061,35371.0,98544.0,-161.81048225087324,-260.21321419680373,-299.9109169157333
35371,6654,35371,59012,35371.0,98549.0,-169.0894042561353,-272.1266047634393,-313.0006657079515
35371,6643,35371,58950,35371.0,98499.0,-176.36953832164198,-284.0108275639694,-326.0830852377318
35371,6628,35371,58927,35371.0,98488.0,-183.64718652935147,-295.86297652974093,-339.1540892237449
35371,6629,35371,58935,35371.0,98470.0,-190.91897712827898,-307.68106476680055,-352.21014056720105
35371,6635,35371,58976,35371.0,98479.0,-198.18190742887288,-319.46435942118114,-365.2484504346155
35382,6617,35382,58998,35382.0,98485.0,-205.43319071952237,-331.2128233722076,-378.26684618564855
35382,6601,35382,58922,35382.0,98451.0,-212.67011170056952,-342.9261798330892,-391.2633952601309
35382,6584,35382,58883,35382.0,98431.0,-219.890086829241,-354.6035975626978,-404.2361574643197
35382,6591,35382,58879,35382.0,98407.0,-227.09084466853494,-366.24428407021367,-417.1832883330229
35382,6583,35382,58919,35382.0,98408.0,-234.27048752540867,-377.84809033138487,-430.10328518911047
35382,6586,35382,58902,35382.0,98409.0,-241.42736564649226,-389.4153499319019,-442.99504811912504
35392,6573,35392,58904,35392.0,98408.0,-248.55988545860305,-400.94625013165216,-455.85764663454836
35392,6550,35392,58842,35392.0,98369.0,-255.66640773732496,-412.44044517079533,-468.68998633596664
35392,6544,35392,58812,35392.0,98342.0,-262.7453288487769,-423.8972659677528,-481.4907338135422
35392,6532,35392,58815,35392.0,98333.0,-269.7952661934925,-435.3163440853418,-494.2585868418396
35392,6532,35392,58829,35392.0,98331.0,-276.81517588806173,-446.69803881998905,-506.99255195135186
35392,6539,35392,58834,35392.0,98322.0,-283.8043157096896,-458.0432647038531,-519.6919420511363
35402,6519,35402,58813,35402.0,98323.0,-290.7620756003167,-469.35298047025503,-532.3561568713095
35402,6505,35402,58782,35402.0,98272.0,-297.6878457496462,-480.62786360207906,-544.9844810031376
35402,6486,35402,58758,35402.0,98258.0,-304.58109429524455,-491.8684193545396,-557.576150500593
35402,6477,35402,58772,35402.0,98259.0,-311.4415979959505,-503.07530769381674,-570.1306556885024
35402,6497,35402,58771,35402.0,98265.0,-318.26960126249304,-514.2494429169507,-582.6478653397309
35402,6494,35402,58798,35402.0,98248.0,-325.0656951099531,-525.3916615374613,-595.1277820099752
35413,6477,35413,58755,35413.0,98248.0,-331.83048888085295,-536.5021668555057,-607.5701936454707
35413,6457,35413,58683,35413.0,98192.0,-338.5644268508403,-547.580304690693,-619.9745108607236
35413,6442,35413,58677,35413.0,98178.0,-345.26791766896235,-558.6250952538545,-632.339943698945
35413,6452,35413,58689,35413.0,98169.0,-351.94157019968736,-569.6360577436593,-644.665918732276
35413,6460,35413,58727,35413.0,98177.0,-358.58622410066613,-580.613412974093,-656.9523317813561
35413,6437,35413,58718,35413.0,98156.0,-365.202722501083,-591.5574778658028,-669.199435924367
35423,6430,35423,58664,35423.0,98140.0,-371.79171614797457,-602.4679378407417,-681.4076238361553
35423,6420,35423,58621,35423.0,98111.0,-378.35368720210215,-613.3437863672552,-693.5774019393408
35423,6395,35423,58601,35423.0,98090.0,-384.8890894543361,-624.1840045215629,-705.7095948068466
35423,6401,35423,58631,35423.0,98124.0,-391.3985179266976,-634.9882803870265,-717.8055511195357
35423,6407,35423,58643,35423.0,98105.0,-397.88280260928883,-645.757084302209,-729.8670111687586
35423,6402,35423,58590,35423.0,98083.0,-404.3428765595144,-656.491207224122,-741.8957046689789
35433,6366,35433,58570,35433.0,98061.0,-410.7795761889302,-667.1915271599131,-753.893156427291
35433,6368,35433,58564,35433.0,98025.0,-417.193687385924,-677.8593152967326,-765.8608758799005
35433,6358,35433,58555,35433.0,98008.0,-423.5861747127822,-688.496598132372,-777.8007543828804
35433,6361,35433,58562,35433.0,98026.0,-429.9582941410411,-699.1062072468392,-789.71541521663
35433,6350,35433,58581,35433.0,98008.0,-436.3115306057881,-709.6915328390545,-801.6082369675855
35433,6353,35433,58548,35433.0,98003.0,-442.64748378627854,-720.2560881984264,-813.4830927009759
35444,6326,35444,58511,35444.0,97975.0,-448.96779111065786,-730.8032351101566,-825.344146826781
35444,6307,35444,58480,35444.0,97951.0,-455.27419519156985,-741.3364323288781,-837.195893694956
35444,6305,35444,58499,35444.0,97956.0,-461.56879206626036,-751.8597803538605,-849.0433527904086
35444,6323,35444,58525,35444.0,97968.0,-467.8542193610432,-762.3782127772386,-860.89212694319
35444,6312,35444,58547,35444.0,97963.0,-474.1335313472911,-772.8969920642522,-872.7481007841908
35444,6318,35444,58500,35444.0,97935.0,-480.4098781813458,-783.4208759051107,-884.6169958075228
35454,6302,35454,58477,35454.0,97949.0,-486.68624826961246,-793.9536845392797,-896.5041177917001
35454,6274,35454,58415,35454.0,97890.0,-492.965401155232,-804.4986088880232,-908.4143146132426
35454,6264,35454,58429,35454.0,97905.0,-499.2500495189624,-815.0589558116721,-920.3520855951072
35454,6290,35454,58473,35454.0,97893.0,-505.5431121169497,-825.6386362468191,-932.3217390231127
35454,6272,35454,58488,35454.0,97868.0,-511.84768746363676,-836.241813282352,-944.3274013841161
35454,6257,35454,58448,35454.0,97870.0,-518.166818996179,-846.871995396353,-956.3729530641983
35464,6249,35464,58407,35464.0,97846.0,-524.5034280334412,-857.5315319457575,-968.4620239394156
35464,6245,35464,58372,35464.0,97828.0,-530.8604285988317,-868.2219459002376,-980.5980183788542
35464,6238,35464,58394,35464.0,97835.0,-537.2407953327939,-878.9446180503993,-992.784163471761
35464,6232,35464,58409,35464.0,97834.0,-543.647541902453,-889.7010698127062,-1005.0234528750791
35464,6251,35464,58422,35464.0,97831.0,-550.0836300501817,-900.4925673350002,-1017.3183586851371
35464,6232,35464,58354,35464.0,97774.0,-556.5517565693665,-911.3195163591131,-1029.6705500390162
35475,6208,35475,58316,35475.0,97770.0,-563.0541516799753,-922.1814168170317,-1042.0809785895126
35475,6205,35475,58301,35475.0,97761.0,-569.5926315648974,-933.0775410683495,-1054.5502316377515
35475,6208,35475,58342,35475.0,97773.0,-576.1687855960648,-944.0076072513501,-1067.0786793404086
35475,6214,35475,58378,35475.0,97772.0,-582.7839703491759,-954.9716504212275,-1079.6662176478608
35475,6198,35475,58373,35475.0,97767.0,-589.4390901191164,-965.9690894633803,-1092.3118012413788
35475,6180,35475,58316,35475.0,97707.0,-596.1344310250815,-976.9977911819886,-1105.0131165809603
35485,6173,35485,58261,35485.0,97703.0,-602.869718670335,-988.0539754824559,-1117.7666966353936
35485,6168,35485,58261,35485.0,97693.0,-609.6442779246768,-999.1329657654392,-1130.5683195186105
35485,6154,35485,58316,35485.0,97698.0,-616.4571207978336,-1010.2298618340764,-1143.4131973548735
35485,6167,35485,58310,35485.0,97701.0,-623.3069421875769,-1021.3393118076254,-1156.2957774207352
35485,6160,35485,58302,35485.0,97688.0,-630.192007345363,-1032.4546644982893,-1169.2093439260539
35485,6148,35485,58245,35485.0,97661.0,-637.109951340933,-1043.5674211994594,-1182.1456917970218
35496,6135,35496,58245,35496.0,97653.0,-644.0576626003626,-1054.6673756603504,-1195.0950548168853
35496,6130,35496,58219,35496.0,97630.0,-651.0313254733393,-1065.7430802767562,-1208.0462135141001
35496,6133,35496,58246,35496.0,97655.0,-658.0264741995818,-1076.782124799724,-1220.986542291521
35496,6117,35496,58280,35496.0,97634.0,-665.0379410225427,-1087.7709263962502,-1233.9018180730977
35496,6109,35496,58224,35496.0,97622.0,-672.0597815677951,-1098.6940982488895,-1246.7758839698588
35496,6106,35496,58191,35496.0,97596.0,-679.0852747925749,-1109.5340406814807,-1259.590469962826
35506,6083,35506,58171,35506.0,97573.0,-686.1069632960925,-1120.2712511224147,-1272.3252885029888
35506,6082,35506,58198,35506.0,97581.0,-693.1167240891552,-1130.8848718285656,-1284.9582356270753
35506,6100,35506,58213,35506.0,97581.0,-700.1058093523683,-1141.3527231738362,-1297.4654189711814
35506,6088,35506,58208,35506.0,97559.0,-707.064679359374,-1151.6507563944747,-1309.820926377264
35506,6067,35506,58169,35506.0,97540.0,-713.9827290362556,-1161.7524810120672,-1321.9966110934795
35506,6053,35506,58124,35506.0,97516.0,-720.8482403576918,-1171.628930310606,-1333.9621372540246
35516,6052,35516,58118,35516.0,97515.0,-727.6485669950463,-1181.2492021520593,-1345.6851833396868
35516,6053,35516,58166,35516.0,97517.0,-734.3702601794207,-1190.5809709710566,-1357.1315415158067
35516,6041,35516,58151,35516.0,97514.0,-740.9990107173477,-1199.5903425684774,-1368.264966161235
35516,6040,35516,58150,35516.0,97500.0,-747.5195330649628,-1208.2412409562178,-1379.0468819775008
35516,6033,35516,58112,35516.0,97461.0,-753.915491087048,-1216.4950164184875,-1389.4362321264198
35516,6014,35516,58062,35516.0,97444.0,-760.1694680205542,-1224.3106199926615,-1399.3896639457735
35527,6007,35527,58076,35527.0,97450.0,-766.2630236695064,-1231.6452221710017,-1408.8619058381064
35527,6015,35527,58098,35527.0,97440.0,-772.1768009436024,-1238.4547287175387,-1417.805962343613
35527,6007,35527,58105,35527.0,97440.0,-777.8905123444216,-1244.6936728618552,-1426.1730276736548
35527,5992,35527,58096,35527.0,97435.0,-783.3828211917339,-1250.314687668013,-1433.912309454633
35527,5983,35527,58029,35527.0,97379.0,-788.6313226423333,-1255.2682319275164,-1440.9709767525183
35527,5969,35527,57974,35527.0,97345.0,-793.6126778083534,-1259.5030810860608,-1447.2945092462173
35537,5957,35537,58016,35537.0,97369.0,-798.3028086074908,-1262.9674107602473,-1452.8274128258627
35537,5961,35537,58028,35537.0,97379.0,-802.6770792200869,-1265.609535485281,-1457.513673996893
35537,5964,35537,58053,35537.0,97354.0,-806.710363743999,-1267.3777316500623,-1461.296645250869
35537,5953,35537,58003,35537.0,97356.0,-810.3769603691665,-1268.2196886466654,-1464.1188428344858
35537,5931,35537,57970,35537.0,97297.0,-813.6505309720093,-1268.0824499901314,-1465.9220999197132
35537,5930,35537,57930,35537.0,97289.0,-816.5042450480498,-1266.9131273959624,-1466.6481256009547
35547,5920,35547,57975,35547.0,97284.0,-818.9110337184054,-1264.6599058515526,-1466.2392712447222
35547,5930,35547,57949,35547.0,97299.0,-820.8437523036778,-1261.2726371268632,-1464.6390871583515
35547,5928,35547,58000,35547.0,97283.0,-822.275181508609,-1256.7028776838597,-1461.7924913234826
35547,5906,35547,57937,35547.0,97267.0,-823.1779692807229,-1250.9037591329673,-1457.6458575965153
35547,5900,35547,57914,35547.0,97234.0,-823.524720642039,-1243.8302068256066,-1452.1473873984696
35547,5885,35547,57897,35547.0,97229.0,-823.2882930407752,-1235.4397671286551,-1445.2478151914866
35558,5892,35558,57916,35558.0,97246.0,-822.4421301369243,-1225.693636036377,-1436.9011559677774
35558,5883,35558,57960,35558.0,97235.0,-820.9604891874638,-1214.5572226533968,-1427.065174563305
35558,5895,35558,57968,35558.0,97250.0,-818.8185487203908,-1202.0000605890586,-1415.701616724894
35558,5883,35558,57934,35558.0,97247.0,-815.9924499445303,-1187.9955338338973,-1402.776419828389
35558,5869,35558,57908,35558.0,97235.0,-812.4593880480563,-1172.521134497382,-1388.2600036415447
35558,5872,35558,57915,35558.0,97236.0,-808.1978614118564,-1155.559386826446,-1372.1277231754618
35568,5881,35568,57975,35568.0,97248.0,-803.1879701908582,-1137.0987602750624,-1354.3604481451216
35568,5880,35568,57987,35568.0,97270.0,-797.4115686541681,-1117.133918517137,-1334.9450370990198
35568,5893,35568,58009,35568.0,97301.0,-790.8522881142082,-1095.6654585704778,-1313.8745449300286
35568,5868,35568,57994,35568.0,97286.0,-783.4955868557543,-1072.6997796961246,-1291.1482673954904
35568,5867,35568,58000,35568.0,97306.0,-775.3289834178347,-1048.2494179876228,-1266.771928446865
35568,5884,35568,58057,35568.0,97328.0,-766.3424534570415,-1022.3336218033595,-1240.7580994278123
35578,5901,35578,58127,35578.0,97399.0,-756.5286951277601,-994.9785605126649,-1213.1264856791581
35578,5908,35578,58162,35578.0,97424.0,-745.8831054492061,-966.216832014801,-1183.9037482477268
35578,5917,35578,58180,35578.0,97484.0,-734.4036662174021,-936.0867214975221,-1153.1229976726993
35578,5924,35578,58207,35578.0,97502.0,-722.0909298394156,-904.6318417841347,-1120.8232989724215
35578,5927,35578,58224,35578.0,97537.0,-708.9481132486092,-871.9012289084463,-1087.0493810400224
35578,5955,35578,58295,35578.0,97612.0,-694.9812290501145,-837.9495515186682,-1051.8514965668408
35589,5979,35589,58414,35589.0,97670.0,-680.1991101055644,-802.8369103998039,-1015.2851032047091
35589,5991,35589,58439,35589.0,97723.0,-664.6132504594456,-766.6278863622146,-977.410200420548
35589,6016,35589,58496,35589.0,97752.0,-648.2375979099364,-729.3903222743583,-938.2906480948743
35589,6025,35589,58496,35589.0,97795.0,-631.0884273705208,-691.1946405751559,-897.9938109813378
35589,6044,35589,58550,35589.0,97859.0,-613.1842965946108,-652.1138215696,-856.5904541081494
35589,6069,35589,58643,35589.0,97925.0,-594.5460473082733,-612.2235201325094,-814.1545368370774
35599,6102,35599,58715,35599.0,97990.0,-575.196747939302,-571.6016789612154,-770.7627090122397
35599,6136,35599,58772,35599.0,98067.0,-555.1614720341147,-530.3275731953033,-726.4936019220085
35599,6145,35599,58790,35599.0,98082.0,-534.4669763755512,-488.4809092155049,-681.427132182972
35599,6152,35599,58822,35599.0,98132.0,-513.1415188135184,-446.1415052757986,-635.6441236097769
35599,6176,35599,58868,35599.0,98197.0,-491.21495862585664,-403.3894866306778,-589.2262991250785
35599,6231,35599,59002,35599.0,98280.0,-468.7189017174016,-360.30538140752475,-542.2561908260757
35609,6249,35609,59055,35609.0,98334.0,-445.6865497036904,-316.96947715770153,-494.816643789765
35609,6271,35609,59056,35609.0,98378.0,-422.1523489939324,-273.46073904065156,-446.9901821242388
35609,6282,35609,59083,35609.0,98400.0,-398.1518111630459,-229.85634747552956,-398.85869194648603
35609,6310,35609,59137,35609.0,98479.0,-373.72159254096886,-186.232085432806,-350.50349956336765
35609,6355,35609,59170,35609.0,98512.0,-348.8995930688386,-142.6628220623279,-302.00549816870443
35609,6393,35609,59268,35609.0,98597.0,-323.7248202683039,-99.22260248002522,-253.44505531186144
35620,6417,35620,59355,35620.0,98663.0,-298.23702923884844,-55.98421581349908,-204.9016843491056
35620,6444,35620,59388,35620.0,98722.0,-272.4763944339102,-13.01828363359732,-156.45351167963395
35620,6460,35620,59390,35620.0,98750.0,-246.48338192252504,29.60750824995614,-108.17676587368783
35620,6497,35620,59429,35620.0,98799.0,-220.29876821909465,71.8283974171161,-60.145605912239944
35620,6515,35620,59511,35620.0,98859.0,-193.9636728275368,113.58209406812682,-12.43222333311462
35620,6566,35620,59585,35620.0,98942.0,-167.51951210993542,154.80876415710895,34.893188864408785
35630,6603,35630,59639,35630.0,98973.0,-141.00780231693517,195.451681175747,81.76279919766955
35630,6618,35630,59615,35630.0,99027.0,-114.46983472403218,235.45790093283938,128.11154949044203
35630,6642,35630,59649,35630.0,99080.0,-87.94645425816145,274.7782204844199,173.87734244536693
35630,6683,35630,59706,35630.0,99116.0,-61.478045511290304,313.36654840281824,219.00110829233017
35630,6714,35630,59751,35630.0,99158.0,-35.10449816145348,351.1794914025138,263.4268334748565
35630,6746,35630,59816,35630.0,99249.0,-8.865014903577958,388.17649880786007,307.1015897183387
35640,6781,35640,59843,35640.0,99267.0,17.202132144625352,424.3202748563276,349.97576766792497
35640,6791,35640,59847,35640.0,99302.0,43.059788549619384,459.57705540672737,392.00338729383645
35640,6809,35640,59883,35640.0,99335.0,68.6719482353621,493.9164669411937,433.1420900239839
35640,6852,35640,59903,35640.0,99366.0,94.0036289280211,527.3110944299178,473.35285254779865
35640,6883,35640,59981,35640.0,99427.0,119.02083436313791,559.7361921256454,512.5997393697439
35640,6912,35640,60029,35640.0,99478.0,143.69074200285138,591.1698518580833,550.84990180208
35651,6940,35651,60042,35651.0,99502.0,167.98195546713634,621.5935284454577,588.0738164704205
35651,6954,35651,60017,35651.0,99502.0,191.86466084394664,650.9923097459045,624.2454062004449
35651,6976,35651,60032,35651.0,99547.0,215.31064539701714,679.3544422123275,659.341742712724
35651,6999,35651,60086,35651.0,99591.0,238.29321404178813,706.6704868300922,693.3426152974519
35651,7043,35651,60162,35651.0,99629.0,260.78715223709423,732.9329760280118,726.2304114375804
35651,7063,35651,60150,35651.0,99668.0,282.76887377183755,758.1368248403935,757.9902898039879
35661,7086,35661,60189,35661.0,99693.0,304.2166753386856,782.2798307604808,788.6103790656393
35661,7095,35661,60154,35661.0,99709.0,325.11088414421135,805.3626593820277,818.0818431236037
35661,7114,35661,60179,35661.0,99718.0,345.43381426268877,827.3883381646453,846.3987220900058
35661,7131,35661,60227,35661.0,99766.0,365.16962344024466,848.3616529354372,873.5576120393482
35661,7175,35661,60270,35661.0,99787.0,384.30424091778536,868.288987370842,899.5574569345363
35661,7172,35661,60279,35661.0,99808.0,402.82546595061797,887.1787024475066,924.3995580777259
35671,7186,35671,60255,35671.0,99820.0,420.72307153740087,905.0414546129152,948.0875764930997
35671,7189,35671,60243,35671.0,99835.0,437.9886870993512,921.8898979085329,970.6273663070415
35671,7212,35671,60267,35671.0,99859.0,454.61553329828473,937.7379032729691,992.0267240092096
35671,7244,35671,60322,35671.0,99888.0,470.5982662814505,952.5999745955651,1012.2952213804554
35671,7253,35671,60337,35671.0,99911.0,485.9330570469458,966.4913346306323,1031.4442189791869
35671,7265,35671,60353,35671.0,99924.0,500.61776039707513,979.4284131755994,1049.4869870268565
35682,7266,35682,60325,35682.0,99917.0,514.6519408771559,991.4291238332396,1066.438726908117
35682,7273,35682,60321,35682.0,99920.0,528.0367112495026,1002.5126151505772,1082.316326916451
35682,7287,35682,60321,35682.0,99934.0,540.7744988724991,1012.6986473393424,1097.1379205655844
35682,7314,35682,60379,35682.0,99970.0,552.868905898283,1022.0070857307296,1110.9225525105676
35682,7317,35682,60406,35682.0,99985.0,564.324758328829,1030.4579838824757,1123.6901882730695
35682,7318,35682,60432,35682.0,99983.0,575.1482041794947,1038.0722273646438,1135.4619295458122
35692,7324,35692,60352,35692.0,99969.0,585.3466541764695,1044.872083910945,1146.2600458786035
35692,7327,35692,60324,35692.0,99966.0,594.9285850290091,1050.8808821513003,1156.1076318373912
35692,7321,35692,60368,35692.0,99974.0,603.9033163453196,1056.1219254686469,1165.0280811757088
35692,7349,35692,60401,35692.0,100019.0,612.2808034209172,1060.6177634002013,1173.044757738959
35692,7356,35692,60418,35692.0,100024.0,620.0715589303372,1064.3904471911455,1180.1811132915423
35692,7353,35692,60385,35692.0,100012.0,627.2867376059042,1067.462133326127,1186.4610369989387
35702,7342,35702,60365,35702.0,99992.0,633.9381447666401,1069.8551944803319,1191.9089157112614
35702,7350,35702,60355,35702.0,100001.0,640.0380145363474,1071.591719798729,1196.549260593398
35702,7371,35702,60409,35702.0,100014.0,645.5987658153695,1072.6929684026077,1200.406287872564
35702,7378,35702,60438,35702.0,100028.0,650.6329986970499,1073.1794371704464,1203.503813138072
35702,7381,35702,60429,35702.0,100019.0,655.153682359601,1073.0715542481553,1205.8653997265194
35702,7373,35702,60386,35702.0,100015.0,659.1742790374415,1072.3902508694182,1207.5144588896785
35713,7361,35713,60336,35713.0,100020.0,662.7086518739188,1071.156728829647,1208.4741694426075
35713,7367,35713,60353,35713.0,100014.0,665.7707987203845,1069.391554482389,1208.7673476783775
35713,7365,35713,60399,35713.0,100012.0,668.374585477095,1067.1139346149605,1208.4163619177502
35713,7378,35713,60415,35713.0,100007.0,670.5336242351794,1064.3418717286324,1207.4430444136833
35713,7383,35713,60408,35713.0,100015.0,672.2613119638125,1061.0929269248506,1205.8686039376134
35713,7383,35713,60366,35713.0,99992.0,673.5709625204402,1057.3847479433418,1203.7135747710936
35723,7357,35723,60326,35723.0,99991.0,674.4758676296314,1053.234870017103,1200.9977204710808
35723,7363,35723,60361,35723.0,99989.0,674.9891305746838,1048.6600277747173,1197.7398553209741
35723,7373,35723,60376,35723.0,99998.0,675.1234077637982,1043.6757425950188,1193.957740681605
35723,7381,35723,60402,35723.0,100022.0,674.8908592838569,1038.2966402137924,1189.6682215805195
35723,7377,35723,60374,35723.0,100008.0,674.3033262473924,1032.5371297626575,1184.887594869087
35723,7365,35723,60329,35723.0,99973.0,673.3724795508175,1026.4117476028005,1179.631912937903
35734,7354,35734,60301,35734.0,99961.0,672.1097635971264,1019.9348032405737,1173.9168622402117
35734,7349,35734,60290,35734.0,99981.0,670.5261730576277,1013.1195879188606,1167.7573759803022
35734,7370,35734,60338,35734.0,99971.0,668.6320646772679,1005.9778112336687,1161.1674924638291
35734,7370,35734,60368,35734.0,99992.0,666.4372122131506,998.5197996137365,1154.1605800528355
35734,7356,35734,60310,35734.0,99944.0,663.9510394126082,990.7552701014079,1146.7496287609108
35734,7348,35734,60301,35734.0,99931.0,661.1827291798428,982.6937947308597,1138.9472660468384
35744,7345,35744,60267,35744.0,99930.0,658.1411135112247,974.3445261575769,1130.7654457945728
35744,7343,35744,60302,35744.0,99941.0,654.8345321090773,965.71571646894,1122.2152006522465
35744,7360,35744,60338,35744.0,99949.0,651.2708273586061,956.8147209946878,1113.3067872123854
35744,7365,35744,60316,35744.0,99945.0,647.4575421811574,947.6486366055199,1104.0501083236188
35744,7346,35744,60305,35744.0,99917.0,643.4022294409131,938.2250217810375,1094.455086380682
35744,7333,35744,60231,35744.0,99883.0,639.112597433003,928.5520303847682,1084.5316958535195
35754,7316,35754,60225,35754.0,99910.0,634.5963535951058,918.6378475963023,1074.2896871146843
35754,7334,35754,60270,35754.0,99903.0,629.8609485666287,908.4899943838516,1063.7384545568216
35754,7331,35754,60251,35754.0,99901.0,624.9135198588888,898.1152611764171,1052.8872935563077
35754,7327,35754,60281,35754.0,99885.0,619.7610753707735,887.5202725178038,1041.7457484910694
35754,7333,35754,60244,35754.0,99869.0,614.4107161698574,876.7120935765238,1030.323766165142
35754,7313,35754,60209,35754.0,99875.0,608.8697829580499,865.6984856895814,1018.6317049218812
35765,7295,35765,60196,35765.0,99840.0,603.1458733738244,854.4876832144475,1006.6803448311023
35765,7304,35765,60214,35765.0,99855.0,597.2466995381175,843.0879990451841,994.4809148051081
35765,7305,35765,60259,35765.0,99847.0,591.1799879711084,831.5078899285071,982.0451666508361
35765,7295,35765,60230,35765.0,99817.0,584.9535895996924,819.7566553484158,969.3855462861236
35765,7285,35765,60168,35765.0,99811.0,578.5756316368423,807.8450998491826,956.5152856758081
35765,7266,35765,60158,35765.0,99802.0,572.0545127537398,795.7854218569599,943.4483381828454
35775,7270,35775,60131,35775.0,99786.0,565.398771637607,783.5905492364881,930.1993491596676
35775,7276,35775,60161,35775.0,99796.0,558.6170188939549,771.2736719924702,916.7837422771197
35775,7273,35775,60173,35775.0,99758.0,551.7180777249113,758.8483521614813,903.2178644521154
35775,7258,35775,60145,35775.0,99755.0,544.7112238229251,746.3290708301624,889.5190714980846
35775,7228,35775,60078,35775.0,99719.0,537.6062550380725,733.731584483851,875.7056487351105
35775,7222,35775,60050,35775.0,99693.0,530.413277190418,721.0725316692292,861.796578142072
35785,7235,35785,60063,35785.0,99688.0,523.1424283212981,708.3686071885727,847.8112182446775
35785,7221,35785,60089,35785.0,99688.0,515.8038506876139,695.6361734928856,833.7690924296994
35785,7213,35785,60104,35785.0,99684.0,508.40785350787047,682.8916912196406,819.6899813612167
35785,7200,35785,60045,35785.0,99649.0,500.9649909054632,670.15248062572,805.5941731591463
35785,7183,35785,59986,35785.0,99626.0,493.4859859084127,657.4369391307016,791.5025226183309
35785,7166,35785,59975,35785.0,99603.0,485.9815568288658,644.7638946607882,777.4362095306137
35796,7176,35796,60004,35796.0,99601.0,478.4622225788216,632.1518065516648,763.4164261409618
35796,7172,35796,60021,35796.0,99594.0,470.9382565693577,619.6186977719445,749.4642581617123
35796,7169,35796,59996,35796.0,99581.0,463.41984956465285,607.1827773962611,735.6007910401839
35796,7146,35796,59963,35796.0,99538.0,455.9172889037872,594.8629796795956,721.8472141403157
35796,7137,35796,59890,35796.0,99516.0,448.44095745821335,582.6788282129652,708.2246509775365
35796,7124,35796,59907,35796.0,99500.0,441.0011742525619,570.6496933552628,694.753745178998
35806,7127,35806,59917,35806.0,99502.0,433.608044382535,558.7941243087582,681.4543273077377
35806,7117,35806,59938,35806.0,99508.0,426.27143527290804,547.1298947119951,668.3454128273386
35806,7115,35806,59876,35806.0,99465.0,419.00105264062773,535.6745263987139,655.4454374736515
35806,7086,35806,59822,35806.0,99435.0,411.80648834887495,524.4454104275732,642.7723226500527
35806,7078,35806,59829,35806.0,99425.0,404.6971143673181,513.4591767359989,630.3431537114113
35806,7065,35806,59830,35806.0,99420.0,397.68184479030646,502.7309857580537,618.1737923301168
35816,7072,35816,59844,35816.0,99420.0,390.76894774653476,492.2744275143987,606.2787805925639
35816,7071,35816,59862,35816.0,99408.0,383.96605464474374,482.10196292597124,594.6715019105521
35816,7068,35816,59830,35816.0,99401.0,377.2803422029746,472.2255203765552,583.3643878086431
35816,7038,35816,59785,35816.0,99375.0,370.7186947592694,462.6567938009701,572.3690224198726
35816,7032,35816,59751,35816.0,99345.0,364.28764425827,453.40689990145756,561.6960491711814
35816,7025,35816,59756,35816.0,99347.0,357.9931382840942,444.4856389866975,551.3548853554357
35827,7034,35827,59804,35827.0,99365.0,351.840396989196,435.90107547596546,541.3535255444856
35827,7051,35827,59765,35827.0,99345.0,345.8340388382512,427.65981618965367,531.6987047169413
35827,7015,35827,59749,35827.0,99330.0,339.9783940475656,419.7674802342453,522.3961982313078
35827,7002,35827,59712,35827.0,99296.0,334.27765546439355,412.2286722003616,513.4508455855317
35827,7006,35827,59690,35827.0,99269.0,328.7356987757945,405.046466586532,504.86620873185205
35827,7000,35827,59712,35827.0,99292.0,323.3558815404107,398.221846498363,496.64410966320827
35837,6993,35837,59774,35837.0,99314.0,318.14103948053287,391.7536267421258,488.7845004723787
35837,6985,35837,59745,35837.0,99310.0,313.0935301713263,385.63911829180654,481.2858864096607
35837,6974,35837,59714,35837.0,99284.0,308.21519856471366,379.87491287963877,474.14588909775296
35837,6970,35837,59674,35837.0,99253.0,303.5072865324088,374.45692973347553,467.361387352814
35837,6974,35837,59695,35837.0,99263.0,298.97036327014655,369.3798217075984,460.9282093771676
35837,6974,35837,59726,35837.0,99285.0,294.60436556649375,364.6365747137613,454.840878308059
35847,6972,35847,59751,35847.0,99266.0,290.4087438692892,360.2188288177032,449.0927735027948
35847,6961,35847,59732,35847.0,99258.0,286.38259879782174,356.1176480225223,443.6764385823329
35847,6953,35847,59677,35847.0,99251.0,282.5247049069596,352.3239821309242,438.58365193771675
35847,6941,35847,59665,35847.0,99231.0,278.83341161294425,348.82835146854103,433.80529434199707
35847,6931,35847,59675,35847.0,99230.0,275.306469890479,345.6201089134206,429.33115761800576
35847,6935,35847,59715,35847.0,99247.0,271.94085562643727,342.68707284147973,425.1498059626665
35858,6953,35858,59734,35858.0,99275.0,268.732727317149,340.01589358063086,421.24872298621653
35858,6937,35858,59692,35858.0,99257.0,265.67760117912235,337.59274699673847,417.61479137781924
35858,6930,35858,59678,35858.0,99232.0,262.7705515423814,335.40361495604407,414.23469478264724
35858,6928,35858,59662,35858.0,99223.0,260.00621810777864,333.4339304990289,411.0948537565829
35858,6931,35858,59697,35858.0,99239.0,257.37872141223505,331.6681062521621,408.1810985997789
35858,6938,35858,59759,35858.0,99252.0,254.8816870228402,330.0896022358236,405.47857532066644
35868,6945,35868,59745,35868.0,99251.0,252.5084170995238,328.68171165704223,402.9720106588902
35868,6925,35868,59710,35868.0,99228.0,250.25210227300568,327.4284196472755,400.64601082688773
35868,6910,35868,59664,35868.0,99233.0,248.1058635856662,326.3144632553715,398.48508887911754
35868,6919,35868,59657,35868.0,99223.0,246.06255995595797,325.3245608326912,396.47349608308684
35868,6915,35868,59705,35868.0,99239.0,244.11460221224223,324.44260663171946,394.59511278169225
35868,6925,35868,59724,35868.0,99249.0,242.25396415767636,323.65159001343426,392.8335328217314
35878,6929,35878,59743,35878.0,99253.0,240.47233829473333,322.9342377615154,391.17233397339777
35878,6922,35878,59711,35878.0,99229.0,238.7613312334227,322.27372233920295,389.59534666167804
35878,6907,35878,59659,35878.0,99225.0,237.11256548388928,321.6537910738747,388.0866645255847
35878,6905,35878,59694,35878.0,99217.0,235.5175867176016,321.05822979205084,386.63040542227697
35878,6929,35878,59727,35878.0,99245.0,233.96772854689817,320.47036973449633,385.21051480676715
35878,6916,35878,59766,35878.0,99253.0,232.45418198985766,319.87338098250467,383.8108750848572
35889,6921,35889,59738,35889.0,99250.0,230.96820514068352,319.2511181794587,382.4156749110599
35889,6905,35889,59710,35889.0,99231.0,229.50122238746255,318.5886569800875,381.00969693973434
35889,6905,35889,59696,35889.0,99212.0,228.04475679424417,317.8720906915987,379.57825335964935
35889,6909,35889,59672,35889.0,99230.0,226.59031532387706,317.087891147326,378.10687291286587
35889,6908,35889,59732,35889.0,99225.0,225.12935669415805,316.2223948381567,376.5810899780331
35889,6916,35889,59765,35889.0,99265.0,223.65337249748382,315.26190853036366,374.9865567722778
35899,6915,35899,59735,35899.0,99244.0,222.15402721846317,314.1934388567721,373.3094184256574
35899,6906,35899,59695,35899.0,99223.0,220.62328659220262,313.0052267114424,371.53663164014154
35899,6900,35899,59691,35899.0,99220.0,219.0534414798891,311.68646355831396,369.65589953514944
35899,6899,35899,59693,35899.0,99223.0,217.4370153783157,310.2266291810678,367.6553647608429
35899,6914,35899,59767,35899.0,99250.0,215.7666994965101,308.615256667705,365.5234984005054
35899,6914,35899,59745,35899.0,99232.0,214.0354573009199,306.8424345994674,363.24931456328716
35909,6903,35909,59721,35909.0,99216.0,212.23672793359046,304.8995287052985,360.82260545661416
35909,6886,35909,59683,35909.0,99208.0,210.36448790625792,302.779293571479,358.2338734956738
35909,6878,35909,59663,35909.0,99203.0,208.41306200086697,300.47525730791244,355.47404779942775
35909,6882,35909,59697,35909.0,99217.0,206.3768414225349,297.98098652511726,352.5342909629596
35909,6904,35909,59718,35909.0,99224.0,204.25017652114502,295.28986930853176,349.4060562737199
35909,6895,35909,59724,35909.0,99210.0,202.0275616387364,292.3955418700778,346.08132280192746
35920,6891,35920,59700,35920.0,99225.0,199.70391596243257,289.29245518046855,342.5528001951632
35920,6864,35920,59667,35920.0,99182.0,197.27465497643027,285.97600906964533,338.81398403314
35920,6873,35920,59664,35920.0,99195.0,194.7354980354103,282.4421689758168,334.8590295968135
35920,6877,35920,59670,35920.0,99200.0,192.08225910171836,278.68696821363,330.68255759050635
35920,6887,35920,59720,35920.0,99196.0,189.31087375020135,274.70640991916116,326.27965306480206
35920,6881,35920,59716,35920.0,99174.0,186.4176301954969,270.4969570048191,321.64600104953485
35930,6874,35930,59664,35930.0,99180.0,183.39937781384697,266.05616300532074,316.7778797806535
35930,6853,35930,59660,35930.0,99161.0,180.25354733148623,261.38273764528907,311.67202987244974
35930,6845,35930,59630,35930.0,99160.0,176.97795849581894,256.47602494405675,306.3255412150574
35930,6858,35930,59661,35930.0,99173.0,173.57056911603155,251.33548685145297,300.73580829543806
35930,6862,35930,59682,35930.0,99177.0,170.02942255705355,245.96064372828033,294.90066129125717
35930,6852,35930,59694,35930.0,99157.0,166.3528301794003,240.351550612793,288.8186487334882
35940,6845,35940,59609,35940.0,99136.0,162.53953784497608,234.50933168512069,282.48917229346534
35940,6836,35940,59612,35940.0,99124.0,158.5887166671462,228.43604843187182,275.91230374617953
35940,6840,35940,59605,35940.0,99107.0,154.49987315877328,222.13399658903475,269.08844805054383
35940,6842,35940,59649,35940.0,99147.0,150.2728366542233,215.6052979509609,262.0181419367585
35940,6840,35940,59664,35940.0,99129.0,145.90787461297253,208.85224838044823,254.70221464444597
35940,6822,35940,59628,35940.0,99113.0,141.40582450364766,201.878051606165,247.14216103497535
35951,6814,35951,59578,35951.0,99089.0,136.76808238397462,194.6871595935849,239.34026968656718
35951,6804,35951,59534,35951.0,99083.0,131.99644207742455,187.28476809257646,231.2994006869415
35951,6807,35951,59565,35951.0,99064.0,127.09293263314214,179.6758780357844,223.0226923222083
35951,6810,35951,59618,35951.0,99094.0,122.0597896006127,171.86487174973513,214.51342727397693
35951,6803,35951,59605,35951.0,99066.0,116.89957219490087,163.85607129721498,205.77515738510712
35951,6785,35951,59564,35951.0,99052.0,111.61528259400896,155.65459883405202,196.81192093973007
35961,6782,35961,59505,35961.0,99054.0,106.21033550463444,147.26650875942457,187.6282791372291
35961,6772,35961,59520,35961.0,99019.0,100.68842444356243,138.69810042337136,178.22921412442227
35961,6763,35961,59512,35961.0,99021.0,95.05341009467922,129.95521056749286,168.61999974151124
35961,6758,35961,59544,35961.0,99022.0,89.30924276482548,121.04310253411333,158.80608529454074
35961,6756,35961,59542,35961.0,99010.0,83.45991274238202,111.9668994383164,148.79313384288744
35961,6742,35961,59496,35961.0,98993.0,77.50944664360937,102.73210781439269,138.58716422950948
35972,6727,35972,59457,35972.0,98957.0,71.46187878670305,93.34466897055549,128.19452953777386
35972,6720,35972,59444,35972.0,98953.0,65.32112056171763,83.81039621213037,117.62164475889028
35972,6739,35972,59498,35972.0,98972.0,59.090847065067095,74.13442307196061,106.87472857141947
35972,6724,35972,59510,35972.0,98966.0,52.774593124358205,64.32139697150697,95.95991115178657
35972,6721,35972,59464,35972.0,98938.0,46.37597966733193,54.37625826863672,84.88360055426239
35972,6708,35972,59425,35972.0,98912.0,39.89883354222545,44.304653386666985,73.65262783600951
35982,6684,35982,59397,35982.0,98888.0,33.34712983951806,34.11252247539517,62.27399465318973
35982,6688,35982,59414,35982.0,98909.0,26.72481123080118,23.805401754953778,50.754528687896084
35982,6679,35982,59465,35982.0,98902.0,20.03561978582667,13.388235674858436,39.10084737604541
35982,6694,35982,59456,35982.0,98881.0,13.283105061519336,2.8659961945229497,27.319637808270897
35982,6678,35982,59404,35982.0,98845.0,6.470812387777897,-7.755467742132225,15.417825581432282
35982,6661,35982,59376,35982.0,98834.0,-0.3975369735942422,-18.469239120478335,3.402371321663395
35992,6645,35992,59307,35992.0,98827.0,-7.318078309839194,-29.26796629544026,-8.720070594648234
35992,6638,35992,59347,35992.0,98814.0,-14.287022391180415,-40.144782868576215,-20.943315646231156
35992,6659,35992,59352,35992.0,98829.0,-21.300801946580066,-51.09380390746264,-33.26158067364332
35992,6641,35992,59361,35992.0,98809.0,-28.35595355109612,-62.10985469372292,-45.66924622577733
35992,6629,35992,59317,35992.0,98792.0,-35.4488868212907,-73.18789764858235,-58.1605936222212
35992,6603,35992,59274,35992.0,98763.0,-42.575860780954,-84.32289828981709,-70.72974964587831
36002,6601,36002,59263,36002.0,98733.0,-49.73321001281872,-95.51029835488049,-83.37091797837184
36002,6600,36002,59310,36002.0,98741.0,-56.917573823206794,-106.74651949183982,-96.0787316232927
36002,6594,36002,59312,36002.0,98767.0,-64.12593628404255,-118.02879745821673,-108.84836223483205
36002,6599,36002,59301,36002.0,98731.0,-71.35550559347729,-129.3544400384459,-121.6751780842734
36002,6580,36002,59251,36002.0,98697.0,-78.6035563019527,-140.72027981434388,-134.55437378289935
36002,6560,36002,59234,36002.0,98674.0,-85.867372109689,-152.12277924340486,-147.48108998692862
36012,6555,36012,59213,36012.0,98658.0,-93.14437836899901,-163.5585453032915,-160.45086943911645
36012,6559,36012,59232,36012.0,98659.0,-100.43231867183152,-175.02473574249632,-173.4599961897017
36012,6547,36012,59235,36012.0,98669.0,-107.72926513917602,-186.5190332498139,-186.5054995772644
36012,6544,36012,59219,36012.0,98636.0,-115.03351105532752,-198.03926656133495,-199.58488582735168
36012,6526,36012,59172,36012.0,98607.0,-122.343511856085,-209.58312582641616,-212.69594747138325
36012,6520,36012,59132,36012.0,98597.0,-129.65792512092918,-221.14839323952646,-225.83691577774266
36022,6512,36022,59153,36022.0,98593.0,-136.97569902716936,-232.73355544666674,-239.00672758690854
36022,6504,36022,59164,36022.0,98583.0,-144.29613443230937,-244.33814615735236,-252.2050787665204
36022,6504,36022,59195,36022.0,98595.0,-151.6188882396313,-255.96239402982957,-265.43224610789855
36022,6499,36022,59130,36022.0,98570.0,-158.94391402338601,-267.6065158342951,-278.6887910067858
36022,6483,36022,59112,36022.0,98518.0,-166.271372306126,-279.27040569377095,-291.97538574658256
36022,6477,36022,59046,36022.0,98523.0,-173.6016056063575,-290.95406443197646,-305.29302545241876
36033,6474,36033,59085,36033.0,98526.0,-180.9351843240446,-302.6583703569639,-318.643364634829
36033,6471,36033,59099,36033.0,98526.0,-188.27290607847908,-314.38544674672505,-332.0286764093046
36033,6472,36033,59121,36033.0,98544.0,-195.61569181756477,-326.13823340592717,-345.451416127176
36033,6445,36033,59055,36033.0,98488.0,-202.9644616473488,-337.9197216140328,-358.9137252882682
36033,6448,36033,59042,36033.0,98449.0,-210.3201218958497,-349.7326861496374,-372.41730873814413
36033,6428,36033,59016,36033.0,98443.0,-217.6836633827549,-361.58006810155894,-385.96386519420525
36043,6439,36043,59058,36043.0,98450.0,-225.056237300745,-373.4653769768212,-399.5555792805595
36043,6433,36043,59053,36043.0,98441.0,-232.43910749109762,-385.3925433448718,-413.1951508712168
36043,6413,36043,59068,36043.0,98416.0,-239.83351752853025,-397.3652826194027,-426.8855255925255
36043,6426,36043,58983,36043.0,98413.0,-247.2406061420403,-409.38654459421264,-440.62973114425336
36043,6389,36043,58987,36043.0,98380.0,-254.66140128946637,-421.45859097576226,-454.430892201695
36043,6384,36043,58955,36043.0,98380.0,-262.0969009448909,-433.5835713001902,-468.2923145222568
36053,6396,36053,58978,36053.0,98380.0,-269.5482284231303,-445.76396575832814,-482.21751875764403
36053,6383,36053,59001,36053.0,98363.0,-277.0166497186893,-458.0025002313447,-496.21010446701985
36053,6378,36053,58945,36053.0,98355.0,-284.5034123494929,-470.3016629766172,-510.2735251694645
36053,6355,36053,58907,36053.0,98321.0,-292.009656607249,-482.6634502327523,-524.4109807421278
36053,6344,36053,58904,36053.0,98300.0,-299.5365185749849,-495.0897413622864,-538.6255201461738
36053,6349,36053,58894,36053.0,98293.0,-307.08530749938467,-507.5828238447699,-552.9202855709551
36064,6351,36064,58920,36064.0,98307.0,-314.65754296668206,-520.1454892734394,-567.2986327904126
36064,6335,36064,58923,36064.0,98291.0,-322.254797200099,-532.7806476647232,-581.7639171642237
36064,6337,36064,58893,36064.0,98272.0,-329.8785286138465,-545.4907412926818,-596.3191313611477
36064,6306,36064,58837,36064.0,98238.0,-337.5300462119208,-558.2774780567003,-610.9667609933917
36064,6305,36064,58800,36064.0,98202.0,-345.21061288078977,-571.1422485755625,-625.7089997285351
36064,6298,36064,58837,36064.0,98219.0,-352.9216086083897,-584.0868667279196,-640.5481376153339
36074,6310,36074,58850,36074.0,98207.0,-360.6645694297808,-597.1138038650813,-655.4867279261327
36074,6298,36074,58859,36074.0,98208.0,-368.4410170594779,-610.2256231977851,-670.5273624488768
36074,6276,36074,58837,36074.0,98202.0,-376.2522592739192,-623.4241606872006,-685.6722797824428
36074,6259,36074,58777,36074.0,98146.0,-384.099409914394,-636.7101242411686,-700.9230979723121
36074,6253,36074,58736,36074.0,98135.0,-391.98362239744404,-650.0834167428669,-716.2808960508389
36074,6260,36074,58778,36074.0,98126.0,-399.9062756359824,-663.5438550451037,-731.7465614580304
36084,6262,36084,58770,36084.0,98132.0,-407.86890996119774,-677.0914552043687,-747.3209601123485
36084,6248,36084,58769,36084.0,98121.0,-415.8729777609349,-690.7260208755548,-763.0047287549066
36084,6230,36084,58705,36084.0,98078.0,-423.9196637760238,-704.4466966255897,-778.797976909264
36084,6220,36084,58674,36084.0,98070.0,-432.00992881265415,-718.2521135283896,-794.7002546142829
36084,6212,36084,58673,36084.0,98056.0,-440.1446715998216,-732.1410137402187,-810.7107414063125
36084,6212,36084,58704,36084.0,98080.0,-448.3248246018082,-746.1126599602203,-826.8282720601089
36095,6212,36095,58706,36095.0,98026.0,-456.5513028075717,-760.1665380512052,-843.0510635273589
36095,6202,36095,58695,36095.0,98023.0,-464.8248418949563,-774.3016199791646,-859.3764830981794
36095,6186,36095,58649,36095.0,98015.0,-473.14585930777207,-788.5158326620507,-875.8010622422361
36095,6172,36095,58617,36095.0,97969.0,-481.5144636943632,-802.8061071557923,-892.3205599159035
36095,6171,36095,58600,36095.0,97940.0,-489.93057424417907,-817.1688706325457,-908.9301017565235
36095,6170,36095,58665,36095.0,97964.0,-498.3939779026962,-831.6003882984683,-925.6244701757344
36105,6165,36105,58670,36105.0,97974.0,-506.90423137652357,-846.0963361083675,-942.3981023157352
36105,6151,36105,58632,36105.0,97927.0,-515.4605030517369,-860.6507986813202,-959.2446098569987
36105,6144,36105,58560,36105.0,97885.0,-524.0614944783695,-875.2557165679187,-976.1564542853228
36105,6133,36105,58536,36105.0,97883.0,-532.705453591901,-889.9013517308122,-993.1251967377731
36105,6124,36105,58536,36105.0,97884.0,-541.3902109081052,-904.5771967605737,-1010.1418450739377
36105,6132,36105,58599,36105.0,97882.0,-550.1131739892876,-919.2723405609406,-1027.1967702545967
36115,6117,36115,58573,36115.0,97876.0,-558.8712235889211,-933.9748921684111,-1044.2792833869366
36115,6110,36115,58521,36115.0,97868.0,-567.6605641769474,-948.6711207728192,-1061.3771793352157
36115,6089,36115,58480,36115.0,97818.0,-576.4766746561066,-963.3453059765026,-1078.476447597092
36115,6087,36115,58485,36115.0,97786.0,-585.3143877251473,-977.9803149288412,-1095.5613491690185
36115,6073,36115,58480,36115.0,97800.0,-594.1679907779921,-992.5580852127453,-1112.6147890236907
36115,6086,36115,58499,36115.0,97814.0,-603.0312351774032,-1007.0595465545592,-1129.6184423511777
36126,6068,36126,58494,36126.0,97763.0,-611.8972095667131,-1021.4641256266349,-1146.5523942943678
36126,6057,36126,58451,36126.0,97749.0,-620.7581806330206,-1035.749221095495,-1163.3948239890028
36126,6046,36126,58382,36126.0,97724.0,-629.605559397258,-1049.8901595635039,-1180.1221099664988
36126,6020,36126,58385,36126.0,97713.0,-638.4300094717988,-1063.8608274120788,-1196.7090763304416
36126,6029,36126,58384,36126.0,97727.0,-647.2216125665268,-1077.6344046033832,-1213.129044532242
36126,6033,36126,58421,36126.0,97698.0,-655.9699296467863,-1091.183472740714,-1229.353618707354
36136,6021,36136,58380,36136.0,97656.0,-664.6638325938017,-1104.479498254268,-1245.3524563785472
36136,6000,36136,58361,36136.0,97641.0,-673.2912928889898,-1117.4923351457487,-1261.0933876917634
36136,5993,36136,58303,36136.0,97624.0,-681.8393806488177,-1130.1902845049713,-1276.5427829801251
36136,5990,36136,58337,36136.0,97634.0,-690.2943934514783,-1142.5405802324967,-1291.6657548322148
36136,5986,36136,58334,36136.0,97624.0,-698.641892764506,-1154.5096685673889,-1306.4260237350722
36136,5989,36136,58353,36136.0,97625.0,-706.8665937763059,-1166.062908090878,-1320.7855678219255
36146,5962,36146,58330,36146.0,97586.0,-714.9522143332994,-1177.1639725916457,-1334.7043047965292
36146,5951,36146,58268,36146.0,97548.0,-722.8814534709196,-1187.7745326551797,-1348.140082493211
36146,5938,36146,58240,36146.0,97533.0,-730.6361587531859,-1197.8546057089548,-1361.049066389592
36146,5930,36146,58242,36146.0,97529.0,-738.1975392951399,-1207.3633551747525,-1373.3862238980919
36146,5945,36146,58295,36146.0,97537.0,-745.5462530373829,-1216.2595487408587,-1385.1055061536317
36146,5932,36146,58285,36146.0,97534.0,-752.6622940023734,-1224.501189355809,-1396.1596518512993
36157,5920,36157,58249,36157.0,97489.0,-759.5247955113185,-1232.0447978779537,-1406.499904017132
36157,5902,36157,58188,36157.0,97473.0,-766.1119888092173,-1238.8452695363671,-1416.0760439625049
36157,5901,36157,58184,36157.0,97447.0,-772.4013521768755,-1244.8565626225509,-1424.8368087583494
36157,5889,36157,58222,36157.0,97453.0,-778.3697751696827,-1250.032506494062,-1432.7303599361044
36157,5892,36157,58231,36157.0,97446.0,-783.993631452924,-1254.3269168380148,-1439.704517700835
36157,5888,36157,58233,36157.0,97448.0,-789.248763003918,-1257.6930662315199,-1445.706744116552
36167,5878,36167,58176,36167.0,97417.0,-794.1104169196924,-1260.0832562247037,-1450.6840692043552
36167,5864,36167,58120,36167.0,97389.0,-798.5532367980048,-1261.4491299316346,-1454.5832409255204
36167,5845,36167,58134,36167.0,97377.0,-802.551408654097,-1261.7426983352038,-1457.3512059929456
36167,5855,36167,58169,36167.0,97390.0,-806.0789136222676,-1260.9172703488982,-1458.9356581215254
36167,5852,36167,58158,36167.0,97399.0,-809.1096919740557,-1258.9276021371854,-1459.2852769918738
36167,5858,36167,58157,36167.0,97371.0,-811.6176059646618,-1255.7296112322135,-1458.3496737816472
36177,5818,36177,58100,36177.0,97331.0,-813.5763723422542,-1251.280407708556,-1456.0795144245612
36177,5823,36177,58091,36177.0,97325.0,-814.9597304718684,-1245.5389291835784,-1452.4271439939
36177,5825,36177,58086,36177.0,97328.0,-815.7417821627638,-1238.4669118675247,-1447.3474142874043
36177,5819,36177,58123,36177.0,97328.0,-815.8971984639111,-1230.0296363858606,-1440.7982486664846
36177,5818,36177,58133,36177.0,97350.0,-815.4012659299775,-1220.1961075932309,-1432.740872746521
36177,5807,36177,58125,36177.0,97330.0,-814.2299634042874,-1208.9388941293396,-1423.1398944287407
36188,5797,36188,58085,36188.0,97330.0,-812.3601490410588,-1196.234203452715,-1411.9634712985417
36188,5799,36188,58068,36188.0,97310.0,-809.7698340561295,-1182.06256762249,-1399.1837446176232
36188,5805,36188,58101,36188.0,97324.0,-806.4384326462103,-1166.4098775039406,-1384.7774701015865
36188,5809,36188,58148,36188.0,97328.0,-802.3468734323219,-1149.2680475944976,-1368.7266116232731
36188,5813,36188,58172,36188.0,97336.0,-797.4776034464544,-1130.6349334816023,-1351.018769065333
36188,5811,36188,58174,36188.0,97356.0,-791.8145965813083,-1110.513906933977,-1331.647489465078
36198,5799,36198,58153,36198.0,97367.0,-785.3434642077565,-1088.9137686642725,-1310.6125164861112
36198,5794,36198,58166,36198.0,97373.0,-778.0517352579841,-1065.8492516162082,-1287.9200188923771
36198,5808,36198,58242,36198.0,97426.0,-769.9292374283427,-1041.3416733129277,-1263.5828223114183
36198,5817,36198,58309,36198.0,97453.0,-760.9683694329378,-1015.4189616981796,-1237.6204761128104
36198,5849,36198,58350,36198.0,97504.0,-751.1641270196063,-988.1148595014959,-1210.0590234420245
36198,5843,36198,58371,36198.0,97530.0,-740.5139396561067,-959.4679558420085,-1180.930625554955
36209,5839,36209,58344,36209.0,97524.0,-729.0175608940351,-929.5212826429827,-1150.273329002683
36209,5854,36209,58377,36209.0,97603.0,-716.6772168878593,-898.3226931711788,-1118.1311324743963
36209,5876,36209,58488,36209.0,97664.0,-703.4978511767216,-865.9254364484989,-1084.553993867082
36209,5888,36209,58529,36209.0,97721.0,-689.487190427609,-832.3879829285347,-1049.5973167729405
36209,5921,36209,58594,36209.0,97791.0,-674.655633000679,-797.7730713816699,-1013.3210847632093
36209,5928,36209,58647,36209.0,97821.0,-659.0160734139868,-762.1467198309797,-975.7890383308591
36219,5937,36219,58662,36219.0,97866.0,-642.5837716519014,-725.5775627866872,-937.0680989777256
36219,5962,36219,58700,36219.0,97916.0,-625.3763660613733,-688.1365753842127,-897.2280910037731
36219,5997,36219,58811,36219.0,98000.0,-607.4139058939734,-649.8970041187811,-856.3415078940454
36219,6021,36219,58889,36219.0,98050.0,-588.7186924549312,-610.9338542912353,-814.4830073679891
36219,6042,36219,58920,36219.0,98087.0,-569.3149848742823,-571.3227699023209,-771.7287582182133
36219,6063,36219,58918,36219.0,98139.0,-549.2287741748233,-531.1391474656984,-728.1560210319025
36229,6067,36229,58951,36229.0,98159.0,-528.48771996702,-490.4581572185949,-683.8430655639346
36229,6108,36229,59019,36229.0,98245.0,-507.1212185727011,-449.3552766863105,-638.8692320295183
36229,6140,36229,59102,36229.0,98299.0,-485.16042359283296,-407.9064639625498,-593.3148403404625
36229,6175,36229,59175,36229.0,98390.0,-462.6380419028735,-366.1876019648141,-547.2607322243393
36229,6188,36229,59172,36229.0,98416.0,-439.58801334807487,-324.2736523784094,-500.7875832654677
36229,6204,36229,59221,36229.0,98433.0,-416.04534223525025,-282.2382575176947,-453.9754517557451
36240,6229,36240,59225,36240.0,98478.0,-392.0461645180779,-240.1539920743014,-406.90391184771585
36240,6269,36240,59332,36240.0,98567.0,-367.6278633584946,-198.09277869516717,-359.65244259486946
36240,6302,36240,59416,36240.0,98658.0,-342.829003211495,-156.12579720812982,-312.3003296169671
36240,6334,36240,59458,36240.0,98724.0,-317.6890751505527,-114.32267267540368,-264.9258643257064
36240,6369,36240,59488,36240.0,98725.0,-292.2482019408202,-72.7505612566689,-217.60544323929645
36240,6380,36240,59501,36240.0,98773.0,-266.5469169349486,-31.473850053246792,-170.41329744261054
36250,6410,36250,59538,36250.0,98829.0,-240.62609441800336,9.445529215955844,-123.42181126850699
36250,6443,36250,59596,36250.0,98900.0,-214.52699770856455,49.94764429955808,-76.70174782361119
36250,6488,36250,59695,36250.0,98961.0,-188.29124334270512,89.97450053361797,-30.322020811307425
36250,6529,36250,59715,36250.0,99008.0,-161.96054036743817,129.47057933557892,15.650775127168572
36250,6537,36250,59740,36250.0,99054.0,-135.57632482010672,168.38347909015204,61.15274589401474
36250,6553,36250,59748,36250.0,99091.0,-109.17959362590165,206.66399441960368,106.12284566255971
36260,6597,36260,59798,36260.0,99138.0,-82.81102763873542,244.26566589304502,150.5028414907796
36260,6637,36260,59884,36260.0,99182.0,-56.51107465364748,281.1444372214004,194.23722429551412
36260,6670,36260,59936,36260.0,99239.0,-30.319740130510127,317.25893951971784,237.27318747644551
36260,6694,36260,59941,36260.0,99279.0,-4.276256335096434,352.57117133623876,279.56072356118614
36260,6716,36260,59940,36260.0,99313.0,21.581114384649823,387.0467743937222,321.0527474931423
36260,6761,36260,59954,36260.0,99352.0,47.215137385600656,420.65454402951207,361.70509842935655
36271,6783,36271,60043,36271.0,99416.0,72.5896978349121,453.365717810874,401.4764741934398
36271,6809,36271,60082,36271.0,99446.0,97.66996679093609,485.1538366423422,440.32850421273326
36271,6855,36271,60140,36271.0,99496.0,122.42255136207478,515.99528858233,478.2259481135304
36271,6860,36271,60152,36271.0,99546.0,146.8156422135495,545.8699736305111,515.1368856300187
36271,6874,36271,60117,36271.0,99553.0,170.81908665006227,574.7615094404157,551.0328686129969
36271,6913,36271,60149,36271.0,99581.0,194.40426890708926,602.6567175502375,585.8888924905618
36281,6940,36281,60224,36281.0,99627.0,217.54399897811027,629.5448662441506,619.6831253715534
36281,6968,36281,60251,36281.0,99649.0,240.21261327889965,655.4175366315471,652.3966748807957
36281,6994,36281,60273,36281.0,99704.0,262.38616863154493,680.2690920597247,684.0135634315184
36281,7018,36281,60266,36281.0,99718.0,284.0425968340178,704.0969821212939,714.5208194609904
36281,7025,36281,60280,36281.0,99721.0,305.1617841637715,726.9015252650092,743.9084928966572
36281,7030,36281,60257,36281.0,99762.0,325.7254874880655,748.6853299719114,772.1694151672937
36291,7063,36291,60317,36291.0,99802.0,345.71708156488194,769.4526276987972,799.2989024114288
36291,7102,36291,60390,36291.0,99828.0,365.1213971655915,789.2089991598616,825.2947481772235
36291,7126,36291,60394,36291.0,99871.0,383.92488531220624,807.9618499886185,850.1574470817309
36291,7127,36291,60363,36291.0,99833.0,402.1159280104216,825.7210446733452,873.8903277319253
36291,7127,36291,60353,36291.0,99862.0,419.6849033159946,842.4987676153601,896.4992933615345
36291,7155,36291,60370,36291.0,99878.0,436.6239302347931,858.3086838491658,917.9922409129047
36302,7183,36302,60426,36302.0,99916.0,452.92663173290134,873.1652611440184,938.3786481217919
36302,7194,36302,60462,36302.0,99935.0,468.5881690809384,887.0838257661353,957.6695570383349
36302,7203,36302,60435,36302.0,99941.0,483.6053797733081,900.0810944246748,975.8777108360273
36302,7212,36302,60409,36302.0,99951.0,497.9767702635164,912.1753562284173,993.0175501158337
36302,7222,36302,60414,36302.0,99957.0,511.7023696912878,923.3859074655691,1009.1050015135722
36302,7227,36302,60453,36302.0,99970.0,524.7835519106363,933.7322971685455,1024.157187666764
36312,7253,36312,60468,36312.0,99980.0,537.2228885576899,943.2340850785672,1038.192179455311
36312,7269,36312,60487,36312.0,100006.0,549.0241201374871,951.9111073362785,1051.2288506800624
36312,7266,36312,60498,36312.0,100024.0,560.1922450489784,959.7838323802398,1063.2868912626773
36312,7280,36312,60468,36312.0,99999.0,570.7335483417672,966.8735190417601,1074.3868852687801
36312,7274,36312,60451,36312.0,100016.0,580.655478977654,973.201981897653,1084.5501839655617
36312,7275,36312,60496,36312.0,100045.0,589.9664320610523,978.791058312821,1093.7986197976145
36322,7300,36322,60524,36322.0,100048.0,598.675512703299,983.6623775168919,1102.1544410534275
36322,7314,36322,60540,36322.0,100060.0,606.7924492220864,987.8377669487311,1109.640482709034
36322,7308,36322,60497,36322.0,100044.0,614.3277039533558,991.3397872144847,1116.2802489358394
36322,7303,36322,60455,36322.0,100025.0,621.292518279246,994.1916562940812,1122.0977142829322
36322,7298,36322,60469,36322.0,100035.0,627.6987013063056,996.4164691788021,1127.1168670629504
36322,7306,36322,60478,36322.0,100048.0,633.5582913521636,998.036392166827,1131.3612754699843
36333,7331,36333,60534,36333.0,100075.0,638.8833428284146,999.0725009300602,1134.854003502364
36333,7340,36333,60487,36333.0,100054.0,643.685995983943,999.5452049752282,1137.6178334332008
36333,7326,36333,60509,36333.0,100054.0,647.9786996018801,999.4746405822134,1139.6754196955444
36333,7322,36333,60460,36333.0,100042.0,651.774254367826,998.8806166952177,1141.0491488133448
36333,7330,36333,60466,36333.0,100031.0,655.0856036537897,997.7822143025421,1141.7608220239529
36333,7336,36333,60503,36333.0,100052.0,657.9256364134983,996.1973988908874,1141.8313602213884
36343,7341,36343,60506,36343.0,100096.0,660.3071677183503,994.1430642709895,1141.2807936027075
36343,7347,36343,60458,36343.0,100055.0,662.2430216414992,991.6353918426394,1140.128658788565
36343,7340,36343,60462,36343.0,100059.0,663.7461067952607,988.6898670442304,1138.3943595735777
36343,7335,36343,60430,36343.0,100032.0,664.8294051823927,985.3208269946406,1136.097067716406
36343,7331,36343,60475,36343.0,100043.0,665.5058415656182,981.5410366657445,1133.2553736098405
36343,7334,36343,60490,36343.0,100059.0,665.7881098392559,977.3617221548413,1129.8870889348268
36353,7342,36353,60519,36353.0,100052.0,665.6885814582033,972.7931517110537,1126.0093625974016
36353,7339,36353,60495,36353.0,100040.0,665.2193420612412,967.8454221382722,1121.638923191381
36353,7323,36353,60443,36353.0,100017.0,664.3922445850419,962.528855262114,1116.7921135181227
36353,7319,36353,60424,36353.0,100014.0,663.2188145580101,956.8536560515792,1111.4846559117636
36353,7327,36353,60443,36353.0,100019.0,661.7100517143429,950.8291862161751,1105.731390690341
36353,7339,36353,60513,36353.0,100015.0,659.8763663565121,944.4637272006746,1099.5462199558774
36364,7353,36364,60487,36364.0,100016.0,657.7277796291877,937.7651451148795,1092.9422400751712
36364,7324,36364,60445,36364.0,99987.0,655.2742335639223,930.7417510480066,1085.9318640679644
36364,7311,36364,60399,36364.0,99989.0,652.52567665515,923.4023588144028,1078.5267816996793
36364,7314,36364,60360,36364.0,100000.0,649.4918234600547,915.7554670080574,1070.7378600880636
36364,7325,36364,60445,36364.0,99989.0,646.1819197924381,907.8083867183539,1062.575229315944
36364,7323,36364,60446,36364.0,100004.0,642.604792471859,899.5672334080126,1054.0485547219107
36374,7330,36374,60431,36374.0,99993.0,638.7690801199494,891.0377705753623,1045.1673478072137
36374,7308,36374,60429,36374.0,99983.0,634.6834261553133,882.2261578967566,1035.9412365177943
36374,7299,36374,60393,36374.0,99963.0,630.3564920458216,873.1391220098498,1026.3800853100213
36374,7304,36374,60394,36374.0,99949.0,625.7968067286845,863.7837946041575,1016.4939120712141
36374,7309,36374,60413,36374.0,99972.0,621.0126785758844,854.1675555629319,1006.2927735925058
36374,7315,36374,60409,36374.0,99969.0,616.0123335509704,844.2981844839545,995.7869025913494
36384,7294,36384,60399,36384.0,99936.0,610.8041538171234,834.1842717695843,984.9870615530554
36384,7285,36384,60330,36384.0,99922.0,605.3967696351641,823.8354114339267,973.9046981966397
36384,7293,36384,60315,36384.0,99902.0,599.7989698763658,813.2618110797496,962.5517524600135
36384,7277,36384,60344,36384.0,99884.0,594.0196372904593,802.473624320448,950.9403635537601
36384,7272,36384,60352,36384.0,99906.0,588.0677669333265,791.48077028748,939.0827033566311
36384,7290,36384,60375,36384.0,99914.0,581.9524966374395,780.2934726237061,926.9911280151846
36395,7267,36395,60333,36395.0,99871.0,575.6832200634844,768.9230056360235,914.67861092458
36395,7260,36395,60288,36395.0,99854.0,569.2697253723037,757.3820158690772,902.158981113746
36395,7245,36395,60264,36395.0,99840.0,562.7221629120307,745.6841576720552,889.4467338858211
36395,7242,36395,60289,36395.0,99844.0,556.0508861259532,733.8434713805005,876.5567836068968
36395,7245,36395,60294,36395.0,99862.0,549.2663555835805,721.8742220956997,863.5045406583441
36395,7239,36395,60284,36395.0,99817.0,542.3791907971784,709.7913099134278,850.306275641776
36405,7226,36405,60262,36405.0,99804.0,535.4002925838939,697.6107350892764,836.9793655920794
36405,7201,36405,60191,36405.0,99774.0,528.3408514709859,685.3496258905857,823.5421545383444
36405,7203,36405,60193,36405.0,99755.0,521.2121709617907,673.0257132653717,810.0136099862738
36405,7208,36405,60198,36405.0,99762.0,514.0254975550488,660.656682830935,796.4130499572732
36405,7191,36405,60238,36405.0,99743.0,506.79204940643797,648.2600896537263,782.7600917523117
36405,7178,36405,60195,36405.0,99733.0,499.5231076798209,635.8539182209299,769.0747813419517
36415,7177,36415,60141,36415.0,99697.0,492.22997797190925,623.4570463507753,755.3776619244478
36415,7160,36415,60123,36415.0,99667.0,484.9238942991905,611.0889749848731,741.6895968449307
36415,7146,36415,60107,36415.0,99665.0,477.61593408870834,598.769118716132,728.0314028766015
36415,7151,36415,60132,36415.0,99649.0,470.3169073837926,586.5163748468291,714.4235623472425
36415,7144,36415,60129,36415.0,99656.0,463.03730692722576,574.3492597443341,700.8862036693195
36415,7146,36415,60115,36415.0,99628.0,455.7874017445632,562.2863811778433,687.4392646150243
36426,7107,36426,60069,36426.0,99603.0,448.5773342508899,550.346750221455,674.1025988849449
36426,7101,36426,60009,36426.0,99595.0,441.41700198701994,538.5495253509705,660.895871521144
36426,7098,36426,60033,36426.0,99574.0,434.3157621090665,526.9132751420747,647.8383619216502
36426,7094,36426,60079,36426.0,99546.0,427.2822436578237,515.4555097547825,634.9488033396856
36426,7101,36426,60061,36426.0,99576.0,420.32439277764223,504.1930978396,622.2452643166982
36426,7086,36426,60020,36426.0,99555.0,413.4496393009311,493.1430320097653,609.7452353637842
36436,7082,36436,59977,36436.0,99509.0,406.66503670788177,482.3225689192152,597.4658676890267
36436,7070,36436,59931,36436.0,99491.0,399.9772922466888,471.74858756799506,585.4238959237787
36436,7071,36436,59942,36436.0,99484.0,393.39273353044473,461.43669144908927,573.6352038200209
36436,7081,36436,59998,36436.0,99493.0,386.9173429346783,451.40075622899406,562.1145383088101
36436,7066,36436,59978,36436.0,99487.0,380.5569263721584,441.6533433939828,550.8756243726846
36436,7047,36436,59953,36436.0,99464.0,374.31726649432284,432.2064815741435,539.9314556210252
36446,7037,36446,59907,36446.0,99427.0,368.20405371094273,423.07191255371146,529.2943796623734
36446,7028,36446,59865,36446.0,99411.0,362.22265555278955,414.2605809896951,518.97580785995
36446,7030,36446,59887,36446.0,99436.0,356.3779387091419,405.78182684688977,508.98583036938896
36446,7028,36446,59916,36446.0,99415.0,350.6742447541193,397.64296826627316,499.3331671434999
36446,7026,36446,59914,36446.0,99418.0,345.1154890488631,389.84963478964823,490.0254242218788
36446,7008,36446,59891,36446.0,99390.0,339.70526530231876,382.4064075062383,481.0692867043214
36457,6997,36457,59829,36457.0,99368.0,334.446820073748,375.31700906289217,472.470464000521
36457,6989,36457,59855,36457.0,99364.0,329.34288293476857,368.5838531574984,464.23343368524775
36457,6999,36457,59868,36457.0,99372.0,324.3955080134019,362.20756253620016,456.3612144795462
36457,7003,36457,59865,36457.0,99369.0,319.6061049198509,356.1870483683316,448.85540701252876
36457,6986,36457,59859,36457.0,99339.0,314.9756306547971,350.51991825085173,441.7163828665996
36457,6976,36457,59846,36457.0,99325.0,310.5046996067005,345.2027130152989,434.94327579656215
36467,6964,36467,59804,36467.0,99308.0,306.19347399311437,340.23082467968135,428.5336921382567
36467,6967,36467,59801,36467.0,99335.0,302.04146626820864,335.59810577627053,422.48342780441595
36467,6971,36467,59862,36467.0,99334.0,298.0474497932635,331.2964980497531,416.78651169388536
36467,6984,36467,59880,36467.0,99348.0,294.20957087726015,327.31630605423754,411.4355837436521
36467,6967,36467,59858,36467.0,99321.0,290.52559746654475,323.64706531200477,406.42231032546175
36467,6954,36467,59827,36467.0,99317.0,286.99307586059786,320.2781331168792,401.73754782825324
36478,6944,36478,59788,36478.0,99299.0,283.60923160322614,317.19847614743975,397.3712202891208
36478,6945,36478,59817,36478.0,99310.0,280.3707360519178,314.39600129063257,393.3121096934086
36478,6954,36478,59863,36478.0,99331.0,277.2735815628747,311.85721119210103,389.5478243772408
36478,6957,36478,59882,36478.0,99319.0,274.3131706335714,309.56767668928853,386.0650571989436
36478,6946,36478,59830,36478.0,99319.0,271.4845159217752,307.5128793173929,382.8499193629286
36478,6927,36478,59800,36478.0,99298.0,268.7823205838987,305.67846308124365,379.8880589068925
36488,6943,36488,59795,36488.0,99288.0,266.20085814422396,304.04966120890276,377.1645218014734
36488,6956,36488,59843,36488.0,99316.0,263.7339030070356,302.61066331940907,374.6635463561337
36488,6943,36488,59836,36488.0,99324.0,261.37491214430565,301.3446317884055,372.36860509165126
36488,6949,36488,59853,36488.0,99318.0,259.1172618577009,300.23420592585484,370.26275732272353
36488,6932,36488,59824,36488.0,99314.0,256.9543192386991,299.26191369878256,368.3289729965815
36488,6923,36488,59818,36488.0,99293.0,254.87935461060204,298.4102062112555,366.55017739044865
36498,6928,36498,59807,36498.0,99310.0,252.88536599760027,297.66118835893906,364.9091001893493
36498,6938,36498,59864,36498.0,99314.0,250.96497368985388,296.9963983539361,363.3881824610837
36498,6943,36498,59880,36498.0,99333.0,249.11053083899515,296.39708394021346,361.96973231607944
36498,6926,36498,59863,36498.0,99314.0,247.31433699313462,295.84490910944453,360.63623672622276
36498,6933,36498,59844,36498.0,99289.0,245.56872816006242,295.32243016081225,359.3705042532714
36498,6936,36498,59805,36498.0,99306.0,243.86605376434818,294.8129187355282,358.1554753301088
36509,6918,36509,59833,36509.0,99299.0,242.19868038166237,294.2997833317533,356.9739718295697
36509,6927,36509,59863,36509.0,99313.0,240.55897999950312,293.76621112645324,355.8086778890899
36509,6929,36509,59870,36509.0,99316.0,238.9392828139059,293.1954272919272,354.6423039774636
36509,6927,36509,59852,36509.0,99329.0,237.33191420762148,292.5712445057908,353.4578275041762
36509,6917,36509,59845,36509.0,99312.0,235.7292736590046,291.87830619500545,352.23874171988274
36509,6917,36509,59831,36509.0,99298.0,234.12381821619732,291.1019208238053,350.9691434625255
36519,6917,36519,59841,36519.0,99309.0,232.50798316147143,290.22777509020847,349.63359147495225
36519,6926,36519,59877,36519.0,99327.0,230.87416962745002,289.2418503022417,348.2169968675012
36519,6930,36519,59879,36519.0,99339.0,229.2148601206412,288.13074072059055,346.7048275203845
36519,6935,36519,59870,36519.0,99292.0,227.522825768962,286.8821739681485,345.08344072934426
36519,6920,36519,59846,36519.0,99303.0,225.791314228821,285.4852624080046,343.3400932719235
36519,6901,36519,59810,36519.0,99292.0,224.0140586093565,283.93025720309663,341.4626293346799
36529,6918,36529,59845,36529.0,99312.0,222.1850833470214,282.20801385416354,339.439271694929
36529,6915,36529,59866,36529.0,99330.0,220.29855412751147,280.30971998615223,337.25874725492184
36529,6917,36529,59882,36529.0,99319.0,218.34884204116153,278.2272398300388,334.9106582628448
36529,6901,36529,59831,36529.0,99302.0,216.33063419138622,275.9536689140946,332.38579399905893
36529,6903,36529,59808,36529.0,99281.0,214.23890880244977,273.48337877911274,329.67608577320976
36529,6893,36529,59814,36529.0,99279.0,212.06881547214675,270.8114709908265,326.77426219297564
36540,6902,36540,59854,36540.0,99288.0,209.81558215518294,267.9333286980786,323.6735307862604
36540,6914,36540,59849,36540.0,99302.0,207.4745481963654,264.84480218248945,320.3675513204094
36540,6898,36540,59844,36540.0,99299.0,205.04133773253406,261.5427411787217,316.85070103748683
36540,6891,36540,59786,36540.0,99260.0,202.5119935007809,258.02521436210793,313.1183244018824
36540,6884,36540,59794,36540.0,99250.0,199.88290929525374,254.29114492441033,309.1666133881792
36540,6886,36540,59762,36540.0,99247.0,197.15067250446225,250.339671930899,304.99217917180414
36550,6892,36550,59809,36550.0,99288.0,194.3120070755073,246.16972723877313,300.59180306305757
36550,6896,36550,59843,36550.0,99254.0,191.36387570307195,241.78017406305932,295.962646067581
36550,6880,36550,59795,36550.0,99244.0,188.30365027990018,237.17045055724213,291.10255695326043
36550,6865,36550,59770,36550.0,99220.0,185.12915238042612,232.34100406572642,286.01001345669033
36550,6861,36550,59729,36550.0,99215.0,181.83847684169456,227.29294537361358,280.68376955167116
36550,6867,36550,59756,36550.0,99218.0,178.42977457613114,222.0273074466686,275.122552861858
36560,6881,36560,59832,36560.0,99253.0,174.90123752467514,216.54478692295197,269.32506522448034
36560,6869,36560,59774,36560.0,99264.0,171.25131211749593,210.84636092385608,263.2904240557877
36560,6860,36560,59759,36560.0,99228.0,167.47891261782047,204.9340263323137,257.0188138493409
36560,6850,36560,59727,36560.0,99186.0,163.58343000059998,198.8107670163083,250.51173666462788
36560,6845,36560,59711,36560.0,99184.0,159.56458901621824,192.47995939652796,243.77160256023723
36560,6844,36560,59721,36560.0,99191.0,155.4223173801572,185.94483754673695,236.80116787706336
36571,6857,36571,59749,36571.0,99184.0,151.15673840218835,179.20835568267267,229.6033677004856
36571,6847,36571,59751,36571.0,99183.0,146.76832145942453,172.2735612624715,222.18147563094243
36571,6834,36571,59717,36571.0,99180.0,142.25805674121608,165.14415277912207,214.5392993499972
36571,6823,36571,59670,36571.0,99138.0,137.62745592382578,157.8246089532188,206.68126616388807
36571,6812,36571,59674,36571.0,99130.0,132.87837874166456,150.319711116392,198.61226483380648
36571,6816,36571,59682,36571.0,99130.0,128.01284730405337,142.63399088045762,190.337308308331
36581,6826,36581,59741,36581.0,99145.0,123.03300797169248,134.77176064789867,181.8613915883655
36581,6809,36581,59700,36581.0,99126.0,117.94127715348226,126.73779562081268,173.1897024113881
36581,6788,36581,59629,36581.0,99077.0,112.74045846181524,118.53790624310165,164.3278182974547
36581,6784,36581,59583,36581.0,99070.0,107.43361663245992,110.17853071790546,155.28147694842244
36581,6774,36581,59595,36581.0,99072.0,102.02382549390234,101.66558216631597,146.0561019544615
36581,6784,36581,59633,36581.0,99073.0,96.51403071049398,93.00368148602541,136.6566037196322
36591,6773,36591,59660,36591.0,99086.0,90.90709195940093,84.19642938495372,127.08759102013147
36591,6785,36591,59608,36591.0,99046.0,85.20593361447416,75.2472701957023,117.35372387820098
36591,6755,36591,59592,36591.0,99057.0,79.41369456080253,66.15998810286351,107.4599020153126
36591,6732,36591,59570,36591.0,99003.0,73.53370502685294,56.93849163220955,97.41119159093216
36591,6739,36591,59569,36591.0,99017.0,67.56921747839561,47.58637196965594,87.21258315758689
36591,6764,36591,59584,36591.0,99025.0,61.523211214615515,38.106726748610754,76.86880934858385
36602,6736,36602,59619,36602.0,99028.0,55.398574118564284,28.502437394711365,66.38451152692528
36602,6733,36602,59574,36602.0,98994.0,49.19838421391569,18.776802783538358,55.764641910308455
36602,6720,36602,59534,36602.0,98975.0,42.92593880437468,8.933954374159725,45.01462949012699
36602,6703,36602,59516,36602.0,98939.0,36.5846079950818,-1.0214167962791976,34.14013554097363
36602,6708,36602,59531,36602.0,98974.0,30.17767641033194,-11.084630813220997,23.146691983634753
36602,6705,36602,59561,36602.0,98954.0,23.7082701375854,-21.25114270254744,12.03964739948276
36612,6707,36612,59554,36612.0,98947.0,17.17944569205298,-31.516027265131584,0.8244528955180499
36612,6693,36612,59485,36612.0,98918.0,10.59436197353574,-41.87339172252143,-10.493115077379343
36612,6670,36612,59434,36612.0,98887.0,3.956346908097146,-52.31651166003212,-21.907054168712023
36612,6665,36612,59431,36612.0,98894.0,-2.7312404915066963,-62.838743073935916,-33.41144469580814
36612,6666,36612,59472,36612.0,98872.0,-9.465217165286617,-73.43431220357911,-45.000682183511856
36612,6669,36612,59490,36612.0,98899.0,-16.242615478761905,-84.09819006074878,-56.66944181448412
36622,6660,36622,59463,36622.0,98888.0,-23.06052892450063,-94.82528254956242,-68.41236890327349
36622,6651,36622,59415,36622.0,98835.0,-29.915944261914348,-105.60985106845806,-80.22372222811708
36622,6630,36622,59365,36622.0,98820.0,-36.80571399482426,-116.44574862089803,-92.09740145116166
36622,6620,36622,59385,36622.0,98826.0,-43.72669559421547,-127.32719437120153,-104.02734060090648
36622,6618,36622,59387,36622.0,98813.0,-50.67595435822102,-138.2493016371152,-116.00772343415417
36622,6629,36622,59408,36622.0,98773.0,-57.65083775723281,-149.2079203559643,-128.03292778232765
36633,6621,36633,59388,36633.0,98788.0,-64.64882017405299,-160.19906333959455,-140.09755929220358
36633,6595,36633,59334,36633.0,98758.0,-71.66729216720307,-171.21850536128414,-152.19656867425647
36633,6588,36633,59319,36633.0,98744.0,-78.70356552008295,-182.2619579291233,-164.32528871298786
36633,6580,36633,59334,36633.0,98744.0,-85.7550719008689,-193.3255729897184,-176.47946810523774
36633,6585,36633,59346,36633.0,98734.0,-92.81949618420836,-204.4060937070306,-188.65526989974785
36633,6580,36633,59370,36633.0,98734.0,-99.89471904733895,-215.5003934060419,-200.8491213506474
36643,6573,36643,59325,36643.0,98733.0,-106.97865593699217,-226.60477111016854,-213.0574598347859
36643,6555,36643,59253,36643.0,98665.0,-114.06915235208828,-237.71467768008284,-225.2765530406826
36643,6525,36643,59251,36643.0,98670.0,-121.16407110075758,-248.8252652783409,-237.50266472602902
36643,6544,36643,59263,36643.0,98659.0,-128.26154731683158,-259.93220378181104,-249.73246295470983
36643,6530,36643,59286,36643.0,98663.0,-135.36015226801703,-271.0318698103566,-261.96318524114065
36643,6541,36643,59265,36643.0,98654.0,-142.45879804736148,-282.1208538709112,-274.1924473817851
36653,6527,36653,59241,36653.0,98650.0,-149.55651878509417,-293.19544142373877,-286.41794700758385
36653,6502,36653,59185,36653.0,98610.0,-156.6523409096652,-304.2516002254815,-298.63726835901355
36653,6507,36653,59175,36653.0,98597.0,-163.74534974880652,-315.2855044266522,-310.8479381177085
36653,6500,36653,59198,36653.0,98593.0,-170.83482298522983,-326.2941220010615,-323.0476676152366
36653,6510,36653,59200,36653.0,98569.0,-177.9202023170938,-337.2752848199964,-335.2345163920746
36653,6489,36653,59193,36653.0,98572.0,-185.0009154904974,-348.22723944657923,-347.4069083743493
36664,6475,36664,59142,36664.0,98549.0,-192.07626526232133,-359.14825548463136,-359.56359787061024
36664,6468,36664,59098,36664.0,98539.0,-199.1455107845237,-370.0367893779452,-371.703636034531
36664,6449,36664,59111,36664.0,98517.0,-206.20804834191114,-380.892126814269,-383.82639450042166
36664,6452,36664,59143,36664.0,98513.0,-213.26356599597494,-391.71481571600987,-395.9316482469152
36664,6452,36664,59123,36664.0,98520.0,-220.31210132333,-402.50639200434,-408.01958414593776
36664,6457,36664,59124,36664.0,98463.0,-227.35392940570102,-413.2687785814693,-420.0907028260094
36674,6422,36674,59082,36674.0,98473.0,-234.3893741635104,-424.00396460321065,-432.1458485974781
36674,6420,36674,59057,36674.0,98448.0,-241.41879599119403,-434.71412688293344,-444.18642004052356
36674,6423,36674,59064,36674.0,98442.0,-248.44275366133184,-445.4020071811651,-456.2145082644988
36674,6419,36674,59096,36674.0,98459.0,-255.46205311849127,-456.0710798540731,-468.23284744161833
36674,6417,36674,59115,36674.0,98441.0,-262.4776021968137,-466.7251050301177,-480.24456743099813
36674,6408,36674,59058,36674.0,98417.0,-269.490241229704,-477.3673444584166,-492.2528799515452
36684,6382,36684,59007,36684.0,98399.0,-276.5006871378332,-488.00027166320103,-504.26100176414593
36684,6371,36684,58989,36684.0,98377.0,-283.50966787086674,-498.6261446190499,-516.2723471415242
36684,6377,36684,59013,36684.0,98377.0,-290.518160159285,-509.2477952973504,-528.2907547704752
36684,6377,36684,59034,36684.0,98383.0,-297.52747151584447,-519.8687900916051,-540.3205364852186
36684,6362,36684,59025,36684.0,98386.0,-304.5391077672844,-530.4928861514738,-552.3662364043951
36684,6368,36684,58984,36684.0,98358.0,-311.5546243999661,-541.1234250343524,-564.4322339022019
36695,6344,36695,58947,36695.0,98326.0,-318.5755648829111,-551.7632807932591,-576.522548470011
36695,6332,36695,58931,36695.0,98310.0,-325.6034960382911,-562.4153704897634,-588.6410325118176
36695,6326,36695,58977,36695.0,98313.0,-332.64015862307804,-573.0831401580339,-600.7917010028204
36695,6338,36695,58985,36695.0,98321.0,-339.68758736291136,-583.7704028180956,-612.9787971889535
36695,6337,36695,58964,36695.0,98304.0,-346.7480020578517,-594.4806114025654,-625.206515273658
36695,6316,36695,58904,36695.0,98281.0,-353.8235526685789,-605.2163618014506,-637.4786895866526
36705,6309,36705,58870,36705.0,98250.0,-360.916197587179,-615.979692559598,-649.7987718743419
36705,6289,36705,58878,36705.0,98239.0,-368.02780609236515,-626.772873535833,-662.1700965892692
36705,6300,36705,58920,36705.0,98238.0,-375.1603210048957,-637.5988436093477,-674.5961588404496
36705,6315,36705,58909,36705.0,98238.0,-382.31574673121,-648.4608379730771,-687.0806418117064
36705,6298,36705,58930,36705.0,98237.0,-389.4958695430346,-659.3615732400069,-699.6271692512134
36705,6268,36705,58841,36705.0,98202.0,-396.7019893043563,-670.3026783307665,-712.2389994547644
36716,6265,36716,58842,36716.0,98191.0,-403.93499448035436,-681.284804137521,-724.9189277600614
36716,6256,36716,58835,36716.0,98209.0,-411.19563872647274,-692.3082034687618,-737.6693529277296
36716,6265,36716,58875,36716.0,98196.0,-418.48467094812423,-703.373012238389,-750.4921551947292
36716,6276,36716,58878,36716.0,98195.0,-425.8026953592625,-714.4788150042173,-763.3883211663505
36716,6258,36716,58819,36716.0,98185.0,-433.149848537771,-725.6239461451457,-776.357580598528
36716,6246,36716,58793,36716.0,98162.0,-440.52554035574724,-736.8053098758417,-789.3981865861304
36726,6225,36726,58789,36726.0,98135.0,-447.92846317911176,-748.0188446259436,-802.5068816682082
36726,6229,36726,58814,36726.0,98130.0,-455.3567803131531,-759.2599256049755,-815.6790559793344
36726,6228,36726,58777,36726.0,98116.0,-462.80824077094735,-770.5232483213974,-828.9089154174341
36726,6209,36726,58821,36726.0,98121.0,-470.28012733247385,-781.8024522424566,-842.189473795167
36726,6210,36726,58809,36726.0,98115.0,-477.76918569902034,-793.0896750010078,-855.5123509495008
36726,6192,36726,58728,36726.0,98076.0,-485.2716380413848,-804.3751587855143,-868.8675227470009
36736,6182,36736,58716,36736.0,98063.0,-492.7832466445507,-815.6474252189533,-882.2432822944106
36736,6187,36736,58754,36736.0,98078.0,-500.2993872965336,-826.8939178549681,-895.6263843491352
36736,6186,36736,58772,36736.0,98063.0,-507.8150293489848,-838.1011149674589,-909.0019968975373
36736,6177,36736,58754,36736.0,98062.0,-515.3245720074406,-849.2538519808164,-922.3533834312168
36736,6171,36736,58681,36736.0,98009.0,-522.8216746289716,-860.3347464432667,-935.6616624602742
36736,6139,36736,58664,36736.0,97998.0,-530.2992309657438,-871.3244545771541,-948.9059200332033
36747,6134,36747,58666,36747.0,97985.0,-537.7495401768325,-882.202438196217,-962.063566593996
36747,6143,36747,58676,36747.0,97993.0,-545.164539247822,-892.9474027672894,-975.1105523207956
36747,6139,36747,58692,36747.0,97971.0,-552.5358258878139,-903.5370895530784,-988.0212656120024
36747,6151,36747,58708,36747.0,97962.0,-559.8544195485275,-913.947659302297,-1000.7683279897656
36747,6125,36747,58614,36747.0,97929.0,-567.1104611883073,-924.1531275987232,-1013.3225351690396
36747,6107,36747,58603,36747.0,97908.0,-574.2930888501452,-934.125463808598,-1025.6530160095044
36757,6106,36757,58614,36757.0,97923.0,-581.3905743707229,-943.8353038736865,-1037.727474705863
36757,6118,36757,58646,36757.0,97926.0,-588.39047670199,-953.2523327765307,-1049.5121954428387
36757,6118,36757,58651,36757.0,97917.0,-595.2795228331273,-962.3448438389338,-1060.9716911628575
36757,6106,36757,58623,36757.0,97892.0,-602.0433017132765,-971.0789918864991,-1072.0683213359011
36757,6084,36757,58570,36757.0,97861.0,-608.6660852838805,-979.4184880645332,-1082.7622320113323
36757,6079,36757,58541,36757.0,97814.0,-615.1309167256887,-987.3250369138293,-1093.0117043668747
36767,6068,36767,58575,36767.0,97832.0,-621.4198207216798,-994.7590898728023,-1102.7737410249301
36767,6069,36767,58555,36767.0,97849.0,-627.5139420059867,-1001.6801899239072,-1112.0044179303854
36767,6074,36767,58592,36767.0,97811.0,-633.3935399252889,-1008.0467447390698,-1120.6587239056812
36767,6057,36767,58546,36767.0,97817.0,-639.0378699787212,-1013.8156202121077,-1128.6902920242828
36767,6034,36767,58502,36767.0,97778.0,-644.4251290395264,-1018.9420373724324,-1136.05142900508
36767,6023,36767,58480,36767.0,97774.0,-649.5326430167878,-1023.3800837044878,-1142.6933712746277
36778,6031,36778,58524,36778.0,97754.0,-654.3371701666815,-1027.083465928999,-1148.566613411752
36778,6026,36778,58517,36778.0,97752.0,-658.8150334164926,-1030.0057387362049,-1153.6212032917797
36778,6025,36778,58512,36778.0,97729.0,-662.9420440011806,-1032.0999826339905,-1157.8069610060468
36778,6010,36778,58467,36778.0,97715.0,-666.6934114556606,-1033.3186123835208,-1161.0737162607784
36778,5999,36778,58421,36778.0,97718.0,-670.043788477532,-1033.6137931144121,-1163.3716083733084
36778,5987,36778,58406,36778.0,97676.0,-672.9674615804105,-1032.9384029177209,-1164.6513938205635
36788,6001,36788,58434,36788.0,97701.0,-675.4385669329702,-1031.247019310258,-1164.8647771150015
36788,5982,36788,58461,36788.0,97691.0,-677.4311844820515,-1028.4963037309017,-1163.964693742557
36788,5975,36788,58465,36788.0,97680.0,-678.9193739301477,-1024.6447025608707,-1161.905429346412
36788,5967,36788,58408,36788.0,97658.0,-679.8773233966026,-1019.6520934230138,-1158.6427790476992
36788,5958,36788,58380,36788.0,97631.0,-680.2795933862035,-1013.4801025960826,-1154.134503366667
36788,5947,36788,58374,36788.0,97658.0,-680.1013719009535,-1006.0931090027506,-1148.3409668158547
36798,5958,36798,58422,36798.0,97646.0,-679.3187152058939,-997.4591872264963,-1141.2256104212463
36798,5946,36798,58435,36798.0,97664.0,-677.9087102893823,-987.5503451325043,-1132.7551279046077
36798,5945,36798,58408,36798.0,97622.0,-675.8495719320782,-976.3422736579358,-1122.8996097886925
36798,5947,36798,58383,36798.0,97630.0,-673.1207702383597,-963.814400948206,-1111.6329580315896
36798,5931,36798,58377,36798.0,97621.0,-669.7031994513137,-949.9505936304349,-1098.9335397714508
36798,5947,36798,58384,36798.0,97637.0,-665.5793704992595,-934.7400910177663,-1084.7847916249793
36809,5938,36809,58411,36809.0,97666.0,-660.7335894381777,-918.1781708722845,-1069.1755647637588
36809,5962,36809,58482,36809.0,97687.0,-655.1520454519027,-900.2662920757955,-1052.1001607050914
36809,5953,36809,58475,36809.0,97663.0,-648.8228028448859,-881.0116961442786,-1033.5582443566423
36809,5957,36809,58459,36809.0,97691.0,-641.7357946116821,-860.4269795403376,-1013.5550048370711
36809,5956,36809,58475,36809.0,97709.0,-633.8829292725508,-838.5302679500783,-992.1015478894045
36809,5970,36809,58549,36809.0,97759.0,-625.2582748717468,-815.3457087931529,-969.215100804355
36819,5984,36819,58608,36819.0,97815.0,-615.858168618822,-790.9034091535796,-944.9187846208829
36819,5996,36819,58650,36819.0,97838.0,-605.6811876036832,-765.2386260963553,-919.2410380432506
36819,5996,36819,58648,36819.0,97858.0,-594.7280737937893,-738.3908721812719,-892.2150485052023
36819,6000,36819,58669,36819.0,97877.0,-583.0017671611186,-710.4035806059683,-863.8785415921225
36819,6006,36819,58722,36819.0,97924.0,-570.507589411009,-681.3242598963407,-834.2738569179642
36819,6038,36819,58762,36819.0,97977.0,-557.2534365542895,-651.2045640255496,-803.4479307996639
36829,6064,36829,58843,36829.0,98019.0,-543.2497656335449,-620.0999344140225,-771.4519678203033
36829,6064,36829,58890,36829.0,98076.0,-528.5093672520059,-588.0688647579877,-738.3409130909802
36829,6079,36829,58871,36829.0,98107.0,-513.0472008162685,-555.1721491439909,-704.1729218832797
36829,6093,36829,58922,36829.0,98133.0,-496.8804458815024,-521.4726599889598,-669.0089806842401
36829,6128,36829,58982,36829.0,98182.0,-480.02858293191133,-487.0355627719764,-632.9127729087897
36829,6153,36829,59076,36829.0,98275.0,-462.51329054870916,-451.9281681772375,-595.9505424264687
36840,6172,36840,59118,36840.0,98309.0,-444.3581805958237,-416.21909574558083,-558.1905642893489
36840,6197,36840,59134,36840.0,98345.0,-425.58854476278725,-379.97730540860226,-519.7024067025544
36840,6215,36840,59161,36840.0,98381.0,-406.23119872217114,-343.27167466090896,-480.5565162942505
36840,6223,36840,59170,36840.0,98420.0,-386.31441903628826,-306.1712081852743,-440.8241851476145
36840,6251,36840,59243,36840.0,98492.0,-365.86798813407336,-268.74546081155205,-400.57755125807097
36840,6288,36840,59342,36840.0,98549.0,-344.9232432314222,-231.06458469195536,-359.8893407159426
36850,6311,36850,59362,36850.0,98586.0,-323.5129501424757,-193.19868273952247,-318.83236344528234
36850,6326,36850,59397,36850.0,98629.0,-301.671071797252,-155.21698211067363,-277.4790819192836
36850,6345,36850,59398,36850.0,98652.0,-279.432665156453,-117.18758031427865,-235.9014812004915
36850,6372,36850,59444,36850.0,98705.0,-256.8339357793797,-79.17778396785485,-194.17116915329763
36850,6415,36850,59530,36850.0,98786.0,-233.91225260810555,-41.25445516166769,-152.35941915149624
36850,6450,36850,59606,36850.0,98822.0,-210.70594775526052,-3.4837520845819654,-110.53686761633298
36860,6469,36860,59630,36860.0,98867.0,-187.25395675071593,34.069728132773264,-68.77301788117472
36860,6483,36860,59636,36860.0,98889.0,-163.59555906790803,71.34364759981344,-27.135977125948614
36860,6512,36860,59662,36860.0,98938.0,-139.77036337825035,108.27789624752609,14.307478730050832
36860,6539,36860,59699,36860.0,98982.0,-115.81838853002009,144.81409388884236,55.49175520657553
36860,6582,36860,59779,36860.0,99058.0,-91.78002445364515,180.8952712524399,96.35247987940915
36860,6609,36860,59838,36860.0,99105.0,-67.69581300914797,216.46612853390906,136.8268630553548
36871,6636,36871,59926,36871.0,99163.0,-43.60615270237636,251.47384902257124,176.8542591640383
36871,6666,36871,59879,36871.0,99175.0,-19.551067619571597,285.8690061559736,216.37663340936348
36871,6674,36871,59884,36871.0,99208.0,4.429906085780203,319.60577038451584,255.33867660485157
36871,6713,36871,59947,36871.0,99247.0,28.297723520746104,352.64122721760543,293.68759031050513
36871,6761,36871,60023,36871.0,99311.0,52.013863089075016,384.93480968190875,331.37289416857095
36871,6786,36871,60062,36871.0,99353.0,75.54059289511736,416.4486358371995,368.34656070929
36881,6806,36881,60094,36881.0,99400.0,98.84136145657078,447.1482892320332,404.56339831333366
36881,6812,36881,60060,36881.0,99398.0,121.88098205586152,477.00320772633904,439.9813459245278
36881,6843,36881,60080,36881.0,99424.0,144.62553298794433,505.9863155009732,474.561385512686
36881,6874,36881,60126,36881.0,99482.0,167.0422116204786,534.0732392342012,508.2671728144999
36881,6893,36881,60171,36881.0,99513.0,189.0993538339431,561.2418682256002,541.0648530761655
36881,6936,36881,60204,36881.0,99549.0,210.7665895496532,587.4725304422309,572.9232127337707
36891,6957,36891,60252,36891.0,99600.0,232.0150645404952,612.7484391490748,603.813919212613
36891,6971,36891,60226,36891.0,99588.0,252.81767688954125,637.0560404180316,633.7116920060637
36891,6972,36891,60218,36891.0,99620.0,273.1491468953593,660.384911954858,662.59425214901
36891,7007,36891,60275,36891.0,99656.0,292.98585047246706,682.7271691652899,690.4420347188286
36891,7033,36891,60342,36891.0,99695.0,312.30566578532205,704.0770992478523,717.238027334593
36891,7058,36891,60343,36891.0,99731.0,331.08805446852614,724.4315598580345,742.9679376639754
36902,7074,36902,60315,36902.0,99729.0,349.31427291726584,743.7905010105083,767.620451690879
36902,7073,36902,60306,36902.0,99731.0,366.9674775378875,762.156734051079,791.1872229856942
36902,7092,36902,60297,36902.0,99757.0,384.0326152854061,779.5350205590685,813.6624982330502
36902,7110,36902,60361,36902.0,99782.0,400.49621134031827,795.9312035677835,835.0427051115794
36902,7139,36902,60398,36902.0,99838.0,416.3462770244777,811.35200224182,855.326377106165
36902,7168,36902,60406,36902.0,99824.0,431.5724416042058,825.8054860167551,874.5144133479075
36912,7165,36912,60395,36912.0,99824.0,446.16620515930254,839.3015702742443,892.610252597027
36912,7165,36912,60381,36912.0,99836.0,460.12104572229566,851.85196057689,909.6196193327578
36912,7174,36912,60372,36912.0,99825.0,473.43222311399506,863.4695937133829,925.5500219550177
36912,7205,36912,60421,36912.0,99883.0,486.0964982510819,874.1680183765559,940.4103570699867
36912,7209,36912,60435,36912.0,99903.0,498.1120655695472,883.9612027797211,954.210876635999
36912,7224,36912,60453,36912.0,99912.0,509.47865617353204,892.8638355594287,966.9635358966561
36922,7219,36922,60421,36922.0,99870.0,520.1975790418514,900.8916419150144,978.6822340531858
36922,7218,36922,60414,36922.0,99885.0,530.2715889978393,908.0612571488689,989.3824899302185
36922,7238,36922,60450,36922.0,99903.0,539.7046421146842,914.389772452718,999.0808334859337
36922,7246,36922,60473,36922.0,99921.0,548.5017266766722,919.894537260381,1007.794511692598
36922,7259,36922,60462,36922.0,99934.0,556.668874804771,924.5934382016931,1015.5416114667776
36922,7271,36922,60473,36922.0,99915.0,564.2132655431318,928.505214949178,1022.3412489902755
36933,7253,36933,60429,36933.0,99914.0,571.1432856462529,931.6494379891592,1028.2135131839323
36933,7258,36933,60422,36933.0,99918.0,577.4684183175162,934.0461072381597,1033.1791667653201
36933,7267,36933,60419,36933.0,99939.0,583.1989839148973,935.7150246800347,1037.2594017302972
36933,7262,36933,60490,36933.0,99956.0,588.3459387398025,936.6754220287801,1040.475895483563
36933,7282,36933,60463,36933.0,99938.0,592.9208044324921,936.9462495474705,1042.8510758654372
36933,7269,36933,60474,36933.0,99903.0,596.9356608393125,936.5467773198772,1044.4081957006374
36943,7253,36943,60429,36943.0,99904.0,600.4030825812649,935.4968304118512,1045.170946990162
36943,7268,36943,60393,36943.0,99918.0,603.3359056073941,933.8164286171703,1045.1629216038043
36943,7274,36943,60472,36943.0,99917.0,605.7469912979229,931.5251822770374,1044.4074013809495
36943,7279,36943,60454,36943.0,99922.0,607.6492184084107,928.6421761160636,1042.9274789039819
36943,7296,36943,60425,36943.0,99915.0,609.0556437520976,925.1864214108347,1040.7462228472968
36943,7272,36943,60424,36943.0,99894.0,609.9796713291156,921.1770663849958,1037.8867191851123
36954,7268,36954,60406,36954.0,99872.0,610.4350655579002,916.6331314867115,1034.3718923972883
36954,7267,36954,60381,36954.0,99882.0,610.4357454405401,911.5731655794007,1030.2241504507622
36954,7276,36954,60408,36954.0,99895.0,609.9955737330349,906.0149661187879,1025.4651664949613
36954,7280,36954,60440,36954.0,99895.0,609.1283470916236,899.9755812808971,1020.1160312996366
36954,7271,36954,60412,36954.0,99895.0,607.8479199649687,893.4717877406348,1014.1976138348091
36954,7264,36954,60362,36954.0,99845.0,606.1682675085899,886.5205214261578,1007.7307711097937
36964,7242,36964,60335,36964.0,99836.0,604.1033696977759,879.1386090669303,1000.7361556531351
36964,7249,36964,60347,36964.0,99835.0,601.6669546392914,871.3420367649835,993.2337555502178
36964,7256,36964,60370,36964.0,99858.0,598.8722969331742,863.1455503721284,985.2426581372775
36964,7263,36964,60375,36964.0,99845.0,595.7322628957028,854.5629372630664,976.7812795537278
36964,7249,36964,60372,36964.0,99817.0,592.2595293601975,845.6076551113248,967.867727643546
36964,7236,36964,60306,36964.0,99796.0,588.4667044597078,836.2932304564068,958.5198463185087
36974,7233,36974,60289,36974.0,99795.0,584.366232604838,826.6330380688964,948.7549468672979
36974,7227,36974,60334,36974.0,99806.0,579.9702269333513,816.6397480452381,938.5896303781853
36974,7239,36974,60350,36974.0,99798.0,575.2904109649954,806.3252962345406,928.0399516568036
36974,7242,36974,60352,36974.0,99813.0,570.3382439476784,795.7016244794683,917.1218107718036
36974,7228,36974,60315,36974.0,99772.0,565.1251627314599,784.7814880478533,905.8513369524225
36974,7214,36974,60251,36974.0,99748.0,559.6627252831573,773.5786235825274,894.2450154018135
36985,7202,36985,60244,36985.0,99739.0,553.96252392849,762.1071779923508,882.31946138739
36985,7203,36985,60270,36985.0,99737.0,548.0359934187475,750.381002935824,870.0911405863785
36985,7215,36985,60288,36985.0,99740.0,541.894344152151,738.4136036949975,857.576373111341
36985,7213,36985,60250,36985.0,99732.0,535.5487375556945,726.2187258018774,844.7916065163856
36985,7196,36985,60222,36985.0,99694.0,529.010567673691,713.8108018684919,831.7536961933116
36985,7174,36985,60197,36985.0,99665.0,522.2915632550214,701.2048149767909,818.4798910885376
36995,7163,36995,60174,36995.0,99673.0,515.403604736021,688.4158493392518,804.9875322899713
36995,7171,36995,60241,36995.0,99669.0,508.35846418373285,675.458849867528,791.293878788757
36995,7164,36995,60220,36995.0,99670.0,501.16773697161887,662.3490070468661,777.4163148436614
36995,7165,36995,60198,36995.0,99648.0,493.8429830210339,649.102548065996,763.3727299441144
36995,7148,36995,60125,36995.0,99612.0,486.39589509740665,635.737085765468,749.1817287964187
36995,7125,36995,60126,36995.0,99582.0,478.8383278404125,622.2711666775444,734.8624825457116
37004,7128,37004,60089,37004.0,99578.0,471.1821507223303,608.7235397094074,720.4343400314918
37004,7135,37004,60133,37004.0,99583.0,463.4391208522777,595.1127681812086,705.9165849891544
37004,7120,37004,60138,37004.0,99582.0,455.62097761425895,581.4574557936916,691.3285935610155
37004,7110,37004,60108,37004.0,99550.0,447.73961912116965,567.7769139052494,676.6902154267518
37004,7096,37004,60023,37004.0,99521.0,439.8071314231517,554.0915409713948,662.0219650840245
37004,7076,37004,60013,37004.0,99488.0,431.83566603697943,540.4223327117154,647.3448243094265
37015,7082,37015,60042,37015.0,99495.0,423.83727063950346,526.79004851369,632.6798676269061
37015,7081,37015,60049,37015.0,99476.0,415.823822288258,513.2150432345114,618.048072352695
37015,7071,37015,60049,37015.0,99479.0,407.80714575178894,499.7178750341197,603.4704218161982
37015,7051,37015,59979,37015.0,99414.0,399.7991526430068,486.31991349140844,588.968048112557
37015,7031,37015,59940,37015.0,99408.0,391.81178645757313,473.04325724446113,574.562079792862
37015,7028,37015,59905,37015.0,99396.0,383.8567933692512,459.9099564159172,560.2732524971182
37025,7019,37025,59938,37025.0,99391.0,375.94551874550837,446.94119682322224,546.121692662681
37025,7026,37025,59909,37025.0,99381.0,368.0888726889124,434.1570625015461,532.1270112510426
37025,7023,37025,59929,37025.0,99363.0,360.2974682845612,421.57681109775933,518.3084923265753
37025,6996,37025,59877,37025.0,99336.0,352.5818087517574,409.21920007547567,504.68517752495626
37025,6972,37025,59850,37025.0,99324.0,344.9522803084592,397.10250490575925,491.2757790021203
37025,6983,37025,59839,37025.0,99290.0,337.4188977917913,385.24416185271355,478.0984789355048
37035,6976,37035,59878,37035.0,99306.0,329.99111637605483,373.660453673449,465.1707384187658
37035,6977,37035,59863,37035.0,99279.0,322.67791143683064,362.36673347930366,452.5092527760131
37035,6966,37035,59821,37035.0,99274.0,315.487966380741,351.37793528707004,440.13005475287997
37035,6944,37035,59788,37035.0,99234.0,308.42975970522696,340.70865638665225,428.0485545759369
37035,6926,37035,59747,37035.0,99216.0,301.5114498201416,330.372622834603,416.2793524396753
37035,6920,37035,59743,37035.0,99207.0,294.740597832002,320.38193627798694,404.8359038717431
37046,6935,37046,59794,37046.0,99196.0,288.1239607565867,310.7466420041452,393.73027225782783
37046,6924,37046,59795,37046.0,99198.0,281.6675532407488,301.47503268921747,382.9730976098636
37046,6917,37046,59758,37046.0,99178.0,275.3768622220217,292.5744102671058,372.57370833307255
37046,6901,37046,59705,37046.0,99161.0,269.2569492220599,284.0514091359101,362.5402097006675
37046,6883,37046,59685,37046.0,99143.0,263.31235105106464,275.91148988460907,352.87941719026253
37046,6890,37046,59698,37046.0,99138.0,257.5468799454515,268.15815175540007,343.5966809649492
37056,6898,37056,59748,37056.0,99142.0,251.96353345963183,260.7926691105741,334.6957894840846
37056,6889,37056,59726,37056.0,99147.0,246.56464148260065,253.81460475649362,326.1790917059619
37056,6881,37056,59724,37056.0,99127.0,241.35208231184373,247.2225516502532,318.0477770458502
37056,6858,37056,59661,37056.0,99104.0,236.32732283691138,241.01439267006742,310.3020458779856
37056,6859,37056,59666,37056.0,99075.0,231.49125646232307,235.18692671168802,302.9409540028721
37056,6864,37056,59685,37056.0,99096.0,226.8440289523984,229.73533675454308,295.96206059150234
37066,6858,37066,59718,37066.0,99097.0,222.38504037558826,224.65315973571393,289.3612803345318
37066,6864,37066,59707,37066.0,99113.0,218.11308873991337,219.93286564334494,283.1331442701557
37066,6856,37066,59675,37066.0,99089.0,214.02652379515467,215.5664470117332,277.2712387157743
37066,6831,37066,59628,37066.0,99050.0,210.12331187606378,211.54540384536836,271.76839951699685
37066,6832,37066,59636,37066.0,99060.0,206.40091470045917,207.86012423008157,266.61646754244185
37066,6842,37066,59689,37066.0,99081.0,202.8560955166579,204.49934897429384,261.80597599578505
37077,6834,37077,59685,37077.0,99086.0,199.48490564773107,201.45037830254185,257.32627573876005
37077,6854,37077,59705,37077.0,99090.0,196.28286165534814,198.699816567023,253.16601798023277
37077,6828,37077,59640,37077.0,99064.0,193.2451574222665,196.23411267603825,249.31355147548106
37077,6820,37077,59617,37077.0,99028.0,190.36674737444653,194.03940895016774,245.7569269922124
37077,6823,37077,59637,37077.0,99050.0,187.64222409554046,192.1008546714349,242.48352358515473
37077,6823,37077,59665,37077.0,99079.0,185.06567667900563,190.40214569604387,239.47978275908582
37087,6833,37087,59700,37087.0,99023.0,182.6307262936383,188.92582487562106,236.73138079544924
37087,6824,37087,59679,37087.0,99061.0,180.33068855991687,187.65404834763444,234.22342886546045
37087,6824,37087,59649,37087.0,99028.0,178.15871520991865,186.5691099503476,231.94042414102228
37087,6808,37087,59624,37087.0,99024.0,176.1078160826225,185.6532892339831,229.86614463689563
37087,6820,37087,59658,37087.0,99056.0,174.17077988847626,184.88830493718842,227.98357125769542
37087,6816,37087,59694,37087.0,99071.0,172.34012551070973,184.2551192327624,226.2750278027155
37097,6825,37097,59702,37097.0,99067.0,170.60817514343123,183.73443534217694,224.72266696932624
37097,6824,37097,59723,37097.0,99050.0,168.96720903265185,183.30750259843967,223.30891436618583
37097,6808,37097,59652,37097.0,99033.0,167.40959076173175,182.95663257520482,222.01650683928926
37097,6802,37097,59646,37097.0,99011.0,165.92773988240245,182.6650342809086,220.82817019844654
37097,6809,37097,59641,37097.0,99063.0,164.51397237520476,182.41610660371586,219.72625867601118
37097,6807,37097,59698,37097.0,99058.0,163.160405485659,182.19293328369258,218.69278772977512
37108,6817,37108,59678,37108.0,99060.0,161.85902027597928,181.97847474009455,217.7098749253514
37108,6810,37108,59718,37108.0,99062.0,160.6018011974615,181.75614969380885,216.76013211400414
37108,6793,37108,59658,37108.0,99034.0,159.38081532820578,181.51026882079907,215.82676865692517
37108,6782,37108,59638,37108.0,99029.0,158.18809392162518,181.22597086421248,214.89343863408882
37108,6806,37108,59663,37108.0,99042.0,157.0153974717246,180.88869004438163,213.94396007577404
37108,6804,37108,59694,37108.0,99078.0,155.85416811150637,180.4837987926698,212.96226292031025
37118,6806,37118,59706,37118.0,99047.0,154.69573234589228,179.99693018722385,211.93273216508055
37118,6792,37118,59657,37118.0,99032.0,153.5314832157573,179.41454343742228,210.84051365080444
37118,6794,37118,59651,37118.0,99020.0,152.3528742026175,178.7239942198013,209.6713660953436
37118,6787,37118,59678,37118.0,99036.0,151.15131014730036,177.91314065674678,208.4112946081104
37118,6797,37118,59691,37118.0,99054.0,149.9180730719118,176.97018150602528,207.04644779150112
37118,6811,37118,59705,37118.0,99055.0,148.64438234508498,175.88401229747132,205.56339625737766
37128,6806,37128,59690,37128.0,99049.0,147.32161577890872,174.64471933535157,203.94951980058477
37128,6799,37128,59645,37128.0,99035.0,145.94154218324758,173.24374848829265,202.19319200582652
37128,6788,37128,59622,37128.0,99020.0,144.496367328864,171.6735082626053,200.28368376754847
37128,6800,37128,59636,37128.0,99023.0,142.97862596337652,169.92663409554507,198.21091156802527
37128,6801,37128,59686,37128.0,99025.0,141.38113666935828,167.99559611270018,195.9652433526484
37128,6797,37128,59691,37128.0,99041.0,139.69710277780837,165.87307961751532,193.53752422603162
37139,6796,37139,59676,37139.0,99028.0,137.92022600242595,163.55274797437121,190.91929394656196
37139,6785,37139,59621,37139.0,99010.0,136.0447237318595,161.02958874510455,188.1029637848632
37139,6782,37139,59605,37139.0,99003.0,134.06525827731338,158.2994871050398,185.08174052598673
37139,6774,37139,59645,37139.0,98993.0,131.97681671318904,155.35849620526795,181.84937273760087
37139,6794,37139,59686,37139.0,99017.0,129.77463255108978,152.2026788642578,178.39998260772194
37139,6786,37139,59644,37139.0,99026.0,127.45426476074515,148.82871094554716,174.72819199642777
37149,6791,37149,59604,37149.0,98993.0,125.0117958394548,145.23436825025135,170.82945991605237
37149,6776,37149,59572,37149.0,98990.0,122.44397503105024,141.41816646550026,166.70023496073497
37149,6756,37149,59590,37149.0,98964.0,119.74818134815467,137.37852863002104,162.3377487894076
37149,6767,37149,59636,37149.0,98986.0,116.92221864469454,133.11336655856522,157.73972195449343
37149,6771,37149,59642,37149.0,98984.0,113.96415531457782,128.62049114061497,152.90429584323357
37149,6765,37149,59613,37149.0,98980.0,110.87238677495917,123.89839623913448,147.83023127802363
37159,6757,37159,59577,37159.0,98954.0,107.64577306414616,118.94659462234,142.51710467839442
37159,6753,37159,59571,37159.0,98946.0,104.28365732721988,113.76527324407559,136.96524885664925
37159,6727,37159,59551,37159.0,98924.0,100.78575712996779,108.35472120183618,131.17548702843058
37159,6743,37159,59549,37159.0,98926.0,97.15197921561092,102.71492499617224,125.14884621056828
37159,6753,37159,59602,37159.0,98928.0,93.38232770633807,96.84548691171392,118.8864037834706
37159,6748,37159,59636,37159.0,98930.0,89.47707776778057,90.74612353037517,112.38935622810251
37170,6728,37170,59575,37170.0,98890.0,85.4370245041672,84.4176108150466,105.65917643515766
37170,6711,37170,59527,37170.0,98877.0,81.26347518269782,77.86224485241891,98.69754182143652
37170,6709,37170,59540,37170.0,98892.0,76.9579847603047,71.08334265024294,91.50603522862588
37170,6711,37170,59557,37170.0,98904.0,72.52210989723847,64.08460252062761,84.08606174378406
37170,6728,37170,59547,37170.0,98906.0,67.95740604092089,56.87010307644846,76.43920197333483
37170,6706,37170,59525,37170.0,98876.0,63.26564729151346,49.44463513986267,68.5676718533972
37180,6682,37180,59475,37180.0,98854.0,58.448975557049295,41.81371479136453,60.47445788704783
37180,6685,37180,59449,37180.0,98838.0,53.50974823490725,33.983068960525884,52.16306094999612
37180,6690,37180,59484,37180.0,98831.0,48.45030291143394,25.95795360567331,43.637131888806664
37180,6693,37180,59509,37180.0,98839.0,43.27297089334897,17.742992365198404,34.90029021488357
37180,6695,37180,59514,37180.0,98834.0,37.98031520932577,9.34277835551876,25.95621886752508
37180,6681,37180,59440,37180.0,98833.0,32.575378488654394,0.762581250822052,16.808935763440672
37190,6649,37190,59409,37190.0,98784.0,27.06174432949541,-7.991692496720987,7.462989044209451
37190,6657,37190,59429,37190.0,98769.0,21.443331107884177,-16.914223733055792,-2.07668719544489
37190,6654,37190,59427,37190.0,98785.0,15.72414072087443,-25.999788608357903,-11.805149588984591
37190,6650,37190,59477,37190.0,98779.0,9.90822724492773,-35.24352655589291,-21.717577151297462
37190,6644,37190,59453,37190.0,98791.0,3.9998105022198445,-44.64019912074525,-31.808984025140944
37190,6623,37190,59400,37190.0,98749.0,-1.9966740409653028,-54.18354489677711,-42.07383727622192
37201,6618,37201,59349,37201.0,98725.0,-8.076666083122888,-63.86638238641672,-52.50596643429304
37201,6612,37201,59364,37201.0,98725.0,-14.235641317496828,-73.6814043223743,-63.09882769767415
37201,6610,37201,59382,37201.0,98713.0,-20.46920077021136,-83.62178740936713,-73.84577492190527
37201,6610,37201,59388,37201.0,98723.0,-26.77303415285101,-93.68103893537278,-84.7400502363497
37201,6586,37201,59379,37201.0,98697.0,-33.14284034560032,-103.85239212790577,-95.77457950184703
37201,6583,37201,59313,37201.0,98676.0,-39.57434276488749,-114.12842234673542,-106.9418257965479
37211,6570,37211,59276,37211.0,98650.0,-46.06341999279783,-124.50133562609204,-118.23389139157467
37211,6572,37211,59274,37211.0,98633.0,-52.606220265161255,-134.9637861210328,-129.6428239398274
37211,6568,37211,59338,37211.0,98641.0,-59.19916483709116,-145.50941321752578,-141.16088833353098
37211,6561,37211,59331,37211.0,98618.0,-65.83886058890957,-156.13244083376946,-152.78061628143467
37211,6547,37211,59281,37211.0,98614.0,-72.52202115244665,-166.82679243659476,-164.49469861628086
37211,6543,37211,59250,37211.0,98579.0,-79.24547761821691,-177.58577025432322,-176.2959391376545
37222,6525,37222,59201,37222.0,98542.0,-86.00625667021941,-188.4025781610626,-188.17743010271505
37222,6522,37222,59219,37222.0,98585.0,-92.80168172944269,-199.271113710799,-200.13286460140637
37222,6527,37222,59279,37222.0,98562.0,-99.62943851453869,-210.18628278383983,-212.15656915400615
37222,6528,37222,59237,37222.0,98540.0,-106.4874938028158,-221.1434727734176,-224.24317376481798
37222,6517,37222,59198,37222.0,98524.0,-113.37387961122221,-232.13782802515868,-236.38741745442792
37222,6498,37222,59169,37222.0,98503.0,-120.28654321449073,-243.16424240635905,-248.58427360652786
37232,6488,37232,59155,37232.0,98483.0,-127.22340472702848,-254.21794369450345,-260.82916459711373
37232,6485,37232,59196,37232.0,98504.0,-134.1825292249282,-265.29490498277875,-273.11809385341473
37232,6491,37232,59173,37232.0,98481.0,-141.16220300870236,-276.39167041678695,-285.44754978316394
37232,6477,37232,59191,37232.0,98461.0,-148.16083514492374,-287.5048058624408,-297.81426265609286
37232,6460,37232,59112,37232.0,98435.0,-155.17684219389145,-298.6305149564603,-310.2151484675471
37232,6442,37232,59080,37232.0,98416.0,-162.208714500783,-309.7648537309424,-322.6475228657946
37242,6447,37242,59069,37242.0,98414.0,-169.25522362761046,-320.9044973881263,-335.1093606093758
37242,6453,37242,59095,37242.0,98419.0,-176.31551800972136,-332.0473935438298,-347.59935981927447
37242,6442,37242,59123,37242.0,98402.0,-183.38897938294497,-343.1926726665664,-360.116742285853
37242,6440,37242,59111,37242.0,98397.0,-190.4750019086469,-354.3399088722649,-372.6609699879799
37242,6420,37242,59041,37242.0,98351.0,-197.5728862732699,-365.48845560220127,-385.23162272375134
37242,6403,37242,59003,37242.0,98333.0,-204.68189937736975,-376.6375806959368,-397.82856841506805
37253,6400,37253,59027,37253.0,98328.0,-211.8014611865891,-387.7872410071253,-410.45232491361264
37253,6401,37253,59053,37253.0,98351.0,-218.93130091751777,-398.93851305513385,-423.104226780947
37253,6399,37253,59037,37253.0,98345.0,-226.07142877433586,-410.0931980669867,-435.78612180178413
37253,6387,37253,59013,37253.0,98302.0,-233.22198395765298,-421.2531923041895,-448.4998744410851
37253,6380,37253,58983,37253.0,98288.0,-240.38312893982095,-432.42030259197645,-461.24720842899353
37253,6352,37253,58951,37253.0,98275.0,-247.55508309532183,-443.5965474683152,-474.02993901012076
37263,6356,37263,58961,37263.0,98248.0,-254.73828758669282,-454.784612003172,-486.8502305329266
37263,6353,37263,58994,37263.0,98280.0,-261.9335598379791,-465.98800493122417,-499.7106749236931
37263,6362,37263,58988,37263.0,98254.0,-269.1420513992965,-477.2106265964402,-512.614112051246
37263,6357,37263,58951,37263.0,98231.0,-276.365005130277,-488.45609972778993,-525.5633072540593
37263,6335,37263,58912,37263.0,98211.0,-283.60350594559696,-499.72755706222597,-538.5608522349091
37263,6325,37263,58880,37263.0,98177.0,-290.8584315050694,-511.0280759306147,-551.6093823273603
37273,6320,37273,58941,37273.0,98209.0,-298.13059067275077,-522.3612213942124,-564.7118287531601
37273,6326,37273,58932,37273.0,98179.0,-305.42081901315555,-533.7309713153265,-577.8714002038233
37273,6322,37273,58943,37273.0,98177.0,-312.72988154377197,-545.1409847986469,-591.0913138902698
37273,6300,37273,58876,37273.0,98162.0,-320.05829402297303,-556.5939484919438,-604.3745714229303
37273,6273,37273,58823,37273.0,98130.0,-327.4063217864099,-568.0916603667077,-617.7239008459507
37273,6276,37273,58823,37273.0,98131.0,-334.77423504052774,-579.6358185124312,-631.1418242562759
37284,6279,37284,58846,37284.0,98114.0,-342.1625474014045,-591.2287539621129,-644.6307477108487
37284,6267,37284,58869,37284.0,98110.0,-349.57199684649845,-602.8733769265618,-658.192931681021
37284,6268,37284,58851,37284.0,98095.0,-357.0033884623005,-614.5724679046147,-671.8303622152312
37284,6255,37284,58793,37284.0,98073.0,-364.4574811006954,-626.3280866423006,-685.5446441619936
37284,6241,37284,58771,37284.0,98051.0,-371.9349523235498,-638.1416816881812,-699.3370135304207
37284,6222,37284,58776,37284.0,98042.0,-379.43647601530364,-650.0146697750612,-713.2084689365313
37294,6241,37294,58800,37294.0,98050.0,-386.962862048547,-661.9487260843024,-727.1598399618563
37294,6225,37294,58808,37294.0,98036.0,-394.51505560892883,-673.9454129815406,-741.1916163295001
37294,6229,37294,58807,37294.0,98010.0,-402.0939597272927,-686.0054325187162,-755.3036653682747
37294,6219,37294,58727,37294.0,97989.0,-409.70025098308827,-698.1280956100047,-769.4951372627337
37294,6200,37294,58698,37294.0,97962.0,-417.3342895386709,-710.3115259362785,-783.7646289255791
37294,6187,37294,58710,37294.0,97954.0,-424.99616800621925,-722.5534306306896,-798.1104365276283
37304,6191,37304,58733,37304.0,97947.0,-432.685858661389,-734.8515534360988,-812.5307064991332
37304,6170,37304,58710,37304.0,97955.0,-440.40330115012466,-747.203379353166,-827.0233535158934
37304,6177,37304,58675,37304.0,97916.0,-448.148398309468,-759.6056655894357,-841.585796124805
37304,6166,37304,58662,37304.0,97901.0,-455.9209747449865,-772.0544100576525,-856.2147933999978
37304,6152,37304,58618,37304.0,97888.0,-463.72071435883197,-784.5451988418959,-870.9065284234571
37304,6155,37304,58678,37304.0,97899.0,-471.54712945197235,-797.0735158734407,-885.656683707805
37315,6166,37315,58660,37315.0,97912.0,-479.3995007007766,-809.634589976945,-900.4601929868519
37315,6143,37315,58709,37315.0,97866.0,-487.2766746978231,-822.2226802749377,-915.3107383241107
37315,6127,37315,58620,37315.0,97859.0,-495.1768931224927,-834.8302655688636,-930.2004217374894
37315,6110,37315,58605,37315.0,97831.0,-503.09788023668375,-847.4478077419144,-945.119813921073
37315,6121,37315,58573,37315.0,97810.0,-511.0370551972107,-860.0642412092733,-960.0581577119609
37315,6115,37315,58621,37315.0,97808.0,-518.9915758185423,-872.6675208950035,-975.0035343532699
37325,6117,37325,58605,37325.0,97814.0,-526.958157205478,-885.2445390023852,-989.9428654057554
37325,6105,37325,58610,37325.0,97788.0,-534.9328353421434,-897.7805344154948,-1004.8616697467452
37325,6097,37325,58554,37325.0,97759.0,-542.9108194307927,-910.2586204904436,-1019.7438209517593
37325,6081,37325,58505,37325.0,97752.0,-550.886467514435,-922.6598951502326,-1034.5715706378537
37325,6076,37325,58486,37325.0,97759.0,-558.8533531598397,-934.9641358520838,-1049.325646038336
37325,6077,37325,58542,37325.0,97745.0,-566.804324221319,-947.1504688699029,-1063.9851006138329
37335,6072,37335,58564,37335.0,97735.0,-574.7314486601235,-959.1972060780297,-1078.526987132318
37335,6077,37335,58528,37335.0,97720.0,-582.6258436046824,-971.0809106263201,-1092.9261088881726
37335,6037,37335,58470,37335.0,97673.0,-590.4775174285171,-982.7757263360527,-1107.154973253515
37335,6021,37335,58432,37335.0,97658.0,-598.2754436961073,-994.253677858994,-1121.184015160994
37335,6027,37335,58474,37335.0,97639.0,-606.0078753939898,-1005.4854587666161,-1134.9819962899915
