c_ts,c_val,d_ts,d_val,e_ts,e_val,c_val_filtered,d_val_filtered,e_val_filtered
207403.0,17227.0,207403.0,29834.0,207403.0,19499.0,-93.91511347621886,-81.0804836988466,-74.97571820497373
207403.0,17235.0,207403.0,29820.0,207403.0,19515.0,-91.11110131235449,-74.8504673049626,-68.55767790284986
207403.0,17237.0,207403.0,29835.0,207403.0,19520.0,-88.18526341913054,-68.42039475620551,-61.926837631996534
207403.0,17244.0,207403.0,29880.0,207403.0,19532.0,-85.13860090159318,-61.79944087551516,-55.091683046458485
207403.0,17261.0,207403.0,29888.0,207403.0,19547.0,-81.97199687004547,-54.99753232098293,-48.06110869095562
207403.0,17255.0,207403.0,29878.0,207403.0,19534.0,-78.68608708538238,-48.024897335347475,-40.844341792170596
207414.0,17239.0,207414.0,29872.0,207414.0,19530.0,-75.28119112290375,-40.89190667310214,-33.451009942806934
207414.0,17239.0,207414.0,29854.0,207414.0,19523.0,-71.75748414393215,-33.60936929568702,-25.891449515187617
207414.0,17250.0,207414.0,29897.0,207414.0,19560.0,-68.11530807602628,-26.188978937676296,-18.17706628240819
207414.0,17267.0,207414.0,29908.0,207414.0,19572.0,-64.35531863474802,-18.64348620814873,-10.320416018053933
207414.0,17266.0,207414.0,29940.0,207414.0,19582.0,-60.47838115332735,-10.98644001975262,-2.3349682762313364
207414.0,17262.0,207414.0,29939.0,207414.0,19596.0,-56.48542768877921,-3.2317488749799566,5.76516373334087
207424.0,17264.0,207424.0,29925.0,207424.0,19588.0,-52.377477748052826,4.606580227295609,13.965339403569033
207424.0,17270.0,207424.0,29919.0,207424.0,19614.0,-48.15577605775388,12.51431524702889,22.250375838345462
207424.0,17281.0,207424.0,29969.0,207424.0,19624.0,-43.8218793738811,20.476665486079924,30.604533827157184
207424.0,17293.0,207424.0,29998.0,207424.0,19644.0,-39.3776133645476,28.47828169505351,39.011634695726684
207424.0,17292.0,207424.0,30001.0,207424.0,19658.0,-34.82494606023704,36.50375025640403,47.455280209576244
207424.0,17297.0,207424.0,29972.0,207424.0,19653.0,-30.165897212150227,44.53802541529922,55.919044511208114
207434.0,17290.0,207434.0,29974.0,207434.0,19666.0,-25.402566467313605,52.56629210172679,64.38652326856268
207434.0,17307.0,207434.0,29998.0,207434.0,19671.0,-20.537243866980205,60.57348244158945,72.84125270916135
207434.0,17292.0,207434.0,30010.0,207434.0,19691.0,-15.572517602186934,68.54401105846512,81.2666468036671
207434.0,17309.0,207434.0,30053.0,207434.0,19713.0,-10.511372878461273,76.46193000575633,89.6460705088013
207434.0,17307.0,207434.0,30062.0,207434.0,19716.0,-5.35729192195258,84.31136217311166,97.96304555911811
207434.0,17310.0,207434.0,30042.0,207434.0,19722.0,-0.11432264849715068,92.07692631151659,106.20143958980057
207445.0,17312.0,207445.0,30059.0,207445.0,19729.0,5.21285173993391,99.74381825047396,114.34549948651397
207445.0,17332.0,207445.0,30054.0,207445.0,19746.0,10.618840340707038,107.297585231569,122.37980233841495
207445.0,17343.0,207445.0,30089.0,207445.0,19758.0,16.09758684657541,114.72395203782074,130.2892783076208
207445.0,17359.0,207445.0,30099.0,207445.0,19766.0,21.642567201064367,122.00889771349611,138.05932412845291
207445.0,17351.0,207445.0,30094.0,207445.0,19770.0,27.24701126635091,129.1388861984535,145.67590249101374
207445.0,17356.0,207445.0,30104.0,207445.0,19777.0,32.90397872108433,136.10098622309488,153.12555088052744
207455.0,17357.0,207455.0,30094.0,207455.0,19777.0,38.606261075266644,142.88277364489312,160.39531449371475
207455.0,17376.0,207455.0,30134.0,207455.0,19817.0,44.346259783438995,149.47218866241013,167.4727048553163
207455.0,17387.0,207455.0,30149.0,207455.0,19826.0,50.116000564992376,155.85760127532228,174.34585657064082
207455.0,17403.0,207455.0,30169.0,207455.0,19817.0,55.907304415420754,162.02816632871225,181.0038380954075
207455.0,17393.0,207455.0,30157.0,207455.0,19834.0,61.71198604783257,167.97422162169653,187.43680930008037
207455.0,17395.0,207455.0,30140.0,207455.0,19833.0,67.52189789395337,173.68738337258867,193.63597154101438
207465.0,17397.0,207465.0,30151.0,207465.0,19840.0,73.32877945574245,179.160266499488,199.59350281059227
207465.0,17421.0,207465.0,30184.0,207465.0,19856.0,79.12409643187581,184.38617402268926,205.30253896425472
207465.0,17434.0,207465.0,30187.0,207465.0,19864.0,84.89908035513545,189.35914640861068,210.75722353961936
207465.0,17448.0,207465.0,30192.0,207465.0,19859.0,90.64497306477159,194.074263815826,215.95281222413388
207465.0,17442.0,207465.0,30187.0,207465.0,19854.0,96.35328404282086,198.52782299967868,220.8856722874475
207465.0,17437.0,207465.0,30175.0,207465.0,19859.0,102.01585650070416,202.71725344440534,225.55310630338425
207476.0,17446.0,207476.0,30170.0,207476.0,19871.0,107.62471415897406,206.6408335561125,229.95315813171032
207476.0,17463.0,207476.0,30200.0,207476.0,19870.0,113.17189135802687,210.29738104356306,234.08455302869868
207476.0,17484.0,207476.0,30232.0,207476.0,19878.0,118.64947544015635,213.68624741202268,237.9467254065196
207476.0,17488.0,207476.0,30217.0,207476.0,19889.0,124.04986166105726,216.807709699606,241.53985333484843
207476.0,17474.0,207476.0,30194.0,207476.0,19885.0,129.3659780393215,219.66329604344747,244.86491396923986
207476.0,17472.0,207476.0,30187.0,207476.0,19882.0,134.5912334955669,222.25560389496462,247.92371133149368
207486.0,17497.0,207486.0,30199.0,207486.0,19877.0,139.719272483808,224.58782130339836,250.71877724914265
207486.0,17506.0,207486.0,30222.0,207486.0,19891.0,144.74388441011095,226.6634672364608,253.25320003808912
207486.0,17518.0,207486.0,30228.0,207486.0,19893.0,149.659181374206,228.4865390440885,255.53054476986085
207486.0,17510.0,207486.0,30219.0,207486.0,19894.0,154.45981170706705,230.0618200579102,257.5548994283953
207486.0,17513.0,207486.0,30210.0,207486.0,19900.0,159.14099902743644,231.39499506826456,259.33093553728366
207486.0,17514.0,207486.0,30192.0,207486.0,19893.0,163.69841913292967,232.4924581716587,260.86392038997934
207496.0,17526.0,207496.0,30220.0,207496.0,19898.0,168.12806463725488,233.360992917845,262.15968477959063
207496.0,17534.0,207496.0,30225.0,207496.0,19909.0,172.42621891875086,234.00764632424892,263.22458855668316
207496.0,17543.0,207496.0,30225.0,207496.0,19892.0,176.5895435586198,234.43989974952171,264.06553644378556
207496.0,17538.0,207496.0,30214.0,207496.0,19897.0,180.61518629820702,234.66585914860036,264.68996295292254
207496.0,17542.0,207496.0,30209.0,207496.0,19893.0,184.50080034246824,234.69422162012518,265.10571737755265
207496.0,17549.0,207496.0,30185.0,207496.0,19893.0,188.2444771261928,234.53403822192223,265.3209437347374
207507.0,17553.0,207507.0,30208.0,207507.0,19890.0,191.84469987699114,234.19439824695763,265.344005998504
207507.0,17558.0,207507.0,30216.0,207507.0,19891.0,195.30036053622882,233.6842653745519,265.18342395949935
207507.0,17563.0,207507.0,30216.0,207507.0,19891.0,198.61079556593356,233.01261111237415,264.84782348921107
207507.0,17554.0,207507.0,30197.0,207507.0,19888.0,201.77579210883704,232.18861048778444,264.3459110526833
207507.0,17553.0,207507.0,30185.0,207507.0,19874.0,204.79550381254757,231.2215799502768,263.6864215988855
207507.0,17565.0,207507.0,30171.0,207507.0,19879.0,207.67029454023066,230.12064707094135,262.8779849081093
207517.0,17562.0,207517.0,30200.0,207517.0,19878.0,210.400645554015,228.8944107771224,261.9289789222706
207517.0,17567.0,207517.0,30202.0,207517.0,19890.0,212.98715651723256,227.55089336455268,260.84750132216533
207517.0,17580.0,207517.0,30221.0,207517.0,19881.0,215.43057149454677,226.09783257867696,259.6414671762496
207517.0,17565.0,207517.0,30170.0,207517.0,19878.0,217.73181981237047,224.54298970857275,258.3187008569122
207517.0,17576.0,207517.0,30165.0,207517.0,19863.0,219.89201913911336,222.8940626266611,256.8868944735887
207517.0,17572.0,207517.0,30186.0,207517.0,19877.0,221.9124043291494,221.15826018845215,255.35346090239722
207528.0,17579.0,207528.0,30211.0,207528.0,19879.0,223.79426699160643,219.3421246243414,253.725461275559
207528.0,17602.0,207528.0,30205.0,207528.0,19885.0,225.53899276485748,217.45187286955894,252.00971394856415
207528.0,17589.0,207528.0,30183.0,207528.0,19857.0,227.1482245867584,215.49380937696458,250.2129349609488
207528.0,17583.0,207528.0,30153.0,207528.0,19852.0,228.62400620703337,213.47430427919795,248.3416628762879
207528.0,17576.0,207528.0,30143.0,207528.0,19854.0,229.96869946917053,211.39931241244426,246.40198195148386
207528.0,17593.0,207528.0,30168.0,207528.0,19858.0,231.18477243535506,209.2738377442651,244.39932067577791
207538.0,17591.0,207538.0,30185.0,207538.0,19872.0,232.27471933961638,207.1018125210305,242.33849142985994
207538.0,17589.0,207538.0,30212.0,207538.0,19858.0,233.24112848081256,204.88650430253782,240.22388406972874
207538.0,17589.0,207538.0,30174.0,207538.0,19839.0,234.0867198881872,202.6311006495959,238.05957650338928
207538.0,17577.0,207538.0,30152.0,207538.0,19851.0,234.81427375122018,200.33892899717947,235.84921438646873
207538.0,17586.0,207538.0,30149.0,207538.0,19848.0,235.42649404883656,198.01312137862487,233.59584598767722
207538.0,17583.0,207538.0,30180.0,207538.0,19867.0,235.92589228619735,195.65619137426037,231.30196102454065
207548.0,17607.0,207548.0,30184.0,207548.0,19863.0,236.31479446275551,193.27006149541398,228.96972122817496
207548.0,17612.0,207548.0,30192.0,207548.0,19863.0,236.59553190176132,190.8564802110764,226.6012226804495
207548.0,17586.0,207548.0,30166.0,207548.0,19853.0,236.77069241732238,188.41738940493235,224.1986400955382
207548.0,17589.0,207548.0,30143.0,207548.0,19837.0,236.84314639779652,185.95492245536823,221.76418619369286
207548.0,17593.0,207548.0,30165.0,207548.0,19847.0,236.81583760322795,183.47108346844337,219.29994073774344
207548.0,17587.0,207548.0,30153.0,207548.0,19855.0,236.6916279773015,180.9674921038315,216.80774141546243
207559.0,17602.0,207559.0,30181.0,207559.0,19852.0,236.4732914953899,178.44543677765208,214.28928423283045
207559.0,17603.0,207559.0,30175.0,207559.0,19832.0,236.16359826929454,175.90614107505198,211.7462755083636
207559.0,17583.0,207559.0,30156.0,207559.0,19829.0,235.76542203551045,173.35103083792438,209.18038447221014
207559.0,17588.0,207559.0,30131.0,207559.0,19829.0,235.28171106358533,170.78172666031944,206.5930409371243
207559.0,17577.0,207559.0,30135.0,207559.0,19833.0,234.7153062025718,168.1996949636621,203.98531274035827
207559.0,17594.0,207559.0,30162.0,207559.0,19840.0,234.06879417794346,165.60593401379316,201.35796207377768
207569.0,17593.0,207569.0,30170.0,207569.0,19843.0,233.3445194955733,163.00108541251947,198.7116260268597
207569.0,17595.0,207569.0,30143.0,207569.0,19829.0,232.5447204662049,160.3858232993583,196.04700596407696
207569.0,17600.0,207569.0,30130.0,207569.0,19812.0,231.67167392152885,157.76100316846123,193.36489774573857
207569.0,17584.0,207569.0,30127.0,207569.0,19819.0,230.72777164668477,155.12741242791557,190.6660142002832
207569.0,17588.0,207569.0,30145.0,207569.0,19825.0,229.71549405149165,152.4854930155791,187.9508183853245
207569.0,17597.0,207569.0,30163.0,207569.0,19828.0,228.63733362005698,149.83539829347902,185.2195760584791
207579.0,17584.0,207579.0,30173.0,207579.0,19838.0,227.4957955532015,147.1773983716223,182.47257472605872
207579.0,17581.0,207579.0,30140.0,207579.0,19834.0,226.29342290703877,144.51232422329034,179.71037569307884
207579.0,17578.0,207579.0,30115.0,207579.0,19805.0,225.03271865305933,141.8416255982621,176.93396148953235
207579.0,17574.0,207579.0,30118.0,207579.0,19813.0,223.71602124261676,139.16696378181882,174.14463699311023
207579.0,17585.0,207579.0,30148.0,207579.0,19821.0,222.3454408533107,136.48981877704,171.34382790125045
207579.0,17587.0,207579.0,30144.0,207579.0,19822.0,220.9229088590137,133.81156417254215,168.53308411640097
207590.0,17589.0,207590.0,30148.0,207590.0,19803.0,219.4503303362372,131.1338538215811,165.71423538212397
207590.0,17574.0,207590.0,30127.0,207590.0,19803.0,217.92971407227833,128.45888518552454,162.88941377510633
207590.0,17570.0,207590.0,30106.0,207590.0,19794.0,216.36314644725945,125.78933691377757,160.06091263806883
207590.0,17567.0,207590.0,30113.0,207590.0,19805.0,214.75263340991876,123.12805546707081,157.23106806740248
207590.0,17577.0,207590.0,30128.0,207590.0,19793.0,213.09997440247503,120.47779830539575,154.40226002108366
207590.0,17590.0,207590.0,30148.0,207590.0,19799.0,211.40681590195157,117.84134115564173,151.57697226006275
207600.0,17587.0,207600.0,30107.0,207600.0,19797.0,209.67488654279617,115.22182582197763,148.75784628656214
207600.0,17572.0,207600.0,30099.0,207600.0,19793.0,207.90622353570004,112.62286275480882,145.94773931652048
207600.0,17557.0,207600.0,30094.0,207600.0,19774.0,206.10315962089203,110.04822233127388,143.149737630821
207600.0,17562.0,207600.0,30100.0,207600.0,19784.0,204.26808263244646,107.5014891204884,140.3670543828722
207600.0,17580.0,207600.0,30128.0,207600.0,19793.0,202.40325496803857,104.98602911784826,137.6029453287009
207600.0,17567.0,207600.0,30128.0,207600.0,19797.0,200.51089526011023,102.50530221211959,134.86083260496116
207610.0,17569.0,207610.0,30111.0,207610.0,19790.0,198.5933602776689,100.06327490308901,132.14455752284317
207610.0,17548.0,207610.0,30058.0,207610.0,19766.0,196.65317199744396,97.66448186543565,129.45849918164694
207610.0,17554.0,207610.0,30072.0,207610.0,19756.0,194.6928715543058,95.31354195370294,126.80740699776615
207610.0,17556.0,207610.0,30086.0,207610.0,19764.0,192.71486391179275,93.01458384278934,124.19607652704893
207610.0,17567.0,207610.0,30112.0,207610.0,19780.0,190.72142114023427,90.77118220348294,121.62919627174932
207610.0,17578.0,207610.0,30089.0,207610.0,19759.0,188.714882675083,88.58675975897513,119.11148067037706
207621.0,17565.0,207621.0,30083.0,207621.0,19752.0,186.69793915117947,86.46490667647268,116.64780175044487
207621.0,17542.0,207621.0,30068.0,207621.0,19745.0,184.67376700679614,84.40931969353332,114.24308453962763
207621.0,17534.0,207621.0,30054.0,207621.0,19732.0,182.64583972964428,82.4235025230487,111.90207535927571
207621.0,17537.0,207621.0,30097.0,207621.0,19746.0,180.61756742277902,80.51051681168143,109.62915283533769
207621.0,17551.0,207621.0,30091.0,207621.0,19750.0,178.59210051855098,78.67306686060509,107.42829075608216
207621.0,17559.0,207621.0,30072.0,207621.0,19746.0,176.57244526361475,76.91384110747669,105.30320096708519
207631.0,17541.0,207631.0,30055.0,207631.0,19728.0,174.56173099851503,75.23561851653491,103.25746594428273
207631.0,17530.0,207631.0,30045.0,207631.0,19738.0,172.56331950362028,73.64096372579282,101.29448890784369
207631.0,17514.0,207631.0,30070.0,207631.0,19731.0,170.58061869631527,72.13186703809205,99.41737873631917
207631.0,17545.0,207631.0,30083.0,207631.0,19735.0,168.61681306244495,70.70971570610145,97.62892742143205
207631.0,17533.0,207631.0,30086.0,207631.0,19737.0,166.6748304610831,69.37563085011358,95.93166174976884
207631.0,17536.0,207631.0,30094.0,207631.0,19741.0,164.75753508146687,68.13088259244347,94.32793269327735
207641.0,17530.0,207641.0,30057.0,207641.0,19739.0,162.86787123035856,66.97710409423492,92.82003635404354
207641.0,17508.0,207641.0,30035.0,207641.0,19718.0,161.00883036147184,65.9161243404991,91.41027531847901
207641.0,17532.0,207641.0,30059.0,207641.0,19721.0,159.18330601041697,64.94948640527946,90.10085106542408
207641.0,17535.0,207641.0,30074.0,207641.0,19727.0,157.39404093472308,64.07814492917815,88.89367842180486
207641.0,17537.0,207641.0,30068.0,207641.0,19732.0,155.64381207248266,63.302634177264395,87.79034460476527
207641.0,17528.0,207641.0,30069.0,207641.0,19715.0,153.93566907076226,62.62337070904219,86.79220469393785
207652.0,17500.0,207652.0,30053.0,207652.0,19706.0,152.27295511361197,62.040740537435944,85.90037266006442
207652.0,17496.0,207652.0,30041.0,207652.0,19709.0,150.6590370970885,61.5549505248603,85.11552898154486
207652.0,17506.0,207652.0,30059.0,207652.0,19720.0,149.0969352753629,61.165777570596276,84.4377552809891
207652.0,17511.0,207652.0,30081.0,207652.0,19721.0,147.58916999621258,60.87249081039281,83.86657607173186
207652.0,17502.0,207652.0,30086.0,207652.0,19723.0,146.1378638806736,60.67413099372176,83.40112868645001
207652.0,17516.0,207652.0,30045.0,207652.0,19723.0,144.74487675613037,60.569855644485,83.04030152768163
207662.0,17484.0,207662.0,30046.0,207662.0,19726.0,143.41184982585344,60.55888053133469,82.78280626278934
207662.0,17502.0,207662.0,30040.0,207662.0,19707.0,142.14013270556805,60.64005592617205,82.62719006915233
207662.0,17514.0,207662.0,30071.0,207662.0,19715.0,140.93070053140013,60.81156134802649,82.57174344932785
207662.0,17495.0,207662.0,30092.0,207662.0,19737.0,139.78423918230322,61.07103857957292,82.61440484969884
207662.0,17512.0,207662.0,30071.0,207662.0,19724.0,138.70128930396834,61.41603349588476,82.75286046222658
207662.0,17505.0,207662.0,30059.0,207662.0,19717.0,137.68230745019025,61.844277275443815,82.98471380456466
207672.0,17499.0,207672.0,30049.0,207672.0,19713.0,136.72770705767704,62.35352577341776,83.30744992685484
207672.0,17490.0,207672.0,30058.0,207672.0,19716.0,135.8378367410103,62.941199977561425,83.71825301055077
207672.0,17506.0,207672.0,30066.0,207672.0,19727.0,135.0128736336216,63.60418784427486,84.21390814553567
207672.0,17503.0,207672.0,30079.0,207672.0,19717.0,134.25280175612122,64.33891081040544,84.79084404182683
207672.0,17485.0,207672.0,30085.0,207672.0,19736.0,133.5574855247914,65.14155996618021,85.4452216648759
207672.0,17492.0,207672.0,30064.0,207672.0,19721.0,132.92663602905606,66.00830974944161,86.17301022113958
207683.0,17481.0,207683.0,30067.0,207683.0,19708.0,132.35965591659584,66.93531298177456,86.9699878818092
207683.0,17492.0,207683.0,30084.0,207683.0,19729.0,131.85552479403853,67.9185421287281,87.83160464021114
207683.0,17506.0,207683.0,30089.0,207683.0,19728.0,131.41282027813222,68.95377641937507,88.75288148002122
207683.0,17496.0,207683.0,30099.0,207683.0,19761.0,131.029884848378,70.0368098326207,89.72855849181272
207683.0,17486.0,207683.0,30088.0,207683.0,19731.0,130.7049746241723,71.16367164204105,90.7534010298273
207683.0,17495.0,207683.0,30064.0,207683.0,19724.0,130.43622215010365,72.33064109175162,91.82234432895932
207693.0,17479.0,207693.0,30070.0,207693.0,19722.0,130.22151240755124,73.53397740707348,92.9302986629055
207693.0,17502.0,207693.0,30091.0,207693.0,19739.0,130.0584157977514,74.76960406172536,94.071870196974
207693.0,17509.0,207693.0,30104.0,207693.0,19761.0,129.9442530425758,76.03311371788655,95.24136399488265
207693.0,17504.0,207693.0,30115.0,207693.0,19766.0,129.87631434104358,77.32010206569977,96.43310982791571
207693.0,17500.0,207693.0,30089.0,207693.0,19740.0,129.85205275487112,78.62649476469129,97.64181145718419
207693.0,17475.0,207693.0,30067.0,207693.0,19742.0,129.86904548955062,79.94852359461491,98.86257351335722
207703.0,17496.0,207703.0,30053.0,207703.0,19740.0,129.92475958041769,81.28226897610946,100.090642571272
207703.0,17484.0,207703.0,30094.0,207703.0,19740.0,130.01635074406963,82.623123138425,101.32117423211389
207703.0,17497.0,207703.0,30124.0,207703.0,19751.0,130.14063511552808,83.96573058817025,102.54915386385085
207703.0,17507.0,207703.0,30128.0,207703.0,19753.0,130.29418539452186,85.30452745111606,103.76943675477878
207703.0,17506.0,207703.0,30111.0,207703.0,19757.0,130.47350900421537,86.63435571260261,104.97686129639274
207703.0,17499.0,207703.0,30081.0,207703.0,19747.0,130.67522337461668,87.95058791315262,106.16633417485563
207714.0,17488.0,207714.0,30076.0,207714.0,19756.0,130.89606656428126,89.24870984794966,107.33281488310871
207714.0,17504.0,207714.0,30130.0,207714.0,19754.0,131.1327615424984,90.52384509162496,108.47126042960362
207714.0,17514.0,207714.0,30113.0,207714.0,19770.0,131.38196696540342,91.77076992564785,109.57663968734992
207714.0,17505.0,207714.0,30112.0,207714.0,19751.0,131.64042383237347,92.98427919018701,110.64401552231254
207714.0,17505.0,207714.0,30121.0,207714.0,19777.0,131.9051038527243,94.15936896590229,111.66860379571
207714.0,17487.0,207714.0,30106.0,207714.0,19761.0,132.17316939713598,95.29119172942897,112.64581142239705
207724.0,17503.0,207724.0,30100.0,207724.0,19753.0,132.44179977227182,96.3749440177631,113.57125161567998
207724.0,17509.0,207724.0,30119.0,207724.0,19785.0,132.70808830670856,97.40570092599266,114.4406899213667
207724.0,17512.0,207724.0,30159.0,207724.0,19780.0,132.9691378341747,98.3784323459351,115.25008915101421
207724.0,17515.0,207724.0,30148.0,207724.0,19773.0,133.22224943361732,99.28841561727269,115.99581810886556
207724.0,17499.0,207724.0,30117.0,207724.0,19766.0,133.46502440673476,100.13167238565288,116.67473687354203
207724.0,17501.0,207724.0,30105.0,207724.0,19764.0,133.69530470137838,100.90488543723637,117.28405149401483
207734.0,17503.0,207734.0,30136.0,207734.0,19766.0,133.91102268845754,101.60494539362402,117.82112843160735
207734.0,17502.0,207734.0,30160.0,207734.0,19784.0,134.1101101183449,102.22879925122753,118.2834327609783
207734.0,17515.0,207734.0,30159.0,207734.0,19781.0,134.29051894093703,102.77382954631791,118.6686448560294
207734.0,17500.0,207734.0,30163.0,207734.0,19767.0,134.45029941560537,103.23834533173266,118.97482409971434
207734.0,17493.0,207734.0,30111.0,207734.0,19764.0,134.587614153288,103.62172970851458,119.20039101131644
207734.0,17488.0,207734.0,30103.0,207734.0,19770.0,134.70058899179526,103.92406992605041,119.34394809092808
207745.0,17512.0,207745.0,30108.0,207745.0,19776.0,134.7871383774495,104.14548256528543,119.40417823168725
207745.0,17513.0,207745.0,30149.0,207745.0,19787.0,134.84501220790193,104.28571056824849,119.37993204996143
207745.0,17511.0,207745.0,30145.0,207745.0,19788.0,134.87203587058673,104.34432400374148,119.27043334455144
207745.0,17499.0,207745.0,30113.0,207745.0,19771.0,134.86626629779687,104.32113399912991,119.07544891697684
207745.0,17502.0,207745.0,30111.0,207745.0,19757.0,134.82593458881993,104.21621475800804,118.79524064139531
207745.0,17495.0,207745.0,30113.0,207745.0,19765.0,134.74929870829658,104.02954783498154,118.43029979201935
207755.0,17508.0,207755.0,30151.0,207755.0,19771.0,134.63455202653722,103.76082090471502,117.9811287285431
207755.0,17509.0,207755.0,30155.0,207755.0,19781.0,134.4798504940241,103.40968660784735,117.44827229695653
207755.0,17515.0,207755.0,30143.0,207755.0,19788.0,134.28344636522866,102.9762467299501,116.83253821750284
207755.0,17520.0,207755.0,30142.0,207755.0,19761.0,134.04385769924778,102.46131852542169,116.13520406759429
207755.0,17499.0,207755.0,30132.0,207755.0,19750.0,133.75998262381162,101.86637794595383,115.3579760802229
207755.0,17495.0,207755.0,30095.0,207755.0,19766.0,133.4310430571339,101.19331331202135,114.50270578766984
207766.0,17504.0,207766.0,30136.0,207766.0,19766.0,133.0563801843569,100.4440683077156,113.57120848891066
207766.0,17512.0,207766.0,30148.0,207766.0,19767.0,132.63534860833232,99.62048184610668,112.56534537949409
207766.0,17513.0,207766.0,30125.0,207766.0,19763.0,132.16743264299043,98.7245352095567,111.48716286543832
207766.0,17496.0,207766.0,30114.0,207766.0,19744.0,131.65239858713306,97.75856725755165,110.33890079372566
207766.0,17503.0,207766.0,30115.0,207766.0,19743.0,131.09028466919426,96.7251115806518,109.12283310580231
207766.0,17500.0,207766.0,30114.0,207766.0,19756.0,130.48128938132214,95.62663277457254,107.84106428943652
207776.0,17499.0,207776.0,30134.0,207776.0,19765.0,129.8257160514806,94.46546328796657,106.4955203551113
207776.0,17512.0,207776.0,30138.0,207776.0,19765.0,129.12399995557357,93.24397719146798,105.0881767660602
207776.0,17502.0,207776.0,30105.0,207776.0,19752.0,128.37679569798985,91.96482472705597,103.62129052958382
207776.0,17487.0,207776.0,30099.0,207776.0,19743.0,127.5850358013762,90.63089566931617,102.09742389236979
207776.0,17484.0,207776.0,30093.0,207776.0,19731.0,126.74981275261909,89.2449668916014,100.51925754213462
207776.0,17488.0,207776.0,30114.0,207776.0,19749.0,125.8721553055877,87.80940236271832,98.88936727356395
207786.0,17498.0,207786.0,30129.0,207786.0,19739.0,124.95293375787367,86.32620499686021,97.21015831023081
207786.0,17494.0,207786.0,30120.0,207786.0,19756.0,123.99295892753467,84.79735552043326,95.48397743666706
207786.0,17498.0,207786.0,30117.0,207786.0,19732.0,122.99313921129631,83.22511651624478,93.71325917731531
207786.0,17481.0,207786.0,30092.0,207786.0,19736.0,121.95455403546043,81.61205670743959,91.90056023672973
207786.0,17480.0,207786.0,30088.0,207786.0,19731.0,120.87838700453894,79.96080754934276,90.04846795519987
207786.0,17485.0,207786.0,30110.0,207786.0,19736.0,119.76578347157289,78.27377668066198,88.15952030961654
207797.0,17486.0,207797.0,30106.0,207797.0,19737.0,118.61779034220731,76.55310956624993,86.23623451429751
207797.0,17483.0,207797.0,30117.0,207797.0,19735.0,117.43541652616713,74.800913419643,84.28120366439973
207797.0,17473.0,207797.0,30099.0,207797.0,19717.0,116.21968043598642,73.01948227409298,82.29715205825707
207797.0,17468.0,207797.0,30077.0,207797.0,19726.0,114.97154331373419,71.21130456983664,80.28686816505105
207797.0,17472.0,207797.0,30080.0,207797.0,19708.0,113.69177692203417,69.37880663754561,78.25307586106463
207797.0,17477.0,207797.0,30100.0,207797.0,19720.0,112.38090318135363,67.52408091663858,76.19834098352271
207807.0,17483.0,207807.0,30114.0,207807.0,19717.0,111.03928060596925,65.64895298191088,74.12504954131853
207807.0,17480.0,207807.0,30096.0,207807.0,19707.0,109.66727680834424,63.75533671653514,72.03545142809169
207807.0,17465.0,207807.0,30070.0,207807.0,19700.0,108.26538337392567,61.8454303278117,69.93166027914472
207807.0,17470.0,207807.0,30057.0,207807.0,19690.0,106.8341759539939,59.92147184520077,67.81552642677602
207807.0,17465.0,207807.0,30063.0,207807.0,19713.0,105.37420050872882,57.9852705692153,65.68850228553983
207807.0,17475.0,207807.0,30114.0,207807.0,19706.0,103.88593746061485,56.03801223691818,63.55168831341794
207817.0,17484.0,207817.0,30099.0,207817.0,19714.0,102.36990242774536,54.08061509535031,61.40604938194792
207817.0,17482.0,207817.0,30081.0,207817.0,19699.0,100.8268592346072,52.11427257178552,59.25260319257137
207817.0,17452.0,207817.0,30074.0,207817.0,19697.0,99.25797721203418,50.14059562777058,57.09245523465036
207817.0,17449.0,207817.0,30051.0,207817.0,19692.0,97.664706103474,48.16133249485722,54.926714653923966
207817.0,17453.0,207817.0,30083.0,207817.0,19693.0,96.04845353651622,46.17804620006115,52.75640027621969
207817.0,17448.0,207817.0,30076.0,207817.0,19700.0,94.41038071480429,44.19204731362554,50.58242984174011
207828.0,17456.0,207828.0,30083.0,207828.0,19680.0,92.75139925915671,42.20460008240116,48.405678250488805
207828.0,17443.0,207828.0,30052.0,207828.0,19685.0,91.0722335713746,40.217104418178025,46.226983365299276
207828.0,17446.0,207828.0,30042.0,207828.0,19675.0,89.37344548051612,38.2309784729309,44.047056845561
207828.0,17435.0,207828.0,30056.0,207828.0,19686.0,87.65539281513765,36.24733282376263,41.86641331269567
207828.0,17443.0,207828.0,30065.0,207828.0,19688.0,85.91816438090696,34.266804540325694,39.68541698616933
207828.0,17444.0,207828.0,30087.0,207828.0,19700.0,84.16157228034187,32.289761566164955,37.504459937941434
207838.0,17444.0,207838.0,30066.0,207838.0,19685.0,82.38523597411077,30.316701327342045,35.32419707291275
207838.0,17458.0,207838.0,30064.0,207838.0,19671.0,80.588727732123,28.348505590963924,33.14565568482453
207838.0,17440.0,207838.0,30033.0,207838.0,19655.0,78.77173698584971,26.38636334856615,30.970083975913894
207838.0,17423.0,207838.0,30038.0,207838.0,19667.0,76.9341260988629,24.431440620893,28.79865385975708
207838.0,17441.0,207838.0,30052.0,207838.0,19671.0,75.07578852093108,22.484574397804707,26.63230335330681
207838.0,17446.0,207838.0,30069.0,207838.0,19667.0,73.19654610495775,20.546286140666908,24.47182375446849
207848.0,17449.0,207848.0,30055.0,207848.0,19668.0,71.29630617454677,18.6170986298187,22.318017534253386
207848.0,17418.0,207848.0,30026.0,207848.0,19659.0,69.37526180833584,16.697753417559753,20.17177108957881
207848.0,17440.0,207848.0,30035.0,207848.0,19658.0,67.43386618751039,14.789049594688947,18.034042328647388
207848.0,17431.0,207848.0,30045.0,207848.0,19646.0,65.47271861154054,12.891564906395374,15.90579341542616
207848.0,17424.0,207848.0,30063.0,207848.0,19660.0,63.492568586236786,11.005678102221893,13.787913163929147
207848.0,17435.0,207848.0,30037.0,207848.0,19657.0,61.49435701554975,9.131856073843522,11.681226189491213
207859.0,17422.0,207859.0,30049.0,207859.0,19658.0,59.4792357840103,7.270843520366185,9.58661509557328
207859.0,17407.0,207859.0,30021.0,207859.0,19625.0,57.44856165064529,5.42361143945827,7.5050876992038695
207859.0,17414.0,207859.0,30023.0,207859.0,19647.0,55.40377739707756,3.5911635820584706,5.43764355817666
207859.0,17406.0,207859.0,30037.0,207859.0,19643.0,53.346259111327925,1.7743425009818594,3.3851178546311473
207859.0,17418.0,207859.0,30047.0,207859.0,19643.0,51.27728538734269,-0.02615841865693369,1.348223188063315
207859.0,17414.0,207859.0,30041.0,207859.0,19646.0,49.198128395250876,-1.8095405485269112,-0.6723099119981555
207869.0,17417.0,207869.0,30022.0,207869.0,19631.0,47.11019594902308,-3.5746926424059495,-2.6756556760973353
207869.0,17388.0,207869.0,30006.0,207869.0,19616.0,45.01510310489428,-5.3202855140480665,-4.660945795549651
207869.0,17394.0,207869.0,30003.0,207869.0,19621.0,42.9145518206615,-7.0451121388405795,-6.627468349937686
207869.0,17396.0,207869.0,30024.0,207869.0,19631.0,40.810121833538744,-8.748375732975362,-8.574834901170902
207869.0,17399.0,207869.0,30034.0,207869.0,19636.0,38.703211500928944,-10.429650621378059,-10.50291138107525
207869.0,17404.0,207869.0,30025.0,207869.0,19617.0,36.595160932144296,-12.088568537640938,-12.41161599590049
207879.0,17377.0,207879.0,30005.0,207879.0,19620.0,34.4873772534483,-13.724594641984751,-14.300847237405577
207879.0,17372.0,207879.0,29988.0,207879.0,19599.0,32.38126970813411,-15.337158378326137,-16.170604739923675
207879.0,17379.0,207879.0,30013.0,207879.0,19612.0,30.278016807007788,-16.925985384859345,-18.021173468440395
207879.0,17385.0,207879.0,30025.0,207879.0,19623.0,28.178440710136556,-18.49120751767765,-19.853199220589374
207879.0,17377.0,207879.0,30008.0,207879.0,19614.0,26.08310415388513,-20.033125525454835,-21.667558295172086
207879.0,17401.0,207879.0,30017.0,207879.0,19625.0,23.992488234904613,-21.551966381210747,-23.465146778626547
207890.0,17375.0,207890.0,30000.0,207890.0,19614.0,21.907174128311368,-23.047855849401245,-25.246743226731326
207890.0,17356.0,207890.0,29974.0,207890.0,19592.0,19.827907298391693,-24.520965807988972,-27.012995307992213
207890.0,17372.0,207890.0,30001.0,207890.0,19593.0,17.75541264041226,-25.97179179798883,-28.76459514294106
207890.0,17357.0,207890.0,30020.0,207890.0,19606.0,15.690175043885802,-27.401285567348495,-30.502515823008565
207890.0,17376.0,207890.0,30013.0,207890.0,19610.0,13.632418082384788,-28.810587604791777,-32.2280237411498
207890.0,17362.0,207890.0,30004.0,207890.0,19620.0,11.582212007771005,-30.200661169517616,-33.94244241891411
207900.0,17360.0,207900.0,29982.0,207900.0,19598.0,9.539571403235783,-31.572242645390375,-35.646898495564415
207900.0,17355.0,207900.0,29997.0,207900.0,19587.0,7.504455471258353,-32.92607378678957,-37.342280543453995
207900.0,17352.0,207900.0,29979.0,207900.0,19595.0,5.476695239436793,-34.26312846311053,-39.02942888783335
207900.0,17373.0,207900.0,30007.0,207900.0,19600.0,3.455979226483322,-35.584674002251205,-40.70929129483798
207900.0,17371.0,207900.0,30015.0,207900.0,19599.0,1.4420109005588415,-36.89212865060176,-42.38286034161402
207900.0,17349.0,207900.0,30000.0,207900.0,19588.0,-0.5652592012379785,-38.18676165653815,-44.05104016995227
207910.0,17346.0,207910.0,29966.0,207910.0,19584.0,-2.565605958362795,-39.469555681958795,-45.71463889337531
207910.0,17337.0,207910.0,29975.0,207910.0,19575.0,-4.558741160049578,-40.74148446636964,-47.37449067661234
207910.0,17352.0,207910.0,30000.0,207910.0,19585.0,-6.544502953338764,-42.00386774929636,-49.03158806150378
207910.0,17338.0,207910.0,30006.0,207910.0,19583.0,-8.522869451602844,-43.25831367799091,-50.687109159834876
207910.0,17345.0,207910.0,29991.0,207910.0,19584.0,-10.493883528896077,-44.50635389170236,-52.34233158634731
207910.0,17338.0,207910.0,29972.0,207910.0,19581.0,-12.457606177659983,-45.74927109159226,-53.99853225732073
207921.0,17323.0,207921.0,29973.0,207921.0,19569.0,-14.4141308093904,-46.98829511207617,-55.6569600349666
207921.0,17322.0,207921.0,29972.0,207921.0,19577.0,-16.363692899962643,-48.22489829690697,-57.31888927211935
207921.0,17329.0,207921.0,29991.0,207921.0,19574.0,-18.30681831205814,-49.460898722551036,-58.98566922117243
207921.0,17328.0,207921.0,30005.0,207921.0,19575.0,-20.244346365570607,-50.69828217705518,-60.65869236507605
207921.0,17325.0,207921.0,30005.0,207921.0,19583.0,-22.17732763963795,-51.938825810733164,-62.33930591230879
207921.0,17321.0,207921.0,29984.0,207921.0,19573.0,-24.106944211936423,-53.183780411242765,-64.02870283958711
207931.0,17321.0,207931.0,29965.0,207931.0,19561.0,-26.03450289609313,-54.43388849850918,-65.72786731806215
207931.0,17321.0,207931.0,29966.0,207931.0,19561.0,-27.96144072887418,-55.68972403316799,-67.43766555263898
207931.0,17330.0,207931.0,30002.0,207931.0,19570.0,-29.88927588342554,-56.95197325331547,-69.15897676907267
207931.0,17332.0,207931.0,29978.0,207931.0,19575.0,-31.81946956087498,-58.22133687173411,-70.89266599651233
207931.0,17323.0,207931.0,29997.0,207931.0,19567.0,-33.753249406796385,-59.498239794095284,-72.63941278396268
207931.0,17307.0,207931.0,29955.0,207931.0,19554.0,-35.691548210524275,-60.78272070206107,-74.3996062912847
207941.0,17308.0,207941.0,29951.0,207941.0,19550.0,-37.63513677387746,-62.074631006766595,-76.17343422834384
207941.0,17307.0,207941.0,29974.0,207941.0,19555.0,-39.58481128233251,-63.37398531977627,-77.96105432519715
207941.0,17313.0,207941.0,29958.0,207941.0,19554.0,-41.541455042003776,-64.6811173878491,-79.76266214451908
207941.0,17312.0,207941.0,29979.0,207941.0,19547.0,-43.505958366936454,-65.9965645882265,-81.57844713573579
207941.0,17310.0,207941.0,29970.0,207941.0,19542.0,-45.479093728051026,-67.32089144116878,-83.40857453783141
207941.0,17291.0,207941.0,29944.0,207941.0,19532.0,-47.46146553638388,-68.6546018795172,-85.25326395511195
207952.0,17299.0,207952.0,29945.0,207952.0,19539.0,-49.45359727212167,-69.99827787082734,-87.11290996007799
207952.0,17307.0,207952.0,29958.0,207952.0,19542.0,-51.45602844604437,-71.35284925984996,-88.98812936375839
207952.0,17301.0,207952.0,29978.0,207952.0,19542.0,-53.469251384704364,-72.71962244712773,-90.87967645320674
207952.0,17295.0,207952.0,29986.0,207952.0,19531.0,-55.49357686674597,-74.09994645140165,-92.78832533969376
207952.0,17287.0,207952.0,29945.0,207952.0,19529.0,-57.52911882557089,-75.49483808813608,-94.71485700747618
207952.0,17268.0,207952.0,29927.0,207952.0,19520.0,-59.575930488780386,-76.90502156029734,-96.66015306252785
207962.0,17277.0,207962.0,29936.0,207962.0,19526.0,-61.63422516707777,-78.33140468884625,-98.62530104109837
207962.0,17281.0,207962.0,29950.0,207962.0,19538.0,-63.70452991059031,-79.77546761316464,-100.6115999446445
207962.0,17293.0,207962.0,29963.0,207962.0,19532.0,-65.7876161988417,-81.2391976357101,-102.62040930278883
207962.0,17285.0,207962.0,29974.0,207962.0,19533.0,-67.88426228943354,-82.724709800075,-104.6529489815133
207962.0,17276.0,207962.0,29945.0,207962.0,19521.0,-69.9950657650347,-84.23388098449558,-106.71020754528527
207962.0,17270.0,207962.0,29933.0,207962.0,19514.0,-72.1204458930082,-85.76829493304226,-108.7929935386033
207972.0,17273.0,207972.0,29948.0,207972.0,19520.0,-74.26076090207553,-87.32949816505516,-110.90205680134642
207972.0,17265.0,207972.0,29954.0,207972.0,19534.0,-76.41638636004382,-88.91917613293666,-113.03811789414496
207972.0,17283.0,207972.0,29984.0,207972.0,19525.0,-78.58769797684764,-90.53896828112477,-115.20170644804148
207972.0,17266.0,207972.0,29949.0,207972.0,19514.0,-80.77496894039587,-92.1900757563916,-117.39297638573285
207972.0,17251.0,207972.0,29927.0,207972.0,19508.0,-82.97830117420824,-93.87309479565235,-119.61171453696252
207972.0,17244.0,207972.0,29921.0,207972.0,19496.0,-85.19776050085906,-95.58832467096079,-121.85751431167213
207983.0,17263.0,207983.0,29927.0,207983.0,19503.0,-87.43360035566832,-97.33624054118698,-124.12996063409503
207983.0,17260.0,207983.0,29965.0,207983.0,19507.0,-89.68627656125747,-99.11763538599666,-126.42870270257893
207983.0,17252.0,207983.0,29966.0,207983.0,19508.0,-91.95626529766113,-100.93327517976422,-128.7533639953334
207983.0,17263.0,207983.0,29951.0,207983.0,19514.0,-94.24392305394534,-102.78336679366842,-131.10336036507587
207983.0,17233.0,207983.0,29924.0,207983.0,19488.0,-96.54946140243928,-104.667344535984,-133.47776385001086
207983.0,17232.0,207983.0,29910.0,207983.0,19485.0,-98.8730487273846,-106.58415543729353,-135.8753478109627
207993.0,17248.0,207993.0,29920.0,207993.0,19488.0,-101.2149964026726,-108.53273973912118,-138.29478711622983
207993.0,17247.0,207993.0,29938.0,207993.0,19495.0,-103.57578251915024,-110.51227151641547,-140.73477056685866
207993.0,17242.0,207993.0,29957.0,207993.0,19492.0,-105.95586255934549,-112.52195911804239,-143.19390620527741
207993.0,17235.0,207993.0,29922.0,207993.0,19477.0,-108.35552604192486,-114.5606280629176,-145.67058751927473
207993.0,17223.0,207993.0,29904.0,207993.0,19473.0,-110.77493066510732,-116.62658020807416,-148.1630108170304
207993.0,17233.0,207993.0,29924.0,207993.0,19479.0,-113.21422287319052,-118.71786886484227,-150.6693013276945
208002.0,17227.0,208002.0,29906.0,208002.0,19477.0,-115.67359710959343,-120.8325710073955,-153.18755785622866
208002.0,17229.0,208002.0,29934.0,208002.0,19484.0,-118.15324518265709,-122.9687834325643,-155.71575736550238
208002.0,17236.0,208002.0,29930.0,208002.0,19483.0,-120.6532564506189,-125.12442995291846,-158.2515964499457
208002.0,17219.0,208002.0,29913.0,208002.0,19467.0,-123.17351334337565,-127.29702539466243,-160.79236285964902
208002.0,17212.0,208002.0,29879.0,208002.0,19452.0,-125.71366721624102,-129.48367169540785,-163.3349666689473
208002.0,17220.0,208002.0,29902.0,208002.0,19451.0,-128.27323703833758,-131.68139950993609,-165.8761635565548
208013.0,17216.0,208013.0,29935.0,208013.0,19467.0,-130.85167307726758,-133.88740412678635,-168.41275578150083
208013.0,17226.0,208013.0,29936.0,208013.0,19466.0,-133.44827429173202,-136.0987366445537,-170.9415422785968
208013.0,17207.0,208013.0,29904.0,208013.0,19448.0,-136.06205456596538,-138.31177227285139,-173.4591191633815
208013.0,17204.0,208013.0,29887.0,208013.0,19447.0,-138.69170756571353,-140.5221074947407,-175.96182419079707
208013.0,17198.0,208013.0,29892.0,208013.0,19449.0,-141.33571072300552,-142.72493073132543,-178.44584753974385
208013.0,17204.0,208013.0,29903.0,208013.0,19457.0,-143.99244089778932,-144.91535262478186,-180.9072722675213
208023.0,17203.0,208023.0,29925.0,208023.0,19457.0,-146.6601722476223,-147.0883439660221,-183.3419433719654
208023.0,17204.0,208023.0,29925.0,208023.0,19454.0,-149.33697254825609,-149.2383482088806,-185.74527689428368
208023.0,17200.0,208023.0,29906.0,208023.0,19446.0,-152.0205870664316,-151.35888443771714,-188.11214681242706
208023.0,17182.0,208023.0,29855.0,208023.0,19420.0,-154.7083990929268,-153.44253559727764,-190.4369389185314
208023.0,17170.0,208023.0,29858.0,208023.0,19441.0,-157.39755018206498,-155.48147397272322,-192.71375767987442
208023.0,17180.0,208023.0,29896.0,208023.0,19430.0,-160.08517363598745,-157.4680667947843,-194.9365838918821
208034.0,17200.0,208034.0,29889.0,208034.0,19436.0,-162.76848026541984,-159.39493284208697,-197.09924367625464
208034.0,17204.0,208034.0,29895.0,208034.0,19437.0,-165.44450831461353,-161.2545413537931,-199.19529627617467
208034.0,17177.0,208034.0,29864.0,208034.0,19429.0,-168.1097541818016,-163.03893632473697,-201.21794001211396
208034.0,17171.0,208034.0,29848.0,208034.0,19420.0,-170.76008068350365,-164.73986772624784,-203.15998315375552
208034.0,17156.0,208034.0,29861.0,208034.0,19413.0,-173.39095964201724,-166.34918015439385,-205.01393659274723
208034.0,17177.0,208034.0,29890.0,208034.0,19419.0,-175.99774334752203,-167.85902811766127,-206.7721617655942
208044.0,17172.0,208044.0,29890.0,208044.0,19433.0,-178.57569993256752,-169.2616247879712,-208.42690205240822
208044.0,17175.0,208044.0,29875.0,208044.0,19419.0,-181.11983709392396,-170.54879969681159,-209.97013718736684
208044.0,17162.0,208044.0,29869.0,208044.0,19411.0,-183.62473692582833,-171.71182704034,-211.39344913913027
208044.0,17138.0,208044.0,29845.0,208044.0,19397.0,-186.08458416291404,-172.7416058089812,-212.68810411728424
208044.0,17147.0,208044.0,29841.0,208044.0,19416.0,-188.49340015057686,-173.62902000649729,-213.84525788591333
208044.0,17146.0,208044.0,29855.0,208044.0,19394.0,-190.8452783338662,-174.3652809245849,-214.856062056652
208054.0,17142.0,208054.0,29885.0,208054.0,19406.0,-193.13442920346702,-174.94198058644008,-215.71167366974063
208054.0,17148.0,208054.0,29855.0,208054.0,19409.0,-195.35510774314074,-175.3507979557419,-216.4032553688763
208054.0,17145.0,208054.0,29843.0,208054.0,19391.0,-197.50153082415676,-175.58327911833695,-216.92194824301887
208054.0,17149.0,208054.0,29832.0,208054.0,19400.0,-199.56777866353954,-175.63103776305215,-217.2588823804301
208054.0,17127.0,208054.0,29860.0,208054.0,19390.0,-201.54772910433763,-175.48610910326593,-217.40527196690738
208054.0,17144.0,208054.0,29868.0,208054.0,19402.0,-203.4350937171815,-175.14099812449425,-217.3524859340914
208065.0,17138.0,208065.0,29870.0,208065.0,19390.0,-205.223464854613,-174.58839003587926,-217.09204991980405
208065.0,17133.0,208065.0,29858.0,208065.0,19398.0,-206.90627267643885,-173.82086922624876,-216.6156405310859
208065.0,17111.0,208065.0,29842.0,208065.0,19396.0,-208.47678794290158,-172.83092218980212,-215.91509646897725
208065.0,17129.0,208065.0,29816.0,208065.0,19389.0,-209.92828006878332,-171.61125906451812,-214.98243464224373
208065.0,17105.0,208065.0,29848.0,208065.0,19383.0,-211.2541849477066,-170.15527998279828,-213.8099201029767
208065.0,17125.0,208065.0,29867.0,208065.0,19389.0,-212.44817752968174,-168.45728779335494,-212.39021232228652
208075.0,17122.0,208075.0,29849.0,208075.0,19393.0,-213.50415948231702,-166.51227332606456,-210.7164747268279
208075.0,17110.0,208075.0,29847.0,208075.0,19387.0,-214.41618035443636,-164.31568419946564,-208.7823849973038
208075.0,17114.0,208075.0,29834.0,208075.0,19382.0,-215.17841183982313,-161.8635314849611,-206.5821576538854
208075.0,17113.0,208075.0,29838.0,208075.0,19392.0,-215.78521378493267,-159.15269069030722,-204.11064996254186
208075.0,17117.0,208075.0,29857.0,208075.0,19391.0,-216.23116058797632,-156.18112196308357,-201.36345016274362
208075.0,17115.0,208075.0,29892.0,208075.0,19401.0,-216.51099376901934,-152.94779509907113,-198.33687128088346
208085.0,17119.0,208085.0,29866.0,208085.0,19393.0,-216.61956362274955,-149.45231942277312,-195.02791138352376
208085.0,17108.0,208085.0,29840.0,208085.0,19381.0,-216.5518005995613,-145.69472581772544,-191.4343018126321
208085.0,17112.0,208085.0,29850.0,208085.0,19375.0,-216.30274896185605,-141.67576518935877,-187.55473658952135
208085.0,17100.0,208085.0,29870.0,208085.0,19392.0,-215.8676628794766,-137.39736515891758,-183.38918794322842
208085.0,17107.0,208085.0,29868.0,208085.0,19407.0,-215.24212667318784,-132.8627451019512,-178.93904491896245
208085.0,17115.0,208085.0,29894.0,208085.0,19418.0,-214.42212852871762,-128.07624815440738,-174.20696578528012
208096.0,17109.0,208096.0,29892.0,208096.0,19408.0,-213.40402913599996,-123.04312483418613,-169.19664049647096
208096.0,17112.0,208096.0,29872.0,208096.0,19400.0,-212.18449823773773,-117.76940575278161,-163.9127464464405
208096.0,17100.0,208096.0,29893.0,208096.0,19414.0,-210.76053860492186,-112.26200288446884,-158.3611439402909
208096.0,17097.0,208096.0,29893.0,208096.0,19433.0,-209.12962183151126,-106.52891777371048,-152.54904612378743
208096.0,17117.0,208096.0,29910.0,208096.0,19439.0,-207.28984902418634,-100.57929741952384,-146.4849425944415
208096.0,17113.0,208096.0,29937.0,208096.0,19439.0,-205.23997457042555,-94.42329912618432,-140.17840597879
208106.0,17119.0,208106.0,29941.0,208106.0,19462.0,-202.97928899891602,-88.07180854768328,-133.6399815505585
208106.0,17107.0,208106.0,29904.0,208106.0,19441.0,-200.50755120282176,-81.53621701913261,-126.88115553402929
208106.0,17104.0,208106.0,29927.0,208106.0,19450.0,-197.82508135399755,-74.8285795948564,-119.91442198854807
208106.0,17116.0,208106.0,29948.0,208106.0,19487.0,-194.9329436850055,-67.96196116984581,-112.75341754546095
208106.0,17128.0,208106.0,29972.0,208106.0,19505.0,-191.83303092145627,-60.95044817294507,-105.41282003509176
208106.0,17145.0,208106.0,29980.0,208106.0,19504.0,-188.5279268831815,-53.80879505277106,-97.90795187626502
208116.0,17126.0,208116.0,29959.0,208116.0,19497.0,-185.02066861747073,-46.552121988748056,-90.25449857112571
208116.0,17126.0,208116.0,29977.0,208116.0,19513.0,-181.31467713744257,-39.195946672546285,-82.46856239718437
208116.0,17130.0,208116.0,29974.0,208116.0,19529.0,-177.41392952175175,-31.756422176399987,-74.56679984838176
208116.0,17136.0,208116.0,29999.0,208116.0,19540.0,-173.32315167858735,-24.250484941068088,-66.56638124367477
208116.0,17147.0,208116.0,30017.0,208116.0,19544.0,-169.0478616511376,-16.69579093558659,-58.48483469901615
208116.0,17154.0,208116.0,30026.0,208116.0,19556.0,-164.59429164287448,-9.110479915341426,-50.339947947624616
208127.0,17161.0,208127.0,30023.0,208127.0,19568.0,-159.96926346231368,-1.5129392250730653,-42.14973351344509
208127.0,17172.0,208127.0,30044.0,208127.0,19567.0,-155.1800657565401,6.0782735642858015,-33.93239190365534
208127.0,17166.0,208127.0,30056.0,208127.0,19588.0,-150.23436114655576,13.644450964556668,-25.70628640333508
208127.0,17174.0,208127.0,30088.0,208127.0,19596.0,-145.1401675515228,21.166899772347726,-17.489908646088658
208127.0,17179.0,208127.0,30096.0,208127.0,19621.0,-139.90591143056247,28.62728012311746,-9.301753418218695
208127.0,17197.0,208127.0,30095.0,208127.0,19625.0,-134.54044340159567,36.00795202988313,-1.160104123252701
208137.0,17192.0,208137.0,30092.0,208137.0,19628.0,-129.05295727703685,43.29209929278582,6.917156337772681
208137.0,17196.0,208137.0,30096.0,208137.0,19628.0,-123.45291948721787,50.463590874938646,14.912578318667045
208137.0,17204.0,208137.0,30114.0,208137.0,19654.0,-117.75010168558194,57.50678468547554,22.809060842211245
208137.0,17215.0,208137.0,30146.0,208137.0,19671.0,-111.95462920932712,64.40652725848064,30.58987487370645
208137.0,17231.0,208137.0,30154.0,208137.0,19680.0,-106.07692365620949,71.148444948494,38.23889012163255
208137.0,17227.0,208137.0,30133.0,208137.0,19685.0,-100.12756151136482,77.71928428443053,45.740827817699355
208147.0,17226.0,208147.0,30131.0,208147.0,19681.0,-94.11719824313019,84.10691136719568,53.08134976663034
208147.0,17242.0,208147.0,30130.0,208147.0,19672.0,-88.05663240358362,90.29995455083933,60.24693761398294
208147.0,17252.0,208147.0,30162.0,208147.0,19706.0,-81.95686165756152,96.28747530960301,67.22466600734919
208147.0,17268.0,208147.0,30187.0,208147.0,19724.0,-75.82898670661936,102.05900562318067,74.00215543467819
208147.0,17277.0,208147.0,30195.0,208147.0,19736.0,-69.6840113223008,107.6049481864813,80.56785288956546
208147.0,17257.0,208147.0,30178.0,208147.0,19726.0,-63.53270002885124,112.91697955733974,86.91136958378556
208158.0,17279.0,208158.0,30173.0,208158.0,19722.0,-57.38563474055496,117.98808620896381,93.02354418850186
208158.0,17275.0,208158.0,30169.0,208158.0,19730.0,-51.253380961377154,122.81225196941756,98.89623801089579
208158.0,17304.0,208158.0,30213.0,208158.0,19744.0,-45.14653654674375,127.38416741830312,104.52212953514004
208158.0,17305.0,208158.0,30216.0,208158.0,19760.0,-39.07560399726256,131.69931154084418,109.89471905991078
208158.0,17313.0,208158.0,30222.0,208158.0,19740.0,-33.05079927058658,135.75433093317892,115.00846676889984
208158.0,17323.0,208158.0,30180.0,208158.0,19767.0,-27.081924267830416,139.54724720008733,119.85883981168666
208168.0,17317.0,208168.0,30186.0,208168.0,19749.0,-21.17832897397745,143.07718302379897,124.4422483366373
208168.0,17317.0,208168.0,30183.0,208168.0,19764.0,-15.348964959102254,146.34382553262702,128.75597585649308
208168.0,17342.0,208168.0,30224.0,208168.0,19776.0,-9.602501605089998,149.34711471898345,132.79814049069813
208168.0,17350.0,208168.0,30236.0,208168.0,19781.0,-3.9473246563798057,152.08742000358262,136.56775800293894
208168.0,17352.0,208168.0,30212.0,208168.0,19784.0,1.608637825799839,154.56597626651717,140.0648925279267
208168.0,17356.0,208168.0,30229.0,208168.0,19764.0,7.058055956836249,156.785105779693,143.29071086004706
208178.0,17358.0,208178.0,30188.0,208178.0,19764.0,12.394193920406785,158.74808029051957,146.2473128077429
208178.0,17366.0,208178.0,30208.0,208178.0,19777.0,17.610846491418187,160.45879317501894,148.93744888232982
208178.0,17370.0,208178.0,30227.0,208178.0,19779.0,22.702299381217827,161.92148642791543,151.36438226833081
208178.0,17392.0,208178.0,30234.0,208178.0,19788.0,27.663358128028264,163.14080759177395,153.53195772335948
208178.0,17370.0,208178.0,30235.0,208178.0,19785.0,32.48943357504143,164.12212970469005,155.4447234994609
208178.0,17381.0,208178.0,30201.0,208178.0,19776.0,37.17654041997821,164.8717293703767,157.10797461876373
208189.0,17389.0,208189.0,30201.0,208189.0,19761.0,41.72116446328873,165.3965860003847,158.52763236002716
208189.0,17391.0,208189.0,30213.0,208189.0,19774.0,46.120178795753205,165.70399023298577,159.70998407113646
208189.0,17407.0,208189.0,30247.0,208189.0,19797.0,50.370885941401596,165.80141866604117,160.66153203553603
208189.0,17420.0,208189.0,30236.0,208189.0,19793.0,54.47114153473876,165.69685275566297,161.38915558556428
208189.0,17403.0,208189.0,30196.0,208189.0,19768.0,58.41951307252479,165.39911463205638,161.9003555474442
208189.0,17400.0,208189.0,30189.0,208189.0,19758.0,62.21529369731947,164.91769745317447,162.2031760504955
208199.0,17388.0,208199.0,30163.0,208199.0,19765.0,65.85825570783649,164.2621588191892,162.30583583833933
208199.0,17416.0,208199.0,30215.0,208199.0,19779.0,69.34833809851736,163.4415990656491,162.21647559191717
208199.0,17406.0,208199.0,30209.0,208199.0,19771.0,72.68552919840579,162.4646369696563,161.94320920674187
208199.0,17428.0,208199.0,30228.0,208199.0,19764.0,75.8699525080522,161.33983198228597,161.4942581762682
208199.0,17414.0,208199.0,30180.0,208199.0,19763.0,78.90198776594738,160.07606701238322,160.87793609066114
208199.0,17411.0,208199.0,30177.0,208199.0,19758.0,81.78228962677053,158.68247661921546,160.10252750635883
208209.0,17417.0,208209.0,30174.0,208209.0,19756.0,84.51166346461682,157.1680154414826,159.17618234146616
208209.0,17430.0,208209.0,30216.0,208209.0,19762.0,87.09093994131612,155.54117654699417,158.10685790961233
208209.0,17435.0,208209.0,30182.0,208209.0,19767.0,89.52102033047052,153.8101528546576,156.90234475595162
208209.0,17440.0,208209.0,30187.0,208209.0,19766.0,91.80304197700778,151.9831033924754,155.57039020312337
208209.0,17440.0,208209.0,30161.0,208209.0,19750.0,93.93851612986947,150.0681173575436,154.11880602540367
208209.0,17422.0,208209.0,30163.0,208209.0,19735.0,95.92934299481604,148.0729364254671,152.55539607855238
208220.0,17421.0,208220.0,30176.0,208220.0,19742.0,97.77764324686495,146.00471432264297,150.8877076807935
208220.0,17443.0,208220.0,30181.0,208220.0,19749.0,99.48551927097057,143.87001983229635,149.12284326953628
208220.0,17454.0,208220.0,30202.0,208220.0,19750.0,101.05503545561152,141.67510728687498,147.26750815458584
208220.0,17440.0,208220.0,30176.0,208220.0,19743.0,102.48844377956647,139.42627219624802,145.32817676225275
208220.0,17441.0,208220.0,30151.0,208220.0,19730.0,103.78832880510981,137.1299821767919,143.3111565667145
208220.0,17442.0,208220.0,30156.0,208220.0,19729.0,104.9575323667022,134.79262107884375,141.22248473942258
208230.0,17437.0,208230.0,30156.0,208230.0,19744.0,105.99902786368514,132.4201314493685,139.06780706787112
208230.0,17440.0,208230.0,30172.0,208230.0,19735.0,106.91583715734242,130.0179274901333,136.8524210833886
208230.0,17445.0,208230.0,30145.0,208230.0,19729.0,107.71097783491228,127.59103582237024,134.58141238472174
208230.0,17444.0,208230.0,30159.0,208230.0,19729.0,108.38746705171562,125.14418663291399,132.2596917317261
208230.0,17435.0,208230.0,30133.0,208230.0,19717.0,108.94834137939071,122.68175385212803,129.89193274368975
208230.0,17437.0,208230.0,30144.0,208230.0,19717.0,109.39659744805002,120.20762920686252,127.48248694494809
208240.0,17450.0,208240.0,30145.0,208240.0,19712.0,109.73510590115106,117.72513524115607,125.03529624463899
208240.0,17450.0,208240.0,30144.0,208240.0,19736.0,109.96664832135423,115.23706217543207,122.55388568286875
208240.0,17462.0,208240.0,30144.0,208240.0,19719.0,110.09408310479813,112.74578802179954,120.04152131104489
208240.0,17436.0,208240.0,30130.0,208240.0,19703.0,110.120488413148,110.2533482984177,117.50137524073575
208240.0,17433.0,208240.0,30124.0,208240.0,19703.0,110.04911009359307,107.76138443506773,114.93645895538086
208240.0,17430.0,208240.0,30106.0,208240.0,19708.0,109.8831083967388,105.27096675716521,112.34943608678559
208251.0,17447.0,208251.0,30161.0,208251.0,19707.0,109.62534421188215,102.78245389396889,109.74258371423886
208251.0,17439.0,208251.0,30156.0,208251.0,19719.0,109.2783888776847,100.29571237093418,107.1179243611308
208251.0,17443.0,208251.0,30144.0,208251.0,19715.0,108.84464819526565,97.81064173076399,104.47743147534923
208251.0,17439.0,208251.0,30119.0,208251.0,19689.0,108.32642854348614,95.32745473150432,101.82318083095413
208251.0,17427.0,208251.0,30102.0,208251.0,19692.0,107.72590859063874,92.84644549118832,99.15728184109533
208251.0,17447.0,208251.0,30115.0,208251.0,19699.0,107.04506307326758,90.36754710762393,96.48168180603419
208261.0,17462.0,208261.0,30144.0,208261.0,19697.0,106.2857004689572,87.89014217852011,93.79812634947343
208261.0,17452.0,208261.0,30139.0,208261.0,19697.0,105.4497197307972,85.41333669231621,91.10829014644568
208261.0,17447.0,208261.0,30160.0,208261.0,19699.0,104.53935936592204,82.93646457890637,88.41390991649244
208261.0,17440.0,208261.0,30118.0,208261.0,19669.0,103.55720606648865,80.45945260318837,85.71682855889657
208261.0,17424.0,208261.0,30100.0,208261.0,19692.0,102.5060194839528,77.98279670128528,83.01890989871764
208261.0,17449.0,208261.0,30113.0,208261.0,19677.0,101.38853496171623,75.50717202260304,80.32193731243034
208272.0,17438.0,208272.0,30127.0,208272.0,19695.0,100.2074121072684,73.03312997732077,77.62766009420068
208272.0,17452.0,208272.0,30143.0,208272.0,19682.0,98.96536554231699,70.56125058593656,74.93794703000023
208272.0,17429.0,208272.0,30101.0,208272.0,19664.0,97.66530168039863,68.09250524231233,72.25487915275085
208272.0,17418.0,208272.0,30100.0,208272.0,19670.0,96.31027728457845,65.6283279866794,69.58066424143962
208272.0,17425.0,208272.0,30097.0,208272.0,19659.0,94.90327364038846,63.170328473634385,66.91746608832504
208272.0,17453.0,208272.0,30128.0,208272.0,19659.0,93.44705742477015,60.72008978393729,64.26730631404942
208282.0,17448.0,208282.0,30105.0,208282.0,19683.0,91.94438721038344,58.27932220725807,61.632081159705535
208282.0,17426.0,208282.0,30128.0,208282.0,19687.0,90.39834492857169,55.85015235815844,59.01377616165547
208282.0,17422.0,208282.0,30089.0,208282.0,19654.0,88.81237328931205,53.43527436491189,56.414789601026385
208282.0,17414.0,208282.0,30088.0,208282.0,19645.0,87.19002108128016,51.03786592188538,53.83797813070731
208282.0,17422.0,208282.0,30071.0,208282.0,19645.0,85.5347038472595,48.66128935617307,51.286351647861004
208282.0,17420.0,208282.0,30084.0,208282.0,19643.0,83.84963767242921,46.30877593317773,48.762787661812496
208292.0,17422.0,208292.0,30116.0,208292.0,19666.0,82.13789943059653,43.98337863909848,46.27000790854343
208292.0,17423.0,208292.0,30096.0,208292.0,19645.0,80.40251826885417,41.688284402830796,43.81076450244449
208292.0,17416.0,208292.0,30077.0,208292.0,19630.0,78.64654358930025,39.42714769456292,41.38798661836672
208292.0,17403.0,208292.0,30063.0,208292.0,19640.0,76.873036812092,37.20402446188326,39.00468928924259
208292.0,17395.0,208292.0,30070.0,208292.0,19645.0,75.08492813342399,35.023017589393476,36.663840524840055
208292.0,17416.0,208292.0,30077.0,208292.0,19648.0,73.28483329548045,32.888054686300144,34.36844568985848
208303.0,17425.0,208303.0,30073.0,208303.0,19638.0,71.475077167882,30.802939731493982,32.12174178735468
208303.0,17411.0,208303.0,30071.0,208303.0,19626.0,69.65795441080242,28.77149833829794,29.927266797094664
208303.0,17396.0,208303.0,30044.0,208303.0,19619.0,67.83590132368964,26.79759592919116,27.78873718041742
208303.0,17397.0,208303.0,30050.0,208303.0,19591.0,66.01137440819359,24.884953819122885,25.709788078658562
208303.0,17413.0,208303.0,30045.0,208303.0,19612.0,64.1866662701677,23.036898672916124,23.693659060559163
208303.0,17409.0,208303.0,30062.0,208303.0,19619.0,62.363942102367616,21.256267827361455,21.743027676017356
208313.0,17401.0,208313.0,30076.0,208313.0,19640.0,60.54541572458045,19.545567509155802,19.86019106031254
208313.0,17403.0,208313.0,30058.0,208313.0,19606.0,58.73342428709408,17.907284692544934,18.04743157888308
208313.0,17399.0,208313.0,30032.0,208313.0,19607.0,56.93039144590041,16.34404085976378,16.307161691309492
208313.0,17385.0,208313.0,30030.0,208313.0,19590.0,55.13877000072608,14.858358902341678,14.641730583240268
208313.0,17396.0,208313.0,30063.0,208313.0,19608.0,53.360953799580436,13.452330447797237,13.053161643364682
208313.0,17401.0,208313.0,30073.0,208313.0,19599.0,51.599229661041605,12.127679342314593,11.543069628914022
208323.0,17389.0,208323.0,30042.0,208323.0,19617.0,49.8558562564446,10.886156461773588,10.112761502524915
208323.0,17395.0,208323.0,30034.0,208323.0,19606.0,48.13315047782778,9.729699151617659,8.763413629975624
208323.0,17383.0,208323.0,30019.0,208323.0,19594.0,46.433478007848436,8.660146794574175,7.49618970512627
208323.0,17382.0,208323.0,30035.0,208323.0,19593.0,44.75918849048159,7.678860524614429,6.312181986980374
208323.0,17398.0,208323.0,30061.0,208323.0,19610.0,43.11256605633272,6.786629513345446,5.212283068063055
208323.0,17400.0,208323.0,30070.0,208323.0,19606.0,41.495912501501415,5.983987231833545,4.19722491377787
208334.0,17400.0,208334.0,30030.0,208334.0,19620.0,39.91177113938469,5.271646243525936,3.2677871666341964
208334.0,17362.0,208334.0,30026.0,208334.0,19588.0,38.36304637856346,4.650543554107735,2.4249682700862536
208334.0,17370.0,208334.0,30015.0,208334.0,19579.0,36.85280442973663,4.1214479251421565,1.6699129660530048
208334.0,17368.0,208334.0,30024.0,208334.0,19591.0,35.38391897037916,3.68455410499336,1.003610300432804
208334.0,17367.0,208334.0,30052.0,208334.0,19589.0,33.95888344206798,3.339381679638308,0.4266737544951624
208334.0,17396.0,208334.0,30075.0,208334.0,19601.0,32.57986476713833,3.0850736524729854,-0.06061844081945367
208344.0,17367.0,208344.0,30044.0,208344.0,19599.0,31.248905312233504,2.920920724917366,-0.45815436919467345
208344.0,17359.0,208344.0,30014.0,208344.0,19584.0,29.96804839400476,2.8465810864956396,-0.7658628987174083
208344.0,17357.0,208344.0,30017.0,208344.0,19577.0,28.739184887963255,2.861714438727084,-0.9837651275470094
208344.0,17358.0,208344.0,30022.0,208344.0,19581.0,27.563798962399467,2.965449175908219,-1.1121845939319712
208344.0,17376.0,208344.0,30064.0,208344.0,19593.0,26.442896198271164,3.156237236917484,-1.1518916157487205
208344.0,17369.0,208344.0,30043.0,208344.0,19586.0,25.37714440339694,3.4321715351553124,-1.1040522300850242
208354.0,17352.0,208354.0,30022.0,208354.0,19591.0,24.36703281018049,3.791322820340504,-0.9701071786644171
208354.0,17358.0,208354.0,30024.0,208354.0,19586.0,23.412835119692627,4.231658908049255,-0.751720539185154
208354.0,17362.0,208354.0,30013.0,208354.0,19579.0,22.514463395773337,4.750685976074678,-0.45080807558990443
208354.0,17367.0,208354.0,30037.0,208354.0,19589.0,21.671453622954036,5.345204597176853,-0.06961287401297511
208354.0,17373.0,208354.0,30062.0,208354.0,19589.0,20.883101144180788,6.011376891869972,0.38925274666511456
208354.0,17375.0,208354.0,30057.0,208354.0,19587.0,20.14863671086301,6.745104903335857,0.9228476915408095
208365.0,17351.0,208365.0,30030.0,208365.0,19584.0,19.467331861051516,7.542388424958638,1.527933930581689
208365.0,17358.0,208365.0,30020.0,208365.0,19589.0,18.838416273879954,8.399251595189433,2.2009431544647526
208365.0,17353.0,208365.0,30029.0,208365.0,19582.0,18.260873906893035,9.311335527871833,2.9379329903251232
208365.0,17361.0,208365.0,30058.0,208365.0,19596.0,17.733324361933093,10.273650896652903,3.7345713438283106
208365.0,17371.0,208365.0,30063.0,208365.0,19598.0,17.254064390980012,11.280765841841145,4.586181374228747
208365.0,17363.0,208365.0,30060.0,208365.0,19604.0,16.821210898210193,12.32721282164578,5.487869502527037
208375.0,17371.0,208375.0,30048.0,208375.0,19593.0,16.43283418699544,13.407719954574958,6.4346495824445675
208375.0,17351.0,208375.0,30036.0,208375.0,19603.0,16.086986396243226,14.51711727192059,7.421464228841597
208375.0,17365.0,208375.0,30032.0,208375.0,19604.0,15.78162316396197,15.650035426894746,8.443158104450116
208375.0,17372.0,208375.0,30071.0,208375.0,19609.0,15.514537980553772,16.800666184969767,9.494510584974954
208375.0,17369.0,208375.0,30092.0,208375.0,19609.0,15.28343679186208,17.96291271263115,10.570315826417922
208375.0,17364.0,208375.0,30082.0,208375.0,19613.0,15.08605983166677,19.130917707697087,11.665447667299691
208385.0,17372.0,208385.0,30050.0,208385.0,19601.0,14.920203024968263,20.29944137305801,12.7748771536782
208385.0,17355.0,208385.0,30052.0,208385.0,19598.0,14.783673437630313,21.463694794912897,13.893594283462374
208385.0,17357.0,208385.0,30065.0,208385.0,19608.0,14.674201104667038,22.618916263335034,15.016456394530543
208385.0,17376.0,208385.0,30090.0,208385.0,19617.0,14.589335641132795,23.76023304925514,16.13812728094878
208385.0,17372.0,208385.0,30093.0,208385.0,19627.0,14.526487582895477,24.882940334545065,17.25320838968694
208385.0,17374.0,208385.0,30065.0,208385.0,19614.0,14.483104417075563,25.982843300119157,18.356442869643868
208396.0,17350.0,208396.0,30061.0,208396.0,19612.0,14.456738538332278,27.05624968291304,19.442786226359146
208396.0,17361.0,208396.0,30039.0,208396.0,19611.0,14.444895908483293,28.09959067665358,20.50729518237766
208396.0,17373.0,208396.0,30065.0,208396.0,19624.0,14.444855728794444,29.10899004680421,21.545002875352253
208396.0,17384.0,208396.0,30114.0,208396.0,19639.0,14.453722266026126,30.080182275112993,22.5509667363948
208396.0,17384.0,208396.0,30081.0,208396.0,19633.0,14.468688681974694,31.008937709110118,23.520491232096063
208396.0,17369.0,208396.0,30069.0,208396.0,19632.0,14.487247850522643,31.89149904005804,24.44933135075497
208406.0,17371.0,208406.0,30076.0,208406.0,19615.0,14.507176210730144,32.72451521822736,25.333694847974346
208406.0,17360.0,208406.0,30059.0,208406.0,19613.0,14.526355495520228,33.504719819710004,26.17004136493682
208406.0,17367.0,208406.0,30079.0,208406.0,19626.0,14.542588235567464,34.22872633939244,26.954838417724588
208406.0,17376.0,208406.0,30086.0,208406.0,19635.0,14.553512342175061,34.89300325369238,27.684494959488593
208406.0,17375.0,208406.0,30086.0,208406.0,19626.0,14.55665936267447,35.49402491527592,28.35549893880996
208406.0,17362.0,208406.0,30085.0,208406.0,19642.0,14.549551250942322,36.02845875573697,28.964564692353946
208416.0,17364.0,208416.0,30062.0,208416.0,19612.0,14.52966169245584,36.493186536696655,29.508670884394785
208416.0,17371.0,208416.0,30072.0,208416.0,19634.0,14.494286585897509,36.88512130604242,29.984983027484848
208416.0,17378.0,208416.0,30099.0,208416.0,19642.0,14.440520063879315,37.201038722893294,30.390778057778153
208416.0,17377.0,208416.0,30111.0,208416.0,19644.0,14.365372567102117,37.437738551227525,30.723555214726595
208416.0,17386.0,208416.0,30078.0,208416.0,19631.0,14.265915712534582,37.59242511991732,30.981228078521976
208416.0,17380.0,208416.0,30080.0,208416.0,19625.0,14.139391314903389,37.66281913374745,31.162130714041908
208427.0,17366.0,208427.0,30080.0,208427.0,19634.0,13.983240132630065,37.64691795184495,31.26485417793966
208427.0,17379.0,208427.0,30076.0,208427.0,19631.0,13.795003881464584,37.54276463001788,31.288134028853516
208427.0,17380.0,208427.0,30120.0,208427.0,19642.0,13.57222404575775,37.348452449955055,31.230879954431714
208427.0,17398.0,208427.0,30108.0,208427.0,19646.0,13.312511606680197,37.062413567061554,31.092296962647932
208427.0,17392.0,208427.0,30103.0,208427.0,19635.0,13.013763480964272,36.68381779503081,30.872025317171364
208427.0,17380.0,208427.0,30074.0,208427.0,19621.0,12.674337539275168,36.212682901594235,30.570159604302862
208437.0,17363.0,208437.0,30070.0,208437.0,19613.0,12.29299199339808,35.64957299416758,30.187047780936155
208437.0,17372.0,208437.0,30078.0,208437.0,19626.0,11.868605395769393,34.995178436255785,29.723011862790376
208437.0,17391.0,208437.0,30127.0,208437.0,19630.0,11.399970732461355,34.25020226047579,29.17824118474506
208437.0,17385.0,208437.0,30100.0,208437.0,19640.0,10.885884232686756,33.41572709567067,28.552925006648064
208437.0,17375.0,208437.0,30080.0,208437.0,19617.0,10.325346798552278,32.4936295065775,27.847442322525353
208437.0,17379.0,208437.0,30057.0,208437.0,19604.0,9.71759274834433,31.486481137920457,27.062349829608205
208447.0,17362.0,208447.0,30053.0,208447.0,19624.0,9.06196007064283,30.397019575286418,26.198149831410763
208447.0,17383.0,208447.0,30084.0,208447.0,19639.0,8.35775601721146,29.227712986735,25.255184113497872
208447.0,17389.0,208447.0,30098.0,208447.0,19633.0,7.604251622237449,27.980796895642797,24.233862218433348
208447.0,17394.0,208447.0,30081.0,208447.0,19627.0,6.8008739759077095,26.658685866108808,23.134948881068876
208447.0,17368.0,208447.0,30043.0,208447.0,19618.0,5.947412115488639,25.264209574086134,21.9596191927204
208447.0,17365.0,208447.0,30027.0,208447.0,19607.0,5.043963348567292,23.80028260712152,20.70930777622729
208458.0,17356.0,208458.0,30046.0,208458.0,19612.0,4.090640252949406,22.26928515324591,19.38549764256926
208458.0,17377.0,208458.0,30070.0,208458.0,19629.0,3.0873176252577004,20.672773747541783,17.98961665304718
208458.0,17388.0,208458.0,30091.0,208458.0,19626.0,2.033654127956652,19.011789132311083,16.5231649861157
208458.0,17385.0,208458.0,30072.0,208458.0,19609.0,0.9293684009827778,17.287449524736147,14.987925829875037
208458.0,17363.0,208458.0,30060.0,208458.0,19608.0,-0.225525816513251,15.501311180302029,13.385984024256658
208458.0,17366.0,208458.0,30053.0,208458.0,19608.0,-1.4307764887417633,13.655297886450906,11.719570807674002
208468.0,17362.0,208468.0,30050.0,208468.0,19604.0,-2.6861246352152044,11.751436110138862,9.99095113914151
208468.0,17381.0,208468.0,30072.0,208468.0,19597.0,-3.99142287111259,9.791711438549477,8.202387927888934
208468.0,17379.0,208468.0,30078.0,208468.0,19607.0,-5.346529839263734,7.7782000506497155,6.356110244091926
208468.0,17367.0,208468.0,30053.0,208468.0,19600.0,-6.751120176205665,5.713355754276229,4.45431984042613
208468.0,17362.0,208468.0,30047.0,208468.0,19601.0,-8.204642746280793,3.600102415683665,2.4992521015133136
208468.0,17359.0,208468.0,30035.0,208468.0,19598.0,-9.70646155832794,1.441614325393509,0.49322051884847085
208478.0,17374.0,208478.0,30045.0,208478.0,19599.0,-11.25598105813225,-0.7589585808335144,-1.561367524426526
208478.0,17375.0,208478.0,30061.0,208478.0,19600.0,-12.852591895588949,-2.9985556396998376,-3.6619792130248605
208478.0,17369.0,208478.0,30055.0,208478.0,19600.0,-14.49549385089139,-5.2740080017078625,-5.80589289249621
208478.0,17362.0,208478.0,30019.0,208478.0,19591.0,-16.18359628940484,-7.581839956717168,-7.990135258435004
208478.0,17356.0,208478.0,30009.0,208478.0,19571.0,-17.91558521615433,-9.918433416537198,-10.211516369148502
208478.0,17343.0,208478.0,30016.0,208478.0,19564.0,-19.690092206007503,-12.280476740480765,-12.46684352603717
208489.0,17366.0,208489.0,30034.0,208489.0,19576.0,-21.505855969903735,-14.665224467604112,-14.753198770849956
208489.0,17356.0,208489.0,30053.0,208489.0,19583.0,-23.361736963636364,-17.07030902517274,-17.068021065056456
208489.0,17374.0,208489.0,30032.0,208489.0,19582.0,-25.256558772170308,-19.493300804849376,-19.408930510087167
208489.0,17344.0,208489.0,30010.0,208489.0,19564.0,-27.18894225299762,-21.931457858262746,-21.773531467826942
208489.0,17334.0,208489.0,30012.0,208489.0,19554.0,-29.157340921188386,-24.381889926145632,-24.159435482841808
208489.0,17338.0,208489.0,30008.0,208489.0,19578.0,-31.16030797622788,-26.84187380620009,-26.564431230470284
208499.0,17356.0,208499.0,30023.0,208499.0,19572.0,-33.1967096745915,-29.308976119028507,-28.986495986624
208499.0,17374.0,208499.0,30033.0,208499.0,19569.0,-35.26558963125948,-31.780912729179292,-31.423600122232337
208499.0,17351.0,208499.0,30003.0,208499.0,19565.0,-37.36579134571893,-34.255298704289686,-33.873561701650836
208499.0,17336.0,208499.0,30001.0,208499.0,19569.0,-39.4957538491707,-36.72958435138602,-36.33403017797828
208499.0,17330.0,208499.0,29973.0,208499.0,19535.0,-41.653693002936286,-39.20130490243139,-38.802530450621454
208499.0,17330.0,208499.0,29993.0,208499.0,19535.0,-43.837931722813934,-41.668437510286395,-41.27665033277602
208509.0,17340.0,208509.0,30000.0,208509.0,19547.0,-46.04706955562434,-44.12956612149233,-43.75432698479574
208509.0,17345.0,208509.0,30025.0,208509.0,19566.0,-48.27991880657173,-46.58368632172106,-46.23390049998154
208509.0,17339.0,208509.0,29989.0,208509.0,19543.0,-50.53531452055019,-49.02981007596034,-48.7138517372459
208509.0,17338.0,208509.0,29977.0,208509.0,19535.0,-52.81197037403632,-51.466805498962245,-51.192598844158105
208509.0,17328.0,208509.0,29977.0,208509.0,19541.0,-55.10846551361578,-53.89363965831133,-53.66857310686419
208509.0,17322.0,208509.0,29995.0,208509.0,19535.0,-57.423334051566016,-56.30965410563178,-56.14034954615998
208520.0,17329.0,208520.0,30013.0,208520.0,19548.0,-59.755186433845296,-58.71447854315596,-58.606629938528116
208520.0,17329.0,208520.0,30001.0,208520.0,19539.0,-62.10275344635882,-61.10764133613998,-61.06611878281652
208520.0,17319.0,208520.0,29979.0,208520.0,19531.0,-64.46483469091412,-63.48827353576392,-63.51741367938925
208520.0,17310.0,208520.0,29969.0,208520.0,19519.0,-66.84029727977679,-65.8551978462479,-65.95903361149765
208520.0,17314.0,208520.0,29950.0,208520.0,19523.0,-69.22819157038953,-68.20730340181791,-68.38957505588759
208520.0,17325.0,208520.0,29981.0,208520.0,19527.0,-71.62783017387324,-70.54388866457651,-70.8078239534396
208530.0,17328.0,208530.0,30015.0,208530.0,19529.0,-74.03868051325321,-72.8646264207965,-73.2127082329188
208530.0,17321.0,208530.0,29991.0,208530.0,19527.0,-76.46014988012601,-75.16906388015619,-75.6031536629158
208530.0,17315.0,208530.0,29959.0,208530.0,19510.0,-78.8914633575491,-77.45618608349955,-77.97799484721912
208530.0,17309.0,208530.0,29953.0,208530.0,19494.0,-81.3317054602613,-79.72457082785333,-80.33607091717637
208530.0,17300.0,208530.0,29953.0,208530.0,19502.0,-83.77995266374218,-81.97288217648328,-82.67648369676748
208530.0,17312.0,208530.0,29970.0,208530.0,19515.0,-86.23539971222975,-84.20014809778746,-84.99876945871763
208541.0,17324.0,208541.0,29974.0,208541.0,19512.0,-88.69735021680563,-86.40566037590173,-87.30279407009999
208541.0,17312.0,208541.0,29968.0,208541.0,19515.0,-91.1650250251046,-88.58869312566014,-89.58850915633826
208541.0,17304.0,208541.0,29948.0,208541.0,19496.0,-93.63739278253394,-90.74833944793039,-91.85581011285392
208541.0,17291.0,208541.0,29933.0,208541.0,19494.0,-96.1132271074988,-92.88364433769199,-94.10458501159586
208541.0,17290.0,208541.0,29951.0,208541.0,19504.0,-98.59132565482517,-94.99390840285942,-96.3348532200383
208541.0,17305.0,208541.0,29967.0,208541.0,19511.0,-101.07067659140992,-97.0788022010032,-98.5467731508233
208551.0,17306.0,208551.0,29948.0,208551.0,19509.0,-103.55041062435133,-99.13815562704507,-100.74045438297615
208551.0,17301.0,208551.0,29960.0,208551.0,19497.0,-106.02959730288164,-101.1717158032647,-102.9157684285071
208551.0,17278.0,208551.0,29926.0,208551.0,19471.0,-108.5071426361464,-103.17912239698447,-105.07237872779844
208551.0,17273.0,208551.0,29917.0,208551.0,19472.0,-110.98194995520751,-105.1601165644273,-107.21003035188214
208551.0,17294.0,208551.0,29947.0,208551.0,19485.0,-113.45317810876212,-107.11484794125336,-109.32886669210933
208551.0,17290.0,208551.0,29928.0,208551.0,19495.0,-115.92027930277239,-109.04397208068607,-111.42946149045854
208561.0,17285.0,208561.0,29960.0,208561.0,19482.0,-118.38281661091449,-110.94845940860232,-113.51258644243916
208561.0,17303.0,208561.0,29943.0,208561.0,19487.0,-120.8402999739017,-112.82932007187223,-115.57901386632606
208561.0,17259.0,208561.0,29926.0,208561.0,19481.0,-123.29212367650557,-114.68742476289084,-117.62947583922674
208561.0,17272.0,208561.0,29911.0,208561.0,19471.0,-125.73767007803647,-116.52360362406674,-119.66469478045343
208561.0,17262.0,208561.0,29939.0,208561.0,19475.0,-128.17656747225755,-118.33893618358793,-121.685453078971
208561.0,17288.0,208561.0,29955.0,208561.0,19479.0,-130.60882484541023,-120.13479314749469,-123.69265114802265
208572.0,17277.0,208572.0,29949.0,208572.0,19474.0,-133.03469378854922,-121.9124822824834,-125.68726888542288
208572.0,17276.0,208572.0,29917.0,208572.0,19466.0,-135.45444374700003,-123.67291928127105,-127.67030134078799
208572.0,17263.0,208572.0,29904.0,208572.0,19456.0,-137.86828535230225,-125.41674855153616,-129.64280414738255
208572.0,17261.0,208572.0,29920.0,208572.0,19463.0,-140.27647420864136,-127.14477021413856,-131.60603047247912
208572.0,17275.0,208572.0,29935.0,208572.0,19478.0,-142.67943322930617,-128.85815926251843,-133.5614813642427
208572.0,17282.0,208572.0,29947.0,208572.0,19466.0,-145.0777032849577,-130.55824615181965,-135.51076219756132
208582.0,17266.0,208582.0,29922.0,208582.0,19468.0,-147.4717383406732,-132.24613603095565,-137.45539897429887
208582.0,17259.0,208582.0,29902.0,208582.0,19456.0,-149.86180207821275,-133.92260370079492,-139.39679858606132
208582.0,17237.0,208582.0,29901.0,208582.0,19452.0,-152.24812586312106,-135.58838568682899,-141.33633882508582
208582.0,17250.0,208582.0,29912.0,208582.0,19469.0,-154.63120864736186,-137.2445395331517,-143.27546262664652
208582.0,17268.0,208582.0,29923.0,208582.0,19471.0,-157.01197952427208,-138.89251006906952,-145.21562067204565
208582.0,17277.0,208582.0,29920.0,208582.0,19462.0,-159.39161649945922,-140.53391475551757,-147.15806635384473
208592.0,17255.0,208592.0,29925.0,208592.0,19441.0,-161.7711873943898,-142.17029091253747,-149.10376007017203
208592.0,17251.0,208592.0,29894.0,208592.0,19443.0,-164.1515034252632,-143.8029970316349,-151.05353661073693
208592.0,17243.0,208592.0,29898.0,208592.0,19440.0,-166.53327446800716,-145.43335109676346,-153.0083615623148
208592.0,17258.0,208592.0,29908.0,208592.0,19463.0,-168.9173008757075,-147.06287432731983,-154.96941564501526
208592.0,17257.0,208592.0,29934.0,208592.0,19456.0,-171.30447719145724,-148.6933043618489,-156.93792802233963
208592.0,17251.0,208592.0,29915.0,208592.0,19450.0,-173.69565225219623,-150.32628676659954,-158.9149285407173
208603.0,17247.0,208603.0,29916.0,208603.0,19447.0,-176.09154195632624,-151.9630767051546,-160.90114956502552
208603.0,17237.0,208603.0,29886.0,208603.0,19427.0,-178.49278168824844,-153.60454618149117,-162.89711582880938
208603.0,17238.0,208603.0,29890.0,208603.0,19433.0,-180.9000536175175,-155.25146241298026,-164.9033352548637
208603.0,17253.0,208603.0,29912.0,208603.0,19441.0,-183.3141633804249,-156.90476005336,-166.92045513807952
208603.0,17235.0,208603.0,29918.0,208603.0,19447.0,-185.7359811252466,-158.565497609919,-168.94922177541446
208603.0,17249.0,208603.0,29930.0,208603.0,19447.0,-188.16633796280502,-160.23450004925863,-170.99026780715468
208613.0,17236.0,208613.0,29881.0,208613.0,19438.0,-190.60598302841925,-161.91205587719617,-173.0439215243815
208613.0,17226.0,208613.0,29871.0,208613.0,19425.0,-193.05560315289145,-163.59804912742123,-175.1101818081804
208613.0,17227.0,208613.0,29876.0,208613.0,19421.0,-195.51593142608294,-165.292469583755,-177.188868808962
208613.0,17234.0,208613.0,29912.0,208613.0,19422.0,-197.98787177589463,-166.9957467370179,-179.27982489395504
208613.0,17240.0,208613.0,29914.0,208613.0,19426.0,-200.47247359317046,-168.708527015173,-181.38301004024845
208613.0,17243.0,208613.0,29900.0,208613.0,19437.0,-202.97075232639486,-170.43118164254452,-183.49843298962497
208623.0,17225.0,208623.0,29888.0,208623.0,19416.0,-205.4835179113468,-172.16357127795237,-185.62599506834204
208623.0,17215.0,208623.0,29861.0,208623.0,19412.0,-208.0113890914838,-173.90523134370062,-187.76543892585096
208623.0,17230.0,208623.0,29871.0,208623.0,19413.0,-210.55497336564227,-175.6557777003194,-189.9164750499088
208623.0,17231.0,208623.0,29893.0,208623.0,19424.0,-213.11495148230102,-177.41518662232428,-192.07888571758482
208623.0,17230.0,208623.0,29908.0,208623.0,19421.0,-215.69195313204128,-179.1836596933456,-194.2524424700264
208623.0,17227.0,208623.0,29892.0,208623.0,19415.0,-218.28640392765445,-180.96119302223076,-196.43674639917685
208634.0,17208.0,208634.0,29864.0,208634.0,19394.0,-220.89850757397397,-182.74733444551546,-198.63120172157306
208634.0,17211.0,208634.0,29873.0,208634.0,19401.0,-223.52838142723132,-184.54137156489355,-200.83518336367308
208634.0,17211.0,208634.0,29852.0,208634.0,19413.0,-226.17623413134902,-186.3426915971413,-203.0482022759241
208634.0,17224.0,208634.0,29896.0,208634.0,19416.0,-228.84240723856186,-188.15096295319276,-205.26983576723796
208634.0,17229.0,208634.0,29891.0,208634.0,19414.0,-231.52721807209525,-189.9659786905849,-207.49948358781813
208634.0,17214.0,208634.0,29871.0,208634.0,19400.0,-234.2307292917931,-191.78730553553797,-209.73620071715197
208644.0,17207.0,208644.0,29855.0,208644.0,19384.0,-236.95266169243013,-193.6141756069226,-211.97875460946864
208644.0,17193.0,208644.0,29857.0,208644.0,19393.0,-239.69253725310594,-195.4457564459421,-214.22585228628634
208644.0,17199.0,208644.0,29868.0,208644.0,19398.0,-242.4499188799678,-197.28142903436523,-216.47630458631727
208644.0,17210.0,208644.0,29887.0,208644.0,19399.0,-245.22453841226255,-199.12075610217374,-218.72896773913885
208644.0,17212.0,208644.0,29881.0,208644.0,19387.0,-248.01619957624655,-200.9631731244515,-220.98259384273408
208644.0,17204.0,208644.0,29864.0,208644.0,19387.0,-250.82456517703892,-202.80769748727795,-223.23579265453688
208654.0,17193.0,208654.0,29853.0,208654.0,19387.0,-253.64905924023526,-204.65293511652783,-225.48709461824842
208654.0,17190.0,208654.0,29861.0,208654.0,19384.0,-256.488961016285,-206.4973198427872,-227.7349876770698
208654.0,17202.0,208654.0,29866.0,208654.0,19400.0,-259.34353908684943,-208.33927186942725,-229.97786923257897
208654.0,17206.0,208654.0,29880.0,208654.0,19397.0,-262.2120272711395,-210.17710540084906,-232.2138950856482
208654.0,17217.0,208654.0,29868.0,208654.0,19388.0,-265.09340997688275,-212.00878666861104,-234.44078814818428
208654.0,17187.0,208654.0,29842.0,208654.0,19363.0,-267.9861930860535,-213.83180751885908,-236.65581138241862
208665.0,17161.0,208665.0,29819.0,208665.0,19365.0,-270.88844777769447,-215.64341544961525,-238.85600420306994
208665.0,17184.0,208665.0,29860.0,208665.0,19394.0,-273.79817995144197,-217.4410524448225,-241.03842744039463
208665.0,17198.0,208665.0,29875.0,208665.0,19383.0,-276.71359021180933,-219.22245831088003,-243.20008506832838
208665.0,17190.0,208665.0,29883.0,208665.0,19372.0,-279.6329067517689,-220.9852261077478,-245.33765635843056
208665.0,17182.0,208665.0,29859.0,208665.0,19380.0,-282.55410082304695,-222.72627115921955,-247.447402827178
208665.0,17179.0,208665.0,29846.0,208665.0,19360.0,-285.47483293162225,-224.44170346486416,-249.5252480616961
208675.0,17172.0,208675.0,29843.0,208675.0,19361.0,-288.39256304258083,-226.12708944945618,-251.56689293160258
208675.0,17173.0,208675.0,29839.0,208675.0,19372.0,-291.3046609478499,-227.7777753314744,-253.56792786632303
208675.0,17172.0,208675.0,29854.0,208675.0,19380.0,-294.20846426074826,-229.38903547546727,-255.52380472320775
208675.0,17186.0,208675.0,29864.0,208675.0,19371.0,-297.1012476944581,-230.955987188957,-257.4296339862908
208675.0,17175.0,208675.0,29865.0,208675.0,19366.0,-299.98008954485255,-232.47332271052295,-259.2800260059638
208675.0,17172.0,208675.0,29840.0,208675.0,19350.0,-302.8417427239675,-233.93507711133623,-261.0691342888358
208685.0,17160.0,208685.0,29816.0,208685.0,19360.0,-305.6826460284483,-235.33471762753868,-262.7908322054085
208685.0,17173.0,208685.0,29840.0,208685.0,19365.0,-308.49903324984024,-236.6655283068094,-264.4388270023371
208685.0,17174.0,208685.0,29874.0,208685.0,19349.0,-311.28696013010494,-237.92080448526394,-266.00662429616557
208685.0,17165.0,208685.0,29851.0,208685.0,19363.0,-314.04220273833687,-239.09354565848048,-267.4874768169125
208685.0,17165.0,208685.0,29829.0,208685.0,19358.0,-316.76018119894934,-240.17609825410597,-268.8743742758902
208685.0,17165.0,208685.0,29807.0,208685.0,19349.0,-319.4359797384909,-241.16030708043522,-270.16001386478416
208696.0,17149.0,208696.0,29819.0,208696.0,19345.0,-322.06439641633006,-242.0380299891803,-271.33682649013963
208696.0,17161.0,208696.0,29841.0,208696.0,19357.0,-324.6400146022256,-242.8014675843831,-272.39707516834494
208696.0,17167.0,208696.0,29866.0,208696.0,19358.0,-327.1572376802299,-243.44299456126322,-273.33285988053586
208696.0,17161.0,208696.0,29835.0,208696.0,19342.0,-329.61018799154334,-243.95468720550133,-274.13602306620675
208696.0,17150.0,208696.0,29815.0,208696.0,19352.0,-331.9925936446833,-244.3280997780191,-274.79813814570696
208696.0,17139.0,208696.0,29798.0,208696.0,19340.0,-334.29785563627024,-244.5545855058811,-275.3105995486925
208706.0,17137.0,208706.0,29802.0,208706.0,19342.0,-336.51926917568903,-244.62586901003883,-275.6647113105451
208706.0,17153.0,208706.0,29832.0,208706.0,19339.0,-338.6502031238408,-244.53438879892872,-275.8517684423672
208706.0,17154.0,208706.0,29842.0,208706.0,19352.0,-340.68406776854624,-244.27317331651614,-275.8631070696972
208706.0,17131.0,208706.0,29849.0,208706.0,19355.0,-342.6141642414807,-243.83539852163108,-275.6900426724168
208706.0,17146.0,208706.0,29821.0,208706.0,19323.0,-344.43367280207974,-243.2140360189715,-275.32378372593246
208706.0,17132.0,208706.0,29814.0,208706.0,19325.0,-346.13577211008806,-242.40189349986457,-274.7555679174882
208716.0,17136.0,208716.0,29820.0,208716.0,19339.0,-347.71372376121076,-241.39195462876606,-273.9769787217045
208716.0,17153.0,208716.0,29838.0,208716.0,19348.0,-349.16088183060083,-240.17763005142433,-272.9800722754991
208716.0,17142.0,208716.0,29855.0,208716.0,19342.0,-350.4705972859248,-238.7526627369543,-271.7572318505411
208716.0,17155.0,208716.0,29821.0,208716.0,19341.0,-351.63605998376613,-237.1108578592577,-270.30103552415966
208716.0,17140.0,208716.0,29797.0,208716.0,19335.0,-352.6502059597496,-235.24610085231552,-268.60429919319034
208716.0,17131.0,208716.0,29824.0,208716.0,19320.0,-353.5057529684062,-233.15280145090583,-266.66025671926866
208727.0,17135.0,208727.0,29841.0,208727.0,19335.0,-354.1953685475624,-230.8262458388872,-264.46281065234353
208727.0,17139.0,208727.0,29815.0,208727.0,19343.0,-354.7118433461401,-228.26252721625627,-262.00670196908686
208727.0,17141.0,208727.0,29857.0,208727.0,19355.0,-355.04812424254624,-225.4583827779624,-259.2874553370639
208727.0,17142.0,208727.0,29823.0,208727.0,19353.0,-355.19725403086295,-222.4111416271198,-256.3011891181636
208727.0,17132.0,208727.0,29815.0,208727.0,19335.0,-355.15234539657905,-219.11878575216764,-253.04452703174434
208727.0,17126.0,208727.0,29827.0,208727.0,19352.0,-354.90667035488224,-215.58022736174993,-249.51472897863349
208737.0,17145.0,208737.0,29857.0,208737.0,19348.0,-354.4538188268726,-211.79555776937667,-245.70988935467622
208737.0,17158.0,208737.0,29853.0,208737.0,19346.0,-353.7877161029845,-207.76592787630133,-241.62904306595846
208737.0,17143.0,208737.0,29864.0,208737.0,19362.0,-352.90243868880435,-203.49324845533943,-237.2722319212011
208737.0,17150.0,208737.0,29844.0,208737.0,19366.0,-351.7920816949106,-198.98006637423356,-232.6405334543141
208737.0,17137.0,208737.0,29845.0,208737.0,19361.0,-350.45083378887773,-194.2297138359296,-227.73602181897286
208737.0,17131.0,208737.0,29856.0,208737.0,19364.0,-348.873178950232,-189.2465990093048,-222.56179023707796
208747.0,17151.0,208747.0,29876.0,208747.0,19381.0,-347.0541179560154,-184.03637080831749,-217.12205921713783
208747.0,17164.0,208747.0,29922.0,208747.0,19408.0,-344.9892337087383,-178.6057370897175,-211.4221599746764
208747.0,17156.0,208747.0,29897.0,208747.0,19388.0,-342.67453176056637,-172.96199072867987,-205.46832411143262
208747.0,17154.0,208747.0,29876.0,208747.0,19388.0,-340.1063071174493,-167.11270071894245,-199.26757079655795
208747.0,17142.0,208747.0,29896.0,208747.0,19417.0,-337.2812499424734,-161.06592828487513,-192.8278430266104
208747.0,17166.0,208747.0,29911.0,208747.0,19418.0,-334.19667897189447,-154.83060146573146,-186.15809120223238
208758.0,17165.0,208758.0,29955.0,208758.0,19428.0,-330.85065787798925,-148.4164913858581,-179.2681540079381
208758.0,17172.0,208758.0,29950.0,208758.0,19456.0,-327.24193799885177,-141.8337798028709,-172.16860224980064
208758.0,17181.0,208758.0,29932.0,208758.0,19447.0,-323.36987320418683,-135.09266081462366,-164.87057771343132
208758.0,17160.0,208758.0,29912.0,208758.0,19448.0,-319.23442026514346,-128.20342768680726,-157.3856833650733
208758.0,17167.0,208758.0,29925.0,208758.0,19460.0,-314.83629557752124,-121.17701006591663,-149.72606214792347
208758.0,17187.0,208758.0,29949.0,208758.0,19477.0,-310.17721943005074,-114.02545530892094,-141.90452435999288
208768.0,17208.0,208768.0,29989.0,208768.0,19480.0,-305.25996042352034,-106.76193466060357,-133.93452894181445
208768.0,17212.0,208768.0,29993.0,208768.0,19491.0,-300.0880909401025,-99.40030019567928,-125.83009718293037
208768.0,17204.0,208768.0,29992.0,208768.0,19507.0,-294.66573891812465,-91.95459684614318,-117.60576364431343
208768.0,17215.0,208768.0,29971.0,208768.0,19512.0,-288.9975786636757,-84.43894393168209,-109.27651932100855
208768.0,17215.0,208768.0,29983.0,208768.0,19522.0,-283.08897961619044,-76.86783430820245,-100.85774050314123
208768.0,17247.0,208768.0,30021.0,208768.0,19532.0,-276.946088281772,-69.25647223918189,-92.36515749000469
208778.0,17246.0,208778.0,30046.0,208778.0,19555.0,-270.57572983043315,-61.620700252056395,-83.8148181373523
208778.0,17249.0,208778.0,30033.0,208778.0,19549.0,-263.9852384383614,-53.97656710393332,-75.22298906436015
208778.0,17250.0,208778.0,30044.0,208778.0,19564.0,-257.1824306682345,-46.34003620456005,-66.60608304412673
208778.0,17258.0,208778.0,30048.0,208778.0,19575.0,-250.17574188614208,-38.72702825617412,-57.98067276226962
208778.0,17275.0,208778.0,30087.0,208778.0,19583.0,-242.97435344360906,-31.153492012678527,-49.363497320492314
208778.0,17288.0,208778.0,30108.0,208778.0,19619.0,-235.58818487859904,-23.63519503761404,-40.77137392807771
208789.0,17312.0,208789.0,30123.0,208789.0,19631.0,-228.0277407182939,-16.187254184124754,-32.220957575989786
208789.0,17306.0,208789.0,30110.0,208789.0,19625.0,-220.30389655914337,-8.82371896709688,-23.728423028913625
208789.0,17319.0,208789.0,30105.0,208789.0,19628.0,-212.42777586371443,-1.5575108992863989,-15.309343823573585
208789.0,17328.0,208789.0,30096.0,208789.0,19638.0,-204.4107697390949,5.599271544782141,-6.978838580207849
208789.0,17328.0,208789.0,30115.0,208789.0,19654.0,-196.26460219706763,12.634933700592825,1.2482688435083844
208789.0,17354.0,208789.0,30155.0,208789.0,19674.0,-188.00137576621609,19.53799767383032,9.357470124793934
208799.0,17375.0,208799.0,30142.0,208799.0,19696.0,-179.63352422076355,26.29740572030815,17.334780726187375
208799.0,17376.0,208799.0,30145.0,208799.0,19691.0,-171.17361536982716,32.902804788399095,25.167024787875647
208799.0,17391.0,208799.0,30139.0,208799.0,19700.0,-162.6341593313387,39.34453009823113,32.84200283570635
208799.0,17378.0,208799.0,30162.0,208799.0,19703.0,-154.02759390003774,45.613387255576754,40.34846178173197
208799.0,17411.0,208799.0,30176.0,208799.0,19714.0,-145.36640815282405,51.700569152482245,47.67599308345291
208799.0,17430.0,208799.0,30209.0,208799.0,19733.0,-136.66319139631668,57.5978556849208,54.81500311182677
208810.0,17432.0,208810.0,30194.0,208810.0,19739.0,-127.9304714617619,63.29798324286688,61.75680463547735
208810.0,17449.0,208810.0,30190.0,208810.0,19740.0,-119.18051597924239,68.79487055990737,68.49374878320353
208810.0,17439.0,208810.0,30188.0,208810.0,19733.0,-110.42529455005632,74.08349676064014,75.01922979762611
208810.0,17461.0,208810.0,30169.0,208810.0,19744.0,-101.67657915838487,79.1595512041944,81.32751830717243
208810.0,17483.0,208810.0,30213.0,208810.0,19760.0,-92.94602660628937,84.01909611360378,87.41359332509546
208810.0,17487.0,208810.0,30218.0,208810.0,19770.0,-84.2450968813807,88.65849914729154,93.27315327447161
208820.0,17503.0,208820.0,30252.0,208820.0,19775.0,-75.5848880274308,93.07474734573185,98.90276572846503
208820.0,17506.0,208820.0,30208.0,208820.0,19768.0,-66.97605309177581,97.26584710606406,104.29996375204337
208820.0,17501.0,208820.0,30211.0,208820.0,19770.0,-58.42883724015917,101.23085899059905,109.46317158088118
208820.0,17524.0,208820.0,30221.0,208820.0,19776.0,-49.95321850227458,104.96954314980883,114.3915204308
208820.0,17536.0,208820.0,30251.0,208820.0,19798.0,-41.55902027168372,108.48210715645291,119.08473864958572
208820.0,17557.0,208820.0,30252.0,208820.0,19800.0,-33.25584345582786,111.76937196142336,123.54323564083279
208830.0,17575.0,208830.0,30251.0,208830.0,19803.0,-25.05285236049241,114.83310097594739,127.76827838285851
208830.0,17556.0,208830.0,30259.0,208830.0,19789.0,-16.95857994339059,117.6761623855399,131.76204399156933
208830.0,17575.0,208830.0,30231.0,208830.0,19779.0,-8.980938322375891,120.30248011520072,135.52743293514328
208830.0,17589.0,208830.0,30250.0,208830.0,19802.0,-1.1273836675704842,122.7168300182943,139.0677500903751
208830.0,17604.0,208830.0,30265.0,208830.0,19815.0,6.59504000664964,124.92464710989242,142.38655306108075
208830.0,17617.0,208830.0,30257.0,208830.0,19802.0,14.17983708101383,126.93205820624348,145.4877728874191
208841.0,17623.0,208841.0,30255.0,208841.0,19806.0,21.62121898069023,128.74600623037122,148.37581966422738
208841.0,17618.0,208841.0,30227.0,208841.0,19811.0,28.91416199805343,130.3741604048679,151.05550497287277
208841.0,17632.0,208841.0,30228.0,208841.0,19804.0,36.05431995550225,131.82455949301658,153.53193074012256
208841.0,17644.0,208841.0,30229.0,208841.0,19816.0,43.037897106688774,133.10518212199798,155.81042329537286
208841.0,17644.0,208841.0,30258.0,208841.0,19822.0,49.861612961145966,134.22373332514667,157.8965124630982
208841.0,17676.0,208841.0,30279.0,208841.0,19830.0,56.522747015295465,135.18782918236337,159.79600813560774
208851.0,17661.0,208851.0,30228.0,208851.0,19814.0,63.0192290938848,136.00537491300076,161.51510736446608
208851.0,17659.0,208851.0,30230.0,208851.0,19805.0,69.3496681338761,136.6846019114406,163.06034155364188
208851.0,17661.0,208851.0,30207.0,208851.0,19800.0,75.51316365378204,137.23360562074237,164.43830689168692
208851.0,17686.0,208851.0,30251.0,208851.0,19827.0,81.50904364108584,137.65986562734065,165.6553923293347
208851.0,17698.0,208851.0,30256.0,208851.0,19825.0,87.33682637710325,137.97021317496788,166.71776999937555
208851.0,17689.0,208851.0,30242.0,208851.0,19827.0,92.99637789143259,138.17116693237674,167.6315993040496
208861.0,17695.0,208861.0,30234.0,208861.0,19813.0,98.48797162363678,138.2691490764162,168.40315103076875
208861.0,17696.0,208861.0,30223.0,208861.0,19808.0,103.81215113564178,138.27033660849744,169.0387035651588
208861.0,17697.0,208861.0,30234.0,208861.0,19830.0,108.96954360017969,138.18037637806935,169.54435063651994
208861.0,17723.0,208861.0,30256.0,208861.0,19826.0,113.960747498128,138.00427729236523,169.92596728815022
208861.0,17737.0,208861.0,30262.0,208861.0,19832.0,118.78639366929889,137.74661714384564,170.18935816102868
208861.0,17726.0,208861.0,30245.0,208861.0,19825.0,123.44735743715194,137.41188175712958,170.34038552878968
208872.0,17740.0,208872.0,30238.0,208872.0,19807.0,127.94488096440381,137.00458013060998,170.38493928290478
208872.0,17724.0,208872.0,30233.0,208872.0,19807.0,132.2804924834134,136.52906054923469,170.32872844255456
208872.0,17738.0,208872.0,30234.0,208872.0,19809.0,136.45582557280943,135.98926025191986,170.17700733006103
208872.0,17753.0,208872.0,30259.0,208872.0,19816.0,140.4724760471816,135.38861314865778,169.93443455514063
208872.0,17771.0,208872.0,30243.0,208872.0,19838.0,144.33205021226723,134.7301802203354,169.60515368390713
208872.0,17763.0,208872.0,30250.0,208872.0,19824.0,148.0363841976025,134.0168405924035,169.19303877753725
208882.0,17764.0,208882.0,30231.0,208882.0,19811.0,151.58768134975008,133.251326644495,168.70188003218135
208882.0,17770.0,208882.0,30212.0,208882.0,19811.0,154.98844822740887,132.43604639917393,168.1353009510119
208882.0,17762.0,208882.0,30235.0,208882.0,19822.0,158.24135257551507,131.57278012400388,167.4965566817831
208882.0,17768.0,208882.0,30253.0,208882.0,19834.0,161.34908212537522,130.66254451146347,166.7885189858756
208882.0,17780.0,208882.0,30274.0,208882.0,19822.0,164.31422235156685,129.7058813922015,166.0138639239234
208882.0,17777.0,208882.0,30246.0,208882.0,19818.0,167.13922393168946,128.70335238463397,165.17521122362604
208892.0,17779.0,208892.0,30212.0,208892.0,19811.0,169.82642137682063,127.65570722193789,164.27506346379846
208892.0,17782.0,208892.0,30224.0,208892.0,19807.0,172.3779934745237,126.56351729468582,163.31563403438332
208892.0,17799.0,208892.0,30244.0,208892.0,19814.0,174.7959160635761,125.4267357956497,162.29870343060895
208892.0,17812.0,208892.0,30276.0,208892.0,19817.0,177.08204670745897,124.24475918771486,161.22558678426392
208892.0,17811.0,208892.0,30251.0,208892.0,19826.0,179.23834120285676,123.01692928493472,160.09723483660974
208892.0,17798.0,208892.0,30246.0,208892.0,19818.0,181.26700353791398,121.74291944012217,158.91439747960126
208903.0,17802.0,208903.0,30221.0,208903.0,19819.0,183.1704032922798,120.42266487262808,157.6777324579882
208903.0,17802.0,208903.0,30224.0,208903.0,19816.0,184.95085957180953,119.05599499718741,156.38781468542953
208903.0,17810.0,208903.0,30268.0,208903.0,19817.0,186.61049377637625,117.64238059805143,155.04510686487933
208903.0,17828.0,208903.0,30276.0,208903.0,19830.0,188.15123612506096,116.18116012506482,153.64997841511322
208903.0,17815.0,208903.0,30254.0,208903.0,19831.0,189.5749534920655,114.67209941900799,152.20283339972022
208903.0,17819.0,208903.0,30236.0,208903.0,19812.0,190.8835426649191,113.11566967334716,150.7042725682604
208913.0,17814.0,208913.0,30228.0,208913.0,19807.0,192.07886754233027,111.51280686261333,149.15508307671178
208913.0,17821.0,208913.0,30239.0,208913.0,19819.0,193.1626272317215,109.86452498801137,147.55606193965622
208913.0,17832.0,208913.0,30258.0,208913.0,19831.0,194.1362986726598,108.17179392841982,145.90796258180254
208913.0,17845.0,208913.0,30265.0,208913.0,19822.0,195.0012265866111,106.43577900417765,144.21167981558494
208913.0,17845.0,208913.0,30233.0,208913.0,19812.0,195.7588343970899,104.65817711379725,142.4684303736086
208913.0,17821.0,208913.0,30227.0,208913.0,19806.0,196.4107658462516,102.84124870751273,140.67971445218046
208923.0,17829.0,208923.0,30223.0,208923.0,19811.0,196.9587670329788,100.98751113983587,138.84715131797603
208923.0,17842.0,208923.0,30238.0,208923.0,19805.0,197.40444845773612,99.09946367095782,136.972381184412
208923.0,17844.0,208923.0,30239.0,208923.0,19820.0,197.74923664961113,97.1795949796875,135.0570859237252
208923.0,17856.0,208923.0,30274.0,208923.0,19822.0,197.9945315149289,95.23064679911809,133.10311844329243
208923.0,17848.0,208923.0,30240.0,208923.0,19812.0,198.14187913197395,93.2560020499156,131.11269210138946
208923.0,17829.0,208923.0,30204.0,208923.0,19801.0,198.19300614338766,91.25984929968007,129.08846213248958
208934.0,17849.0,208934.0,30201.0,208934.0,19801.0,198.14966308070365,89.24680773883614,127.0334140140784
208934.0,17853.0,208934.0,30234.0,208934.0,19809.0,198.01347893915994,87.22137883427428,124.9507226113744
208934.0,17874.0,208934.0,30239.0,208934.0,19807.0,197.78606777037106,85.18787817660257,122.84375806822959
208934.0,17861.0,208934.0,30235.0,208934.0,19817.0,197.4693062914812,83.15082309239364,120.71622012855312
208934.0,17854.0,208934.0,30200.0,208934.0,19791.0,197.0655072316597,81.11520316768934,118.57226316561216
208934.0,17866.0,208934.0,30208.0,208934.0,19796.0,196.57737502610752,79.08632390603863,116.41647418609787
208944.0,17865.0,208944.0,30219.0,208944.0,19797.0,196.0079238941961,77.06949858599364,114.25373403084365
208944.0,17865.0,208944.0,30231.0,208944.0,19796.0,195.36050594706978,75.07001920054331,112.08915185450005
208944.0,17875.0,208944.0,30233.0,208944.0,19802.0,194.63887839815482,73.09343666276578,109.9281273677127
208944.0,17881.0,208944.0,30210.0,208944.0,19796.0,193.84729155482063,71.1458323808866,107.77645163281738
208944.0,17857.0,208944.0,30200.0,208944.0,19784.0,192.99058937437115,69.23380579527279,105.64035921791583
208944.0,17843.0,208944.0,30186.0,208944.0,19777.0,192.0741241234224,67.36417565734325,103.52644854953542
208954.0,17851.0,208954.0,30204.0,208954.0,19784.0,191.10342225147593,65.54364780484656,101.44151478526095
208954.0,17865.0,208954.0,30196.0,208954.0,19783.0,190.08391296218622,63.778694086607146,99.3924670106068
208954.0,17862.0,208954.0,30196.0,208954.0,19789.0,189.02096012966422,62.07561793740025,97.38639227671123
208954.0,17865.0,208954.0,30192.0,208954.0,19761.0,187.92004155934507,60.44061009359122,95.43063269016744
208954.0,17844.0,208954.0,30174.0,208954.0,19754.0,186.78681638397535,58.87969305964941,93.53267700169259
208954.0,17849.0,208954.0,30164.0,208954.0,19752.0,185.62699946915984,57.39852984197353,91.69985836337878
208965.0,17860.0,208965.0,30201.0,208965.0,19761.0,184.4461822838897,56.002204014708155,89.93910693282217
208965.0,17862.0,208965.0,30207.0,208965.0,19764.0,183.24981861488504,54.69529068323375,88.25693922442699
208965.0,17865.0,208965.0,30204.0,208965.0,19766.0,182.04337494500896,53.48226270141113,86.65961113076396
208965.0,17863.0,208965.0,30187.0,208965.0,19752.0,180.8324712792907,52.367813081607494,85.15325429128933
208965.0,17839.0,208965.0,30157.0,208965.0,19740.0,179.6228887943625,51.356769655323674,83.74384585015031
208965.0,17847.0,208965.0,30165.0,208965.0,19746.0,178.42039353768803,50.453672663744996,82.43701342894046
208975.0,17873.0,208975.0,30171.0,208975.0,19752.0,177.2305500317558,49.66236320607919,81.23787547124739
208975.0,17863.0,208975.0,30196.0,208975.0,19754.0,176.05880791892037,48.98591834045352,80.15107260481277
208975.0,17858.0,208975.0,30197.0,208975.0,19743.0,174.91074004425286,48.42694485649646,79.18088664657469
208975.0,17851.0,208975.0,30173.0,208975.0,19743.0,173.79208979108586,47.98791591799011,78.33126091820844
208975.0,17852.0,208975.0,30151.0,208975.0,19732.0,172.70862344168847,47.671163958601625,77.60569340157969
208975.0,17846.0,208975.0,30168.0,208975.0,19745.0,171.66597558482044,47.47850546670112,77.00710581758365
208985.0,17859.0,208985.0,30182.0,208985.0,19745.0,170.66956631138453,47.41094482853197,76.53780589221098
208985.0,17855.0,208985.0,30202.0,208985.0,19763.0,169.72461227870116,47.468801205666466,76.19960140384161
208985.0,17850.0,208985.0,30180.0,208985.0,19744.0,168.83618694727193,47.65207830282678,75.99399510575279
208985.0,17853.0,208985.0,30162.0,208985.0,19735.0,168.0092205410266,47.960625724283545,75.92225809231972
208985.0,17834.0,208985.0,30173.0,208985.0,19739.0,167.2484071884494,48.39391990164721,75.98527632684595
208985.0,17853.0,208985.0,30188.0,208985.0,19744.0,166.5580636089283,48.95080458390862,76.18335849706561
208996.0,17859.0,208996.0,30199.0,208996.0,19743.0,165.94206264130344,49.62955113041882,76.51619944869721
208996.0,17863.0,208996.0,30214.0,208996.0,19751.0,165.4039548042838,50.428181979910505,76.98294657164594
208996.0,17868.0,208996.0,30183.0,208996.0,19758.0,164.94717860077074,51.34477200438802,77.58229427107605
208996.0,17843.0,208996.0,30167.0,208996.0,19735.0,164.57516314936578,52.37742829936724,78.31256809937126
208996.0,17841.0,208996.0,30166.0,208996.0,19746.0,164.29120160876735,53.52388371478531,79.17167919173255
208996.0,17853.0,208996.0,30187.0,208996.0,19754.0,164.0981762350442,54.781070485217256,80.15698953483611
209005.0,17853.0,209005.0,30211.0,209005.0,19749.0,163.9984081704602,56.14508485164872,81.26529050902266
209005.0,17852.0,209005.0,30211.0,209005.0,19755.0,163.9937006796044,57.61154277515314,82.4928725293687
209005.0,17855.0,209005.0,30203.0,209005.0,19747.0,164.08539362466027,59.17596664408785,83.8355381584359
209005.0,17853.0,209005.0,30156.0,209005.0,19751.0,164.27435626796742,60.83380241767328,85.28854464496267
209005.0,17850.0,209005.0,30193.0,209005.0,19747.0,164.56095073870455,62.5800025923607,86.84651649980218
209005.0,17857.0,209005.0,30216.0,209005.0,19766.0,164.94497423177663,64.40867095288473,88.50339099916147
209015.0,17875.0,209015.0,30234.0,209015.0,19769.0,165.42565682964647,66.31326913210731,90.25248583338036
209015.0,17886.0,209015.0,30243.0,209015.0,19779.0,166.00183435305692,68.28719291578729,92.08668707307031
209015.0,17870.0,209015.0,30201.0,209015.0,19772.0,166.6722193627616,70.32416602386905,93.99863219667493
209015.0,17861.0,209015.0,30191.0,209015.0,19769.0,167.4354890516802,72.41810552287654,95.98076293747252
209015.0,17860.0,209015.0,30209.0,209015.0,19768.0,168.29008078850003,74.56259871048061,98.02522997462029
209015.0,17884.0,209015.0,30228.0,209015.0,19792.0,169.23395236996473,76.75056438610935,100.12378732663947
209026.0,17891.0,209026.0,30247.0,209026.0,19796.0,170.26460654520227,78.97441644237858,102.26786895522814
209026.0,17880.0,209026.0,30246.0,209026.0,19790.0,171.37932119116144,81.22648918354395,104.44880939521609
209026.0,17876.0,209026.0,30211.0,209026.0,19803.0,172.57525737710517,83.4992955848969,106.65798405360401
209026.0,17885.0,209026.0,30209.0,209026.0,19794.0,173.84934219642906,85.78533541896746,108.88682493486176
209026.0,17888.0,209026.0,30242.0,209026.0,19802.0,175.19814704403555,88.07666598311637,111.12680111462463
209026.0,17889.0,209026.0,30272.0,209026.0,19820.0,176.61788893468452,90.36483469483396,113.36942292732878
209036.0,17895.0,209036.0,30282.0,209036.0,19819.0,178.10446997862977,92.64137011240588,115.60635513968238
209036.0,17907.0,209036.0,30259.0,209036.0,19812.0,179.65352073400877,94.89835810045183,117.82957867217836
209036.0,17899.0,209036.0,30245.0,209036.0,19814.0,181.26048197174407,97.1285731952134,120.03140686070485
209036.0,17891.0,209036.0,30233.0,209036.0,19820.0,182.92063190330478,99.32511887883108,122.20437675494752
209036.0,17900.0,209036.0,30258.0,209036.0,19808.0,184.62896188161724,101.4809615062326,124.34115938734578
209036.0,17924.0,209036.0,30279.0,209036.0,19827.0,186.38006869788998,103.58878714080713,126.43449735078063
209046.0,17918.0,209046.0,30305.0,209046.0,19834.0,188.1682720805493,105.64132116473812,128.47720230289193
209046.0,17907.0,209046.0,30268.0,209046.0,19827.0,189.98779769726767,107.6318174587839,130.46226727209353
209046.0,17919.0,209046.0,30263.0,209046.0,19839.0,191.83275668930497,109.55420740621884,132.38297459812563
209046.0,17920.0,209046.0,30262.0,209046.0,19838.0,193.69701501632002,111.40278549120674,134.23292890277463
209046.0,17936.0,209046.0,30304.0,209046.0,19834.0,195.57418148363305,113.17190523998124,136.00607399538336
209046.0,17944.0,209046.0,30296.0,209046.0,19850.0,197.45774298318236,114.85610460126236,137.69669594384123
209057.0,17946.0,209057.0,30308.0,209057.0,19860.0,199.3412621580238,116.45048893220881,139.29947524211383
209057.0,17939.0,209057.0,30284.0,209057.0,19847.0,201.21851020527998,117.9509548777241,140.8096388512497
209057.0,17938.0,209057.0,30267.0,209057.0,19842.0,203.08343181569188,119.3540650701774,142.2230281268191
209057.0,17949.0,209057.0,30289.0,209057.0,19860.0,204.93000923462344,120.65668508820103,143.53599374345595
209057.0,17955.0,209057.0,30299.0,209057.0,19863.0,206.7522017057277,121.8557490822346,144.74534845521424
209057.0,17978.0,209057.0,30322.0,209057.0,19860.0,208.54405560758778,122.94841523002769,145.84848709076863
209067.0,17964.0,209067.0,30311.0,209067.0,19865.0,210.29992679037713,123.93244517524393,146.84349782272943
209067.0,17955.0,209067.0,30277.0,209067.0,19853.0,212.01460483706782,124.80640481835253,147.72915956113394
209067.0,17953.0,209067.0,30271.0,209067.0,19836.0,213.68317146310832,125.56940725796349,148.50481339103928
209067.0,17969.0,209067.0,30292.0,209067.0,19855.0,215.3007490511996,126.22061244606508,149.17011619073304
209067.0,17966.0,209067.0,30326.0,209067.0,19872.0,216.86240863760224,126.75906034938451,149.724903110718
209067.0,17981.0,209067.0,30326.0,209067.0,19847.0,218.36324762834394,127.18405215954266,150.16931475222594
209077.0,17983.0,209077.0,30318.0,209077.0,19853.0,219.79851800574158,127.49567686005516,150.5039077536951
209077.0,17976.0,209077.0,30290.0,209077.0,19859.0,221.16373435264316,127.69498330962611,150.72956664579874
209077.0,17988.0,209077.0,30277.0,209077.0,19848.0,222.45469911212624,127.7836784377267,150.8474173050662
209077.0,17991.0,209077.0,30297.0,209077.0,19861.0,223.66748772568698,127.76364091304796,150.85882090342864
209077.0,17991.0,209077.0,30318.0,209077.0,19856.0,224.79848890054322,127.63671164177458,150.76538558248416
209077.0,17991.0,209077.0,30328.0,209077.0,19854.0,225.84444954031804,127.40495531400586,150.56899580840488
209088.0,17991.0,209088.0,30305.0,209088.0,19849.0,226.80245160246943,127.07107926035982,150.27180471495558
209088.0,17985.0,209088.0,30276.0,209088.0,19842.0,227.66983717809157,126.63851778540938,149.87614080484698
209088.0,17989.0,209088.0,30270.0,209088.0,19845.0,228.4441021272994,126.11103011120248,149.38437346279707
209088.0,18002.0,209088.0,30290.0,209088.0,19855.0,229.12281906945307,125.49217811646778,148.79883434481593
209088.0,18020.0,209088.0,30308.0,209088.0,19860.0,229.70371932787236,124.7851775419825,148.1218876586967
209088.0,18017.0,209088.0,30322.0,209088.0,19860.0,230.18495414375127,123.99321766317784,147.3561148560723
209098.0,18007.0,209098.0,30275.0,209098.0,19845.0,230.56532881112483,123.119860769764,146.50444771285484
209098.0,17995.0,209098.0,30276.0,209098.0,19832.0,230.84428313448112,122.1690356538002,145.57009995832118
209098.0,17994.0,209098.0,30273.0,209098.0,19835.0,231.02163646165502,121.1446371332441,144.55631759593223
209098.0,18013.0,209098.0,30298.0,209098.0,19849.0,231.09734218274517,120.0502333686895,143.4661764944478
209098.0,18022.0,209098.0,30300.0,209098.0,19855.0,231.07149050211552,118.88917226516416,142.30263558883848
209098.0,18012.0,209098.0,30310.0,209098.0,19849.0,230.94452305856035,117.66492494549429,141.06877071351175
209109.0,18011.0,209109.0,30285.0,209109.0,19841.0,230.71737809283394,116.38136464947702,139.7679339816319
209109.0,18005.0,209109.0,30261.0,209109.0,19841.0,230.39143055787508,115.04273405007125,138.40372730459302
209109.0,18004.0,209109.0,30275.0,209109.0,19834.0,229.9683404701312,113.65329276702916,136.9798911286171
209109.0,18006.0,209109.0,30290.0,209109.0,19842.0,229.44992481110657,112.2170213549041,135.50022564849354
209109.0,18018.0,209109.0,30278.0,209109.0,19841.0,228.83811566254604,110.73767911682411,133.96859294726963
209109.0,18019.0,209109.0,30292.0,209109.0,19823.0,228.13504701506926,109.21901931483225,132.38895541742076
209119.0,17994.0,209119.0,30258.0,209119.0,19828.0,227.3431588828005,107.664876309429,130.76532284433677
209119.0,17993.0,209119.0,30256.0,209119.0,19818.0,226.46509604602102,106.07902939130327,129.10160802459484
209119.0,18001.0,209119.0,30278.0,209119.0,19827.0,225.50343777138733,104.46494841571064,127.40152435587783
209119.0,18014.0,209119.0,30284.0,209119.0,19835.0,224.46057210249623,102.82575503237703,125.66860622154371
209119.0,18022.0,209119.0,30304.0,209119.0,19836.0,223.33885427515844,101.16453701082494,123.9063641913124
209119.0,18014.0,209119.0,30271.0,209119.0,19818.0,222.14087716271663,99.48473426024609,122.11845754630181
209129.0,17998.0,209129.0,30236.0,209129.0,19789.0,220.86959666066133,97.79018157833227,120.30863711995377
209129.0,17992.0,209129.0,30239.0,209129.0,19802.0,219.52819050242888,96.08465016814384,118.48039560237558
209129.0,18000.0,209129.0,30262.0,209129.0,19809.0,218.11979207235592,94.37131278379704,116.6366449373105
209129.0,18010.0,209129.0,30272.0,209129.0,19822.0,216.64736826975346,92.65268283880803,114.77974044886193
209129.0,18003.0,209129.0,30278.0,209129.0,19822.0,215.11381620183226,90.93098690109417,112.91177267868653
209129.0,17999.0,209129.0,30254.0,209129.0,19796.0,213.52208837971529,89.20852527250551,111.03481115477688
209140.0,17991.0,209140.0,30245.0,209140.0,19801.0,211.87517430705387,87.48770690070623,109.15087943648071
209140.0,17992.0,209140.0,30252.0,209140.0,19800.0,210.17597276890098,85.7708152120706,107.26176053031404
209140.0,17990.0,209140.0,30264.0,209140.0,19804.0,208.4271741246961,84.05984477334418,105.36890379040213
209140.0,18000.0,209140.0,30278.0,209140.0,19814.0,206.6312273904272,82.35663738913162,103.47351014773872
209140.0,17997.0,209140.0,30262.0,209140.0,19806.0,204.7904082130345,80.66319412248117,101.57670455328123
209140.0,17990.0,209140.0,30232.0,209140.0,19798.0,202.906914803344,78.98181307298314,99.6796640521399
209150.0,17973.0,209150.0,30233.0,209150.0,19797.0,200.9828460457185,77.31483833272432,97.78360026518723
209150.0,17985.0,209150.0,30223.0,209150.0,19785.0,199.02002933423154,75.66422849111026,95.8896427850396
209150.0,18001.0,209150.0,30248.0,209150.0,19797.0,197.0199125828094,74.03130888596469,93.99873070532462
209150.0,18007.0,209150.0,30258.0,209150.0,19803.0,194.98373284071005,72.41686539031112,92.11160938585556
209150.0,17988.0,209150.0,30246.0,209150.0,19797.0,192.91281778068804,70.82147041031256,90.22897087354431
209150.0,17996.0,209150.0,30230.0,209150.0,19780.0,190.80871038840536,69.24570108123048,88.35157403250459
209160.0,17973.0,209160.0,30223.0,209160.0,19774.0,188.67307431005395,67.69002500820677,86.48015210686667
209160.0,17996.0,209160.0,30234.0,209160.0,19787.0,186.50754777721562,66.15453769184576,84.61520483087037
209160.0,17995.0,209160.0,30262.0,209160.0,19795.0,184.31371402472,64.63891184671117,82.75695433659008
209160.0,18009.0,209160.0,30240.0,209160.0,19786.0,182.09327112058602,63.14266586667134,80.90552353108134
209160.0,17977.0,209160.0,30237.0,209160.0,19789.0,179.8482493763479,61.66543574531208,79.06111634887888
209160.0,17962.0,209160.0,30219.0,209160.0,19763.0,177.58097272348468,60.20693678856984,77.22402785799929
209171.0,17957.0,209171.0,30206.0,209171.0,19773.0,175.29369316125118,58.76667381915935,75.39449028352723
209171.0,17968.0,209171.0,30242.0,209171.0,19772.0,172.98820378552807,57.34366094423665,73.57249862438036
209171.0,17989.0,209171.0,30236.0,209171.0,19784.0,170.66576829048248,55.93643017778508,71.75780001534807
209171.0,17982.0,209171.0,30258.0,209171.0,19770.0,168.32738509916746,54.5433613285595,69.950034692235
209171.0,17984.0,209171.0,30219.0,209171.0,19754.0,165.97411490158424,53.16301142678527,68.14880393469713
209171.0,17957.0,209171.0,30201.0,209171.0,19759.0,163.60719633867532,51.7940916121549,66.35353143264209
209181.0,17959.0,209181.0,30213.0,209181.0,19774.0,161.22788908484162,50.43507534043705,64.56330629547023
209181.0,17954.0,209181.0,30232.0,209181.0,19766.0,158.83720213999942,49.08388114758684,62.77694652208579
209181.0,17979.0,209181.0,30247.0,209181.0,19764.0,156.4357622813467,47.738014529370815,60.993175703645655
209181.0,17969.0,209181.0,30240.0,209181.0,19779.0,154.0239460898479,46.39500305771833,59.210726813398736
209181.0,17963.0,209181.0,30230.0,209181.0,19757.0,151.60210351415517,45.052716019281576,57.42841562078364
209181.0,17947.0,209181.0,30218.0,209181.0,19749.0,149.17059773224744,43.70937032796968,55.645151390125065
209191.0,17949.0,209191.0,30214.0,209191.0,19749.0,146.72962689554515,42.363313846719755,53.859777645486226
209191.0,17969.0,209191.0,30225.0,209191.0,19758.0,144.27906856727245,41.01281081078007,52.07090088817238
209191.0,17966.0,209191.0,30256.0,209191.0,19771.0,141.81856945815528,39.65606415863902,50.276935985277355
209191.0,17961.0,209191.0,30228.0,209191.0,19747.0,139.34778939508456,38.29152339527457,48.47631160965891
209191.0,17952.0,209191.0,30212.0,209191.0,19749.0,136.8665243064515,36.91811984518998,46.6675666265631
209191.0,17955.0,209191.0,30208.0,209191.0,19756.0,134.37464752167045,35.53509947768388,44.84926866990573
209202.0,17946.0,209202.0,30191.0,209202.0,19747.0,131.87201307524566,34.141635474892595,43.01996542178187
209202.0,17959.0,209202.0,30232.0,209202.0,19755.0,129.3584161347181,32.73657674476838,41.17823744794167
209202.0,17957.0,209202.0,30245.0,209202.0,19757.0,126.83364496068398,31.3185732302967,39.322775734311136
209202.0,17943.0,209202.0,30219.0,209202.0,19737.0,124.29758190645711,29.886519362625243,37.45245361349593
209202.0,17938.0,209202.0,30197.0,209202.0,19727.0,121.75019763727984,28.43979357897978,35.56627372367977
209202.0,17927.0,209202.0,30167.0,209202.0,19737.0,119.19138393265052,26.9779316940591,33.66315563388352
209212.0,17943.0,209212.0,30193.0,209212.0,19735.0,116.6207748291496,25.500025563495413,31.74179284957718
209212.0,17947.0,209212.0,30228.0,209212.0,19757.0,114.03773824314545,24.004450127455605,29.800741131874076
209212.0,17952.0,209212.0,30229.0,209212.0,19736.0,111.44157046438413,22.48921837602444,27.83865115157748
209212.0,17935.0,209212.0,30210.0,209212.0,19740.0,108.83171545144347,20.95256763724229,25.85443910305807
209212.0,17922.0,209212.0,30190.0,209212.0,19725.0,106.2077843170209,19.39315596542359,23.84726984894148
209212.0,17920.0,209212.0,30195.0,209212.0,19715.0,103.56934668845793,17.809801901246075,21.816401199547514
209222.0,17921.0,209222.0,30209.0,209222.0,19731.0,100.91569025840323,16.20120274725908,19.761006731088855
209222.0,17928.0,209222.0,30203.0,209222.0,19730.0,98.24573877120382,14.565941027967327,17.68013299439174
209222.0,17929.0,209222.0,30226.0,209222.0,19732.0,95.55814061128703,12.902698228223166,15.572843757472711
209222.0,17943.0,209222.0,30195.0,209222.0,19723.0,92.8514551732794,11.210475505482059,13.438381319195386
209222.0,17912.0,209222.0,30179.0,209222.0,19709.0,90.124335869059,9.488617020765062,11.276181001351048
209222.0,17921.0,209222.0,30191.0,209222.0,19714.0,87.37555196623276,7.736550924553441,9.085740866853925
209233.0,17926.0,209233.0,30209.0,209233.0,19710.0,84.60387358533515,5.953573838952124,6.866484295947018
209233.0,17927.0,209233.0,30203.0,209233.0,19732.0,81.80806476522054,4.1389884846101666,4.617771263657488
209233.0,17921.0,209233.0,30192.0,209233.0,19713.0,78.98701499169853,2.292367817810785,2.3390725027110193
209233.0,17920.0,209233.0,30163.0,209233.0,19704.0,76.13982506999558,0.4135571448412776,0.030114317476218844
209233.0,17915.0,209233.0,30175.0,209233.0,19685.0,73.26580082996021,-1.4976282706069242,-2.309220448976731
209233.0,17905.0,209233.0,30181.0,209233.0,19692.0,70.36440123810159,-3.441692375928568,-4.679176597269631
209243.0,17908.0,209243.0,30199.0,209243.0,19707.0,67.43515105782289,-5.419428684388919,-7.080306505946552
209243.0,17927.0,209243.0,30206.0,209243.0,19712.0,64.47760914309046,-7.4315920375841245,-9.51334950775069
209243.0,17906.0,209243.0,30182.0,209243.0,19704.0,61.49149558985334,-9.478540908034645,-11.978930090872936
209243.0,17891.0,209243.0,30159.0,209243.0,19683.0,58.47679764749026,-11.560176039691967,-14.477390604199982
209243.0,17884.0,209243.0,30158.0,209243.0,19678.0,55.43361155277371,-13.676266482700498,-17.008918321926572
209243.0,17903.0,209243.0,30177.0,209243.0,19694.0,52.36188420892583,-15.82681696723374,-19.573782697633476
209253.0,17911.0,209253.0,30169.0,209253.0,19696.0,49.261408858456676,-18.012114375392727,-22.172367100737645
209253.0,17904.0,209253.0,30197.0,209253.0,19689.0,46.13209498818999,-20.232495808176694,-24.80497276548651
209253.0,17887.0,209253.0,30166.0,209253.0,19680.0,42.974190699580504,-22.48806489708845,-27.471666119914744
209253.0,17879.0,209253.0,30152.0,209253.0,19674.0,39.788224817331056,-24.778591103780883,-30.172315194475473
209253.0,17877.0,209253.0,30164.0,209253.0,19670.0,36.57476991393723,-27.103697238945045,-32.90672201749918
209253.0,17877.0,209253.0,30168.0,209253.0,19667.0,33.33425693862591,-29.463049862809953,-35.674733625224505
209264.0,17879.0,209264.0,30153.0,209264.0,19680.0,30.06693654879878,-31.856317827171836,-38.476266932820366
209264.0,17889.0,209264.0,30151.0,209264.0,19678.0,26.772964869437857,-34.283109435713,-41.311198902327334
209264.0,17859.0,209264.0,30145.0,209264.0,19662.0,23.452526651307835,-36.743054178249395,-44.179198913190206
209264.0,17861.0,209264.0,30134.0,209264.0,19662.0,20.105817734588896,-39.23593798393111,-47.07969154659607
209264.0,17869.0,209264.0,30156.0,209264.0,19647.0,16.732882764369435,-41.76179284191889,-50.01197812730548
209264.0,17868.0,209264.0,30157.0,209264.0,19673.0,13.333565164220943,-44.320827467833894,-52.975345025047474
209274.0,17878.0,209274.0,30177.0,209274.0,19671.0,9.907658409605801,-46.91313628155605,-55.96897660336887
209274.0,17873.0,209274.0,30160.0,209274.0,19673.0,6.455120991609078,-49.53832633005656,-58.991676888269
209274.0,17865.0,209274.0,30125.0,209274.0,19640.0,2.976237698872012,-52.195351548015,-62.04166711657447
209274.0,17846.0,209274.0,30130.0,209274.0,19648.0,-0.528375992829865,-54.8827486474155,-65.11667776642432
209274.0,17855.0,209274.0,30141.0,209274.0,19641.0,-4.057936551592519,-57.599015632325646,-68.21418739583802
209274.0,17857.0,209274.0,30158.0,209274.0,19644.0,-7.611629806935497,-60.342663481169254,-71.33153920684668
209284.0,17865.0,209284.0,30163.0,209284.0,19650.0,-11.188547115302043,-63.11188235718741,-74.46589089368811
209284.0,17854.0,209284.0,30146.0,209284.0,19626.0,-14.787491130938548,-65.90414619331844,-77.61411726075946
209284.0,17845.0,209284.0,30106.0,209284.0,19619.0,-18.406857632916427,-68.71612605452205,-80.7728336716018
209284.0,17826.0,209284.0,30099.0,209284.0,19617.0,-22.044716895365553,-71.5440742571526,-83.93859102254447
209284.0,17833.0,209284.0,30135.0,209284.0,19624.0,-25.699040011938877,-74.38433531763687,-87.1080420012114
209284.0,17838.0,209284.0,30130.0,209284.0,19617.0,-29.367861792375777,-77.23342125421328,-90.27792493761109
209295.0,17843.0,209295.0,30149.0,209295.0,19626.0,-33.04922042208557,-80.08762707457564,-93.444944281234
209295.0,17826.0,209295.0,30111.0,209295.0,19613.0,-36.740975134977816,-82.94264999696921,-96.60565304450677
209295.0,17814.0,209295.0,30095.0,209295.0,19600.0,-40.440754929420166,-85.79357882119595,-99.75641422228804
209295.0,17812.0,209295.0,30093.0,209295.0,19607.0,-44.146117322214366,-88.63525763674792,-102.89348784497011
209295.0,17813.0,209295.0,30094.0,209295.0,19605.0,-47.85473710577955,-91.46267594439433,-106.01312033601562
209295.0,17825.0,209295.0,30113.0,209295.0,19604.0,-51.56443090939271,-94.27106560685311,-109.11150677677591
209305.0,17817.0,209305.0,30103.0,209305.0,19589.0,-55.27300549767588,-97.05571693167656,-112.18472131504015
209305.0,17804.0,209305.0,30078.0,209305.0,19589.0,-58.97809987091392,-99.81178926752241,-115.22875143006516
209305.0,17786.0,209305.0,30084.0,209305.0,19594.0,-62.67722563530518,-102.5343813746803,-118.23958154085042
209305.0,17798.0,209305.0,30093.0,209305.0,19576.0,-66.36798750600326,-105.21872613746396,-121.2132127590987
209305.0,17813.0,209305.0,30104.0,209305.0,19599.0,-70.04819665452811,-107.86016169724377,-124.14563308274569
209305.0,17808.0,209305.0,30108.0,209305.0,19581.0,-73.71568674855078,-110.45384475813995,-127.03274827873136
209315.0,17799.0,209315.0,30089.0,209315.0,19581.0,-77.36803108130675,-112.994457160297,-129.87028775219954
209315.0,17782.0,209315.0,30072.0,209315.0,19580.0,-81.00246644493149,-115.47615884540835,-132.65378065050788
209315.0,17779.0,209315.0,30066.0,209315.0,19561.0,-84.61605823090511,-117.89283595645003,-135.37860841198105
209315.0,17779.0,209315.0,30067.0,209315.0,19581.0,-88.20591661669079,-120.23842367314967,-138.04007521621358
209315.0,17779.0,209315.0,30071.0,209315.0,19576.0,-91.76929191577634,-122.50706517913903,-140.63340541777018
