c_ts,c_val,d_ts,d_val,e_ts,e_val,c_val_filtered,d_val_filtered,e_val_filtered
35410.0,14188.0,35410.0,49483.0,35410.0,71166.0,152.15084297843327,190.58198411124954,317.0260306743207
35410.0,14169.0,35410.0,49422.0,35410.0,71188.0,149.64926045632828,184.13824925889577,307.55438954456184
35410.0,14181.0,35410.0,49469.0,35410.0,71172.0,147.03731402694626,177.4790513842291,297.7521599836157
35410.0,14187.0,35410.0,49465.0,35410.0,71175.0,144.31750780858528,170.61817671313855,287.6301372525048
35421.0,14182.0,35421.0,49447.0,35421.0,71151.0,141.49250315171201,163.56981087596557,277.20097039111795
35421.0,14184.0,35421.0,49405.0,35421.0,71121.0,138.5653344236722,156.34877983618165,266.47925406054117
35421.0,14165.0,35421.0,49405.0,35421.0,71078.0,135.5395230080253,148.97032335447108,255.48130452646848
35421.0,14148.0,35421.0,49366.0,35421.0,71065.0,132.4190125167982,141.44962716503522,244.2246476442793
35421.0,14146.0,35421.0,49374.0,35421.0,71046.0,129.2079331966075,133.80142705086044,232.7274854520502
35421.0,14146.0,35421.0,49404.0,35421.0,71025.0,125.9103633713076,126.03986039346606,221.00836544148672
35431.0,14164.0,35431.0,49394.0,35431.0,71062.0,122.53030230291202,118.17875899625707,209.08610251332055
35431.0,14152.0,35431.0,49374.0,35431.0,71047.0,119.0718806464263,110.2321702289048,196.98006027126385
35431.0,14138.0,35431.0,49389.0,35431.0,71030.0,115.53959182854129,102.21465879641283,184.71068985387151
35431.0,14136.0,35431.0,49354.0,35431.0,70977.0,111.93831958074419,94.1413927190155,172.29981973983706
35431.0,14142.0,35431.0,49350.0,35431.0,71018.0,108.27325052287499,86.02815268411155,159.77052181940144
35431.0,14147.0,35431.0,49331.0,35431.0,70984.0,104.54992055504394,77.89121975590572,147.14703264222908
35441.0,14143.0,35441.0,49384.0,35441.0,70959.0,100.77442726752649,69.74733116017683,134.45493551169898
35441.0,14133.0,35441.0,49300.0,35441.0,70918.0,96.95363617023428,61.613910034021956,121.72116349135968
35441.0,14118.0,35441.0,49280.0,35441.0,70891.0,93.0952287622986,53.509131473520625,108.97359583847555
35441.0,14096.0,35441.0,49259.0,35441.0,70883.0,89.20754971996104,45.45139326366851,96.24053436219964
35441.0,14100.0,35441.0,49259.0,35441.0,70868.0,85.29932378518657,37.45863390019866,83.55037855497244
35441.0,14108.0,35441.0,49251.0,35441.0,70871.0,81.37945457729637,29.548031574861454,70.9315916738517
35452.0,14092.0,35452.0,49262.0,35452.0,70877.0,77.45705682512627,21.736051167290725,58.41291435265549
35452.0,14091.0,35452.0,49251.0,35452.0,70817.0,73.54156995219296,14.038668694004258,46.02366696841324
35452.0,14078.0,35452.0,49220.0,35452.0,70767.0,69.64276248881846,6.471582448017642,33.793702704344184
35452.0,14073.0,35452.0,49233.0,35452.0,70799.0,65.77065128895114,-0.9497819448810674,21.75286262779656
35452.0,14072.0,35452.0,49220.0,35452.0,70788.0,61.93542023125815,-8.210349617265251,9.930595597899355
35452.0,14071.0,35452.0,49241.0,35452.0,70748.0,58.14740081525372,-15.29529309316365,-1.643891669724212
35462.0,14053.0,35462.0,49215.0,35462.0,70740.0,54.41710622727078,-22.18975402564803,-12.941499715643545
35462.0,14053.0,35462.0,49178.0,35462.0,70703.0,50.75521128387334,-28.878681938122384,-23.933443393185712
35462.0,14024.0,35462.0,49158.0,35462.0,70683.0,47.17241922428184,-35.34708186806961,-34.59160146367242
35462.0,14014.0,35462.0,49137.0,35462.0,70666.0,43.67921095986662,-41.58057830757622,-44.888884189626594
35462.0,14018.0,35462.0,49132.0,35462.0,70648.0,40.28553310094733,-47.56593974687735,-54.799553050837346
35462.0,14029.0,35462.0,49152.0,35462.0,70646.0,37.000642985461326,-53.29132750604299,-64.29941250926328
35472.0,14035.0,35472.0,49148.0,35472.0,70624.0,33.8332621667719,-58.74617821411891,-73.3658787034874
35472.0,14009.0,35472.0,49153.0,35472.0,70615.0,30.791857947715783,-63.92083972106141,-81.97800478129886
35472.0,14008.0,35472.0,49122.0,35472.0,70617.0,27.88473697522275,-68.80627244202222,-90.11650812579097
35472.0,14013.0,35472.0,49144.0,35472.0,70632.0,25.11993442921633,-73.39397834925313,-97.7636686139893
35472.0,14008.0,35472.0,49169.0,35472.0,70620.0,22.50516161898298,-77.67591708626884,-104.90299330427342
35472.0,13994.0,35472.0,49135.0,35472.0,70582.0,20.04786029561231,-81.64415651938853,-111.51889502577876
35483.0,13985.0,35483.0,49073.0,35483.0,70551.0,17.755167129670724,-85.2906748769438,-117.59678408094817
35483.0,13987.0,35483.0,49101.0,35483.0,70532.0,15.633757757150391,-88.60780245025575,-123.12360392283205
35483.0,13979.0,35483.0,49089.0,35483.0,70550.0,13.689721941891577,-91.58883765870928,-128.08839236602546
35483.0,13967.0,35483.0,49061.0,35483.0,70543.0,11.928499994874215,-94.22828322409839,-132.48246198373948
35483.0,13999.0,35483.0,49090.0,35483.0,70536.0,10.354847873932016,-96.52192122860436,-136.29924051874502
35483.0,13977.0,35483.0,49079.0,35483.0,70543.0,8.972936019882724,-98.46685472835054,-139.53408122172294
35493.0,13967.0,35493.0,49104.0,35493.0,70519.0,7.786510942833104,-100.06132987891834,-142.18416880434376
35493.0,13958.0,35493.0,49052.0,35493.0,70531.0,6.7988421726389845,-101.30449044875456,-144.248502948411
35493.0,13971.0,35493.0,49079.0,35493.0,70530.0,6.012513139432457,-102.19637845682891,-145.72789875373053
35493.0,13965.0,35493.0,49101.0,35493.0,70556.0,5.4293452703361424,-102.7380413279977,-146.62484226301513
35493.0,13991.0,35493.0,49079.0,35493.0,70554.0,5.050526048479668,-102.93137117940381,-146.9431322362302
35493.0,13970.0,35493.0,49075.0,35493.0,70540.0,4.87684383455877,-102.77885227022139,-146.68749630674466
35503.0,13968.0,35503.0,49066.0,35503.0,70507.0,4.90885334542665,-102.28359903888287,-145.86350924424931
35503.0,13956.0,35503.0,49037.0,35503.0,70494.0,5.146817959089589,-101.44963405562387,-144.47796090561178
35503.0,13954.0,35503.0,49055.0,35503.0,70513.0,5.590499657648422,-100.28224793743598,-142.5394004896017
35503.0,13955.0,35503.0,49055.0,35503.0,70524.0,6.238966593148405,-98.78827312358487,-140.05839141738255
35503.0,13958.0,35503.0,49099.0,35503.0,70520.0,7.0905012579584366,-96.97602646908948,-137.0473672798775
35503.0,13968.0,35503.0,49095.0,35503.0,70537.0,8.142629527381814,-94.8548819869296,-133.52038195182502
35514.0,13963.0,35514.0,49084.0,35514.0,70538.0,9.392238249344302,-92.43477298610978,-129.49292144334623
35514.0,13965.0,35514.0,49079.0,35514.0,70532.0,10.835686344329758,-89.72601186252629,-124.98175882639345
35514.0,13978.0,35514.0,49138.0,35514.0,70572.0,12.468867015768609,-86.73932604007527,-120.0048436439123
35514.0,13991.0,35514.0,49113.0,35514.0,70577.0,14.287330466750348,-83.48563618244393,-114.58107753267728
35514.0,13958.0,35514.0,49104.0,35514.0,70595.0,16.28646725301786,-79.97567954187122,-108.72989251235441
35514.0,13973.0,35514.0,49093.0,35514.0,70545.0,18.46151361535661,-76.22000628543191,-102.47094298845656
35524.0,13954.0,35524.0,49082.0,35524.0,70563.0,20.807334418099146,-72.22935654732649,-95.82425690004936
35524.0,13971.0,35524.0,49091.0,35524.0,70568.0,23.318208481504826,-68.01506978395713,-88.81066729008461
35524.0,13954.0,35524.0,49105.0,35524.0,70582.0,25.98771361454692,-63.58931358973288,-81.45204200350184
35524.0,13974.0,35524.0,49127.0,35524.0,70602.0,28.808664989010452,-58.965024347950816,-73.77118536724328
35524.0,13980.0,35524.0,49120.0,35524.0,70589.0,31.773129323599875,-54.155626107219376,-65.7916276846172
35524.0,13997.0,35524.0,49117.0,35524.0,70608.0,34.87258998642051,-49.17480451778107,-57.53750822838015
35535.0,13990.0,35535.0,49142.0,35535.0,70607.0,38.09820862910293,-44.036475033609634,-49.033583354510995
35535.0,13982.0,35535.0,49121.0,35535.0,70613.0,41.4409812526943,-38.754793161245004,-40.30525777149262
35535.0,14007.0,35535.0,49195.0,35535.0,70657.0,44.891718158385785,-33.3440363148346,-31.378541027572737
35535.0,13997.0,35535.0,49176.0,35535.0,70660.0,48.44103223089127,-27.818233376417908,-22.27979887962249
35535.0,14004.0,35535.0,49107.0,35535.0,70661.0,52.079418823061374,-22.190814706345492,-13.035369536485291
35535.0,14001.0,35535.0,49141.0,35535.0,70661.0,55.797289931556804,-16.4749155757726,-3.67137986691273
35545.0,13995.0,35545.0,49150.0,35545.0,70661.0,59.58490832974772,-10.6840674776698,5.786146185538541
35545.0,14003.0,35545.0,49144.0,35545.0,70659.0,63.43226851352,-4.832467399631696,15.311059840985592
35545.0,14022.0,35545.0,49190.0,35545.0,70699.0,67.32902798504779,1.0651632402033044,24.876913234068866
35545.0,14019.0,35545.0,49186.0,35545.0,70747.0,71.26460657338224,6.993861297915316,34.457112724240915
35545.0,14042.0,35545.0,49184.0,35545.0,70754.0,75.22839948411004,12.938761724323228,44.02554632410204
35545.0,14017.0,35545.0,49155.0,35545.0,70739.0,79.20995263840557,18.885181305075207,53.55726718786812
35555.0,14038.0,35555.0,49198.0,35555.0,70736.0,83.19900147956815,24.81835370854978,63.02867545014351
35555.0,14038.0,35555.0,49218.0,35555.0,70746.0,87.1854221526997,30.72328784281325,72.41724171535088
35555.0,14049.0,35555.0,49223.0,35555.0,70776.0,91.1592572859184,36.58506974591094,81.70126270066663
35555.0,14043.0,35555.0,49227.0,35555.0,70783.0,95.11081669943462,42.38929076731098,90.85994522408262
35555.0,14041.0,35555.0,49195.0,35555.0,70765.0,99.0307056318937,48.12217348993708,99.87362900900447
35555.0,14056.0,35555.0,49200.0,35555.0,70732.0,102.90976055918259,53.77030276586457,108.72368959216476
35566.0,14044.0,35566.0,49216.0,35566.0,70755.0,106.73900218985132,59.32020515890417,117.39198840620512
35566.0,14044.0,35566.0,49226.0,35566.0,70786.0,110.509599862458,64.75816376151413,125.86036645417823
35566.0,14067.0,35566.0,49249.0,35566.0,70753.0,114.212799066174,70.07037405650193,134.110586910009
35566.0,14061.0,35566.0,49226.0,35566.0,70827.0,117.83993986402655,75.24320651412074,142.12450260022587
35566.0,14072.0,35566.0,49261.0,35566.0,70831.0,121.3825988800603,80.26334971126951,149.8843558626078
35566.0,14069.0,35566.0,49245.0,35566.0,70794.0,124.8327013260359,85.11785869501735,157.37323362271832
35576.0,14067.0,35576.0,49264.0,35576.0,70818.0,128.1825426263584,89.79422437021901,164.5752087546169
35576.0,14084.0,35576.0,49295.0,35576.0,70814.0,131.42476847012762,94.28051289689611,171.4750792259464
35576.0,14073.0,35576.0,49292.0,35576.0,70833.0,134.55238841604324,98.565668589257,178.05820337597342
35576.0,14091.0,35576.0,49285.0,35576.0,70811.0,137.558835429131,102.63986534528294,184.3105188388992
35576.0,14061.0,35576.0,49255.0,35576.0,70838.0,140.43798253063102,106.49454066751947,190.21851488110136
35576.0,14081.0,35576.0,49255.0,35576.0,70838.0,143.18403987157532,110.1220114064152,195.7691889619424
35586.0,14074.0,35586.0,49244.0,35586.0,70857.0,145.79140123481204,113.51493661295,200.95014377899605
35586.0,14075.0,35586.0,49247.0,35586.0,70832.0,148.25456967140383,116.66589690977281,205.74974629031465
35586.0,14087.0,35586.0,49342.0,35586.0,70887.0,150.56815435806388,119.5673435863691,210.15721554597312
35586.0,14102.0,35586.0,49270.0,35586.0,70855.0,152.72694694740807,122.21210383900245,214.16275910039698
35586.0,14083.0,35586.0,49279.0,35586.0,70879.0,154.72610186751618,124.59391420352154,217.75778465804896
35586.0,14097.0,35586.0,49273.0,35586.0,70862.0,156.56125479178738,126.70733279458486,220.9349970355445
35597.0,14104.0,35597.0,49355.0,35597.0,70898.0,158.22853288760575,128.54753445618974,223.6884211889718
35597.0,14103.0,35597.0,49329.0,35597.0,70869.0,159.72462899863837,130.11074384298973,226.01351545949643
35597.0,14102.0,35597.0,49277.0,35597.0,70863.0,161.0469297651807,131.39486136544636,227.9072436858608
35597.0,14092.0,35597.0,49266.0,35597.0,70861.0,162.1935439849328,132.3993410875164,229.36791205194456
35597.0,14075.0,35597.0,49250.0,35597.0,70851.0,163.16317058606822,133.12438742747432,230.39489623738078
35597.0,14087.0,35597.0,49241.0,35597.0,70843.0,163.95484877245354,133.5702032719353,230.98842487167545
35607.0,14090.0,35607.0,49276.0,35607.0,70853.0,164.56777251929466,133.73661127575656,231.1494112187127
35607.0,14089.0,35607.0,49285.0,35607.0,70844.0,165.00130706391056,133.62311512828734,230.8793735580469
35607.0,14090.0,35607.0,49289.0,35607.0,70815.0,165.2550940887863,133.22932995961358,230.18039363999884
35607.0,14095.0,35607.0,49268.0,35607.0,70861.0,165.32912419234736,132.55538524852815,229.05499781260193
35607.0,14094.0,35607.0,49301.0,35607.0,70844.0,165.22380903580805,131.602061439767,227.5061712172878
35607.0,14079.0,35607.0,49294.0,35607.0,70821.0,164.94003899808956,130.37089501209152,225.53757377496305
35617.0,14100.0,35617.0,49347.0,35617.0,70882.0,164.47916965951833,128.86453326366922,223.1536927544619
35617.0,14086.0,35617.0,49305.0,35617.0,70825.0,163.84302410364015,127.0872922125126,220.36001881944125
35617.0,14070.0,35617.0,49252.0,35617.0,70826.0,163.03392515788696,125.04544599270739,217.16324135528578
35617.0,14071.0,35617.0,49240.0,35617.0,70793.0,162.05458954476555,122.74677000677704,213.5710925550592
35617.0,14060.0,35617.0,49232.0,35617.0,70793.0,160.90790612959051,120.1996513106846,209.59191492500818
35617.0,14066.0,35617.0,49230.0,35617.0,70791.0,159.59677626484057,117.41246821768596,205.23432230093596
35628.0,14052.0,35628.0,49230.0,35628.0,70806.0,158.12404447076452,114.39338861205471,200.50713421846996
35628.0,14056.0,35628.0,49225.0,35628.0,70779.0,156.49245257581254,111.15037016682382,195.41954895320453
35628.0,14055.0,35628.0,49250.0,35628.0,70777.0,154.704605081964,107.69126910913296,189.9812959062097
35628.0,14057.0,35628.0,49222.0,35628.0,70760.0,152.7629962579837,104.02405929601676,184.20259501692047
35628.0,14057.0,35628.0,49222.0,35628.0,70756.0,150.6701069691979,100.15701361059098,178.0940301429619
35628.0,14086.0,35628.0,49263.0,35628.0,70769.0,148.42858127868962,96.09879075251905,171.66650808984036
35638.0,14068.0,35638.0,49261.0,35638.0,70777.0,146.0415373752545,91.85874487301226,164.93144258167047
35638.0,14069.0,35638.0,49227.0,35638.0,70747.0,143.51288321908862,87.44744562546526,157.9011122213616
35638.0,14043.0,35638.0,49192.0,35638.0,70713.0,140.84739597703293,82.87680930250218,150.5888156535181
35638.0,14017.0,35638.0,49134.0,35638.0,70704.0,138.05049631222911,78.15952703952064,143.00858675424303
35638.0,14019.0,35638.0,49163.0,35638.0,70668.0,135.12781451347902,73.30812968864159,135.17470012077683
35638.0,14022.0,35638.0,49154.0,35638.0,70683.0,132.0848093521359,68.33433250339235,127.1012638968277
35648.0,14024.0,35648.0,49127.0,35648.0,70671.0,128.92668233331798,63.248908152822594,118.80204518165561
35648.0,14007.0,35648.0,49165.0,35648.0,70660.0,125.65848800321399,58.061745680349375,110.29053768482984
35648.0,14011.0,35648.0,49113.0,35648.0,70669.0,122.28518920157163,52.78190685151091,101.58011535175484
35648.0,14009.0,35648.0,49164.0,35648.0,70645.0,118.81163685636304,47.417732184191024,92.68418449906443
35648.0,14004.0,35648.0,49153.0,35648.0,70620.0,115.24259760465233,41.97705505198226,83.61626926244139
35648.0,14009.0,35648.0,49154.0,35648.0,70628.0,111.58283919923979,36.46759441512377,74.38992468683702
35659.0,14007.0,35659.0,49130.0,35659.0,70661.0,107.83724318828769,30.897295215164988,65.01873402953922
35659.0,13990.0,35659.0,49090.0,35659.0,70585.0,104.01091840215622,25.27428833648291,55.51661851361243
35659.0,13964.0,35659.0,49080.0,35659.0,70562.0,100.10916735566126,19.60645166294246,45.89794506281763
35659.0,13972.0,35659.0,49078.0,35659.0,70539.0,96.13723254610505,13.90085933784394,36.177012656661304
35659.0,13964.0,35659.0,49088.0,35659.0,70527.0,92.10004306165823,8.163505506728171,26.367376226583076
35659.0,13959.0,35659.0,49091.0,35659.0,70528.0,88.00214953729456,2.3994196915117243,16.481497374244327
35669.0,13962.0,35669.0,49090.0,35669.0,70534.0,83.84776432646966,-3.387010558553385,6.530753855805727
35669.0,13970.0,35669.0,49050.0,35669.0,70533.0,79.64085412268066,-9.191799298372246,-3.4742755465338178
35669.0,13940.0,35669.0,49077.0,35669.0,70512.0,75.38528691522083,-15.011382334581413,-13.523433274629355
35669.0,13945.0,35669.0,49050.0,35669.0,70491.0,71.08487529793447,-20.842723980792556,-23.60678389375812
35669.0,13944.0,35669.0,49075.0,35669.0,70491.0,66.74328767166246,-26.683265668054503,-33.71466075822465
35669.0,13947.0,35669.0,49080.0,35669.0,70499.0,62.36404780046608,-32.53068615546675,-43.83770175688045
35679.0,13935.0,35679.0,49072.0,35679.0,70476.0,57.95067117023329,-38.38251997463402,-53.96666803573288
35679.0,13933.0,35679.0,49055.0,35679.0,70429.0,53.50677208814528,-44.23583049008599,-64.09229492195485
35679.0,13908.0,35679.0,48987.0,35679.0,70421.0,49.036044268133935,-50.087273597203534,-74.20552747827077
35679.0,13913.0,35679.0,49021.0,35679.0,70409.0,44.542124902589066,-55.933622982841285,-84.29797504267654
35679.0,13894.0,35679.0,49006.0,35679.0,70419.0,40.02842507321091,-61.77228755100296,-94.36213780362002
35679.0,13908.0,35679.0,49039.0,35679.0,70412.0,35.498031617013595,-67.60132125653212,-104.39127211728228
35690.0,13890.0,35690.0,49063.0,35690.0,70396.0,30.953716763695553,-73.41893555059605,-114.37909920838231
35690.0,13899.0,35690.0,48977.0,35690.0,70369.0,26.398010921283657,-79.22291520386952,-124.31964687011566
35690.0,13873.0,35690.0,48997.0,35690.0,70343.0,21.833253521995374,-85.01053052138084,-134.20738222058822
35690.0,13894.0,35690.0,48995.0,35690.0,70344.0,17.261591488451927,-90.77894804752475,-144.03752440603597
35690.0,13893.0,35690.0,49030.0,35690.0,70370.0,12.685042617772865,-96.52536678987425,-153.8061853031479
35690.0,13873.0,35690.0,48995.0,35690.0,70364.0,8.105684522524342,-102.24662911377459,-163.5100611284912
35700.0,13860.0,35700.0,48963.0,35700.0,70310.0,3.5257464512362446,-107.93890744612708,-173.14595840715356
35700.0,13854.0,35700.0,48888.0,35700.0,70294.0,-1.052541788513139,-113.59804972391214,-182.71076557589487
35700.0,13863.0,35700.0,48943.0,35700.0,70289.0,-5.627127339452045,-119.22046633247288,-192.20188854135972
35700.0,13842.0,35700.0,48893.0,35700.0,70304.0,-10.196148079189754,-124.80381797996273,-201.61755127293748
35700.0,13857.0,35700.0,48943.0,35700.0,70309.0,-14.757863695977704,-130.34711606341892,-210.95661343548488
35700.0,13835.0,35700.0,48972.0,35700.0,70294.0,-19.310599232648343,-135.85036714300787,-220.21810344766925
35710.0,13828.0,35710.0,48952.0,35710.0,70287.0,-23.85273353683843,-141.31386072514857,-229.40083735091622
35710.0,13820.0,35710.0,48932.0,35710.0,70275.0,-28.382787313464945,-146.73751320289432,-238.50326923595338
35710.0,13823.0,35710.0,48936.0,35710.0,70254.0,-32.89954202613583,-152.12072733708217,-247.52348827430302
35710.0,13840.0,35710.0,48967.0,35710.0,70254.0,-37.40200756178601,-157.46244349206526,-256.45928550749477
35710.0,13817.0,35710.0,48917.0,35710.0,70259.0,-41.8892022733539,-162.76094552633023,-265.30817712924403
35710.0,13819.0,35710.0,48918.0,35710.0,70208.0,-46.35994983175695,-168.01369862427745,-274.0673317185199
35721.0,13782.0,35721.0,48883.0,35721.0,70215.0,-50.81290338890608,-173.21756518209313,-282.73362411480724
35721.0,13786.0,35721.0,48869.0,35721.0,70181.0,-55.24679506731292,-178.36925312129745,-291.30390304823976
35721.0,13781.0,35721.0,48842.0,35721.0,70181.0,-59.66072463672441,-183.46581054490628,-299.77526418265296
35721.0,13789.0,35721.0,48851.0,35721.0,70163.0,-64.05426278462159,-188.50508791207469,-308.145229510077
35721.0,13771.0,35721.0,48884.0,35721.0,70167.0,-68.42735889109187,-193.48592295258806,-316.4118331904637
35721.0,13792.0,35721.0,48847.0,35721.0,70161.0,-72.78021319758474,-198.40790065893128,-324.57357951494373
35731.0,13780.0,35731.0,48856.0,35731.0,70160.0,-77.11312956440733,-203.27103242858823,-332.6292852018381
35731.0,13773.0,35731.0,48850.0,35731.0,70144.0,-81.42633667217507,-208.0756781690364,-340.5778951214044
35731.0,13772.0,35731.0,48852.0,35731.0,70137.0,-85.71989503661442,-212.82253530579385,-348.4183807736336
35731.0,13767.0,35731.0,48937.0,35731.0,70125.0,-89.99369185602427,-217.51234863001957,-356.14974179387536
35731.0,13761.0,35731.0,48882.0,35731.0,70126.0,-94.24742452959003,-222.14516490714357,-363.7710275504785
35731.0,13767.0,35731.0,48897.0,35731.0,70087.0,-98.48055868607833,-226.71953900016888,-371.2813566078832
35742.0,13743.0,35742.0,48808.0,35742.0,70092.0,-102.6922829956089,-231.23239779294624,-378.68003932084326
35742.0,13742.0,35742.0,48801.0,35742.0,70082.0,-106.88153161372281,-235.6796975518585,-385.96676918566124
35742.0,13709.0,35742.0,48775.0,35742.0,70070.0,-111.04715523320144,-240.0574376962419,-393.14170690766593
35742.0,13732.0,35742.0,48780.0,35742.0,70061.0,-115.18817804218642,-244.36247255143718,-400.20548552801796
35742.0,13729.0,35742.0,48821.0,35742.0,70085.0,-119.30391801568939,-248.59277919624907,-407.1591851752943
35742.0,13717.0,35742.0,48780.0,35742.0,70074.0,-123.39386938655105,-252.7472138829816,-414.00412564671296
35752.0,13709.0,35752.0,48776.0,35752.0,70065.0,-127.45757802340006,-256.8252104103807,-420.7415213110481
35752.0,13716.0,35752.0,48790.0,35752.0,70037.0,-131.49466151334968,-260.82678678307525,-427.3723139956935
35752.0,13705.0,35752.0,48787.0,35752.0,70088.0,-135.5048221874312,-264.7525849532635,-433.8971959662923
35752.0,13705.0,35752.0,48803.0,35752.0,70037.0,-139.48778834395964,-268.6036603264558,-440.3164890586602
35752.0,13704.0,35752.0,48811.0,35752.0,70026.0,-143.44325855889133,-272.381122200121,-446.62996291700125
35752.0,13674.0,35752.0,48776.0,35752.0,69997.0,-147.37089563946716,-276.08579914683173,-452.8370071920961
35762.0,13691.0,35762.0,48748.0,35762.0,69997.0,-151.2704208251043,-279.7182187021417,-458.93707473429805
35762.0,13668.0,35762.0,48726.0,35762.0,69993.0,-155.14174753518003,-283.27906929935455,-464.930003197944
35762.0,13679.0,35762.0,48776.0,35762.0,69955.0,-158.98503729726858,-286.76974980559066,-470.81615436042676
35762.0,13684.0,35762.0,48758.0,35762.0,69957.0,-162.80065762210953,-290.1924339214198,-476.5966018633347
35762.0,13670.0,35762.0,48782.0,35762.0,69995.0,-166.58904384586393,-293.5496655881847,-482.2733127228029
35762.0,13679.0,35762.0,48727.0,35762.0,69972.0,-170.35054790325844,-296.8440074561765,-487.8489623543624
35773.0,13659.0,35773.0,48741.0,35773.0,69969.0,-174.08537115911517,-300.0780863674754,-493.3265145943241
35773.0,13657.0,35773.0,48770.0,35773.0,69978.0,-177.7935833130548,-303.25480911615705,-498.70898756999344
35773.0,13673.0,35773.0,48780.0,35773.0,69989.0,-181.47516463713808,-306.3772141409729,-503.99930009601786
35773.0,13658.0,35773.0,48798.0,35773.0,69975.0,-185.12993595676596,-309.4478821589133,-509.1999718488494
35773.0,13643.0,35773.0,48754.0,35773.0,69955.0,-188.75743506533115,-312.46837919872945,-514.3128796017209
35773.0,13642.0,35773.0,48720.0,35773.0,69937.0,-192.35696016552185,-315.43920955482173,-519.3393244311778
35783.0,13631.0,35783.0,48689.0,35783.0,69916.0,-195.92773583130827,-318.36041015334786,-524.2803632898303
35783.0,13625.0,35783.0,48697.0,35783.0,69896.0,-199.46904366324412,-321.2324078732349,-529.1372409799451
35783.0,13620.0,35783.0,48653.0,35783.0,69911.0,-202.98031968503443,-324.05667637989063,-533.9117788051838
35783.0,13625.0,35783.0,48735.0,35783.0,69931.0,-206.461216480691,-326.8360426942734,-538.6064810589054
35783.0,13617.0,35783.0,48753.0,35783.0,69912.0,-209.91157949828136,-329.57441476714354,-543.2242560811685
35783.0,13599.0,35783.0,48721.0,35783.0,69886.0,-213.33141038648944,-332.27594211451486,-547.7681241711242
35793.0,13606.0,35793.0,48709.0,35793.0,69903.0,-216.7209367693912,-334.94440471785816,-552.2412603435771
35793.0,13620.0,35793.0,48807.0,35793.0,69916.0,-220.0806731084549,-337.5830890995388,-556.6470905388837
35793.0,13617.0,35793.0,48739.0,35793.0,69907.0,-223.41126420323582,-340.1944026837629,-560.989080963464
35793.0,13596.0,35793.0,48789.0,35793.0,69899.0,-226.71323678748854,-342.7791980120392,-565.2704208022265
35793.0,13586.0,35793.0,48662.0,35793.0,69889.0,-229.9869749028373,-345.3365858728406,-569.4939159185785
35793.0,13587.0,35793.0,48642.0,35793.0,69857.0,-233.23292712935455,-347.86465420459575,-573.6621197502975
35804.0,13576.0,35804.0,48677.0,35804.0,69853.0,-236.45179674300806,-350.3617406657269,-577.7776486933162
35804.0,13594.0,35804.0,48655.0,35804.0,69880.0,-239.64458526656637,-352.82727134665316,-581.8434916592171
35804.0,13579.0,35804.0,48683.0,35804.0,69850.0,-242.8125035575843,-355.2617852087811,-585.8630283761203
35804.0,13584.0,35804.0,48688.0,35804.0,69858.0,-245.95683337555312,-357.66663198181084,-589.839875735491
35804.0,13566.0,35804.0,48690.0,35804.0,69878.0,-249.07886486198663,-360.0436065891388,-593.7777887342891
35804.0,13558.0,35804.0,48670.0,35804.0,69871.0,-252.17996655783475,-362.3946435103707,-597.6804580496789
35814.0,13554.0,35814.0,48682.0,35814.0,69843.0,-255.26175148979087,-364.72174709048085,-601.5512324608064
35814.0,13587.0,35814.0,48715.0,35814.0,69872.0,-258.3261611937669,-367.02695941226506,-605.393051346351
35814.0,13584.0,35814.0,48710.0,35814.0,69863.0,-261.3752409682785,-369.3120317571255,-609.2084434689492
35814.0,13560.0,35814.0,48656.0,35814.0,69817.0,-264.4107479588695,-371.5780343439025,-612.9994421982717
35814.0,13554.0,35814.0,48656.0,35814.0,69834.0,-267.4340230635876,-373.82548105136993,-616.7677166018943
35814.0,13541.0,35814.0,48629.0,35814.0,69794.0,-270.4462035065223,-376.0549326618541,-620.5149507162658
35824.0,13555.0,35824.0,48635.0,35824.0,69795.0,-273.44846235962115,-378.2675706506326,-624.2432139284443
35824.0,13528.0,35824.0,48629.0,35824.0,69817.0,-276.44209486348365,-380.46551888706347,-627.955215153042
35824.0,13549.0,35824.0,48686.0,35824.0,69809.0,-279.4285324570208,-382.6518443985122,-631.6542849091521
35824.0,13537.0,35824.0,48638.0,35824.0,69809.0,-282.4093289962621,-384.8301946313285,-635.3441135428218
35824.0,13547.0,35824.0,48635.0,35824.0,69794.0,-285.3860644772329,-387.004459667029,-639.0285672612142
35824.0,13528.0,35824.0,48664.0,35824.0,69771.0,-288.3602249025608,-389.17879521623445,-642.7117457831085
35835.0,13532.0,35835.0,48730.0,35835.0,69831.0,-291.3331735946597,-391.3574881967117,-646.398115536842
35835.0,13531.0,35835.0,48702.0,35835.0,69829.0,-294.30618760069177,-393.54417300369664,-650.0922993650146
35835.0,13531.0,35835.0,48633.0,35835.0,69789.0,-297.2804437944366,-395.74109247706974,-653.7985327145188
35835.0,13516.0,35835.0,48617.0,35835.0,69806.0,-300.2569607060103,-397.9493606719169,-657.5204094721728
35835.0,13494.0,35835.0,48636.0,35835.0,69778.0,-303.2366579394749,-400.1699096346404,-661.2610529021456
35835.0,13502.0,35835.0,48606.0,35835.0,69775.0,-306.220595880101,-402.40413054270346,-665.0233412290838
35845.0,13503.0,35845.0,48615.0,35845.0,69743.0,-309.2101912645113,-404.6540614375615,-668.810151336136
35845.0,13519.0,35845.0,48648.0,35845.0,69779.0,-312.2071819220179,-406.92241494026626,-672.6246447661855
35845.0,13523.0,35845.0,48637.0,35845.0,69788.0,-315.213350761189,-409.2123527929643,-676.4702984447288
35845.0,13500.0,35845.0,48631.0,35845.0,69780.0,-318.2302153685107,-411.5270982095792,-680.3505464577993
35845.0,13505.0,35845.0,48663.0,35845.0,69764.0,-321.25891791680294,-413.8696915187722,-684.2684112112313
35845.0,13498.0,35845.0,48633.0,35845.0,69763.0,-324.3003072420855,-416.2428100749038,-688.2264557542385
35855.0,13493.0,35855.0,48672.0,35855.0,69776.0,-327.35501675216705,-418.6485369905605,-692.2268750373466
35855.0,13488.0,35855.0,48656.0,35855.0,69750.0,-330.4234996886337,-421.0881170584972,-696.2714690104979
35855.0,13486.0,35855.0,48640.0,35855.0,69774.0,-333.5060743382418,-423.56174432098396,-700.3615541548309
35855.0,13461.0,35855.0,48590.0,35855.0,69727.0,-336.60299941606627,-426.06865242654936,-704.4979429088435
35855.0,13471.0,35855.0,48570.0,35855.0,69706.0,-339.71462413116205,-428.6077243025779,-708.6811245115632
35855.0,13460.0,35855.0,48598.0,35855.0,69707.0,-342.84155221351864,-431.1782852242129,-712.9117261583089
35866.0,13466.0,35866.0,48567.0,35866.0,69715.0,-345.9846964431473,-433.7805369507512,-717.1909387482588
35866.0,13476.0,35866.0,48600.0,35866.0,69727.0,-349.1452054482823,-436.41558235178604,-721.5205429307293
35866.0,13448.0,35866.0,48627.0,35866.0,69732.0,-352.324327503485,-439.08521050741695,-725.9026001695272
35866.0,13463.0,35866.0,48585.0,35866.0,69720.0,-355.5233509288444,-441.79147260603264,-730.3390839969702
35866.0,13452.0,35866.0,48603.0,35866.0,69700.0,-358.74364331222495,-444.53636833377146,-734.8317023362189
35866.0,13470.0,35866.0,48638.0,35866.0,69718.0,-361.98661952174746,-447.3217681640326,-739.38196142364
35876.0,13461.0,35876.0,48626.0,35876.0,69719.0,-365.2535737068472,-450.1491343636949,-743.9912041460025
35876.0,13456.0,35876.0,48617.0,35876.0,69701.0,-368.54549262018304,-453.01906292070964,-748.6604608473683
35876.0,13440.0,35876.0,48590.0,35876.0,69694.0,-371.86300402358256,-455.9311482316937,-753.3903452902437
35876.0,13446.0,35876.0,48575.0,35876.0,69674.0,-375.2064803844469,-458.8842777885219,-758.1811778727154
35876.0,13416.0,35876.0,48539.0,35876.0,69658.0,-378.5761926085991,-461.87716057317107,-763.0332591793226
35876.0,13430.0,35876.0,48533.0,35876.0,69663.0,-381.9724793925976,-464.9089576474444,-767.947174451862
35886.0,13420.0,35886.0,48558.0,35886.0,69667.0,-385.39588968671126,-467.9798004565372,-772.9239630219481
35886.0,13442.0,35886.0,48573.0,35886.0,69678.0,-388.8471667150661,-471.0908589067269,-777.9650191193912
35886.0,13423.0,35886.0,48564.0,35886.0,69642.0,-392.3270634173786,-474.2439612353781,-783.071863659171
35886.0,13403.0,35886.0,48604.0,35886.0,69655.0,-395.8362078516166,-477.4411177657243,-788.2460763554832
35886.0,13406.0,35886.0,48550.0,35886.0,69649.0,-399.37521685872093,-480.6841468177329,-793.4893840668497
35886.0,13421.0,35886.0,48595.0,35886.0,69634.0,-402.94487785801743,-483.97447961659174,-798.8036908068057
35897.0,13411.0,35897.0,48586.0,35897.0,69653.0,-406.54609519530277,-487.3130652183833,-804.1910392452241
35897.0,13401.0,35897.0,48551.0,35897.0,69587.0,-410.1797082756086,-490.7002236300784,-809.6536311320662
35897.0,13385.0,35897.0,48551.0,35897.0,69641.0,-413.846480962733,-494.1356818450996,-815.1939895484531
35897.0,13381.0,35897.0,48486.0,35897.0,69617.0,-417.54729257442364,-497.6190093190723,-820.8150807777023
35897.0,13386.0,35897.0,48523.0,35897.0,69613.0,-421.2833361701505,-501.15026670692356,-826.5201872704769
35897.0,13373.0,35897.0,48535.0,35897.0,69594.0,-425.0561824408469,-504.7304368153333,-832.3127946912136
35907.0,13380.0,35907.0,48544.0,35907.0,69604.0,-428.8677536826776,-508.36127956586523,-838.1966851924367
35907.0,13393.0,35907.0,48515.0,35907.0,69590.0,-432.72024423131256,-512.0448962811292,-844.1760202660339
35907.0,13371.0,35907.0,48478.0,35907.0,69597.0,-436.6159468218967,-515.783648804903,-850.2553017430923
35907.0,13379.0,35907.0,48516.0,35907.0,69590.0,-440.55710218144077,-519.5805264793805,-856.4392755661835
35907.0,13376.0,35907.0,48579.0,35907.0,69601.0,-444.5458628486864,-523.4392647428037,-862.7327903313952
35907.0,13378.0,35907.0,48560.0,35907.0,69602.0,-448.58424163259764,-527.3636567061084,-869.1405760449047
35917.0,13360.0,35917.0,48528.0,35917.0,69604.0,-452.6740203563123,-531.3566586380975,-875.666951035015
35917.0,13373.0,35917.0,48503.0,35917.0,69566.0,-456.81672405552206,-535.420226224956,-882.3156025765226
35917.0,13343.0,35917.0,48498.0,35917.0,69559.0,-461.013654503024,-539.5558228230609,-889.0896576270814
35917.0,13337.0,35917.0,48495.0,35917.0,69553.0,-465.26599717544286,-543.7649459767923,-895.9919949847462
35917.0,13333.0,35917.0,48498.0,35917.0,69568.0,-469.57504006869135,-548.049350375768,-903.0254486591671
35917.0,13339.0,35917.0,48503.0,35917.0,69584.0,-473.9423484950924,-552.4110157680259,-910.1926534430559
35928.0,13348.0,35928.0,48490.0,35928.0,69543.0,-478.36971975544157,-556.8520034547269,-917.4956681819366
35928.0,13330.0,35928.0,48512.0,35928.0,69528.0,-482.858980370812,-561.3743085604375,-924.9358198529674
35928.0,13333.0,35928.0,48481.0,35928.0,69535.0,-487.41183628429246,-565.9797242033052,-932.5139302835005
35928.0,13325.0,35928.0,48497.0,35928.0,69534.0,-492.0298569240145,-570.6697539288795,-940.2305207211571
35928.0,13336.0,35928.0,48539.0,35928.0,69545.0,-496.71446557904903,-575.4454853306626,-948.0856906687386
35928.0,13340.0,35928.0,48503.0,35928.0,69538.0,-501.4668065203863,-580.3071961315726,-956.0787984609649
35938.0,13326.0,35938.0,48449.0,35938.0,69516.0,-506.28751917847103,-585.2540367262326,-964.2081884518774
35938.0,13301.0,35938.0,48479.0,35938.0,69491.0,-511.176631832569,-590.2843274843221,-972.4711793491899
35938.0,13298.0,35938.0,48430.0,35938.0,69469.0,-516.1337346653361,-595.3961308547603,-980.8643704117062
35938.0,13288.0,35938.0,48441.0,35938.0,69455.0,-521.1582804009045,-600.5876227444892,-989.3840976229266
35938.0,13293.0,35938.0,48413.0,35938.0,69408.0,-526.2497676665472,-605.8573704841226,-998.0269063772898
35938.0,13290.0,35938.0,48462.0,35938.0,69493.0,-531.4077463812881,-611.2045093388671,-1006.7899052008387
35949.0,13285.0,35949.0,48454.0,35949.0,69463.0,-536.6317200643355,-616.6285565499282,-1015.6706100357067
35949.0,13280.0,35949.0,48455.0,35949.0,69434.0,-541.9210523354537,-622.1289256707761,-1024.6663621549349
35949.0,13274.0,35949.0,48450.0,35949.0,69460.0,-547.2749322644534,-627.7045257245796,-1033.7740179732307
35949.0,13294.0,35949.0,48503.0,35949.0,69482.0,-552.6923257373327,-633.353485681092,-1042.9898501322132
35949.0,13288.0,35949.0,48482.0,35949.0,69454.0,-558.1717833486488,-639.0726724043709,-1052.3091358221864
35949.0,13271.0,35949.0,48482.0,35949.0,69440.0,-563.7111716385166,-644.8570891577124,-1061.7257198321254
35959.0,13254.0,35959.0,48410.0,35959.0,69418.0,-569.3075989012689,-650.6996890335499,-1071.2320057952552
35959.0,13273.0,35959.0,48339.0,35959.0,69437.0,-574.9575578963465,-656.5919940465636,-1080.8191694101347
35959.0,13235.0,35959.0,48389.0,35959.0,69401.0,-580.6570325892876,-662.5253136891238,-1090.477233658425
35959.0,13233.0,35959.0,48388.0,35959.0,69401.0,-586.4015771289361,-668.4916140858608,-1100.1950528470336
35959.0,13243.0,35959.0,48411.0,35959.0,69397.0,-592.1864784927025,-674.4834187599422,-1109.9603636446323
35959.0,13241.0,35959.0,48387.0,35959.0,69399.0,-598.0067965229265,-680.4932471973927,-1119.759780024545
35969.0,13229.0,35969.0,48404.0,35969.0,69368.0,-603.8571985337792,-686.5132269021055,-1129.5786738215336
35969.0,13221.0,35969.0,48394.0,35969.0,69394.0,-609.7318416136266,-692.534907520307,-1139.4010931134678
35969.0,13226.0,35969.0,48418.0,35969.0,69370.0,-615.6243898159671,-698.5490587310965,-1149.2096804497683
35969.0,13230.0,35969.0,48429.0,35969.0,69396.0,-621.5279842938619,-704.5453105192335,-1158.9854578780378
35969.0,13216.0,35969.0,48384.0,35969.0,69389.0,-627.4350876583072,-710.5117352947055,-1168.707487426646
35969.0,13215.0,35969.0,48390.0,35969.0,69347.0,-633.3373464673225,-716.4347182534232,-1178.3525533671605
35980.0,13193.0,35980.0,48387.0,35980.0,69326.0,-639.2255914897207,-722.2991507686135,-1187.8951846589803
35980.0,13193.0,35980.0,48335.0,35980.0,69304.0,-645.089953752464,-728.0886578595386,-1197.3081033201017
35980.0,13181.0,35980.0,48326.0,35980.0,69314.0,-650.9200136939244,-733.7859472405679,-1206.562715035394
35980.0,13202.0,35980.0,48379.0,35980.0,69319.0,-656.7048582696714,-739.3732521415477,-1215.6292684897935
35980.0,13177.0,35980.0,48356.0,35980.0,69289.0,-662.432975516723,-744.8323220507933,-1224.4767086313623
35980.0,13161.0,35980.0,48373.0,35980.0,69302.0,-668.0921569214091,-750.1439498119769,-1233.0725364773457
35990.0,13169.0,35990.0,48337.0,35990.0,69284.0,-673.6695961686114,-755.2876205219741,-1241.3827918192387
35990.0,13178.0,35990.0,48336.0,35990.0,69290.0,-679.1519903895517,-760.2415277236556,-1249.3720182172867
35990.0,13182.0,35990.0,48388.0,35990.0,69284.0,-684.5253751675341,-764.9826782844966,-1257.0031668601794
35990.0,13167.0,35990.0,48374.0,35990.0,69276.0,-689.7748171798739,-769.4866313304304,-1264.2374849576784
35990.0,13155.0,35990.0,48347.0,35990.0,69254.0,-694.8842624164151,-773.7269853089531,-1271.0344748602722
35990.0,13142.0,35990.0,48263.0,35990.0,69256.0,-699.8366355735163,-777.6753951287832,-1277.3520040824349
36000.0,13141.0,36000.0,48261.0,36000.0,69222.0,-704.6140555524064,-781.3024784240299,-1283.146518966823
36000.0,13133.0,36000.0,48270.0,36000.0,69210.0,-709.1979996427294,-784.5789764012014,-1288.3733471572841
36000.0,13119.0,36000.0,48294.0,36000.0,69215.0,-713.5693987529698,-787.4762979832483,-1292.9870761166271
36000.0,13117.0,36000.0,48278.0,36000.0,69230.0,-717.708753327689,-789.9663530732872,-1296.9417683055228
36000.0,13125.0,36000.0,48290.0,36000.0,69223.0,-721.5962442576094,-792.0212283350706,-1300.1908485420313
36000.0,13106.0,36000.0,48311.0,36000.0,69208.0,-725.211742273065,-793.612973531692,-1302.6869038247055
36010.0,13114.0,36010.0,48296.0,36010.0,69188.0,-728.5347832431812,-794.7133556447218,-1304.381733061464
36010.0,13111.0,36010.0,48278.0,36010.0,69206.0,-731.5445788374523,-795.2936707231579,-1305.2266401402367
36010.0,13119.0,36010.0,48318.0,36010.0,69220.0,-734.2199741677236,-795.324786392167,-1305.1726238165888
36010.0,13115.0,36010.0,48301.0,36010.0,69192.0,-736.5393207036689,-794.7771569137055,-1304.170308139344
36010.0,13100.0,36010.0,48269.0,36010.0,69188.0,-738.4803804982882,-793.6207409101607,-1302.169944861588
36010.0,13069.0,36010.0,48239.0,36010.0,69192.0,-740.0204425340335,-791.8252841109155,-1299.121701920838
36020.0,13090.0,36020.0,48278.0,36020.0,69155.0,-741.1366842852724,-789.3609923718385,-1294.9760594807967
36020.0,13079.0,36020.0,48245.0,36020.0,69151.0,-741.8064979303277,-786.199025249686,-1289.6842989478926
36020.0,13071.0,36020.0,48298.0,36020.0,69158.0,-742.0076038590771,-782.3115965729627,-1283.1991229810462
36020.0,13093.0,36020.0,48271.0,36020.0,69172.0,-741.7180938639069,-777.6718751905784,-1275.4751247391214
36020.0,13096.0,36020.0,48263.0,36020.0,69203.0,-740.9164027092235,-772.25391749926,-1266.4688873018574
36020.0,13068.0,36020.0,48242.0,36020.0,69187.0,-739.5811885505085,-766.0329179589926,-1256.1388401985278
36030.0,13074.0,36030.0,48252.0,36030.0,69173.0,-737.6913940775577,-758.9857703348769,-1244.4452488327215
36030.0,13081.0,36030.0,48301.0,36030.0,69188.0,-735.2265174019102,-751.0914911947204,-1231.3505911082816
36030.0,13080.0,36030.0,48318.0,36030.0,69194.0,-732.166785761075,-742.3311097548569,-1216.8200837349118
36030.0,13085.0,36030.0,48353.0,36030.0,69199.0,-728.4931760349612,-732.6871097482481,-1200.822055860041
36030.0,13078.0,36030.0,48264.0,36030.0,69182.0,-724.1874506797849,-722.1430148564943,-1183.3282925645801
36030.0,13070.0,36030.0,48287.0,36030.0,69215.0,-719.2323027831387,-710.683741577369,-1164.314529347306
36041.0,13061.0,36041.0,48296.0,36041.0,69217.0,-713.6116452293224,-698.2965278008847,-1143.7609467207615
36041.0,13072.0,36041.0,48297.0,36041.0,69256.0,-707.3109858410883,-684.9716280828816,-1121.6524633213799
36041.0,13075.0,36041.0,48328.0,36041.0,69245.0,-700.3177230668738,-670.7025574550655,-1097.9788969714716
36041.0,13093.0,36041.0,48358.0,36041.0,69306.0,-692.6212655379842,-655.486108711201,-1072.7351358331389
36041.0,13097.0,36041.0,48355.0,36041.0,69321.0,-684.2130183973836,-639.3222040869348,-1045.9212410516398
36041.0,13103.0,36041.0,48373.0,36041.0,69358.0,-675.0863439973043,-622.2137878541716,-1017.5423839089418
36051.0,13109.0,36051.0,48396.0,36051.0,69366.0,-665.236594380045,-604.1669176799478,-987.6087915197147
36051.0,13117.0,36051.0,48455.0,36051.0,69429.0,-654.6612218251331,-585.1907875207331,-956.1358263678771
36051.0,13146.0,36051.0,48483.0,36051.0,69452.0,-643.3598664240359,-565.2973884155836,-923.1440192359038
36051.0,13140.0,36051.0,48521.0,36051.0,69482.0,-631.3343398129307,-544.5009100913537,-888.6589841942161
36051.0,13147.0,36051.0,48460.0,36051.0,69508.0,-618.5886184004409,-522.8173666631005,-852.7114335416977
36051.0,13168.0,36051.0,48481.0,36051.0,69546.0,-605.1289775699531,-500.2649438040827,-815.3373768575168
36061.0,13181.0,36061.0,48511.0,36061.0,69587.0,-590.9641351824392,-476.86487662943216,-776.5783372176921
36061.0,13189.0,36061.0,48535.0,36061.0,69672.0,-576.1052888205448,-452.6420805851229,-736.481372935988
36061.0,13227.0,36061.0,48568.0,36061.0,69716.0,-560.566113270762,-427.6252675120578,-695.0987456297623
36061.0,13231.0,36061.0,48626.0,36061.0,69752.0,-544.3627037125477,-401.84679903595884,-652.4873970067717
36061.0,13254.0,36061.0,48640.0,36061.0,69828.0,-527.5134702410317,-375.34237349011863,-608.7085868314331
36061.0,13274.0,36061.0,48673.0,36061.0,69852.0,-510.0390864100374,-348.150691031221,-563.8276922505137
36072.0,13302.0,36072.0,48709.0,36072.0,69924.0,-491.9624507233348,-320.31329614077646,-517.9140309041784
36072.0,13345.0,36072.0,48786.0,36072.0,70009.0,-473.30852481453394,-291.87441007738784,-471.04062880144227
36072.0,13359.0,36072.0,48820.0,36072.0,70048.0,-454.1040172184198,-262.8804382596046,-423.2837667938629
36072.0,13382.0,36072.0,48804.0,36072.0,70101.0,-434.37706168187015,-233.37938590152226,-374.7224611327215
36072.0,13398.0,36072.0,48855.0,36072.0,70152.0,-414.15706926153274,-203.42074501745583,-325.4382196721698
36072.0,13408.0,36072.0,48902.0,36072.0,70219.0,-393.47476139161347,-173.0557358883858,-275.5149841381078
36082.0,13450.0,36082.0,48925.0,36082.0,70289.0,-372.36227368613015,-142.33732260083616,-225.03896440570884
36082.0,13473.0,36082.0,48998.0,36082.0,70337.0,-350.85316555626366,-111.31994230843975,-174.0983074237448
36082.0,13514.0,36082.0,49044.0,36082.0,70449.0,-328.9822354377743,-80.05908411357257,-122.78267084729214
36082.0,13540.0,36082.0,49088.0,36082.0,70474.0,-306.7852174426178,-48.61069557249152,-71.1826803119568
36082.0,13573.0,36082.0,49095.0,36082.0,70540.0,-284.29846758988214,-17.0306599012589,-19.389415179508433
36082.0,13594.0,36082.0,49141.0,36082.0,70605.0,-261.5587032196474,14.62535841634201,32.505843403720746
36092.0,13629.0,36092.0,49216.0,36092.0,70706.0,-238.6028207218751,46.30191796589315,84.4118459078652
36092.0,13646.0,36092.0,49261.0,36092.0,70762.0,-215.46776408328407,77.94414622678198,136.2379484094506
36092.0,13674.0,36092.0,49247.0,36092.0,70811.0,-192.19043698547557,109.4983153497501,187.89481965671075
36092.0,13691.0,36092.0,49251.0,36092.0,70848.0,-168.80768356457736,140.91192719693026,239.29481261704996
36092.0,13722.0,36092.0,49297.0,36092.0,70893.0,-145.3563184214786,172.1331313003775,290.3518840005911
36092.0,13754.0,36092.0,49351.0,36092.0,70974.0,-121.87312576158041,203.11018372457704,340.98136613725296
36103.0,13772.0,36103.0,49360.0,36103.0,71033.0,-98.39477790014234,233.7914220710345,391.0999825541651
36103.0,13812.0,36103.0,49460.0,36103.0,71098.0,-74.95772050926314,264.1255417682313,440.62618892492105
36103.0,13837.0,36103.0,49493.0,36103.0,71154.0,-51.598043654835806,294.0620862759664,489.48060126727796
36103.0,13873.0,36103.0,49515.0,36103.0,71202.0,-28.35129494465218,323.55214071910314,537.5863217768297
36103.0,13903.0,36103.0,49526.0,36103.0,71265.0,-5.252245761131576,352.54875905380027,584.8691466544853
36103.0,13937.0,36103.0,49637.0,36103.0,71335.0,17.66536223970195,381.0070271856787,631.2577757950398
36113.0,13970.0,36113.0,49671.0,36113.0,71390.0,40.36909148801453,408.88443745562597,676.6841744727378
36113.0,13979.0,36113.0,49661.0,36113.0,71431.0,62.82805421725243,436.14167105934405,721.0840043365795
36113.0,14002.0,36113.0,49669.0,36113.0,71476.0,85.01300714209913,462.7429317177779,764.3968850967408
36113.0,14016.0,36113.0,49673.0,36113.0,71511.0,106.89625764867037,488.6554817689714,806.566424228622
36113.0,14032.0,36113.0,49698.0,36113.0,71573.0,128.45148363359272,513.8489161093728,847.540160337712
36113.0,14058.0,36113.0,49739.0,36113.0,71589.0,149.65355491388993,538.2946688433901,887.2695515350085
36123.0,14091.0,36123.0,49806.0,36123.0,71658.0,170.47844003781051,561.9659843394895,925.7099923143162
36123.0,14110.0,36123.0,49781.0,36123.0,71710.0,190.90327216821913,584.8382929106401,962.8209050297949
36123.0,14133.0,36123.0,49818.0,36123.0,71732.0,210.90649184680456,606.8894799859274,998.5660005130571
36123.0,14151.0,36123.0,49834.0,36123.0,71766.0,230.467931792228,628.0997662494906,1032.9134926085303
36123.0,14178.0,36123.0,49854.0,36123.0,71802.0,249.56884240821705,648.4515131422509,1065.8360634101145
36123.0,14205.0,36123.0,49911.0,36123.0,71831.0,268.19194770023785,667.9292235259334,1097.3107441545967
36134.0,14224.0,36134.0,49951.0,36134.0,71877.0,286.3215767314066,686.5198392690636,1127.3188806307949
36134.0,14225.0,36134.0,49888.0,36134.0,71895.0,303.9437720164956,704.2131601929505,1155.846181830783
36134.0,14239.0,36134.0,49939.0,36134.0,71905.0,321.04621549012086,721.0017898283147,1182.8827269817484
36134.0,14259.0,36134.0,49916.0,36134.0,71911.0,337.61800488449535,736.8805698665749,1208.4227310799788
36134.0,14271.0,36134.0,49976.0,36134.0,71946.0,353.64947519769817,751.846128881911,1232.4640955652226
36134.0,14289.0,36134.0,49939.0,36134.0,71962.0,369.13212632245177,765.896751919433,1255.0080337249037
36144.0,14322.0,36144.0,50003.0,36144.0,71992.0,384.0586247731702,779.0323383378538,1276.058922684712
36144.0,14334.0,36144.0,50011.0,36144.0,72023.0,398.42292228720953,791.2544378477521,1295.624315171779
36144.0,14330.0,36144.0,50017.0,36144.0,72014.0,412.2204045194695,802.5664679595693,1313.715001633249
36144.0,14362.0,36144.0,50005.0,36144.0,72022.0,425.44787979857665,812.9738497096716,1330.3449180757366
36144.0,14374.0,36144.0,50059.0,36144.0,72075.0,438.10350321118017,822.4838875158227,1345.5308810690271
36144.0,14390.0,36144.0,50089.0,36144.0,72053.0,450.18683039721,831.1058159455217,1359.2924671934152
36155.0,14391.0,36155.0,50055.0,36155.0,72063.0,461.6989080275314,838.8512033909437,1371.6519999659772
36155.0,14400.0,36155.0,50091.0,36155.0,72089.0,472.64223705964855,845.7342145166522,1382.6343623219395
36155.0,14398.0,36155.0,50035.0,36155.0,72038.0,483.0206067172729,851.7714437383704,1392.2667007183877
36155.0,14397.0,36155.0,50006.0,36155.0,72059.0,492.83884363968855,856.9813698720095,1400.577997802498
36155.0,14419.0,36155.0,49996.0,36155.0,72064.0,502.1025347723646,861.383415237679,1407.59849861139
36155.0,14428.0,36155.0,50071.0,36155.0,72096.0,510.8178675326725,864.9970821847285,1413.3593880477847
36165.0,14437.0,36165.0,50072.0,36165.0,72101.0,518.991647786134,867.8419172196175,1417.8929068662164
36165.0,14452.0,36165.0,50034.0,36165.0,72050.0,526.631378060444,869.9380633110302,1421.2325206586781
36165.0,14455.0,36165.0,50045.0,36165.0,72090.0,533.7453188774929,871.3064485926163,1423.412717843196
36165.0,14462.0,36165.0,50070.0,36165.0,72098.0,540.3425248672734,871.9685237912793,1424.4686743757181
36165.0,14473.0,36165.0,50087.0,36165.0,72102.0,546.4328412321933,871.9462499349515,1424.436285956905
36165.0,14469.0,36165.0,50115.0,36165.0,72099.0,552.0268825320541,871.2625542080518,1423.3524249383654
36175.0,14463.0,36175.0,50028.0,36175.0,72079.0,557.1359590706554,869.9417796918267,1421.2550180492647
36175.0,14464.0,36175.0,50043.0,36175.0,72067.0,561.771875667111,868.009529226108,1418.1828547084162
36175.0,14462.0,36175.0,50010.0,36175.0,72045.0,565.9466591149848,865.491934988238,1414.175201601797
36175.0,14482.0,36175.0,50036.0,36175.0,72049.0,569.6723596604785,862.4150086541795,1409.2713659618187
36175.0,14472.0,36175.0,50020.0,36175.0,72028.0,572.9610009929265,858.8044133140609,1403.510358065559
36175.0,14475.0,36175.0,50011.0,36175.0,72037.0,575.8245852702137,854.6854620304225,1396.930692161961
36186.0,14483.0,36186.0,50038.0,36186.0,72026.0,578.2750354172337,850.0831337686413,1389.570304334469
36186.0,14505.0,36186.0,49975.0,36186.0,72034.0,580.3241795446252,845.0220795738285,1381.4665880804964
36186.0,14492.0,36186.0,50001.0,36186.0,71997.0,581.9838965027064,839.5265048595895,1372.656467457417
36186.0,14508.0,36186.0,50061.0,36186.0,72001.0,583.2662865994333,833.6200686738318,1363.1763426662703
36186.0,14509.0,36186.0,49988.0,36186.0,71989.0,584.18375781719,827.3262281863331,1353.0619250951713
36186.0,14515.0,36186.0,50012.0,36186.0,72015.0,584.7491101092794,820.6686674092107,1342.348213612009
36196.0,14494.0,36196.0,49982.0,36196.0,71980.0,584.9755991617714,813.6712548908897,1331.0697222574308
36196.0,14487.0,36196.0,49926.0,36196.0,71956.0,584.8768193348292,806.3576935391184,1319.2606708381418
36196.0,14471.0,36196.0,49923.0,36196.0,71921.0,584.4663750027219,798.7509387084194,1306.954795296633
36196.0,14482.0,36196.0,49887.0,36196.0,71932.0,583.7575058034322,790.8724323643155,1294.1848961539288
36196.0,14488.0,36196.0,49934.0,36196.0,71921.0,582.7628798779865,782.7415715019517,1280.9825630863365
36196.0,14502.0,36196.0,49929.0,36196.0,71900.0,581.494655861359,774.3757278562692,1267.3782081458248
36206.0,14492.0,36206.0,49965.0,36206.0,71891.0,579.9647100068745,765.7907858977093,1253.4011394741315
36206.0,14469.0,36206.0,49872.0,36206.0,71859.0,578.1847629435629,757.0017330922401,1239.079492394233
36206.0,14492.0,36206.0,49910.0,36206.0,71859.0,576.166266046237,748.0227231238417,1224.4400715731472
36206.0,14485.0,36206.0,49943.0,36206.0,71877.0,573.9202716736513,738.8668564630661,1209.5082976261704
36206.0,14488.0,36206.0,49946.0,36206.0,71848.0,571.4574933255799,729.5464954042827,1194.3084414540795
36206.0,14472.0,36206.0,49891.0,36206.0,71809.0,568.788397513016,720.0739633897773,1178.8638985975676
36217.0,14457.0,36217.0,49872.0,36217.0,71782.0,565.9231226008379,710.4617134965763,1163.197055581628
36217.0,14463.0,36217.0,49859.0,36217.0,71778.0,562.8712445242061,700.7218483106228,1147.3288426112224
36217.0,14465.0,36217.0,49849.0,36217.0,71766.0,559.6415894025728,690.8656060002523,1131.2784333067766
36217.0,14450.0,36217.0,49840.0,36217.0,71773.0,556.2422101207999,680.9031238566652,1115.063281036615
36217.0,14479.0,36217.0,49863.0,36217.0,71769.0,552.6804436218099,670.8434364449495,1098.6994062318554
36217.0,14472.0,36217.0,49838.0,36217.0,71756.0,548.9630607930422,660.6946878016361,1082.2017944796785
36227.0,14461.0,36227.0,49880.0,36227.0,71733.0,545.0965107320181,650.4644966727108,1065.5847105965124
36227.0,14472.0,36227.0,49822.0,36227.0,71728.0,541.0870669176344,640.1603429830407,1048.8618128415376
36227.0,14472.0,36227.0,49891.0,36227.0,71723.0,536.9408831724438,629.7898943371071,1032.0462003725227
36227.0,14463.0,36227.0,49836.0,36227.0,71714.0,532.6641089674094,619.3613431343583,1015.1505756365557
36227.0,14467.0,36227.0,49820.0,36227.0,71710.0,528.2629991111269,608.8836892877271,998.1875131750585
36227.0,14445.0,36227.0,49757.0,36227.0,71669.0,523.7439265574013,598.366565559874,981.1696846753093
36237.0,14452.0,36237.0,49781.0,36237.0,71643.0,519.1133102721996,587.8195870157539,964.1098455837307
36237.0,14431.0,36237.0,49754.0,36237.0,71645.0,514.377496406581,577.2517969995027,947.020584895715
36237.0,14443.0,36237.0,49743.0,36237.0,71627.0,509.54265125850407,566.6714886049439,929.914155436181
36237.0,14441.0,36237.0,49790.0,36237.0,71633.0,504.6147386744967,556.0862637389715,912.8025785026249
36237.0,14447.0,36237.0,49776.0,36237.0,71615.0,499.5996363332413,545.503396291286,895.6979091463002
36237.0,14440.0,36237.0,49786.0,36237.0,71633.0,494.5033340537532,534.9304809460423,878.6125665850021
36248.0,14433.0,36248.0,49740.0,36248.0,71593.0,489.3320803714953,524.3759241990356,861.5597010214019
36248.0,14422.0,36248.0,49736.0,36248.0,71556.0,484.0924023104418,513.8489818666278,844.5533880183765
36248.0,14429.0,36248.0,49787.0,36248.0,71585.0,478.7910426711311,503.3596382751212,827.6085184630123
36248.0,14421.0,36248.0,49736.0,36248.0,71578.0,473.4349400952757,492.9188287117954,810.7407884068335
36248.0,14425.0,36248.0,49683.0,36248.0,71547.0,468.0313002589776,482.53872554045455,793.9670554301688
36248.0,14394.0,36248.0,49675.0,36248.0,71479.0,462.5876507137085,472.23238944576144,777.3055267601383
36258.0,14398.0,36258.0,49669.0,36258.0,71471.0,457.1117455775436,462.01304849972894,760.7753171897288
36258.0,14407.0,36258.0,49656.0,36258.0,71476.0,451.6114068548868,451.8937007940091,744.3957991707814
36258.0,14391.0,36258.0,49617.0,36258.0,71425.0,446.09452272093245,441.8869896237012,728.1863212283641
36258.0,14392.0,36258.0,49648.0,36258.0,71457.0,440.5691519261692,432.0050290357874,712.1662050321081
36258.0,14382.0,36258.0,49650.0,36258.0,71440.0,435.04355193156925,422.25936551680763,696.3548565787148
36258.0,14378.0,36258.0,49626.0,36258.0,71407.0,429.52614468006016,412.6612737514578,680.7720232379924
36268.0,14369.0,36268.0,49632.0,36268.0,71392.0,424.0254743784819,403.222060257814,665.4379147362974
36268.0,14389.0,36268.0,49619.0,36268.0,71382.0,418.55020154049697,393.9531579933654,650.3730498245486
36268.0,14372.0,36268.0,49633.0,36268.0,71378.0,413.1092220578144,384.86621191119883,635.59813760613
36268.0,14374.0,36268.0,49612.0,36268.0,71341.0,407.7118482835425,375.9732663989561,621.1341061905354
36268.0,14351.0,36268.0,49588.0,36268.0,71337.0,402.36786768064087,367.28689232453144,607.0020715840967
36268.0,14338.0,36268.0,49543.0,36268.0,71257.0,397.0874079043073,358.8199962865312,593.2230680557282
36279.0,14326.0,36279.0,49524.0,36279.0,71292.0,391.8806585970272,350.58524083622564,579.8175312037961
36279.0,14327.0,36279.0,49541.0,36279.0,71278.0,386.75758313816374,342.5943909605936,566.8048791051974
36279.0,14326.0,36279.0,49534.0,36279.0,71249.0,381.72777180145977,334.85803568941566,554.2035025424568
36279.0,14331.0,36279.0,49545.0,36279.0,71257.0,376.80047445138035,327.3857492087226,542.0308783385908
36279.0,14329.0,36279.0,49529.0,36279.0,71230.0,371.9847477095599,320.186387580134,530.3035522397059
36279.0,14314.0,36279.0,49515.0,36279.0,71227.0,367.2895989154932,313.268259693504,519.0371020841051
36289.0,14304.0,36289.0,49499.0,36289.0,71216.0,362.7239909985464,306.63907097857714,508.24610905446457
36289.0,14314.0,36289.0,49577.0,36289.0,71245.0,358.296722136192,300.3058743574203,497.944213410564
36289.0,14309.0,36289.0,49571.0,36289.0,71211.0,354.0163741865564,294.2755401858659,488.14437767554983
36289.0,14291.0,36289.0,49512.0,36289.0,71182.0,349.8913660385287,288.5555587677477,478.859103867191
36289.0,14282.0,36289.0,49455.0,36289.0,71177.0,345.92990518369214,283.15414514136376,470.10026639262367
36289.0,14269.0,36289.0,49441.0,36289.0,71148.0,342.1397603382663,278.07930388854203,461.8787059113603
36299.0,14273.0,36299.0,49468.0,36299.0,71162.0,338.52800460762256,273.33774009740057,454.20390353399864
36299.0,14269.0,36299.0,49477.0,36299.0,71127.0,335.1008726296524,268.93448643001636,447.0837997694693
36299.0,14281.0,36299.0,49472.0,36299.0,71149.0,331.86377194493275,264.87319549133093,440.5246911347864
36299.0,14284.0,36299.0,49475.0,36299.0,71148.0,328.8214322026294,261.1565246237607,434.5312284562888
36299.0,14271.0,36299.0,49448.0,36299.0,71133.0,325.978107029733,257.78628111565183,429.10656522764
36299.0,14273.0,36299.0,49456.0,36299.0,71139.0,323.3376746062979,254.76333178285503,424.2525000463885
36310.0,14283.0,36310.0,49483.0,36310.0,71146.0,320.9036347842593,252.0874954262747,419.96953207673005
36310.0,14264.0,36310.0,49497.0,36310.0,71151.0,318.6791402366029,249.75775002645392,416.25699744662927
36310.0,14265.0,36310.0,49469.0,36310.0,71142.0,316.6670129548146,247.77269194303,413.11329667951736
36310.0,14255.0,36310.0,49475.0,36310.0,71106.0,314.8696367127247,246.13077966930706,410.535962239223
36310.0,14245.0,36310.0,49431.0,36310.0,71073.0,313.28877802397557,244.8301638604097,408.5213112518669
36310.0,14245.0,36310.0,49439.0,36310.0,71103.0,311.92539015926167,243.86825344195083,407.0637866997189
36320.0,14238.0,36320.0,49422.0,36320.0,71107.0,310.7794285016577,243.2412242836679,406.1555275448486
36320.0,14263.0,36320.0,49458.0,36320.0,71114.0,309.84976625558403,242.94371742176259,405.7864512886131
36320.0,14257.0,36320.0,49464.0,36320.0,71141.0,309.1342955081837,242.96891111564958,405.94458411427735
36320.0,14260.0,36320.0,49463.0,36320.0,71126.0,308.6301408250829,243.30887179737488,406.61640418467766
36320.0,14257.0,36320.0,49440.0,36320.0,71144.0,308.33379521764135,243.9548077199404,407.78710943373284
36320.0,14264.0,36320.0,49489.0,36320.0,71148.0,308.24114417007127,244.8970596138143,409.44076576386055
36330.0,14270.0,36330.0,49506.0,36330.0,71151.0,308.34749926212305,246.1252151634854,411.560425168611
36330.0,14279.0,36330.0,49526.0,36330.0,71166.0,308.6477143737647,247.62864307570106,414.1282567926196
36330.0,14282.0,36330.0,49507.0,36330.0,71190.0,309.13636438510633,249.3971131568012,417.1257198067092
36330.0,14257.0,36330.0,49430.0,36330.0,71145.0,309.80786106601454,251.42089764580217,420.5337645068601
36330.0,14275.0,36330.0,49482.0,36330.0,71165.0,310.6563727651582,253.69014164404172,424.3327971285135
36330.0,14273.0,36330.0,49459.0,36330.0,71163.0,311.6756634321088,256.1941040061862,428.50237256677985
36341.0,14268.0,36341.0,49498.0,36341.0,71175.0,312.8590413923354,258.9209267275554,433.0209738372754
36341.0,14280.0,36341.0,49509.0,36341.0,71184.0,314.19936141445885,261.85785830201155,437.8660064358227
36341.0,14273.0,36341.0,49488.0,36341.0,71217.0,315.6890094570579,264.99158537739413,443.01392936956614
36341.0,14278.0,36341.0,49492.0,36341.0,71193.0,317.31989461130235,268.3083594417749,448.4404871613377
36341.0,14287.0,36341.0,49483.0,36341.0,71215.0,319.0834424152332,271.79380361833574,454.12085942886034
36341.0,14290.0,36341.0,49550.0,36341.0,71262.0,320.9706302760778,275.43275011770095,460.0297207265314
36351.0,14315.0,36351.0,49571.0,36351.0,71267.0,322.9721219415569,279.20957426726284,466.14155548127496
36351.0,14310.0,36351.0,49540.0,36351.0,71265.0,325.0784992866154,283.10891429945696,472.43117217362953
36351.0,14300.0,36351.0,49524.0,36351.0,71246.0,327.28046422106115,287.1160265990702,478.87390558439677
36351.0,14285.0,36351.0,49509.0,36351.0,71249.0,329.5687884125441,291.21641061058426,485.4453460224122
36351.0,14300.0,36351.0,49503.0,36351.0,71252.0,331.93402124542854,295.3951248191987,492.12089382059185
36351.0,14306.0,36351.0,49546.0,36351.0,71277.0,334.3662578510435,299.6363002115814,498.8754697606108
36361.0,14319.0,36361.0,49560.0,36361.0,71320.0,336.85515977096145,303.92313704990283,505.68358055019826
36361.0,14323.0,36361.0,49586.0,36361.0,71299.0,339.3901354834853,308.23835916462014,512.51970980759
36361.0,14320.0,36361.0,49578.0,36361.0,71310.0,341.96050506300236,312.56475798831565,519.3586508681133
36361.0,14311.0,36361.0,49578.0,36361.0,71313.0,344.55552384299824,316.8854868985303,526.1754948673312
36361.0,14343.0,36361.0,49571.0,36361.0,71348.0,347.1642957837446,321.18403154499947,532.9455258556351
36361.0,14352.0,36361.0,49599.0,36361.0,71339.0,349.7758237857916,325.4440408634922,539.6443192123927
36372.0,14352.0,36372.0,49612.0,36372.0,71364.0,352.3792903916335,329.64932286909334,546.2479429726478
36372.0,14346.0,36372.0,49637.0,36372.0,71356.0,354.96429400342595,333.784129203911,552.7330786961327
36372.0,14343.0,36372.0,49577.0,36372.0,71344.0,357.5208304980354,337.83345373467455,559.0769918211372
36372.0,14345.0,36372.0,49594.0,36372.0,71370.0,360.0391177142402,341.7828964429983,565.2573360685282
36372.0,14358.0,36372.0,49593.0,36372.0,71378.0,362.5094533668889,345.6181517830686,571.2519869096419
36372.0,14361.0,36372.0,49639.0,36372.0,71396.0,364.9222159869772,349.324720997264,577.0391173125055
36382.0,14378.0,36382.0,49693.0,36382.0,71424.0,367.26799503576444,352.8882576450221,582.5974618405895
36382.0,14355.0,36382.0,49649.0,36382.0,71446.0,369.5377331274467,356.2953646750472,587.9067090946542
36382.0,14361.0,36382.0,49633.0,36382.0,71408.0,371.7227167426985,359.53410079285834,592.9478977092377
36382.0,14362.0,36382.0,49630.0,36382.0,71404.0,373.8144015604551,362.59371490736925,597.7034320505178
36382.0,14383.0,36382.0,49671.0,36382.0,71463.0,375.8042973237649,365.46414330452734,602.1567526312015
36382.0,14393.0,36382.0,49708.0,36382.0,71466.0,377.68408858025134,368.1360470058303,606.2923276149913
36393.0,14386.0,36393.0,49658.0,36393.0,71440.0,379.44589645588906,370.60134309112425,610.0960610596546
36393.0,14391.0,36393.0,49643.0,36393.0,71438.0,381.08244900100664,372.8534430582587,613.555424264058
36393.0,14382.0,36393.0,49634.0,36393.0,71432.0,382.58706929393304,374.8867937363033,616.6591062779743
36393.0,14377.0,36393.0,49602.0,36393.0,71432.0,383.95354831995195,376.69613987883804,619.3965988442155
36393.0,14379.0,36393.0,49636.0,36393.0,71430.0,385.1759615308632,378.27592146407653,621.757924586231
36393.0,14407.0,36393.0,49697.0,36393.0,71458.0,386.2485588059351,379.6201074125536,623.7335108083746
36403.0,14399.0,36403.0,49674.0,36403.0,71474.0,387.1658858563402,380.7227127965374,625.3143104177148
36403.0,14395.0,36403.0,49644.0,36403.0,71452.0,387.9230077399851,381.5784452323028,626.4921217054477
36403.0,14401.0,36403.0,49671.0,36403.0,71455.0,388.5155776489973,382.1827500811964,627.2597571734148
36403.0,14400.0,36403.0,49684.0,36403.0,71454.0,388.9397875548795,382.53158651661334,627.6109220320288
36403.0,14419.0,36403.0,49685.0,36403.0,71497.0,389.19238905681436,382.62153969441965,627.5401344898893
36403.0,14420.0,36403.0,49672.0,36403.0,71477.0,389.2708493142104,382.450093092921,627.0429652863493
36413.0,14403.0,36413.0,49686.0,36413.0,71470.0,389.1735369331104,382.01570697962046,626.1163598661036
36413.0,14402.0,36413.0,49633.0,36413.0,71443.0,388.89972944358135,381.31769296567165,624.7586224017391
36413.0,14396.0,36413.0,49630.0,36413.0,71442.0,388.44942218322274,380.3558462485122,622.9690415253212
36413.0,14381.0,36413.0,49636.0,36413.0,71468.0,387.8230964616921,379.12988616278597,620.7475301896166
36413.0,14386.0,36413.0,49696.0,36413.0,71417.0,387.0214935547674,377.63920693264146,618.0945225307689
36413.0,14389.0,36413.0,49667.0,36413.0,71471.0,386.045434989514,375.8832725486708,615.0109719100102
36424.0,14388.0,36424.0,49660.0,36424.0,71464.0,384.895784213007,373.8621741404868,611.4984258343416
36424.0,14395.0,36424.0,49625.0,36424.0,71436.0,383.5735172387679,371.5766921484802,607.5592849788723
36424.0,14386.0,36424.0,49658.0,36424.0,71441.0,382.0798071271096,369.0279341197073,603.1969265093561
36424.0,14387.0,36424.0,49682.0,36424.0,71468.0,380.41606560217366,366.2171714078987,598.4156167468084
36424.0,14398.0,36424.0,49726.0,36424.0,71480.0,378.5839539085196,363.14629567373106,593.2206926818494
36424.0,14396.0,36424.0,49681.0,36424.0,71440.0,376.58546202218974,359.8186502676841,587.619022314689
36434.0,14376.0,36434.0,49651.0,36434.0,71407.0,374.4230217575514,356.2394876493566,581.6191345036985
36434.0,14379.0,36434.0,49616.0,36434.0,71372.0,372.0994695459338,352.4156095356376,575.2307064460875
36434.0,14355.0,36434.0,49613.0,36434.0,71392.0,369.61784261755906,348.3545417365759,568.463793024624
36434.0,14360.0,36434.0,49614.0,36434.0,71386.0,366.9811278959924,344.06386474805157,561.3283886385361
36434.0,14364.0,36434.0,49638.0,36434.0,71377.0,364.19207076633705,339.55100949369216,553.8344507158486
36434.0,14383.0,36434.0,49643.0,36434.0,71420.0,361.2531913531191,334.8235058305849,545.9921417361658
36444.0,14366.0,36444.0,49617.0,36444.0,71379.0,358.16702238381606,329.8893982308411,537.8121983692423
36444.0,14357.0,36444.0,49605.0,36444.0,71356.0,354.93630951774907,324.7574094805672,529.3062229979713
36444.0,14351.0,36444.0,49594.0,36444.0,71338.0,351.56396966022305,319.4367428521017,520.4865370526679
36444.0,14376.0,36444.0,49598.0,36444.0,71370.0,348.05297716385803,313.93680983470574,511.3658305300611
36444.0,14366.0,36444.0,49618.0,36444.0,71354.0,344.4064631658856,308.26718061340017,501.95716584430465
36444.0,14363.0,36444.0,49601.0,36444.0,71324.0,340.627967251404,302.43781365442743,492.2742586960121
36455.0,14337.0,36455.0,49545.0,36455.0,71305.0,336.72153575711434,296.4592301712883,482.331509366569
36455.0,14344.0,36455.0,49538.0,36455.0,71282.0,332.69156946059,290.3421879302443,472.14366661638644
36455.0,14334.0,36455.0,49517.0,36455.0,71275.0,328.5426148011131,284.0969876228048,461.7254232318704
36455.0,14325.0,36455.0,49530.0,36455.0,71293.0,324.2792522934616,277.73294370090207,451.09121190057385
36455.0,14331.0,36455.0,49548.0,36455.0,71239.0,319.9060415141933,271.2582925482283,440.2552495085196
36455.0,14318.0,36455.0,49509.0,36455.0,71239.0,315.42749418013693,264.68042840640305,429.2315399998429
36465.0,14320.0,36465.0,49507.0,36465.0,71248.0,310.8480832657283,258.0060640671516,418.0336997480713
36465.0,14325.0,36465.0,49520.0,36465.0,71241.0,306.1722758696672,251.24114204842266,406.67495306268836
36465.0,14306.0,36465.0,49543.0,36465.0,71211.0,301.4046038504252,244.39088863579263,395.1683580991523
36465.0,14324.0,36465.0,49553.0,36465.0,71216.0,296.54973768080555,237.46029188901664,383.5269106137025
36465.0,14309.0,36465.0,49558.0,36465.0,71224.0,291.6125593251167,230.45478487558614,371.7635514441996
36465.0,14303.0,36465.0,49513.0,36465.0,71169.0,286.5982501751074,223.38074338229944,359.89128168739205
36475.0,14289.0,36475.0,49465.0,36475.0,71175.0,281.512288651467,216.24542960571557,347.9231686136028
36475.0,14264.0,36475.0,49461.0,36475.0,71147.0,276.36028040129406,209.05632899787082,335.8721103538469
36475.0,14268.0,36475.0,49478.0,36475.0,71142.0,271.1476694846872,201.82043656005905,323.750611901211
36475.0,14264.0,36475.0,49456.0,36475.0,71127.0,265.8794902449686,194.54404482328462,311.5706833130407
36475.0,14268.0,36475.0,49470.0,36475.0,71116.0,260.56031956170887,187.232895678903,299.34379495001076
36475.0,14267.0,36475.0,49485.0,36475.0,71094.0,255.19440099129702,179.89241253344494,287.08084079238756
36486.0,14266.0,36486.0,49462.0,36486.0,71105.0,249.78582124512715,172.52802878597745,274.7920952941956
36486.0,14252.0,36486.0,49462.0,36486.0,71093.0,244.33864982100783,165.14548090471214,262.48727067691567
36486.0,14243.0,36486.0,49459.0,36486.0,71101.0,238.8569607038766,157.75090200094814,250.17574920343884
36486.0,14258.0,36486.0,49449.0,36486.0,71077.0,233.34477647645804,150.35085129942058,237.86687880811206
36486.0,14238.0,36486.0,49419.0,36486.0,71057.0,227.80609255656654,142.9523197786859,225.5701415430475
36486.0,14221.0,36486.0,49401.0,36486.0,71035.0,222.2449308364944,135.5625357050996,213.29507715826503
36496.0,14211.0,36496.0,49362.0,36496.0,71019.0,216.6652121278698,128.18851924332225,201.05103233657115
36496.0,14219.0,36496.0,49379.0,36496.0,71002.0,211.07052418324923,120.83654983461494,188.8468991960558
36496.0,14196.0,36496.0,49386.0,36496.0,70985.0,205.46401182474062,113.51186789165757,176.6909095406935
36496.0,14214.0,36496.0,49406.0,36496.0,70985.0,199.8483809691257,106.21885547780869,164.59049469091394
36496.0,14211.0,36496.0,49373.0,36496.0,71012.0,194.22597597224313,98.96150354487992,152.55234014387906
36496.0,14198.0,36496.0,49364.0,36496.0,70972.0,188.5989504394195,91.74368798424578,140.58272588596623
36506.0,14193.0,36506.0,49329.0,36506.0,70961.0,182.96938773905242,84.56902770146684,128.68784655350157
36506.0,14197.0,36506.0,49393.0,36506.0,70972.0,177.33929626928028,77.4406200499165,116.8738481493425
36506.0,14198.0,36506.0,49414.0,36506.0,70952.0,171.71064535265822,70.36126062029277,105.14684216869091
36506.0,14185.0,36506.0,49387.0,36506.0,70946.0,166.08550240297214,63.334256560266056,93.513060852504
36506.0,14180.0,36506.0,49321.0,36506.0,70895.0,160.46612559021082,56.36399752959147,81.9788923076348
36506.0,14173.0,36506.0,49318.0,36506.0,70890.0,154.85494110423645,49.455606232016464,70.55060506014149
36517.0,14154.0,36517.0,49265.0,36517.0,70862.0,149.25445755929607,42.614046818561974,59.233899448816544
36517.0,14140.0,36517.0,49293.0,36517.0,70867.0,143.66710531860076,35.84334264141887,48.03355886046194
36517.0,14152.0,36517.0,49316.0,36517.0,70894.0,138.09502291964628,29.146261404302777,36.95341108988242
36517.0,14141.0,36517.0,49322.0,36517.0,70854.0,132.53996658584887,22.52462947865098,25.99663609480342
36517.0,14151.0,36517.0,49309.0,36517.0,70831.0,127.003407513763,15.979961615431705,15.1660496759269
36517.0,14130.0,36517.0,49255.0,36517.0,70847.0,121.48667724051148,9.513768514871742,4.464031084870442
36527.0,14127.0,36527.0,49281.0,36527.0,70827.0,115.99101938074185,3.12731352012662,-6.107601977839977
36527.0,14136.0,36527.0,49339.0,36527.0,70843.0,110.51755780626809,-3.178606880185555,-16.547465472810813
36527.0,14137.0,36527.0,49319.0,36527.0,70812.0,105.06735526563438,-9.403182862373171,-26.854376034032157
36527.0,14111.0,36527.0,49299.0,36527.0,70841.0,99.64158061818,-15.544791882805669,-37.02715661777319
36527.0,14103.0,36527.0,49225.0,36527.0,70777.0,94.24152965737494,-21.600837349928725,-47.06450106923205
36527.0,14087.0,36527.0,49219.0,36527.0,70782.0,88.86840639346534,-27.568456112366505,-56.96503526179686
36537.0,14097.0,36537.0,49209.0,36537.0,70749.0,83.52307522063782,-33.445499868409,-66.7276396116199
36537.0,14091.0,36537.0,49233.0,36537.0,70725.0,78.2059842788918,-39.23109442161535,-76.3518589710211
36537.0,14106.0,36537.0,49223.0,36537.0,70771.0,72.91728831429043,-44.925602806088136,-85.83819351513091
36537.0,14095.0,36537.0,49261.0,36537.0,70746.0,67.65708804767496,-50.530251345873864,-95.1880298143343
36537.0,14083.0,36537.0,49235.0,36537.0,70736.0,62.42563426380775,-56.04664529952237,-104.40327481449737
36537.0,14075.0,36537.0,49221.0,36537.0,70735.0,57.22335292990064,-61.47640476142362,-113.48613183254594
36548.0,14080.0,36548.0,49265.0,36548.0,70767.0,52.05074799722061,-66.82104624520542,-122.43899220409395
36548.0,14070.0,36548.0,49277.0,36548.0,70731.0,46.908366029027974,-72.08173753894283,-131.2641146758998
36548.0,14072.0,36548.0,49234.0,36548.0,70726.0,41.79685096949095,-77.2587537737943,-139.9632928206144
36548.0,14050.0,36548.0,49229.0,36548.0,70688.0,36.716977729748976,-82.35119929192405,-148.5378827701233
36548.0,14050.0,36548.0,49164.0,36548.0,70676.0,31.669585643840094,-87.35735553010869,-156.98915680859938
36548.0,14038.0,36548.0,49143.0,36548.0,70669.0,26.65544010078588,-92.2754768582189,-165.3187277917968
36558.0,14041.0,36558.0,49154.0,36558.0,70670.0,21.67512351155102,-97.10470050576095,-173.52880959763905
36558.0,14028.0,36558.0,49161.0,36558.0,70677.0,16.728998084124044,-101.84558290752256,-181.62220022706873
36558.0,14037.0,36558.0,49182.0,36558.0,70686.0,11.817212055101095,-106.50001964465343,-189.60202593654736
36558.0,14032.0,36558.0,49142.0,36558.0,70663.0,6.939757459211762,-111.07087882983564,-197.47139000166896
36558.0,14005.0,36558.0,49175.0,36558.0,70640.0,2.0965369318074636,-115.56178095514127,-205.23319517119904
36558.0,14027.0,36558.0,49186.0,36558.0,70654.0,-2.7126737854455882,-119.97697047481773,-212.89025506816353
36568.0,14028.0,36568.0,49221.0,36568.0,70660.0,-7.488246211224464,-124.32089855334078,-220.44538077026107
36568.0,14020.0,36568.0,49149.0,36568.0,70621.0,-12.230520224208021,-128.5976301768673,-227.9012421336576
36568.0,14009.0,36568.0,49160.0,36568.0,70626.0,-16.939608021362403,-132.81069070108407,-235.26030530524605
36568.0,13999.0,36568.0,49159.0,36568.0,70615.0,-21.615401512276947,-136.96341646626172,-242.52498597662975
36568.0,13989.0,36568.0,49132.0,36568.0,70585.0,-26.257724459863482,-141.05926700885686,-249.69781997684407
36568.0,13987.0,36568.0,49125.0,36568.0,70581.0,-30.86649985300943,-145.10199959654892,-256.7816673151101
36579.0,13983.0,36579.0,49146.0,36579.0,70600.0,-35.44185561492799,-149.09587191725814,-263.7799334012425
36579.0,13978.0,36579.0,49166.0,36579.0,70615.0,-39.984150436221455,-153.04561376455456,-270.6964855812266
36579.0,13985.0,36579.0,49195.0,36579.0,70583.0,-44.493944014012015,-156.9559409289066,-277.5352486918729
36579.0,13983.0,36579.0,49119.0,36579.0,70560.0,-48.9719015690373,-160.83095518051232,-284.29997532605285
36579.0,13973.0,36579.0,49121.0,36579.0,70561.0,-53.41865488636262,-164.6740798111602,-290.9944537686715
36579.0,13973.0,36579.0,49154.0,36579.0,70584.0,-57.83472307081229,-168.4885063201275,-297.62275885925396
36589.0,13978.0,36589.0,49156.0,36589.0,70614.0,-62.22048895202414,-172.2773385991644,-304.1890437783103
36589.0,13968.0,36589.0,49154.0,36589.0,70580.0,-66.57612791537565,-176.043201786235,-310.6969272714323
36589.0,13953.0,36589.0,49128.0,36589.0,70548.0,-70.90154378898461,-179.78790054567276,-317.14908532369566
36589.0,13944.0,36589.0,49105.0,36589.0,70542.0,-75.19645546662821,-183.5125031056411,-323.5474519170499
36589.0,13945.0,36589.0,49072.0,36589.0,70503.0,-79.46058772455564,-187.21780849670802,-329.8937576067899
36589.0,13934.0,36589.0,49081.0,36589.0,70508.0,-83.69380434349566,-190.90497636723507,-336.1900456293272
36600.0,13931.0,36600.0,49114.0,36600.0,70537.0,-87.89616330703365,-194.57591460029488,-342.4389712033342
36600.0,13932.0,36600.0,49150.0,36600.0,70554.0,-92.06795276876574,-198.23303209126743,-348.64361277987405
36600.0,13925.0,36600.0,49096.0,36600.0,70520.0,-96.2096915976378,-201.8785387630706,-354.8069044406683
36600.0,13926.0,36600.0,49094.0,36600.0,70522.0,-100.3220904461925,-205.514053666334,-360.9312721828792
36600.0,13926.0,36600.0,49105.0,36600.0,70518.0,-104.40599963517118,-209.14078620567528,-367.0186601847289
36600.0,13927.0,36600.0,49137.0,36600.0,70518.0,-108.46232359673724,-212.75966106655414,-373.0705988977686
36610.0,13913.0,36610.0,49115.0,36610.0,70524.0,-112.4919220886805,-216.37098610949835,-379.08811455799207
36610.0,13907.0,36610.0,49102.0,36610.0,70495.0,-116.49559731480704,-219.97407402054097,-385.07158934958557
36610.0,13898.0,36610.0,49042.0,36610.0,70475.0,-120.47419930463263,-223.5673459016175,-391.0207948001033
36610.0,13902.0,36610.0,49047.0,36610.0,70452.0,-124.42875238836825,-227.1489694395297,-396.9352279135903
36610.0,13889.0,36610.0,49055.0,36610.0,70459.0,-128.3605136960971,-230.71757231462817,-402.81457398329155
36610.0,13887.0,36610.0,49009.0,36610.0,70440.0,-132.27099805147435,-234.2726140157513,-408.65901480073103
36620.0,13897.0,36620.0,49056.0,36620.0,70470.0,-136.1619975520647,-237.8145395468273,-414.46929120126686
36620.0,13908.0,36620.0,49054.0,36620.0,70438.0,-140.03548043731985,-241.34477980014134,-420.246574582005
36620.0,13883.0,36620.0,49073.0,36620.0,70462.0,-143.89335502328356,-244.8654083550107,-425.9922829599973
36620.0,13891.0,36620.0,49040.0,36620.0,70430.0,-147.73732732399787,-248.37868536443682,-431.70796700788776
36620.0,13887.0,36620.0,49091.0,36620.0,70458.0,-151.56892110745724,-251.8868061929171,-437.39525185873583
36620.0,13900.0,36620.0,49083.0,36620.0,70481.0,-155.38944986676466,-255.39165034332723,-443.0556565472207
36631.0,13876.0,36631.0,49061.0,36631.0,70446.0,-159.19987792422341,-258.8943950190856,-448.69018378339433
36631.0,13864.0,36631.0,49069.0,36631.0,70430.0,-163.00078109459145,-262.3953231318813,-454.2990301189441
36631.0,13858.0,36631.0,49035.0,36631.0,70413.0,-166.79253437160224,-265.89395119078347,-459.8817686046
36631.0,13857.0,36631.0,49014.0,36631.0,70394.0,-170.57556067374605,-269.38933945084335,-465.43779346648057
36631.0,13843.0,36631.0,49007.0,36631.0,70390.0,-174.35047064344303,-272.8805640961063,-470.96672730155944
36631.0,13851.0,36631.0,49001.0,36631.0,70403.0,-178.11812991165488,-276.36719565575333,-476.4686673617755
36641.0,13862.0,36641.0,49049.0,36641.0,70384.0,-181.87964773730698,-279.84947000281284,-481.9441960594055
36641.0,13861.0,36641.0,49028.0,36641.0,70421.0,-185.63619390464015,-283.3280102883711,-487.3942143801986
36641.0,13838.0,36641.0,49027.0,36641.0,70365.0,-189.3887693164956,-286.80337503311307,-492.8197317540329
36641.0,13834.0,36641.0,48999.0,36641.0,70391.0,-193.13819333210256,-290.2758978161658,-498.2217884216635
36641.0,13850.0,36641.0,49032.0,36641.0,70395.0,-196.8852552021828,-293.7458286652913,-503.6015001493312
36641.0,13842.0,36641.0,49071.0,36641.0,70384.0,-200.63072399448686,-297.2132752582839,-508.95995610599175
36651.0,13830.0,36651.0,49007.0,36651.0,70368.0,-204.37520889050512,-300.67774155883126,-514.298040700339
36651.0,13825.0,36651.0,48992.0,36651.0,70363.0,-208.11912886607308,-304.1378892166626,-519.6164687364865
36651.0,13821.0,36651.0,48978.0,36651.0,70354.0,-211.86282614076083,-307.59197910949274,-524.915967078594
36651.0,13817.0,36651.0,48983.0,36651.0,70323.0,-215.60666755686236,-311.03849320965264,-530.1974712593958
36651.0,13809.0,36651.0,48976.0,36651.0,70337.0,-219.351093402341,-314.4764268491786,-535.4623795053258
36651.0,13805.0,36651.0,48988.0,36651.0,70353.0,-223.09666830635734,-317.9053020215387,-540.712716415184
36662.0,13823.0,36662.0,48987.0,36662.0,70359.0,-226.8441018142371,-321.32504341253895,-545.9509411410318
36662.0,13817.0,36662.0,48965.0,36662.0,70355.0,-230.5941232734105,-324.7358305062171,-551.1795133377151
36662.0,13795.0,36662.0,48974.0,36662.0,70328.0,-234.3472919586983,-328.1380856441418,-556.4006013136907
36662.0,13798.0,36662.0,48980.0,36662.0,70346.0,-238.10399133310176,-331.53253934597035,-561.6160840876184
36662.0,13804.0,36662.0,49000.0,36662.0,70364.0,-241.86455885840223,-334.92011181996907,-566.8275700344338
36662.0,13794.0,36662.0,49014.0,36662.0,70324.0,-245.6292983792614,-338.30152159945214,-572.0361932645466
36672.0,13810.0,36672.0,48937.0,36672.0,70316.0,-249.39836292870928,-341.67691876718817,-577.2424973152813
36672.0,13769.0,36672.0,48957.0,36672.0,70295.0,-253.171661749596,-345.04602439260805,-582.4466995581917
36672.0,13769.0,36672.0,48922.0,36672.0,70295.0,-256.94895342600626,-348.4087215356824,-587.6490995284662
36672.0,13764.0,36672.0,48896.0,36672.0,70284.0,-260.7301311982907,-351.76564450814425,-592.8503559406961
36672.0,13773.0,36672.0,48937.0,36672.0,70261.0,-264.5154313134781,-355.1186267517238,-598.0516627334929
36672.0,13778.0,36672.0,48944.0,36672.0,70264.0,-268.3053802552329,-358.4708150544672,-603.2549597083636
36682.0,13768.0,36682.0,48957.0,36682.0,70274.0,-272.1005921513703,-361.8262719590509,-608.4631109398234
36682.0,13778.0,36682.0,48972.0,36682.0,70301.0,-275.9015924083587,-365.1893779185421,-613.679795905673
36682.0,13758.0,36682.0,48947.0,36682.0,70284.0,-279.70872624429325,-368.56436496590493,-618.9090808686271
36682.0,13751.0,36682.0,49001.0,36682.0,70308.0,-283.522170319138,-371.9550100956091,-624.1549476454016
36682.0,13763.0,36682.0,48967.0,36682.0,70290.0,-287.34203328600296,-375.36432430603196,-629.4209577264415
36682.0,13757.0,36682.0,48945.0,36682.0,70224.0,-291.1683833608382,-378.7942898022298,-634.710177093611
36693.0,13740.0,36693.0,48912.0,36693.0,70258.0,-295.0011685046494,-382.24603179415385,-640.0255538743778
36693.0,13721.0,36693.0,48919.0,36693.0,70275.0,-298.8402680152727,-385.7204045867298,-645.3703601776512
36693.0,13727.0,36693.0,48900.0,36693.0,70252.0,-302.68575040757503,-389.2185203937833,-650.748111135117
36693.0,13726.0,36693.0,48919.0,36693.0,70237.0,-306.53809271465747,-392.74199013804787,-656.1622848376046
36693.0,13726.0,36693.0,48900.0,36693.0,70241.0,-310.3981891904636,-396.2929470275377,-661.6163591021954
36693.0,13732.0,36693.0,48970.0,36693.0,70263.0,-314.26722629984334,-399.87386499862356,-667.1139180659463
36703.0,13722.0,36703.0,48937.0,36703.0,70225.0,-318.14653527376356,-403.4870707750242,-672.6585188664748
36703.0,13715.0,36703.0,48906.0,36703.0,70217.0,-322.0375011189349,-407.13423481331444,-678.2535935198558
36703.0,13713.0,36703.0,48874.0,36703.0,70238.0,-325.94158065738753,-410.8164542503666,-683.902592300734
36703.0,13724.0,36703.0,48967.0,36703.0,70239.0,-329.8603344377118,-414.53471935659053,-689.6090163881589
36703.0,13707.0,36703.0,48916.0,36703.0,70230.0,-333.79535711996186,-418.2898629041619,-695.3761575315629
36703.0,13693.0,36703.0,48889.0,36703.0,70215.0,-337.7482236605118,-422.0821118181721,-701.2068765167696
36713.0,13701.0,36713.0,48867.0,36713.0,70214.0,-341.72059088239683,-425.91117199488576,-707.1036247229224
36713.0,13702.0,36713.0,48862.0,36713.0,70178.0,-345.7142985541904,-429.7768584210566,-713.0686155882553
36713.0,13678.0,36713.0,48847.0,36713.0,70164.0,-349.73134242954677,-433.6796432460092,-719.1041317371225
36713.0,13678.0,36713.0,48909.0,36713.0,70193.0,-353.77390132239464,-437.6208324145037,-725.2128887677044
36713.0,13700.0,36713.0,48884.0,36713.0,70203.0,-357.84444041417026,-441.6022676335839,-731.3980751650911
36713.0,13678.0,36713.0,48892.0,36713.0,70175.0,-361.94564990091015,-445.62577624385995,-737.6629913510692
36724.0,13675.0,36724.0,48852.0,36724.0,70166.0,-366.08028973172253,-449.69290320231835,-744.0107936991782
36724.0,13668.0,36724.0,48856.0,36724.0,70145.0,-370.25119534131755,-453.8050890422171,-750.4446348265824
36724.0,13678.0,36724.0,48896.0,36724.0,70160.0,-374.4613613160154,-457.9639092538848,-756.9679410242293
36724.0,13689.0,36724.0,48902.0,36724.0,70166.0,-378.7138681511165,-462.1708772049138,-763.5844826898469
36724.0,13676.0,36724.0,48856.0,36724.0,70147.0,-383.01163581487907,-466.42692995088674,-770.298187059265
36724.0,13663.0,36724.0,48839.0,36724.0,70163.0,-387.35722865502794,-470.73230721597116,-777.1129217960782
36734.0,13644.0,36734.0,48821.0,36734.0,70113.0,-391.75291999844467,-475.087029932896,-784.0324294255196
36734.0,13652.0,36734.0,48826.0,36734.0,70127.0,-396.2009414835456,-479.4914764485878,-791.0604590341414
36734.0,13641.0,36734.0,48818.0,36734.0,70127.0,-400.70367218012325,-483.94667997677027,-798.200973689684
36734.0,13645.0,36734.0,48832.0,36734.0,70140.0,-405.26367028415825,-488.4543553755005,-805.4581278775817
36734.0,13658.0,36734.0,48831.0,36734.0,70112.0,-409.8835877845959,-493.01675032968944,-812.8360047076166
36734.0,13640.0,36734.0,48808.0,36734.0,70102.0,-414.5659902819364,-497.6364524265252,-820.338470956143
36744.0,13620.0,36744.0,48804.0,36744.0,70116.0,-419.3132377012711,-502.31636454290526,-827.9692550464277
36744.0,13637.0,36744.0,48847.0,36744.0,70112.0,-424.12757759685024,-507.059773584485,-835.7319503565973
36744.0,13644.0,36744.0,48839.0,36744.0,70110.0,-429.0112141974281,-511.87011785919594,-843.6298020747483
36744.0,13626.0,36744.0,48877.0,36744.0,70135.0,-433.9661365826412,-516.750392271334,-851.6654070055693
36744.0,13635.0,36744.0,48817.0,36744.0,70092.0,-438.99391841108945,-521.7025777618962,-859.8404011050606
36744.0,13613.0,36744.0,48756.0,36744.0,70046.0,-444.09566924892306,-526.7276230937648,-868.1553916743165
36755.0,13604.0,36755.0,48751.0,36755.0,70033.0,-449.2721030461713,-531.8262399757532,-876.6104458109079
36755.0,13601.0,36755.0,48776.0,36755.0,70054.0,-454.52369539228204,-536.9998942520862,-885.2057708233065
36755.0,13606.0,36755.0,48788.0,36755.0,70056.0,-459.85081215070556,-542.2511047123273,-893.9419147251922
36755.0,13614.0,36755.0,48825.0,36755.0,70040.0,-465.253649582793,-547.5829786398699,-902.8194787049766
36755.0,13589.0,36755.0,48789.0,36755.0,70025.0,-470.7320426140971,-552.9984919740177,-911.8388576009891
36755.0,13594.0,36755.0,48764.0,36755.0,70030.0,-476.2853638474215,-558.5000765860235,-921.0002309741418
36765.0,13569.0,36765.0,48782.0,36765.0,70034.0,-481.91259832535764,-564.0897392105162,-930.3035619208281
36765.0,13569.0,36765.0,48845.0,36765.0,70038.0,-487.6125050187081,-569.7691453139008,-939.7483850594372
36765.0,13572.0,36765.0,48835.0,36765.0,70022.0,-493.3837557912011,-575.5390202485801,-949.3334788086878
36765.0,13574.0,36765.0,48774.0,36765.0,70019.0,-499.224928432714,-581.3983250049198,-959.0566364902913
36765.0,13555.0,36765.0,48745.0,36765.0,70014.0,-505.1343699938589,-587.344212331287,-968.9145767725461
36765.0,13533.0,36765.0,48739.0,36765.0,69975.0,-511.1101712910041,-593.3727936115235,-978.9029388867754
36775.0,13542.0,36775.0,48738.0,36775.0,69954.0,-517.1503578683337,-599.4798787660352,-989.0164720027735
36775.0,13553.0,36775.0,48739.0,36775.0,69996.0,-523.2530323705587,-605.6612339568728,-999.2493500941187
36775.0,13557.0,36775.0,48776.0,36775.0,69962.0,-529.4162032828481,-611.9124361520098,-1009.5951874800684
36775.0,13538.0,36775.0,48707.0,36775.0,70002.0,-535.637445808798,-618.2285371768397,-1020.046674283282
36775.0,13542.0,36775.0,48709.0,36775.0,69962.0,-541.9137066067216,-624.6039765444907,-1030.5951477128842
36775.0,13528.0,36775.0,48759.0,36775.0,69963.0,-548.2412888925387,-631.0328120319332,-1041.2303139281478
36786.0,13526.0,36786.0,48743.0,36786.0,69956.0,-554.6158783727794,-637.5086165451726,-1051.9401774301928
36786.0,13513.0,36786.0,48742.0,36786.0,69963.0,-561.032571676519,-644.023934210687,-1062.711004276891
36786.0,13501.0,36786.0,48722.0,36786.0,69936.0,-567.4859438519918,-650.5699212336785,-1073.5271657071444
36786.0,13504.0,36786.0,48735.0,36786.0,69922.0,-573.9701490143544,-657.1363275947685,-1084.371040706707
36786.0,13499.0,36786.0,48696.0,36786.0,69873.0,-580.478967299131,-663.7115588134586,-1095.2231986054517
36786.0,13481.0,36786.0,48653.0,36786.0,69887.0,-587.0057740252782,-670.2828889379941,-1106.062825845771
36796.0,13482.0,36796.0,48656.0,36796.0,69864.0,-593.5435486443007,-676.8370153610392,-1116.8681061297784
36796.0,13483.0,36796.0,48692.0,36796.0,69845.0,-600.0849216657964,-683.3605774308069,-1127.6163846207005
36796.0,13471.0,36796.0,48681.0,36796.0,69886.0,-606.6221383635417,-689.8400827607591,-1138.284189753785
36796.0,13480.0,36796.0,48699.0,36796.0,69854.0,-613.1469577142846,-696.2613914248657,-1148.8470425592682
36796.0,13466.0,36796.0,48651.0,36796.0,69868.0,-619.6505475327593,-702.6093109537233,-1159.2790805665875
36796.0,13464.0,36796.0,48672.0,36796.0,69844.0,-626.1233922607005,-708.8675494867358,-1169.5527824296066
36807.0,13475.0,36807.0,48681.0,36807.0,69851.0,-632.5552136969147,-715.0187988936464,-1179.6388528000125
36807.0,13464.0,36807.0,48675.0,36807.0,69841.0,-638.934830100332,-721.0445861477114,-1189.5061327522467
36807.0,13450.0,36807.0,48662.0,36807.0,69830.0,-645.24999245103,-726.9249845788058,-1199.1214942104748
36807.0,13445.0,36807.0,48633.0,36807.0,69805.0,-651.4873662008082,-732.6385579697853,-1208.4498104529716
36807.0,13409.0,36807.0,48601.0,36807.0,69775.0,-657.6326933126597,-738.1626757528026,-1217.4541454244027
36807.0,13420.0,36807.0,48593.0,36807.0,69756.0,-663.6710722828825,-743.4740907134778,-1226.096183225448
36817.0,13403.0,36817.0,48608.0,36817.0,69745.0,-669.5872270854113,-748.549462203747,-1234.3367390942396
36817.0,13413.0,36817.0,48604.0,36817.0,69778.0,-675.3656137380952,-753.3655038375256,-1242.1360637201917
36817.0,13416.0,36817.0,48643.0,36817.0,69776.0,-680.9903487935885,-757.8987382080857,-1249.4536993078373
36817.0,13400.0,36817.0,48680.0,36817.0,69749.0,-686.4450412067138,-762.1249119999604,-1256.2480627161967
36817.0,13413.0,36817.0,48598.0,36817.0,69730.0,-691.7126474931256,-766.0182624919305,-1262.4762831509927
36817.0,13391.0,36817.0,48600.0,36817.0,69728.0,-696.7754013041492,-769.55130204518,-1268.0944556291165
36827.0,13396.0,36827.0,48650.0,36827.0,69749.0,-701.6147936855939,-772.6952104559439,-1273.057904832715
36827.0,13401.0,36827.0,48594.0,36827.0,69749.0,-706.2115701923107,-775.4200124075157,-1277.3211045959538
36827.0,13390.0,36827.0,48599.0,36827.0,69739.0,-710.5456645088695,-777.6944802394564,-1280.8373758918415
36827.0,13374.0,36827.0,48568.0,36827.0,69718.0,-714.596131934818,-779.4863579732912,-1283.558745252273
36827.0,13361.0,36827.0,48522.0,36827.0,69669.0,-718.3412655176732,-780.7629420037786,-1285.436218094876
36827.0,13353.0,36827.0,48518.0,36827.0,69687.0,-721.7588772956465,-781.4918717586077,-1286.4204260052243
36838.0,13338.0,36838.0,48535.0,36838.0,69698.0,-724.8265996408232,-781.6419047164347,-1286.46222254648
36838.0,13355.0,36838.0,48540.0,36838.0,69682.0,-727.5221143248959,-781.1832477917092,-1285.5128547970507
36838.0,13350.0,36838.0,48554.0,36838.0,69714.0,-729.8232169366484,-780.0874218062979,-1283.523886240721
36838.0,13375.0,36838.0,48577.0,36838.0,69668.0,-731.707668802753,-778.3269453553066,-1280.4471700704667
36838.0,13340.0,36838.0,48563.0,36838.0,69688.0,-733.1529626017544,-775.8749867228516,-1276.2350039885578
36838.0,13347.0,36838.0,48620.0,36838.0,69722.0,-734.1362513094305,-772.7050353339621,-1270.840370919015
36848.0,13344.0,36848.0,48620.0,36848.0,69670.0,-734.6345019153059,-768.7904944534728,-1264.2170101591332
36848.0,13343.0,36848.0,48532.0,36848.0,69676.0,-734.6246560864647,-764.104355867458,-1256.31955928542
36848.0,13334.0,36848.0,48529.0,36848.0,69661.0,-734.0837094775384,-758.6196313049434,-1247.104106264675
36848.0,13317.0,36848.0,48525.0,36848.0,69655.0,-732.9888601850146,-752.3105090861718,-1236.528898240213
36848.0,13310.0,36848.0,48545.0,36848.0,69668.0,-731.3178201772441,-745.1532917811317,-1224.554941271082
36848.0,13319.0,36848.0,48568.0,36848.0,69684.0,-729.0491892468906,-737.126662387144,-1211.146427604921
36858.0,13324.0,36858.0,48566.0,36858.0,69703.0,-726.1626857822791,-728.2115489391854,-1196.2709168593503
36858.0,13326.0,36858.0,48594.0,36858.0,69717.0,-722.6391763579438,-718.3909302488795,-1179.8993410706862
36858.0,13325.0,36858.0,48569.0,36858.0,69694.0,-718.460654553121,-707.64976552401,-1162.0060734539124
36858.0,13315.0,36858.0,48574.0,36858.0,69706.0,-713.6103193705977,-695.9751536511931,-1142.5693046542087
36858.0,13318.0,36858.0,48587.0,36858.0,69732.0,-708.0727902627227,-683.3567145289862,-1121.5716402912778
36858.0,13333.0,36858.0,48661.0,36858.0,69796.0,-701.8343540709124,-669.7868164519239,-1099.0004428945049
36869.0,13338.0,36869.0,48638.0,36869.0,69767.0,-694.8830784273371,-655.2603038222478,-1074.8477265314536
36869.0,13341.0,36869.0,48658.0,36869.0,69796.0,-687.2088001540717,-639.7740876813355,-1049.1100922487478
36869.0,13342.0,36869.0,48624.0,36869.0,69815.0,-678.8031549882169,-623.3271962244739,-1021.7890587292193
36869.0,13347.0,36869.0,48623.0,36869.0,69846.0,-669.6597197893948,-605.9213663438263,-992.8914725680364
36869.0,13352.0,36869.0,48634.0,36869.0,69860.0,-659.7742067852485,-587.5618787345605,-962.4297471686709
36869.0,13370.0,36869.0,48712.0,36869.0,69925.0,-649.1446270860963,-568.2581406845686,-930.4220049059769
36879.0,13385.0,36879.0,48710.0,36879.0,69962.0,-637.771350749689,-548.023615671558,-896.8920432234738
36879.0,13389.0,36879.0,48776.0,36879.0,70002.0,-625.6570715524074,-526.8753159975181,-861.8690653866919
36879.0,13410.0,36879.0,48743.0,36879.0,70014.0,-612.8067816860953,-504.83338014595853,-825.3874543931619
36879.0,13418.0,36879.0,48779.0,36879.0,70048.0,-599.2277906946431,-481.92102775184276,-787.4868643162462
36879.0,13446.0,36879.0,48847.0,36879.0,70131.0,-584.9297217041681,-458.16473368157335,-748.2124539251431
36879.0,13456.0,36879.0,48881.0,36879.0,70202.0,-569.9244482814089,-433.5940659708345,-707.6147472680216
36889.0,13478.0,36889.0,48942.0,36889.0,70214.0,-554.226003986928,-408.2410248666108,-665.749038805595
36889.0,13483.0,36889.0,48894.0,36889.0,70274.0,-537.850535067599,-382.13942437638076,-622.674926314376
36889.0,13505.0,36889.0,48932.0,36889.0,70309.0,-520.8163383303545,-355.3248900273103,-578.4562611855838
36889.0,13512.0,36889.0,48937.0,36889.0,70353.0,-503.14395938712346,-327.83542519247703,-533.1612409857022
36889.0,13535.0,36889.0,48982.0,36889.0,70436.0,-484.85630817692413,-299.71197008696925,-486.86242162155804
36889.0,13594.0,36889.0,49043.0,36889.0,70529.0,-465.97867169723236,-270.99855149782684,-439.63642428923305
36900.0,13595.0,36900.0,49093.0,36900.0,70557.0,-446.53846535146414,-241.7419531113721,-391.56322962498706
36900.0,13612.0,36900.0,49106.0,36900.0,70612.0,-426.56490422878665,-211.99111750323823,-342.7255179877702
36900.0,13648.0,36900.0,49132.0,36900.0,70669.0,-406.0889050818488,-181.7967619482152,-293.2084438644308
36900.0,13677.0,36900.0,49185.0,36900.0,70754.0,-385.1430683016229,-151.2113562225653,-243.0995401872973
36900.0,13729.0,36900.0,49279.0,36900.0,70831.0,-363.76144342551356,-120.2889770887324,-192.48832280191073
36900.0,13738.0,36900.0,49295.0,36900.0,70886.0,-341.97910950376945,-89.08464314076548,-141.46561248945875
36910.0,13756.0,36910.0,49308.0,36910.0,70942.0,-319.8318383785821,-57.653555268677394,-90.12291568052729
36910.0,13784.0,36910.0,49323.0,36910.0,71004.0,-297.35602794742215,-26.050927004860057,-38.5520734137026
36910.0,13812.0,36910.0,49315.0,36910.0,71056.0,-274.588758544302,5.66756263195856,13.154925608745316
36910.0,13840.0,36910.0,49390.0,36910.0,71119.0,-251.56775269704912,37.445134737238675,64.90610238428667
36910.0,13865.0,36910.0,49431.0,36910.0,71208.0,-228.33125122399846,69.22360635484836,116.60971146426027
36910.0,13899.0,36910.0,49511.0,36910.0,71266.0,-204.9178833725619,100.9437138521406,168.17467593754088
36920.0,13920.0,36920.0,49549.0,36920.0,71318.0,-181.36653380843217,132.54587953691805,219.51114544566894
36920.0,13965.0,36920.0,49605.0,36920.0,71382.0,-157.71618699087662,163.97104296969815,270.53089078498397
36920.0,13995.0,36920.0,49628.0,36920.0,71451.0,-134.00570315351774,195.16131199801976,321.1475420510768
36920.0,14027.0,36920.0,49685.0,36920.0,71522.0,-110.27351046346217,226.06037875403206,371.27691602786024
36920.0,14046.0,36920.0,49747.0,36920.0,71582.0,-86.55732340650957,256.61388866681625,420.8374963289357
36920.0,14076.0,36920.0,49749.0,36920.0,71619.0,-62.89399341246576,286.76992013492406,469.7508828331745
36931.0,14094.0,36931.0,49744.0,36931.0,71645.0,-39.31946621468421,316.47924472691125,517.94194389934
36931.0,14110.0,36931.0,49819.0,36931.0,71694.0,-15.868806298385266,345.69508627144387,565.3385828342789
36931.0,14137.0,36931.0,49819.0,36931.0,71736.0,7.4237046344079545,374.37282969997307,611.8713578290835
36931.0,14174.0,36931.0,49854.0,36931.0,71807.0,30.52448334207878,402.47000293291364,657.4732734065803
36931.0,14206.0,36931.0,49878.0,36931.0,71876.0,53.40072977829277,429.94626005746227,702.0799095569253
36931.0,14213.0,36931.0,49956.0,36931.0,71927.0,76.02063340426031,456.7633833649095,745.6298704960791
36941.0,14253.0,36941.0,49947.0,36941.0,71954.0,98.35349369831022,482.8855645907663,788.065267764983
36941.0,14276.0,36941.0,49955.0,36941.0,72006.0,120.36975791712052,508.2796751801774,829.3319178851029
36941.0,14313.0,36941.0,49988.0,36941.0,72026.0,142.04114709576862,532.9151058063352,869.3792726363813
36941.0,14343.0,36941.0,50067.0,36941.0,72145.0,163.34090159960783,556.763536439111,908.1604014388038
36941.0,14356.0,36941.0,50055.0,36941.0,72159.0,184.2440459570741,579.7991843614489,945.6323674617115
36941.0,14358.0,36941.0,50054.0,36941.0,72188.0,204.72749979974662,601.9991586878107,981.7568188690282
36951.0,14379.0,36951.0,50113.0,36951.0,72193.0,224.76991632057724,623.3433697455536,1016.5001570957054
36951.0,14393.0,36951.0,50078.0,36951.0,72232.0,244.35138863839552,643.8142510748808,1049.8331559054348
36951.0,14425.0,36951.0,50081.0,36951.0,72235.0,263.4532574930364,663.3964586250125,1081.7304451636855
36951.0,14450.0,36951.0,50105.0,36951.0,72284.0,282.05811198798926,682.076314996918,1112.1700909872188
36951.0,14483.0,36951.0,50194.0,36951.0,72355.0,300.1499657739412,699.8414060055459,1141.133428928019
36951.0,14488.0,36951.0,50197.0,36951.0,72343.0,317.7145040040664,716.6809310532806,1168.6052905439246
36962.0,14493.0,36962.0,50187.0,36962.0,72380.0,334.7391971831288,732.586396901643,1194.5742718370573
36962.0,14533.0,36962.0,50251.0,36962.0,72421.0,351.2132135686825,747.5519104595605,1219.0327182342967
36962.0,14551.0,36962.0,50318.0,36962.0,72450.0,367.1273774257256,761.574384534744,1241.9767340862177
36962.0,14561.0,36962.0,50274.0,36962.0,72488.0,382.47431919533904,774.6541930196261,1263.4064395440657
36962.0,14570.0,36962.0,50292.0,36962.0,72498.0,397.24859324327906,786.7956927768225,1283.3262786409261
36962.0,14576.0,36962.0,50241.0,36962.0,72490.0,411.44659546035814,798.0069646210866,1301.7451337043879
36972.0,14576.0,36972.0,50209.0,36972.0,72478.0,425.0663416057039,808.2989250406649,1318.67604358815
36972.0,14582.0,36972.0,50234.0,36972.0,72483.0,438.10716722669656,817.684176727168,1334.1355456803897
36972.0,14596.0,36972.0,50243.0,36972.0,72486.0,450.5694119617908,826.1761156493783,1348.1429488841902
36972.0,14626.0,36972.0,50298.0,36972.0,72515.0,462.45423800928063,833.788737470448,1360.7198284627066
36972.0,14642.0,36972.0,50303.0,36972.0,72535.0,473.76370215468353,840.5370497896599,1371.8898655818818
36972.0,14645.0,36972.0,50277.0,36972.0,72550.0,484.5009781114111,846.4375898963112,1381.6789843127458
36982.0,14650.0,36982.0,50282.0,36982.0,72544.0,494.6704720964045,851.5085153094738,1390.115548554681
36982.0,14654.0,36982.0,50299.0,36982.0,72534.0,504.2777323769361,855.7693090662733,1397.2303448400553
36982.0,14678.0,36982.0,50307.0,36982.0,72540.0,513.3293003798535,859.2406152220965,1403.0562954656336
36982.0,14673.0,36982.0,50309.0,36982.0,72536.0,521.832661037102,861.9443496428667,1407.6280952372044
36982.0,14679.0,36982.0,50279.0,36982.0,72535.0,529.7962375186704,863.9037737706592,1410.9819346902448
36982.0,14675.0,36982.0,50259.0,36982.0,72513.0,537.2292803587776,865.1432331695265,1413.155245936075
36993.0,14679.0,36993.0,50240.0,36993.0,72503.0,544.141648682726,865.6875479617597,1414.1863303331047
36993.0,14677.0,36993.0,50260.0,36993.0,72496.0,550.5435702597905,865.5613640048073,1414.1138768985215
36993.0,14693.0,36993.0,50249.0,36993.0,72534.0,556.445444827294,864.7888080466622,1412.9766150992498
36993.0,14712.0,36993.0,50270.0,36993.0,72523.0,561.857787497718,863.3934804720627,1410.813359811441
36993.0,14703.0,36993.0,50270.0,36993.0,72496.0,566.7913422705126,861.3986270110458,1407.663256968419
36993.0,14696.0,36993.0,50259.0,36993.0,72497.0,571.2571588905255,858.8273550800121,1403.5657652111158
37002.0,14714.0,37002.0,50263.0,37002.0,72489.0,575.2664728333302,855.7027523414479,1398.5603783468175
37002.0,14732.0,37002.0,50257.0,37002.0,72512.0,578.8306066234181,852.047886496615,1392.6864799446007
37002.0,14735.0,37002.0,50303.0,37002.0,72498.0,581.9611187797401,847.885898053794,1385.9834886655185
37002.0,14717.0,37002.0,50307.0,37002.0,72479.0,584.6700097932741,843.2404241221211,1378.4910825873053
37002.0,14709.0,37002.0,50186.0,37002.0,72426.0,586.9696609683306,838.1360266599789,1370.2491248369183
37002.0,14711.0,37002.0,50192.0,37002.0,72431.0,588.872511812912,832.5977724277403,1361.2971597328199
37013.0,14719.0,37013.0,50210.0,37013.0,72395.0,590.3907649737623,826.6501277777126,1351.6737918300782
37013.0,14719.0,37013.0,50213.0,37013.0,72395.0,591.536296405721,820.3163796868506,1341.4162481321198
37013.0,14722.0,37013.0,50202.0,37013.0,72396.0,592.3206934827176,813.6188412847259,1330.5601586546634
37013.0,14734.0,37013.0,50175.0,37013.0,72390.0,592.7553194817289,806.5790963976332,1319.139574378904
37013.0,14720.0,37013.0,50178.0,37013.0,72400.0,592.8513939465859,799.217920140545,1307.1872012048727
37013.0,14719.0,37013.0,50159.0,37013.0,72384.0,592.6200177343924,791.5550711596388,1294.734725354546
37023.0,14733.0,37023.0,50186.0,37023.0,72346.0,592.0721079795095,783.6092159147092,1281.8130409573564
37023.0,14729.0,37023.0,50187.0,37023.0,72368.0,591.2183943959602,775.3981260232271,1268.4522371313944
37023.0,14745.0,37023.0,50196.0,37023.0,72348.0,590.0695554908428,766.9391318696479,1254.6815560501054
37023.0,14718.0,37023.0,50139.0,37023.0,72305.0,588.6363688709553,758.2495283425383,1240.5294768478836
37023.0,14709.0,37023.0,50085.0,37023.0,72281.0,586.9296870915227,749.346440372836,1226.0235965775846
37023.0,14706.0,37023.0,50107.0,37023.0,72272.0,584.9601840598701,740.2460849813056,1211.1902101636315
37033.0,14712.0,37033.0,50099.0,37033.0,72267.0,582.738088184382,730.96311330527,1196.0539911820413
37033.0,14717.0,37033.0,50111.0,37033.0,72237.0,580.2731265599375,721.5105703957505,1180.6379547556578
37033.0,14712.0,37033.0,50109.0,37033.0,72244.0,577.5746434341913,711.9002517285668,1164.9635115394037
37033.0,14708.0,37033.0,50121.0,37033.0,72244.0,574.651720624337,702.1431342328214,1149.050575624092
37033.0,14703.0,37033.0,50078.0,37033.0,72236.0,571.5132004197143,692.2497458604714,1132.9178632763599
37033.0,14700.0,37033.0,50087.0,37033.0,72208.0,568.1676410325853,682.230297274013,1116.5832584204877
37044.0,14720.0,37044.0,50131.0,37044.0,72212.0,564.6233176401187,672.0947270874013,1100.0640095014423
37044.0,14706.0,37044.0,50125.0,37044.0,72204.0,560.8883658794205,661.8531480420213,1083.3768461906175
37044.0,14710.0,37044.0,50056.0,37044.0,72170.0,556.9709865783695,651.5164995135798,1066.5381631052692
37044.0,14699.0,37044.0,50029.0,37044.0,72147.0,552.8795495604056,641.0965601043061,1049.5640939355158
37044.0,14681.0,37044.0,49992.0,37044.0,72124.0,548.6225578067849,630.6051843784503,1032.4703317645203
37044.0,14682.0,37044.0,49990.0,37044.0,72109.0,544.2084939676914,620.0534311943713,1015.2718691017822
37054.0,14674.0,37054.0,49989.0,37054.0,72115.0,539.6456379933918,609.4510709765182,997.9828858044972
37054.0,14682.0,37054.0,50032.0,37054.0,72099.0,534.9419932265541,598.8066213313195,980.6168855892264
37054.0,14659.0,37054.0,50036.0,37054.0,72106.0,530.1053146187339,588.1279369986637,963.1870240093151
37054.0,14669.0,37054.0,49994.0,37054.0,72081.0,525.1431173901822,577.4230057768102,945.706479725486
37054.0,14665.0,37054.0,49934.0,37054.0,72035.0,520.0626638589971,566.7002216205318,928.1886703156184
37054.0,14673.0,37054.0,49985.0,37054.0,72041.0,514.8710475958848,555.967952516328,910.6471583917728
37064.0,14665.0,37064.0,50009.0,37064.0,72057.0,509.57538074006675,545.2342831810844,893.0955329346082
37064.0,14670.0,37064.0,49993.0,37064.0,72053.0,504.1829810355523,534.5075677602179,875.5477288357756
37064.0,14635.0,37064.0,49954.0,37064.0,72012.0,498.7014612175885,523.7971466934541,858.0186101653369
37064.0,14652.0,37064.0,49887.0,37064.0,71944.0,493.1386557531909,513.1133410841187,840.5241428103146
37064.0,14625.0,37064.0,49891.0,37064.0,71960.0,487.50246968676885,502.4667060562407,823.0809273218108
37064.0,14624.0,37064.0,49859.0,37064.0,71919.0,481.80076064407484,491.8671782203295,805.7056277431584
37075.0,14613.0,37075.0,49876.0,37075.0,71935.0,476.0412193381803,481.3236187981321,788.4147795555888
37075.0,14647.0,37075.0,49946.0,37075.0,71890.0,470.2313272501639,470.8439402965921,771.2248669251625
37075.0,14628.0,37075.0,49911.0,37075.0,71910.0,464.3785733701417,460.4358953661454,754.1524359884476
37075.0,14607.0,37075.0,49893.0,37075.0,71895.0,458.49075773877354,450.1080155776489,737.2142659018679
37075.0,14622.0,37075.0,49873.0,37075.0,71875.0,452.5760537025332,439.86993489148915,720.4276537798646
37075.0,14616.0,37075.0,49918.0,37075.0,71866.0,446.64295814683607,429.73228978923703,703.8106551249798
37085.0,14605.0,37085.0,49910.0,37085.0,71842.0,440.700376335527,419.7069364327415,687.3821658582973
37085.0,14596.0,37085.0,49830.0,37085.0,71827.0,434.7577034690326,409.80739748330006,671.1619182172435
37085.0,14574.0,37085.0,49785.0,37085.0,71820.0,428.82473875203027,400.04867204449874,655.1704566912005
37085.0,14583.0,37085.0,49787.0,37085.0,71756.0,422.91149845058203,390.44624842131213,639.4290670477085
37085.0,14562.0,37085.0,49797.0,37085.0,71736.0,417.0280672604883,381.01524405778036,623.9594655330068
37085.0,14567.0,37085.0,49742.0,37085.0,71733.0,411.1845342105855,371.77018213869565,608.7832617285653
37095.0,14545.0,37095.0,49765.0,37095.0,71703.0,405.3909439700463,362.7249429648224,593.9215849431846
37095.0,14565.0,37095.0,49748.0,37095.0,71718.0,399.6572490683089,353.8926305977888,579.395021177062
37095.0,14541.0,37095.0,49740.0,37095.0,71671.0,393.9933335331824,345.2855647922186,565.2236778407777
37095.0,14541.0,37095.0,49741.0,37095.0,71650.0,388.40907119821213,336.9153714823968,551.4271509302632
37095.0,14529.0,37095.0,49725.0,37095.0,71662.0,382.9143030076486,328.793047976922,538.0243150819642
37095.0,14524.0,37095.0,49755.0,37095.0,71659.0,377.51874918960556,320.92907736032964,525.0332434796672
37106.0,14537.0,37106.0,49753.0,37106.0,71650.0,372.23197133163,313.3337273316878,512.4714674676499
37106.0,14525.0,37106.0,49671.0,37106.0,71608.0,367.0634629693138,306.0173590967994,500.35624541620734
37106.0,14506.0,37106.0,49704.0,37106.0,71581.0,362.022771239389,298.9902623110522,488.7044537401751
37106.0,14491.0,37106.0,49643.0,37106.0,71569.0,357.11942263348044,292.2620845456985,477.532135938746
37106.0,14493.0,37106.0,49621.0,37106.0,71546.0,352.3626606396129,285.84125362254633,466.8540389808726
37106.0,14486.0,37106.0,49662.0,37106.0,71574.0,347.76123983564094,279.7344613195745,456.68338543876644
37116.0,14475.0,37116.0,49698.0,37116.0,71553.0,343.3233591106431,273.94658256752865,447.03196184318136
37116.0,14479.0,37116.0,49674.0,37116.0,71540.0,339.0566244521805,268.4813132400972,437.9103710524369
37116.0,14466.0,37116.0,49636.0,37116.0,71506.0,334.968006631698,263.3418120016244,429.32808600581893
37116.0,14481.0,37116.0,49656.0,37116.0,71519.0,331.06384413529724,258.53069444948574,421.29321547323826
37116.0,14480.0,37116.0,49713.0,37116.0,71560.0,327.3499417067971,254.0498954925754,413.8124004041735
37116.0,14482.0,37116.0,49692.0,37116.0,71513.0,323.83177239125473,249.9011324635367,406.89115833543246
37126.0,14476.0,37126.0,49665.0,37126.0,71506.0,320.5146796789332,246.0866046275239,400.5342567298359
37126.0,14445.0,37126.0,49654.0,37126.0,71460.0,317.40392172049087,242.60913572806504,394.74556663651583
37126.0,14441.0,37126.0,49608.0,37126.0,71472.0,314.5044562545664,239.4717352117155,389.5275300844402
37126.0,14439.0,37126.0,49598.0,37126.0,71477.0,311.82057940845743,236.67692612336216,384.88073689866894
37126.0,14441.0,37126.0,49582.0,37126.0,71466.0,309.355691417196,234.22603386064404,380.8038638293482
37126.0,14449.0,37126.0,49615.0,37126.0,71467.0,307.1122923346418,232.11870082164353,377.293795864545
37137.0,14448.0,37137.0,49606.0,37137.0,71472.0,305.09212060730704,230.35284951773463,374.3457010884381
37137.0,14426.0,37137.0,49673.0,37137.0,71522.0,303.2962786026078,228.92506785475902,371.9532129851032
37137.0,14441.0,37137.0,49632.0,37137.0,71479.0,301.7252033739867,227.83125474677792,370.10888426006545
37137.0,14443.0,37137.0,49634.0,37137.0,71467.0,300.37858786020024,227.06714975281042,368.80453596883524
37137.0,14455.0,37137.0,49636.0,37137.0,71502.0,299.25547106587214,226.62841902039114,368.03117839417416
37137.0,14446.0,37137.0,49609.0,37137.0,71478.0,298.35445878133464,226.51047373366194,367.7788904646684
37147.0,14418.0,37147.0,49643.0,37147.0,71483.0,297.67381988266357,226.7082964325141,368.0368968033646
37147.0,14424.0,37147.0,49579.0,37147.0,71468.0,297.21129028800715,227.2162874955153,368.79354928831935
37147.0,14439.0,37147.0,49573.0,37147.0,71455.0,296.963782952289,228.0279316042683,370.03610419351367
37147.0,14434.0,37147.0,49568.0,37147.0,71447.0,296.9273399129341,229.13517104779396,371.75038230865965
37147.0,14424.0,37147.0,49584.0,37147.0,71473.0,297.0972516101895,230.52785440128454,373.9204439957273
37147.0,14446.0,37147.0,49648.0,37147.0,71490.0,297.46809266893763,232.19372630002226,376.52854272691286
37157.0,14453.0,37157.0,49639.0,37157.0,71512.0,298.0337754789498,234.1190294663079,379.55545880482305
37157.0,14443.0,37157.0,49622.0,37157.0,71514.0,298.78774924147854,236.2892458290033,382.9809952728517
37157.0,14459.0,37157.0,49645.0,37157.0,71505.0,299.72317468489155,238.68939029436117,386.7843330734595
37157.0,14458.0,37157.0,49647.0,37157.0,71546.0,300.83300585245695,241.3039871499191,390.94416515335075
37157.0,14457.0,37157.0,49682.0,37157.0,71548.0,302.1100763200443,244.11720920362606,395.4388591012191
37157.0,14438.0,37157.0,49680.0,37157.0,71511.0,303.547113169454,247.11325503345577,400.24669150251583
37168.0,14447.0,37168.0,49660.0,37168.0,71535.0,305.1365716927632,250.2766957005018,405.3457884158092
37168.0,14452.0,37168.0,49639.0,37168.0,71508.0,306.87043070109644,253.5924433536161,410.7137585079594
37168.0,14453.0,37168.0,49671.0,37168.0,71528.0,308.74013688956654,257.04536246200325,416.32734537746984
37168.0,14447.0,37168.0,49665.0,37168.0,71544.0,310.7366398313553,260.619995692609,422.16223943048544
37168.0,14476.0,37168.0,49686.0,37168.0,71560.0,312.8504126444422,264.3006315806025,428.19313101252357
37168.0,14461.0,37168.0,49716.0,37168.0,71561.0,315.0715375478155,268.07157080859093,434.3939549881934
37178.0,14472.0,37178.0,49645.0,37178.0,71560.0,317.3898444717104,271.91738518038477,440.7380665251792
37178.0,14468.0,37178.0,49678.0,37178.0,71591.0,319.7949613811949,275.8228176681309,447.19826999804934
37178.0,14468.0,37178.0,49704.0,37178.0,71619.0,322.27627866495806,279.77240902852145,453.74695078783424
37178.0,14493.0,37178.0,49727.0,37178.0,71642.0,324.8229331578666,283.75052335686854,460.35651120137885
37178.0,14492.0,37178.0,49737.0,37178.0,71635.0,327.4239193970397,287.7418742631723,466.9999211676955
37178.0,14500.0,37178.0,49712.0,37178.0,71620.0,330.06831227130783,291.7319916013468,473.65098794872404
37188.0,14484.0,37188.0,49718.0,37188.0,71635.0,332.74540714088874,295.707271042456,480.2842101457309
37188.0,14488.0,37188.0,49670.0,37188.0,71626.0,335.44465433241754,299.65462921942174,486.87447588413454
37188.0,14494.0,37188.0,49716.0,37188.0,71649.0,338.1554875180126,303.5609794008656,493.3968711111156
37188.0,14490.0,37188.0,49692.0,37188.0,71638.0,340.8672142896763,307.41285191763325,499.8266150101281
37188.0,14517.0,37188.0,49714.0,37188.0,71686.0,343.5690259361021,311.1963095249947,506.139097030188
37188.0,14516.0,37188.0,49728.0,37188.0,71694.0,346.25013688599563,314.89702254872617,512.3101114443806
37199.0,14515.0,37199.0,49723.0,37199.0,71669.0,348.8999975014157,318.50042533964364,518.3162113043114
37199.0,14513.0,37199.0,49725.0,37199.0,71681.0,351.50839640936476,321.99186950157247,524.1347980633395
37199.0,14522.0,37199.0,49777.0,37199.0,71749.0,354.0654142606615,325.3567359101828,529.7440245252524
37199.0,14526.0,37199.0,49763.0,37199.0,71733.0,356.561389119502,328.58073669647416,535.1230886052983
37199.0,14530.0,37199.0,49745.0,37199.0,71722.0,358.9869686818149,331.6503044531568,540.2527769455605
37199.0,14518.0,37199.0,49731.0,37199.0,71697.0,361.33315856724175,334.55257938302884,545.1155365849436
37209.0,14522.0,37209.0,49757.0,37209.0,71701.0,363.5912577061106,337.27503327813804,549.6949943553528
37209.0,14533.0,37209.0,49748.0,37209.0,71696.0,365.7527357530734,339.8052346528683,553.9754021717523
37209.0,14527.0,37209.0,49767.0,37209.0,71707.0,367.8092005407832,342.13090316983994,557.9413001671076
37209.0,14532.0,37209.0,49766.0,37209.0,71743.0,369.7524356126374,344.2400635307249,561.5774669912936
37209.0,14529.0,37209.0,49845.0,37209.0,71739.0,371.57439680135263,346.12134374746495,564.8691820576829
37209.0,14558.0,37209.0,49806.0,37209.0,71731.0,373.2672227586998,347.76460233249037,567.8025816644727
37220.0,14546.0,37220.0,49788.0,37220.0,71771.0,374.82338314190304,349.16151645073705,570.364840306802
37220.0,14546.0,37220.0,49785.0,37220.0,71754.0,376.2358695940165,350.30555257194453,572.5443152354917
37220.0,14574.0,37220.0,49831.0,37220.0,71783.0,377.49829012269777,351.1916274946359,574.3308044271824
37220.0,14555.0,37220.0,49812.0,37220.0,71752.0,378.60497840572407,351.81615611157474,575.7157564404952
37220.0,14550.0,37220.0,49761.0,37220.0,71740.0,379.5511101327424,352.1772756139144,576.6922402311324
37220.0,14534.0,37220.0,49757.0,37220.0,71721.0,380.33259586189604,352.2745521149124,577.2545962766425
37230.0,14532.0,37230.0,49733.0,37230.0,71749.0,380.94576471430287,352.10822034948023,577.3979776801264
37230.0,14558.0,37230.0,49759.0,37230.0,71753.0,381.38710819560896,351.6785514433048,577.1181841585341
37230.0,14562.0,37230.0,49746.0,37230.0,71751.0,381.653321040009,350.985628023701,576.4118558547802
37230.0,14552.0,37230.0,49757.0,37230.0,71747.0,381.74157240654534,350.02940119609565,575.2767033120714
37230.0,14554.0,37230.0,49777.0,37230.0,71740.0,381.64968171316906,348.8098593899689,573.7115571765968
37230.0,14557.0,37230.0,49793.0,37230.0,71728.0,381.3761081297577,347.3273475219705,571.7162761501578
37240.0,14550.0,37240.0,49762.0,37240.0,71750.0,380.91992176730696,345.58299194840004,569.2916326281843
37240.0,14550.0,37240.0,49778.0,37240.0,71775.0,380.2807950629432,343.57892156102776,566.4394047054543
37240.0,14572.0,37240.0,49799.0,37240.0,71726.0,379.45901236639247,341.3183031977353,563.1627230895851
37240.0,14534.0,37240.0,49740.0,37240.0,71745.0,378.45554832981816,338.80544628376697,559.4662721634262
37240.0,14523.0,37240.0,49776.0,37240.0,71705.0,377.27202486144785,336.0458066065929,555.3561305765892
37240.0,14520.0,37240.0,49698.0,37240.0,71677.0,375.91037257253976,333.0457008787731,550.8394050158644
37251.0,14521.0,37251.0,49702.0,37251.0,71695.0,374.3724577272818,329.81178857889336,545.9237520752124
37251.0,14519.0,37251.0,49706.0,37251.0,71684.0,372.65993569579524,326.35044836607204,540.6170328685168
37251.0,14532.0,37251.0,49723.0,37251.0,71678.0,370.77428430584575,322.6674536015713,534.9272923919368
37251.0,14533.0,37251.0,49725.0,37251.0,71680.0,368.7169522794995,318.7681633107292,528.8628529136546
37251.0,14528.0,37251.0,49689.0,37251.0,71687.0,366.48957008696954,314.6578459136151,522.4324138703132
37251.0,14516.0,37251.0,49691.0,37251.0,71662.0,364.0940734121522,310.34170247147654,515.645218707426
37261.0,14520.0,37261.0,49730.0,37261.0,71673.0,361.5326683441891,305.82472284065,508.5111831439224
37261.0,14516.0,37261.0,49751.0,37261.0,71664.0,358.8077576302435,301.11193513194655,501.04095420114555
37261.0,14512.0,37261.0,49740.0,37261.0,71648.0,355.9219331505734,296.20913128001934,493.24599276210677
37261.0,14516.0,37261.0,49708.0,37261.0,71626.0,352.8780082287985,291.1234553643262,485.1385821739493
37261.0,14506.0,37261.0,49668.0,37261.0,71616.0,349.67905933612116,285.86335260428086,476.7316491924695
37261.0,14491.0,37261.0,49661.0,37261.0,71574.0,346.3284305512105,280.43797593419674,468.0384575819635
37271.0,14492.0,37271.0,49635.0,37271.0,71574.0,342.82962984515757,274.8564951071004,459.0722204991065
37271.0,14487.0,37271.0,49657.0,37271.0,71576.0,339.1861899368969,269.12764802237405,449.84576277532284
37271.0,14492.0,37271.0,49685.0,37271.0,71571.0,335.40163121818546,263.25971814303733,440.37146944590523
37271.0,14480.0,37271.0,49637.0,37271.0,71559.0,331.47952258562356,257.26090736235983,430.6614715393878
37271.0,14484.0,37271.0,49622.0,37271.0,71563.0,327.4235469729614,251.13958799959863,420.7278319469335
37271.0,14470.0,37271.0,49631.0,37271.0,71538.0,323.2375269442254,244.9040977184594,410.58267228547146
37282.0,14481.0,37282.0,49643.0,37282.0,71526.0,318.9254365346961,238.5625364792919,400.23822214568247
37282.0,14484.0,37282.0,49610.0,37282.0,71506.0,314.49148016248,232.1229052385209,389.7067275936419
37282.0,14463.0,37282.0,49596.0,37282.0,71522.0,309.9402526451771,225.59321983871894,379.0003298320793
37282.0,14455.0,37282.0,49632.0,37282.0,71475.0,305.2768041192503,218.98140959817303,368.1310633778944
37282.0,14444.0,37282.0,49581.0,37282.0,71460.0,300.50650245451914,212.29532008535622,357.11081348697456
37282.0,14440.0,37282.0,49567.0,37282.0,71449.0,295.63483668390177,205.54275910838493,345.95105637195127
37292.0,14428.0,37292.0,49552.0,37292.0,71442.0,290.6672847221665,198.7312294909654,334.6625963419786
37292.0,14426.0,37292.0,49583.0,37292.0,71472.0,285.6092269832129,191.86759527615703,323.25559495422766
37292.0,14419.0,37292.0,49578.0,37292.0,71468.0,280.4658875050523,184.95816073604684,311.73998086699385
37292.0,14421.0,37292.0,49547.0,37292.0,71404.0,275.2423266920943,178.00903244490354,300.1259567367518
37292.0,14399.0,37292.0,49542.0,37292.0,71406.0,269.9434652670566,171.02625827787733,288.4240523792436
37292.0,14411.0,37292.0,49532.0,37292.0,71407.0,264.5740745082036,164.0156540903701,276.64478457075734
37302.0,14405.0,37302.0,49611.0,37302.0,71391.0,259.1387791562745,156.98280357177748,264.7985241915042
37302.0,14414.0,37302.0,49561.0,37302.0,71390.0,253.64218413862042,149.933615586916,252.89565941155786
37302.0,14400.0,37302.0,49498.0,37302.0,71382.0,248.0890865067704,142.87490455557497,240.94678744955473
37302.0,14373.0,37302.0,49486.0,37302.0,71331.0,242.48458220510588,135.81411335643833,228.96280706749195
37302.0,14368.0,37302.0,49448.0,37302.0,71307.0,236.83391978160165,128.75837483644005,216.95472122588302
37302.0,14365.0,37302.0,49435.0,37302.0,71282.0,231.14222432220322,121.71366653901094,204.93310907209548
37313.0,14345.0,37313.0,49487.0,37313.0,71294.0,225.41432012017694,114.68437008208929,192.9076311774042
37313.0,14368.0,37313.0,49473.0,37313.0,71288.0,219.65468024744817,107.6734191544349,180.88691778557717
37313.0,14368.0,37313.0,49473.0,37313.0,71297.0,213.86753322644796,100.68288015889055,168.8788377346798
37313.0,14336.0,37313.0,49427.0,37313.0,71304.0,208.0571084407696,93.71432792920086,156.89096360851755
37313.0,14343.0,37313.0,49459.0,37313.0,71245.0,202.22773682360602,86.76877360132193,144.93099810160965
37313.0,14351.0,37313.0,49471.0,37313.0,71244.0,196.38378239916915,79.84660396760592,133.00684362171916
37323.0,14335.0,37323.0,49476.0,37323.0,71243.0,190.52970202061107,72.9479471393962,121.12635332550303
37323.0,14321.0,37323.0,49521.0,37323.0,71237.0,184.67017852041295,66.07335724103308,109.29723687918897
37323.0,14309.0,37323.0,49421.0,37323.0,71212.0,178.81007011468137,59.22443968560464,97.52722187308257
37323.0,14292.0,37323.0,49414.0,37323.0,71189.0,172.95419816947293,52.40387869690716,85.82412053342739
37323.0,14293.0,37323.0,49408.0,37323.0,71170.0,167.1071229275464,45.61476786190178,74.19564767567374
37323.0,14275.0,37323.0,49409.0,37323.0,71148.0,161.27298596566663,38.859998476515386,62.64912321011718
37333.0,14289.0,37333.0,49404.0,37333.0,71162.0,155.45544554366688,32.142162949570206,51.19124715562134
37333.0,14280.0,37333.0,49388.0,37333.0,71153.0,149.65772899486464,25.463667591261355,39.82811691609754
37333.0,14269.0,37333.0,49397.0,37333.0,71122.0,143.8827656099963,18.8267916169832,28.565431958710178
37333.0,14265.0,37333.0,49366.0,37333.0,71101.0,138.13325824697648,12.23369835655734,17.40854368408816
37333.0,14271.0,37333.0,49389.0,37333.0,71129.0,132.41168547379704,5.68643299565224,6.362301730565719
37333.0,14257.0,37333.0,49409.0,37333.0,71126.0,126.72036569588084,-0.812955610888821,-4.568872412763312
37344.0,14251.0,37344.0,49407.0,37344.0,71087.0,121.06154878176801,-7.261980919689961,-15.380607745224438
37344.0,14253.0,37344.0,49347.0,37344.0,71063.0,115.43743999469166,-13.657261938671695,-26.06843038520833
37344.0,14237.0,37344.0,49327.0,37344.0,71031.0,109.85020674745567,-19.99463878474438,-36.62809772128571
37344.0,14214.0,37344.0,49321.0,37344.0,71039.0,104.30194584653088,-26.269826266278756,-47.05609238655825
37344.0,14219.0,37344.0,49289.0,37344.0,71007.0,98.79451199235075,-32.47903695591248,-57.34992608869118
37344.0,14208.0,37344.0,49325.0,37344.0,71008.0,93.32932484358867,-38.61930270827298,-67.50825340764186
37354.0,14219.0,37354.0,49310.0,37354.0,71033.0,87.90733671987948,-44.6884724814999,-77.53085230743147
37354.0,14207.0,37354.0,49284.0,37354.0,70998.0,82.5291487534335,-50.68500393555303,-87.41837831844748
37354.0,14199.0,37354.0,49280.0,37354.0,70993.0,77.19514189048272,-56.60792326766972,-97.17207049117928
37354.0,14204.0,37354.0,49277.0,37354.0,70984.0,71.90553165242312,-62.45701607243899,-106.79369445023747
37354.0,14190.0,37354.0,49302.0,37354.0,71026.0,66.66039521038067,-68.2328809431221,-116.28549181080348
37354.0,14206.0,37354.0,49362.0,37354.0,71015.0,61.45974766462609,-73.93652000611405,-125.64975544836557
37364.0,14196.0,37364.0,49307.0,37364.0,70981.0,56.3036897838586,-79.5684886387354,-134.88823697724717
37364.0,14181.0,37364.0,49271.0,37364.0,70961.0,51.19257053590786,-85.12828634173104,-144.00195503713348
37364.0,14161.0,37364.0,49217.0,37364.0,70930.0,46.12698631611818,-90.61468896189103,-152.99152171236653
37364.0,14163.0,37364.0,49235.0,37364.0,70939.0,41.10757233871584,-96.02671265111229,-161.8576045692456
37364.0,14143.0,37364.0,49228.0,37364.0,70910.0,36.13477235400251,-101.36434546667601,-170.601212636823
37364.0,14154.0,37364.0,49255.0,37364.0,70932.0,31.208708094782423,-106.62864796538975,-179.22376583449977
37375.0,14146.0,37375.0,49248.0,37375.0,70907.0,26.32916058006441,-111.82140694942115,-187.7270105509233
37375.0,14140.0,37375.0,49263.0,37375.0,70894.0,21.495643033399404,-116.94466612967125,-196.11290275484862
37375.0,14139.0,37375.0,49233.0,37375.0,70892.0,16.707474353185546,-122.00036031337163,-204.38361036453432
37375.0,14130.0,37375.0,49229.0,37375.0,70914.0,11.963808626077196,-126.99020281176615,-212.54151339358373
37375.0,14131.0,37375.0,49265.0,37375.0,70895.0,7.263657129819194,-131.9157207765137,-220.58896098553896
37375.0,14134.0,37375.0,49255.0,37375.0,70878.0,2.6059413009126615,-136.7780660494259,-228.52795525835393
37385.0,14125.0,37385.0,49232.0,37385.0,70849.0,-2.010396995523081,-141.57762171836578,-236.36012818198628
37385.0,14102.0,37385.0,49188.0,37385.0,70851.0,-6.5863229765296865,-146.31394063162855,-244.0870154745246
37385.0,14102.0,37385.0,49151.0,37385.0,70822.0,-11.122813837182548,-150.98629108533964,-251.71035831117763
37385.0,14098.0,37385.0,49155.0,37385.0,70809.0,-15.621049933823144,-155.59451827806117,-259.23234375122934
37385.0,14101.0,37385.0,49173.0,37385.0,70811.0,-20.082483780527298,-160.13965895501894,-266.65583846630943
37385.0,14081.0,37385.0,49194.0,37385.0,70857.0,-24.508790868731694,-164.62392675906125,-273.9844092808431
