c_ts,c_val,d_ts,d_val,e_ts,e_val,c_val_filtered,d_val_filtered,e_val_filtered
242281,7175,242281.0,18848.0,242281.0,27009.0,-204.96293097795328,-79.7773616060841,-122.94443402789301
242281,7150,242281.0,18860.0,242281.0,26997.0,-212.08392105582445,-82.15841838297139,-127.8849920472567
242281,7165,242281.0,18860.0,242281.0,26999.0,-219.34792902118738,-84.60876146013149,-132.92016281769457
242281,7149,242281.0,18820.0,242281.0,26973.0,-226.7462621105435,-87.1264026331913,-138.04276259280857
242291,7121,242291.0,18812.0,242291.0,26975.0,-234.27029677953146,-89.70916073917002,-143.24579443974125
242291,7118,242291.0,18824.0,242291.0,26967.0,-241.91164586089522,-92.35509916334185,-148.5226314866193
242291,7122,242291.0,18816.0,242291.0,26969.0,-249.66242106029344,-95.06279940989538,-153.8671167271694
242291,7125,242291.0,18857.0,242291.0,26958.0,-257.5152935731177,-97.83127449554713,-159.2735573348301
242291,7119,242291.0,18843.0,242291.0,26979.0,-265.4633146265686,-100.65961125625702,-164.7366602309849
242291,7099,242291.0,18829.0,242291.0,26949.0,-273.4997390318151,-103.54658242544761,-170.25140706894268
242301,7085,242301.0,18812.0,242301.0,26936.0,-281.61805029717186,-106.49057457281205,-175.8130023715441
242301,7091,242301.0,18810.0,242301.0,26945.0,-289.81213895158135,-109.48985420526111,-181.41702450273658
242301,7086,242301.0,18826.0,242301.0,26965.0,-298.0763975133867,-112.54282197726982,-187.0595165444094
242301,7081,242301.0,18843.0,242301.0,26947.0,-306.40563921044,-115.64795960178412,-192.73676223366306
242301,7065,242301.0,18820.0,242301.0,26935.0,-314.79499645973306,-118.8035140358484,-198.44501017354054
242301,7056,242301.0,18791.0,242301.0,26928.0,-323.2399409354499,-122.0073277831219,-204.18046618718722
242312,7051,242312.0,18812.0,242312.0,26885.0,-331.73639300357695,-125.25705619343199,-209.93952965246433
242312,7048,242312.0,18776.0,242312.0,26912.0,-340.28079722209077,-128.5504885072107,-215.71914644267972
242312,7038,242312.0,18811.0,242312.0,26914.0,-348.870111421367,-131.88570761018704,-221.51702966875976
242312,7044,242312.0,18809.0,242312.0,26914.0,-357.50174793052,-135.261048093289,-227.33151761588016
242312,7041,242312.0,18830.0,242312.0,26913.0,-366.1734630017363,-138.67480411140798,-233.16125917890625
242312,7026,242312.0,18773.0,242312.0,26900.0,-374.88320058930435,-142.1248975648234,-239.00501624505193
242322,7011,242322.0,18792.0,242322.0,26888.0,-383.62902614660936,-145.60889926209248,-244.8616397341904
242322,7033,242322.0,18788.0,242322.0,26915.0,-392.4091707457761,-149.12431611208675,-250.7301161283802
242322,7003,242322.0,18814.0,242322.0,26906.0,-401.2219953536817,-152.66866480128076,-256.60945787206197
242322,7019,242322.0,18791.0,242322.0,26891.0,-410.0658571088252,-156.23922275575705,-262.4984397011377
242322,6979,242322.0,18774.0,242322.0,26878.0,-418.9390476452674,-159.83283085731796,-268.39549865838296
242322,6965,242322.0,18758.0,242322.0,26851.0,-427.83991886881216,-163.44604346554976,-274.2989314006552
242332,6964,242332.0,18752.0,242332.0,26872.0,-436.7671840963685,-167.07551251817034,-280.207204688266
242332,6969,242332.0,18742.0,242332.0,26855.0,-445.7201456913215,-170.71833666234744,-286.1191200722942
242332,6976,242332.0,18783.0,242332.0,26860.0,-454.6986144831238,-174.37219743357053,-292.033768068066
242332,6973,242332.0,18753.0,242332.0,26840.0,-463.7026019429612,-178.035191507072,-297.95045601124514
242332,6953,242332.0,18753.0,242332.0,26841.0,-472.73202797075953,-181.70556956448053,-303.8687391437818
242332,6946,242332.0,18750.0,242332.0,26846.0,-481.7866325020818,-185.3816955153635,-309.78847602700193
242343,6933,242343.0,18729.0,242343.0,26836.0,-490.8660767727364,-189.06217351451295,-315.70978484913974
242343,6936,242343.0,18776.0,242343.0,26829.0,-499.9700602091231,-192.74592021823548,-321.6329471775131
242343,6932,242343.0,18758.0,242343.0,26853.0,-509.09832343606286,-196.4320001901863,-327.5583320060392
242343,6926,242343.0,18748.0,242343.0,26835.0,-518.2505394351674,-200.1192973475495,-333.4862308099061
242343,6902,242343.0,18738.0,242343.0,26830.0,-527.42622440427,-203.80639686805404,-339.4166359770209
242343,6892,242343.0,18713.0,242343.0,26806.0,-536.6248140362029,-207.4917888992259,-345.3492054544797
242353,6891,242353.0,18720.0,242353.0,26803.0,-545.8458566620543,-211.17419578927354,-351.28345813186866
242353,6881,242353.0,18727.0,242353.0,26795.0,-555.0891310218224,-214.85280634662058,-357.21901985940997
242353,6881,242353.0,18742.0,242353.0,26798.0,-564.3546299872983,-218.52722693724206,-363.1557602395403
242353,6883,242353.0,18737.0,242353.0,26804.0,-573.6424669078418,-222.1971798021722,-369.0937635376922
242353,6848,242353.0,18729.0,242353.0,26784.0,-582.9527733861597,-225.86220764640893,-375.0331924039283
242353,6858,242353.0,18718.0,242353.0,26784.0,-592.2857179985638,-229.5215868831189,-380.9742063007177
242363,6859,242363.0,18735.0,242363.0,26816.0,-601.6415913145697,-233.1743908615412,-386.91692249018706
242363,6862,242363.0,18731.0,242363.0,26788.0,-611.0207082928978,-236.81947037477124,-392.8612010158909
242363,6840,242363.0,18757.0,242363.0,26775.0,-620.4231644720588,-240.45523410266173,-398.8063872426088
242363,6829,242363.0,18711.0,242363.0,26779.0,-629.8487292671106,-244.07936664193448,-404.7513276601332
242363,6818,242363.0,18697.0,242363.0,26760.0,-639.2969552949155,-247.68881404299145,-410.6945335017444
242363,6814,242363.0,18675.0,242363.0,26748.0,-648.7673377892311,-251.28020084810697,-416.63431007830434
242374,6827,242374.0,18670.0,242374.0,26765.0,-658.2593440071778,-254.8504115939285,-422.5688822289055
242374,6806,242374.0,18721.0,242374.0,26764.0,-667.7722660969903,-258.39690582896134,-428.49638844705703
242374,6821,242374.0,18686.0,242374.0,26764.0,-677.305012796962,-261.9175481813505,-434.41465672014454
242374,6790,242374.0,18703.0,242374.0,26758.0,-686.8559634369194,-265.41022878532374,-440.32095439711884
242374,6790,242374.0,18678.0,242374.0,26739.0,-696.4229348716333,-268.87270518976186,-446.2118882203878
242374,6779,242374.0,18678.0,242374.0,26732.0,-706.0032553271468,-272.30268605646654,-452.0834869905138
242384,6799,242384.0,18713.0,242384.0,26740.0,-715.5937873797083,-275.6979057796202,-457.9313617390029
242384,6768,242384.0,18722.0,242384.0,26737.0,-725.1907787302691,-279.0559007093682,-463.7507391403226
242384,6777,242384.0,18683.0,242384.0,26719.0,-734.7896946789776,-282.373551814523,-469.5363622329346
242384,6738,242384.0,18670.0,242384.0,26704.0,-744.3852145561307,-285.646946341991,-475.28249537795
242384,6736,242384.0,18652.0,242384.0,26692.0,-753.9714064213057,-288.87176296973996,-480.98314088102484
242384,6723,242384.0,18646.0,242384.0,26701.0,-763.5419871086556,-292.0438001169256,-486.6322974677789
242395,6735,242395.0,18698.0,242395.0,26699.0,-773.090479600644,-295.15923875392036,-492.22404224198624
242395,6736,242395.0,18678.0,242395.0,26715.0,-782.6101222233074,-298.214425330923,-497.7523816786178
242395,6716,242395.0,18689.0,242395.0,26721.0,-792.0936209396434,-301.2053854168903,-503.21093660353597
242395,6711,242395.0,18657.0,242395.0,26695.0,-801.5329959019953,-304.1275558868372,-508.5926030173167
242395,6699,242395.0,18644.0,242395.0,26688.0,-810.9196155911727,-306.975917923176,-513.8894338423997
242395,6720,242395.0,18683.0,242395.0,26699.0,-820.2442326180485,-309.74529015543055,-519.0927661089584
242405,6705,242405.0,18684.0,242405.0,26687.0,-829.4968332607618,-312.4303348569339,-524.1933003967592
242405,6689,242405.0,18660.0,242405.0,26707.0,-838.6664082942333,-315.0252267730185,-529.1809972231222
242405,6683,242405.0,18648.0,242405.0,26673.0,-847.7408984013769,-317.52350484984834,-534.0449222193668
242405,6667,242405.0,18626.0,242405.0,26637.0,-856.7073185692861,-319.9183559698243,-538.7732974326339
242405,6656,242405.0,18619.0,242405.0,26657.0,-865.5519161506404,-322.20308602931505,-543.3539027880727
242405,6649,242405.0,18670.0,242405.0,26638.0,-874.2603265799953,-324.37143049400277,-547.7745042926479
242415,6650,242415.0,18675.0,242415.0,26684.0,-882.8176846883212,-326.4173666843842,-552.0229167697064
242415,6649,242415.0,18631.0,242415.0,26679.0,-891.2086111293139,-328.3345959639165,-556.0866731863835
242415,6637,242415.0,18648.0,242415.0,26641.0,-899.4171027291477,-330.1163618307871,-559.9525923858014
242415,6635,242415.0,18640.0,242415.0,26634.0,-907.4264486798484,-331.75567899650304,-563.6067292986513
242415,6630,242415.0,18635.0,242415.0,26644.0,-915.2192115444013,-333.24551226113414,-567.0347282974358
242415,6628,242415.0,18639.0,242415.0,26637.0,-922.7772048072022,-334.57882648326586,-570.22207421217
242426,6627,242426.0,18675.0,242426.0,26635.0,-930.0814290825949,-335.74854632115057,-573.1540876654658
242426,6609,242426.0,18648.0,242426.0,26625.0,-937.1120100672211,-336.7473065742014,-575.8159100638761
242426,6583,242426.0,18625.0,242426.0,26629.0,-943.8482683674071,-337.5672422725628,-578.1925758573661
242426,6589,242426.0,18611.0,242426.0,26607.0,-950.2689906478648,-338.2002214726749,-580.26912397665
242426,6577,242426.0,18626.0,242426.0,26612.0,-956.3527206315314,-338.6383489941451,-582.030759048193
242426,6593,242426.0,18628.0,242426.0,26623.0,-962.0778601654538,-338.8742536395114,-583.4630102510031
242436,6585,242436.0,18657.0,242436.0,26638.0,-967.4225790199488,-338.9009992745075,-584.5516980620531
242436,6562,242436.0,18627.0,242436.0,26613.0,-972.3647020869973,-338.7118082123567,-585.2827215001755
242436,6561,242436.0,18629.0,242436.0,26581.0,-976.881787173136,-338.29992294639175,-585.642042738234
242436,6561,242436.0,18620.0,242436.0,26603.0,-980.9513556509385,-337.65876227689284,-585.6160719091714
242436,6567,242436.0,18644.0,242436.0,26610.0,-984.5510196793123,-336.78214134522034,-585.1920579304795
242436,6572,242436.0,18637.0,242436.0,26611.0,-987.6584176730883,-335.66428865489695,-584.3581073466778
242446,6553,242446.0,18659.0,242446.0,26632.0,-990.2510963571843,-334.2996865867681,-583.1029833783591
242446,6560,242446.0,18613.0,242446.0,26591.0,-992.3065121435886,-332.68295415652307,-581.4159668592945
242446,6541,242446.0,18632.0,242446.0,26594.0,-993.8021788637716,-330.80898873040184,-579.2869797725973
242446,6541,242446.0,18616.0,242446.0,26592.0,-994.7158856807363,-328.6733142535563,-576.7069798240037
242446,6524,242446.0,18634.0,242446.0,26618.0,-995.0259676892846,-326.2723548548026,-573.6682803172466
242446,6551,242446.0,18657.0,242446.0,26614.0,-994.7115712291884,-323.6034680234868,-570.1645487253696
242457,6536,242457.0,18670.0,242457.0,26636.0,-993.75277294649,-320.6647050933062,-566.190621817046
242457,6538,242457.0,18654.0,242457.0,26616.0,-992.1305897000786,-317.4544549464578,-561.7423581275195
242457,6544,242457.0,18640.0,242457.0,26624.0,-989.8270519704042,-313.9713393198919,-556.8166594827179
242457,6541,242457.0,18644.0,242457.0,26626.0,-986.8253292386853,-310.21448725952723,-551.4116536133993
242457,6559,242457.0,18678.0,242457.0,26657.0,-983.1098067282942,-306.1838427082407,-545.5268295133801
242457,6552,242457.0,18704.0,242457.0,26660.0,-978.6661079778971,-301.8800782481296,-539.1629414411739
242467,6557,242467.0,18666.0,242467.0,26662.0,-973.4811285070598,-297.3041979708947,-532.3217969322529
242467,6555,242467.0,18657.0,242467.0,26672.0,-967.5431619842409,-292.4574264521892,-525.0061696195912
242467,6555,242467.0,18658.0,242467.0,26674.0,-960.8421172926187,-287.3416327134045,-517.2198590639778
242467,6566,242467.0,18685.0,242467.0,26681.0,-953.3697600838275,-281.9598115292136,-508.96778822122576
242467,6581,242467.0,18704.0,242467.0,26686.0,-945.119890096227,-276.31615251187407,-500.25611413510035
242467,6610,242467.0,18717.0,242467.0,26715.0,-936.0883472418599,-270.41573937087,-491.0923091948197
242477,6609,242477.0,18733.0,242477.0,26708.0,-926.2728486830925,-264.26416658147,-481.4851358535192
242477,6617,242477.0,18696.0,242477.0,26730.0,-915.6728513083646,-257.8673323365116,-471.44458336980233
242477,6625,242477.0,18712.0,242477.0,26734.0,-904.2896096707966,-251.23158973553595,-460.98186747263225
242477,6653,242477.0,18799.0,242477.0,26786.0,-892.1263241702152,-244.36396460316897,-450.10938334379796
242477,6685,242477.0,18742.0,242477.0,26805.0,-879.1881325401846,-237.2718771366122,-438.8404071592368
242477,6689,242477.0,18760.0,242477.0,26800.0,-865.481889892948,-229.96270106882395,-427.1886307859178
242488,6677,242488.0,18756.0,242488.0,26800.0,-851.0160224979837,-222.44383400610934,-415.1679420450473
242488,6708,242488.0,18749.0,242488.0,26798.0,-835.8007161285813,-214.72307025730967,-402.7926423512056
242488,6727,242488.0,18756.0,242488.0,26825.0,-819.8482181131319,-206.80892783052278,-390.07783414304464
242488,6752,242488.0,18791.0,242488.0,26847.0,-803.1729127704616,-198.71087469836453,-377.03962753305643
242488,6780,242488.0,18815.0,242488.0,26870.0,-785.7911961357088,-190.43925572777454,-363.69505033048154
242488,6824,242488.0,18756.0,242488.0,26883.0,-767.7212547416935,-182.00503531866312,-350.0618106688471
242498,6823,242498.0,18825.0,242498.0,26901.0,-748.9827681615576,-173.41983706038747,-336.1581100109473
242498,6833,242498.0,18820.0,242498.0,26906.0,-729.5967451897618,-164.6961424371598,-322.0025747644315
242498,6856,242498.0,18828.0,242498.0,26907.0,-709.5856771798753,-155.8472070338639,-307.6143281778013
242498,6889,242498.0,18876.0,242498.0,26945.0,-688.9737852449573,-146.88682537877716,-293.01316548352827
242498,6912,242498.0,18890.0,242498.0,26970.0,-667.787071194608,-137.82902696795637,-278.21960703241757
242498,6945,242498.0,18890.0,242498.0,26983.0,-646.053199751294,-128.68763826958408,-263.2546972342366
242508,6964,242508.0,18865.0,242508.0,26981.0,-623.8013609557751,-119.47607452608898,-248.1398036274179
242508,6991,242508.0,18883.0,242508.0,26997.0,-601.0621867409036,-110.20761387107439,-232.8966825258428
242508,7019,242508.0,18926.0,242508.0,27034.0,-577.8677267968317,-100.89576072222266,-217.54766686426603
242508,7062,242508.0,18915.0,242508.0,27066.0,-554.2513977363445,-91.55422648985737,-202.11562543151
242508,7101,242508.0,18937.0,242508.0,27111.0,-530.2477851205547,-82.1966809641462,-186.6235693205145
242508,7134,242508.0,18958.0,242508.0,27108.0,-505.89229726180923,-72.83660582667852,-171.09410722860798
242519,7144,242519.0,18944.0,242519.0,27087.0,-481.2208518184474,-63.48721341793217,-155.5491677758285
242519,7186,242519.0,18952.0,242519.0,27126.0,-456.2697700977476,-54.16145865567444,-140.01023500270628
242519,7217,242519.0,18997.0,242519.0,27164.0,-431.0757807635837,-44.87216391168357,-124.49868147182144
242519,7262,242519.0,19018.0,242519.0,27173.0,-405.67590308971575,-35.63191037045064,-109.03568222512075
242519,7284,242519.0,19016.0,242519.0,27206.0,-380.1071923772245,-26.452612482965833,-93.64187687086542
242519,7316,242519.0,18993.0,242519.0,27204.0,-354.4065122806959,-17.345266873394365,-78.3371454077523
242529,7330,242529.0,19009.0,242529.0,27219.0,-328.6104562883677,-8.320188989345667,-63.140576043197655
242529,7362,242529.0,18999.0,242529.0,27236.0,-302.75541918304117,0.6125259472698588,-48.07057781464289
242529,7380,242529.0,19035.0,242529.0,27243.0,-276.8777383686885,9.442684322110722,-33.14502204022574
242529,7451,242529.0,19067.0,242529.0,27283.0,-251.01375007598244,18.160000310045177,-18.381302717746053
242529,7480,242529.0,19055.0,242529.0,27310.0,-225.199562965425,26.75441099841055,-3.7962221990897547
242529,7491,242529.0,19064.0,242529.0,27305.0,-199.47064104089293,35.21635270462207,10.594282234217076
242539,7526,242539.0,19064.0,242539.0,27310.0,-173.86159135240177,43.5367195399341,24.775267881318427
242539,7565,242539.0,19067.0,242539.0,27324.0,-148.40619783631303,51.70665023803258,38.732594648951135
242539,7596,242539.0,19115.0,242539.0,27365.0,-123.13737435097869,59.71740662976714,52.45270349795584
242539,7618,242539.0,19124.0,242539.0,27387.0,-98.08698926485522,67.56054844853674,65.92270777937233
242539,7650,242539.0,19131.0,242539.0,27386.0,-73.28575278127096,75.2283460607238,79.1307129049701
242539,7666,242539.0,19110.0,242539.0,27391.0,-48.76321453403716,82.71402260126231,92.06597621589299
242550,7690,242550.0,19113.0,242550.0,27396.0,-24.547834028167927,90.01157482313039,104.71874553851876
242550,7727,242550.0,19117.0,242550.0,27432.0,-0.66708248901557,97.11536108907183,117.08001760138308
242550,7767,242550.0,19139.0,242550.0,27427.0,22.85256444355457,104.01980073784026,129.14147566955887
242550,7809,242550.0,19199.0,242550.0,27423.0,45.985863468533466,110.7194521428236,140.89549538815538
242550,7829,242550.0,19154.0,242550.0,27478.0,68.70918163988222,117.20946762044713,152.3350410208356
242550,7837,242550.0,19174.0,242550.0,27458.0,91.00075945100036,123.48594574106909,163.45364053912573
242560,7867,242560.0,19164.0,242560.0,27487.0,112.84068976213257,129.54582502341447,174.24550455181446
242560,7878,242560.0,19243.0,242560.0,27544.0,134.21073065511598,135.38673804875037,184.70567798124813
242560,7934,242560.0,19202.0,242560.0,27531.0,155.09419571212857,141.00729964439313,194.83039466510957
242560,7936,242560.0,19212.0,242560.0,27529.0,175.47603766668715,146.40750339397187,204.61748326340285
242560,7966,242560.0,19178.0,242560.0,27528.0,195.34300454827837,151.5886517825602,214.06635104211585
242560,7957,242560.0,19184.0,242560.0,27537.0,214.6836300130002,156.55284628775053,223.17763060226048
242570,7998,242570.0,19202.0,242570.0,27543.0,233.48801984376348,161.30246843312204,231.95287206181814
242570,8011,242570.0,19202.0,242570.0,27547.0,251.7476474882444,165.83996137250358,240.39436972060798
242570,8055,242570.0,19236.0,242570.0,27578.0,269.4553512147362,170.16792205158754,248.50508471299491
242570,8053,242570.0,19270.0,242570.0,27591.0,286.60549269257626,174.28943506177853,256.2887323838968
242570,8098,242570.0,19213.0,242570.0,27589.0,303.19410723997544,178.20852060505734,263.7500100089337
242570,8093,242570.0,19207.0,242570.0,27567.0,319.21898723661536,181.93019458577277,270.89466927662625
242581,8108,242581.0,19220.0,242581.0,27583.0,334.67968061923705,185.45995047153923,277.7292411301403
242581,8147,242581.0,19232.0,242581.0,27594.0,349.577398465212,188.80328202401068,284.2606677759411
242581,8142,242581.0,19245.0,242581.0,27622.0,363.91497941507816,191.96566563724474,290.4962079466943
242581,8160,242581.0,19234.0,242581.0,27598.0,377.6969149473381,194.95275319221543,296.4435909132345
242581,8166,242581.0,19218.0,242581.0,27606.0,390.9292553081051,197.77040895797393,302.11106688616553
242581,8181,242581.0,19231.0,242581.0,27604.0,403.61942631172167,200.4244851248477,307.5072017808611
242591,8201,242591.0,19235.0,242591.0,27625.0,415.77609848309135,202.92056648698394,312.6406488102326
242591,8211,242591.0,19270.0,242591.0,27625.0,427.40915282932235,205.2639734798198,317.52010507568696
242591,8225,242591.0,19279.0,242591.0,27645.0,438.52970046713494,207.46008410419086,322.15441038132406
242591,8222,242591.0,19265.0,242591.0,27661.0,449.1500546049939,209.5147661194395,326.5527191847365
242591,8241,242591.0,19250.0,242591.0,27639.0,459.28360393245987,211.43454291702056,330.72469075784056
242591,8235,242591.0,19237.0,242591.0,27630.0,468.9446355933152,213.22633301075285,334.68047667694
242602,8256,242602.0,19301.0,242602.0,27666.0,478.1481639798542,214.8971150623537,338.43045878670466
242602,8284,242602.0,19284.0,242602.0,27651.0,486.90984786462707,216.4540261746243,341.9850975351029
242602,8276,242602.0,19267.0,242602.0,27662.0,495.2460763372309,217.90475763791312,345.35500165165706
242602,8274,242602.0,19255.0,242602.0,27670.0,503.1740429324003,219.25760840342048,348.5509800345151
242602,8271,242602.0,19253.0,242602.0,27644.0,510.7115544588296,220.5211029444376,351.5840006272481
242602,8284,242602.0,19238.0,242602.0,27669.0,517.8766731407795,221.70356381898466,354.4650539147319
242612,8307,242612.0,19247.0,242612.0,27674.0,524.6874849428596,222.81279246752962,357.2050097302762
242612,8324,242612.0,19301.0,242612.0,27690.0,531.1621473024386,223.85597131011968,359.8146774879642
242612,8316,242612.0,19292.0,242612.0,27663.0,537.3190983127076,224.8400115242789,362.3049743754126
242612,8307,242612.0,19273.0,242612.0,27664.0,543.1771130951176,225.77208723264943,364.6868814113078
242612,8324,242612.0,19240.0,242612.0,27671.0,548.7550833214307,226.65971030788796,366.97116880386466
242612,8324,242612.0,19260.0,242612.0,27654.0,554.0717560583901,227.5102605670229,369.168139176703
242622,8335,242622.0,19262.0,242622.0,27705.0,559.1456235833457,228.33053168664276,371.28752997905497
242622,8328,242622.0,19279.0,242622.0,27667.0,563.9948765503493,229.1266730647588,373.3386030822152
242622,8339,242622.0,19291.0,242622.0,27676.0,568.637304561591,229.90442622638358,375.3302553040148
242622,8346,242622.0,19261.0,242622.0,27675.0,573.0901779636692,230.66938034738496,377.2709127884066
242622,8328,242622.0,19235.0,242622.0,27668.0,577.3701487488522,231.42692089154866,379.16832228328906
242622,8348,242622.0,19266.0,242622.0,27682.0,581.4930931069202,232.1818064233492,381.02941713511666
242633,8358,242633.0,19270.0,242633.0,27706.0,585.4739477110488,232.93785102404792,382.8603164410588
242633,8374,242633.0,19280.0,242633.0,27713.0,589.3267335056839,233.69804000326627,384.6665583214168
242633,8371,242633.0,19280.0,242633.0,27702.0,593.0647300895348,234.46481570039032,386.4534396191524
242633,8367,242633.0,19275.0,242633.0,27691.0,596.7005675147429,235.2402418623164,388.22612793260873
242633,8362,242633.0,19266.0,242633.0,27685.0,600.2461096048764,236.02599187698075,389.9894486723773
242633,8392,242633.0,19303.0,242633.0,27713.0,603.7122498106279,236.82326805336476,391.74760196697355
242643,8396,242643.0,19339.0,242643.0,27714.0,607.1088823074562,237.632981759899,393.5041249653806
242643,8413,242643.0,19320.0,242643.0,27687.0,610.4451066739921,238.4563299685396,395.2620326207317
242643,8416,242643.0,19222.0,242643.0,27719.0,613.7294776267303,239.29511855807482,397.0238090003371
242643,8393,242643.0,19263.0,242643.0,27724.0,616.9701092878048,240.1511442745254,398.79133199827277
242643,8415,242643.0,19257.0,242643.0,27688.0,620.1745446677974,241.0251999144702,400.5659317198698
242643,8391,242643.0,19253.0,242643.0,27725.0,623.3494953390558,241.9166396648754,402.34835784705524
242653,8436,242653.0,19315.0,242653.0,27726.0,626.5006574807427,242.82348839227103,404.1386680861366
242653,8457,242653.0,19306.0,242653.0,27749.0,629.6327922891679,243.74286622280403,405.93636956467367
242653,8455,242653.0,19310.0,242653.0,27738.0,632.7501231873799,244.6715868121941,407.7407403217844
242653,8429,242653.0,19277.0,242653.0,27719.0,635.8566732680364,245.6064619145132,409.5509828274078
242653,8435,242653.0,19294.0,242653.0,27717.0,638.9561401137544,246.54412414471568,411.36603956213014
242653,8462,242653.0,19325.0,242653.0,27743.0,642.0515466670366,247.48079504334737,413.1842750821379
242664,8437,242664.0,19325.0,242664.0,27745.0,645.1451051589576,248.41243770084583,415.00340911403157
242664,8459,242664.0,19320.0,242664.0,27744.0,648.2382211508874,249.33514835546373,416.82071085374525
242664,8466,242664.0,19321.0,242664.0,27727.0,651.3314514401071,250.24535806521402,418.63310646497314
242664,8449,242664.0,19335.0,242664.0,27706.0,654.4244845936414,251.13982636443563,420.4369752343696
242664,8435,242664.0,19307.0,242664.0,27786.0,657.5160267209942,252.01562534449215,422.22785102422387
242664,8493,242664.0,19311.0,242664.0,27754.0,660.603539884577,252.8700454587916,424.0005310247708
242674,8496,242674.0,19341.0,242674.0,27786.0,663.683264245946,253.7004211256077,425.74956968977597
242674,8521,242674.0,19327.0,242674.0,27793.0,666.750689976376,254.504153467506,427.4696905419935
242674,8512,242674.0,19327.0,242674.0,27774.0,669.8010601424294,255.27889587119603,429.15601888197034
242674,8503,242674.0,19304.0,242674.0,27784.0,672.8295667489161,256.0225483017014,430.804151758442
242674,8538,242674.0,19354.0,242674.0,27798.0,675.8312906857576,256.7330806848299,432.41008357180044
242674,8527,242674.0,19379.0,242674.0,27785.0,678.8011751278726,257.4086427864966,433.9702019685403
242684,8541,242684.0,19347.0,242684.0,27801.0,681.7341438545039,258.0480861233562,435.48135618150286
242684,8536,242684.0,19338.0,242684.0,27756.0,684.625182519321,258.6513131066014,436.94080163411854
242684,8532,242684.0,19329.0,242684.0,27799.0,687.4692899469347,259.21906692406094,438.34597234401116
242684,8539,242684.0,19292.0,242684.0,27784.0,690.2613400958475,259.7524333440262,439.69428966140725
242684,8549,242684.0,19292.0,242684.0,27792.0,692.9959499688563,260.25226286706936,440.9831834920817
242684,8585,242684.0,19301.0,242684.0,27799.0,695.6675297040093,260.7186184333397,442.21018443009393
242695,8564,242695.0,19352.0,242695.0,27780.0,698.270557520073,261.15060483925424,443.37294522417767
242695,8587,242695.0,19350.0,242695.0,27802.0,700.7998469699007,261.5467842590192,444.4691936823814
242695,8575,242695.0,19342.0,242695.0,27800.0,703.2506265692101,261.9058095799536,445.49669399374085
242695,8569,242695.0,19321.0,242695.0,27797.0,705.6184764915325,262.22669883314813,446.4532995142872
242695,8590,242695.0,19360.0,242695.0,27814.0,707.8991872459557,262.50871028526785,447.33702828426567
242695,8598,242695.0,19342.0,242695.0,27829.0,710.0886922633448,262.751275582875,448.14617551195795
242705,8598,242705.0,19326.0,242705.0,27823.0,712.1831878583471,262.9540881128271,448.8795561780653
242705,8596,242705.0,19335.0,242705.0,27801.0,714.1792605898191,263.11702685115876,449.5366835375336
242705,8599,242705.0,19313.0,242705.0,27797.0,716.073864294338,263.2399055937708,450.11762654514575
242705,8605,242705.0,19359.0,242705.0,27806.0,717.8642319016506,263.32231470632166,450.6226737174202
242705,8618,242705.0,19332.0,242705.0,27824.0,719.547857722653,263.3636970617156,451.05216972536044
242705,8607,242705.0,19376.0,242705.0,27818.0,721.1225644679729,263.3636035378578,451.40665018208983
242715,8647,242715.0,19360.0,242715.0,27820.0,722.5866024633036,263.32200464414575,451.68705200573163
242715,8601,242715.0,19349.0,242715.0,27801.0,723.9387629192291,263.23953686469804,451.894756493348
242715,8614,242715.0,19333.0,242715.0,27801.0,725.1783575823398,263.1174793215905,452.0314246019979
242715,8617,242715.0,19371.0,242715.0,27823.0,726.3049798136861,262.95751942599054,452.0987943867299
242715,8646,242715.0,19337.0,242715.0,27822.0,727.3183648443409,262.7616697227907,452.09868946166074
242715,8637,242715.0,19351.0,242715.0,27816.0,728.2185698092374,262.53232575755635,452.03321212038344
242726,8637,242726.0,19351.0,242726.0,27808.0,729.0062226278718,262.2722382453147,451.9048316649681
242726,8624,242726.0,19311.0,242726.0,27805.0,729.6825503383919,261.9844014882868,451.71626668974557
242726,8620,242726.0,19307.0,242726.0,27808.0,730.2491787715318,261.67176486535664,451.47031099672256
242726,8646,242726.0,19324.0,242726.0,27804.0,730.7079079238661,261.3367774199917,451.1697305516519
242726,8647,242726.0,19362.0,242726.0,27818.0,731.0607058277423,260.98123091067475,450.8172516297365
242726,8649,242726.0,19355.0,242726.0,27827.0,731.3099168141506,260.6066481392394,450.41566029949865
242736,8637,242736.0,19346.0,242736.0,27831.0,731.4584109033908,260.21480163413685,449.96802732158307
242736,8645,242736.0,19317.0,242736.0,27809.0,731.5095346114671,259.8078425394782,449.4779126628307
242736,8640,242736.0,19328.0,242736.0,27791.0,731.4669885514863,259.38800322410174,448.94930465540955
242736,8648,242736.0,19343.0,242736.0,27826.0,731.334761242415,258.95728233433584,448.3863341616141
242736,8652,242736.0,19345.0,242736.0,27809.0,731.1171392452275,258.5174562530177,447.79314205295884
242736,8658,242736.0,19342.0,242736.0,27795.0,730.8187854039237,258.0703076204152,447.1739565363114
242746,8652,242746.0,19321.0,242746.0,27790.0,730.4448425552931,257.6177328975762,446.5330199732166
242746,8627,242746.0,19312.0,242746.0,27801.0,730.00092292077,257.1615710641164,445.8743448202706
242746,8639,242746.0,19318.0,242746.0,27788.0,729.4928838541477,256.7032748143569,445.20157985247033
242746,8647,242746.0,19351.0,242746.0,27817.0,728.9265739255962,256.2437479903084,444.518041182392
242746,8652,242746.0,19344.0,242746.0,27792.0,728.3078142630347,255.78356372004882,443.82683105628666
242746,8645,242746.0,19337.0,242746.0,27813.0,727.6425461573278,255.32333252662264,443.13096134659713
242757,8632,242757.0,19328.0,242757.0,27805.0,726.9368776129985,254.8638298085866,442.43342699891167
242757,8638,242757.0,19319.0,242757.0,27787.0,726.1969436571511,254.40583814906248,441.73723135883154
242757,8632,242757.0,19348.0,242757.0,27805.0,725.428721871707,253.9499614412686,441.0453147129706
242757,8648,242757.0,19365.0,242757.0,27803.0,724.637954732268,253.4967062691515,440.36047094395985
242757,8645,242757.0,19344.0,242757.0,27820.0,723.8302089181769,253.04684671199124,439.68543838674697
242757,8638,242757.0,19324.0,242757.0,27777.0,723.0109823651466,252.60164554952823,439.0230514672635
242767,8623,242767.0,19302.0,242767.0,27784.0,722.1856868648616,252.16259792801938,438.37614947716895
242767,8628,242767.0,19307.0,242767.0,27776.0,721.3594493712951,251.73089374990488,437.74724441851697
242767,8631,242767.0,19321.0,242767.0,27789.0,720.5369038576438,251.3070237252139,437.1382696008576
242767,8649,242767.0,19343.0,242767.0,27804.0,719.722167837785,250.89078808668478,436.5506031894158
242767,8647,242767.0,19377.0,242767.0,27766.0,718.9190216170336,250.48171807121128,435.98523510084317
242767,8644,242767.0,19353.0,242767.0,27811.0,718.1311302643624,250.07970172596757,435.4428363788885
242777,8630,242777.0,19319.0,242777.0,27787.0,717.3621098581584,249.68534859249263,434.9237755384289
242777,8629,242777.0,19324.0,242777.0,27778.0,716.6153872941466,249.2997613793126,434.42818911248526
242777,8651,242777.0,19355.0,242777.0,27796.0,715.8940296037076,248.92410922918663,433.955954611469
242777,8651,242777.0,19336.0,242777.0,27811.0,715.2007814722922,248.5595853787944,433.50666707615085
242777,8639,242777.0,19314.0,242777.0,27794.0,714.5382622899333,248.2075650167931,433.0798357649797
242777,8629,242777.0,19313.0,242777.0,27806.0,713.9090150396844,247.86946344427977,432.67509254452574
242788,8628,242788.0,19305.0,242788.0,27779.0,713.3153118251105,247.54636127770922,432.2921974829534
242788,8635,242788.0,19307.0,242788.0,27804.0,712.7589304708761,247.23872247074337,431.9309205830523
242788,8635,242788.0,19323.0,242788.0,27788.0,712.241082236791,246.946300238611,431.59095751329676
242788,8652,242788.0,19336.0,242788.0,27812.0,711.7624905895253,246.66825717964716,431.27196838882963
242788,8653,242788.0,19334.0,242788.0,27792.0,711.3235724232813,246.40346722072505,430.9736950900927
242788,8648,242788.0,19325.0,242788.0,27786.0,710.9246427791873,246.15077882516528,430.6960093979253
242798,8628,242798.0,19329.0,242798.0,27768.0,710.5659690086445,245.90906950411065,430.43875636455715
242798,8634,242798.0,19356.0,242798.0,27798.0,710.2475873508739,245.67723939812595,430.20149208853434
242798,8640,242798.0,19340.0,242798.0,27798.0,709.9690660763688,245.4543746674621,429.9834275532292
242798,8661,242798.0,19355.0,242798.0,27811.0,709.7294803045555,245.239995728459,429.7836696106606
242798,8636,242798.0,19288.0,242798.0,27779.0,709.5275944630004,245.0340807348017,429.6014758137575
242798,8632,242798.0,19311.0,242798.0,27771.0,709.3619488600452,244.83668218543647,429.43620540034317
242808,8649,242808.0,19304.0,242808.0,27777.0,709.2307208927907,244.64737951037398,429.28699073788863
242808,8638,242808.0,19319.0,242808.0,27776.0,709.1316118794439,244.46502499818234,429.1524611423472
242808,8663,242808.0,19349.0,242808.0,27791.0,709.061911354883,244.2878964103561,429.03071540264585
242808,8646,242808.0,19325.0,242808.0,27785.0,709.0186397416101,244.11406811244066,428.9194580599081
242808,8655,242808.0,19324.0,242808.0,27791.0,708.9986561543114,243.9416911450764,428.8161558175922
242808,8651,242808.0,19323.0,242808.0,27781.0,708.9986747692714,243.76896980361298,428.71811904001464
242819,8658,242819.0,19334.0,242819.0,27788.0,709.0152465238277,243.59403513302843,428.6224962775507
242819,8669,242819.0,19366.0,242819.0,27795.0,709.0448054141464,243.41503514324404,428.526266900803
242819,8667,242819.0,19330.0,242819.0,27802.0,709.083801763024,243.23044989844482,428.426335144865
242819,8652,242819.0,19339.0,242819.0,27780.0,709.1288153147433,243.0392996477107,428.3196710195513
242819,8652,242819.0,19290.0,242819.0,27788.0,709.1764904212038,242.84096879519385,428.2033120025301
242819,8647,242819.0,19296.0,242819.0,27776.0,709.2233278340625,242.63471050265096,428.0742154945441
242829,8655,242829.0,19303.0,242829.0,27792.0,709.2655133243459,242.41912134159747,427.929136173066
242829,8668,242829.0,19329.0,242829.0,27789.0,709.2988965729128,242.19195231773358,427.76463357712345
242829,8661,242829.0,19373.0,242829.0,27811.0,709.3191184317318,241.95045059136947,427.57721609882145
242829,8670,242829.0,19371.0,242829.0,27798.0,709.3217652658727,241.6921044676001,427.3635729213563
242829,8650,242829.0,19320.0,242829.0,27771.0,709.30241897396,241.41529187809704,427.12070176051986
242829,8656,242829.0,19312.0,242829.0,27791.0,709.2565684258873,241.11924555121732,426.8457584757479
242840,8669,242840.0,19332.0,242840.0,27779.0,709.1794836472238,240.80349277190334,426.5358209017704
242840,8680,242840.0,19362.0,242840.0,27803.0,709.0662572920197,240.46757519890173,426.1878543619675
242840,8687,242840.0,19324.0,242840.0,27812.0,708.9120601013649,240.1113017216419,425.7989032425862
242840,8678,242840.0,19332.0,242840.0,27778.0,708.7124182501842,239.73497987246296,425.3663488497214
242840,8662,242840.0,19299.0,242840.0,27761.0,708.4632982211607,239.33924938735626,424.8878997289857
242840,8667,242840.0,19279.0,242840.0,27775.0,708.1609487562141,238.9246393298162,424.36121334698254
242850,8662,242850.0,19305.0,242850.0,27768.0,707.80167203293,238.49106125262705,423.7835559786555
242850,8670,242850.0,19311.0,242850.0,27808.0,707.3817083475656,238.0375540859307,423.15181657877696
242850,8683,242850.0,19316.0,242850.0,27801.0,706.8972728759894,237.56244670184006,422.46283829868077
242850,8674,242850.0,19328.0,242850.0,27800.0,706.3447102301317,237.06368319692507,421.7138471590722
242850,8658,242850.0,19297.0,242850.0,27763.0,705.7206050330162,236.53903774108363,420.9026258491246
242850,8661,242850.0,19311.0,242850.0,27789.0,705.0216766135078,235.98610977536686,420.02731333964675
242860,8675,242860.0,19366.0,242860.0,27769.0,704.244599591533,235.40229997707237,419.0861400110898
242860,8687,242860.0,19290.0,242860.0,27794.0,703.3860418754092,234.78506657776964,418.0773695364156
242860,8660,242860.0,19307.0,242860.0,27772.0,702.4428837508772,234.13208570496596,416.99939091258017
242860,8668,242860.0,19339.0,242860.0,27767.0,701.4122984202111,233.4410284607024,415.8507684426102
242860,8632,242860.0,19329.0,242860.0,27784.0,700.2915625495066,232.70952752344598,414.6301768655175
242860,8660,242860.0,19294.0,242860.0,27762.0,699.0777486955948,231.9354244152742,413.33635524500426
242871,8677,242871.0,19331.0,242871.0,27795.0,697.7675870706596,231.11676122513575,411.9681687027825
242871,8678,242871.0,19353.0,242871.0,27782.0,696.3577011345869,230.25171315679464,410.5247638693232
242871,8673,242871.0,19342.0,242871.0,27754.0,694.8450005798993,229.33892134598162,409.005720947671
242871,8665,242871.0,19313.0,242871.0,27750.0,693.2268695682221,228.3778738755399,407.41094338040887
242871,8653,242871.0,19291.0,242871.0,27755.0,691.5011017453896,227.36878053103626,405.7403195371296
242871,8665,242871.0,19321.0,242871.0,27745.0,689.6657379448957,226.31209511627142,403.9935065306947
242881,8669,242881.0,19323.0,242881.0,27777.0,687.71900092817,225.20827625035415,402.169953543055
242881,8666,242881.0,19344.0,242881.0,27787.0,685.659408173082,224.05801328962607,400.26916264672207
242881,8653,242881.0,19286.0,242881.0,27740.0,683.4859008688759,222.86254297014816,398.29106571206256
242881,8642,242881.0,19286.0,242881.0,27744.0,681.1977989340947,221.62355486426696,396.23608838438645
242881,8633,242881.0,19267.0,242881.0,27737.0,678.7945861385824,220.3426673986342,394.1048222062979
242881,8639,242881.0,19288.0,242881.0,27752.0,676.2756751078067,219.02093579117573,391.8977683038559
242891,8666,242891.0,19307.0,242891.0,27756.0,673.6403606700229,217.6587601758428,389.6154035595099
242891,8647,242891.0,19313.0,242891.0,27757.0,670.8880566787575,216.25620197654763,387.2584356889385
242891,8640,242891.0,19293.0,242891.0,27727.0,668.0185694363428,214.81340495600628,384.8279962618291
242891,8632,242891.0,19265.0,242891.0,27717.0,665.032112270859,213.33069797591693,382.32554498444716
242891,8620,242891.0,19286.0,242891.0,27725.0,661.9291240058731,211.8083086318038,379.7525519900524
242891,8640,242891.0,19329.0,242891.0,27732.0,658.710115948455,210.24618558676337,377.11031224164947
242902,8622,242902.0,19284.0,242902.0,27718.0,655.3756728518472,208.64429993653567,374.40002961315724
242902,8626,242902.0,19312.0,242902.0,27725.0,651.9265491470942,207.0030309797751,371.62295002067845
242902,8626,242902.0,19254.0,242902.0,27706.0,648.3637288808808,205.32317903044643,368.78038773624934
242902,8597,242902.0,19262.0,242902.0,27695.0,644.6884230243028,203.60563561461797,365.87364281828013
242902,8602,242902.0,19268.0,242902.0,27698.0,640.9019575738592,201.85095387462434,362.90382580568945
242902,8610,242902.0,19289.0,242902.0,27716.0,637.0056070455131,200.05918747189807,359.87175760254627
242912,8611,242912.0,19313.0,242912.0,27717.0,633.0006121168095,198.2301942715414,356.7781408166022
242912,8597,242912.0,19280.0,242912.0,27713.0,628.8883672077122,196.36414981446288,353.6238972883928
242912,8585,242912.0,19266.0,242912.0,27679.0,624.6705027315213,194.461792978654,350.41035001252556
242912,8572,242912.0,19250.0,242912.0,27671.0,620.3487526874446,192.52418525896982,347.1390490701254
242912,8592,242912.0,19264.0,242912.0,27693.0,615.9247734860406,190.55229124747416,343.8114317591753
242912,8586,242912.0,19289.0,242912.0,27694.0,611.4001547729565,188.54683966661304,340.42874792530813
242922,8586,242922.0,19278.0,242922.0,27688.0,606.7766323137885,186.5085883710734,336.99231722849925
242922,8579,242922.0,19260.0,242922.0,27661.0,602.0562883705339,184.438657354901,333.5037297482838
242922,8567,242922.0,19248.0,242922.0,27669.0,597.2416180859772,182.33853106345737,329.9647551306403
242922,8548,242922.0,19242.0,242922.0,27673.0,592.3354557343224,180.2097684233018,326.377174737327
242922,8551,242922.0,19248.0,242922.0,27651.0,587.3407870645212,178.0537301723304,322.74277149115807
242922,8560,242922.0,19255.0,242922.0,27657.0,582.2606156128161,175.87151367128533,319.06335998329786
242933,8559,242933.0,19267.0,242933.0,27647.0,577.0980609736995,173.66411336596127,315.34073536059975
242933,8537,242933.0,19252.0,242933.0,27661.0,571.8565735771692,171.43268948626385,311.5766643792487
242933,8510,242933.0,19237.0,242933.0,27633.0,566.5399440967636,169.17871221866068,307.7729671340162
242933,8520,242933.0,19226.0,242933.0,27637.0,561.1520264260934,166.90382953346563,303.93154369629826
242933,8527,242933.0,19270.0,242933.0,27640.0,555.696505990702,164.6096711092841,300.05431119687705
242933,8507,242933.0,19241.0,242933.0,27648.0,550.176958139983,162.29794447523108,296.1432415194171
242943,8508,242943.0,19254.0,242943.0,27629.0,544.5969860314217,159.97072617781885,292.200548109098
242943,8492,242943.0,19218.0,242943.0,27623.0,538.9602193268179,157.63056138421695,288.22879922046997
242943,8482,242943.0,19197.0,242943.0,27600.0,533.2702201266388,155.2802281689868,284.2308138462985
242943,8483,242943.0,19212.0,242943.0,27618.0,527.530370901095,152.92229389803538,280.20945357162793
242943,8475,242943.0,19207.0,242943.0,27608.0,521.7438131078832,150.55879348956503,276.1675348943804
242943,8482,242943.0,19256.0,242943.0,27605.0,515.9134930492626,148.1913148152188,272.10791655954245
242953,8483,242953.0,19217.0,242953.0,27609.0,510.0423108161254,145.82142236724556,268.03361610576735
242953,8434,242953.0,19203.0,242953.0,27585.0,504.1332528202164,143.45098605971924,263.94786850901835
242953,8448,242953.0,19185.0,242953.0,27576.0,498.1892791374126,141.0820326269135,259.8540742064016
242953,8468,242953.0,19192.0,242953.0,27578.0,492.2131092475366,138.7163158588433,255.75562222851724
242953,8463,242953.0,19229.0,242953.0,27598.0,486.20735533790395,136.35512570587034,251.6558089149707
242953,8444,242953.0,19197.0,242953.0,27565.0,480.1749079636292,133.99952237839892,247.55799376185854
242964,8438,242964.0,19202.0,242964.0,27540.0,474.1191085195104,131.65064529423785,243.4656806399086
242964,8411,242964.0,19189.0,242964.0,27564.0,468.04362545255464,129.30974066146766,239.3822874979325
242964,8408,242964.0,19169.0,242964.0,27551.0,461.95220409733827,126.97798051163775,235.310942398394
242964,8378,242964.0,19170.0,242964.0,27543.0,455.84837905967476,124.65620873288196,231.2545425491536
242964,8417,242964.0,19210.0,242964.0,27547.0,449.7352562855118,122.34478001165252,227.21584147756823
242964,8408,242964.0,19185.0,242964.0,27544.0,443.6155812375928,120.04374462013823,223.19747925430318
242974,8386,242974.0,19186.0,242974.0,27528.0,437.49206069616025,117.7531888056304,219.20204067070722
242974,8369,242974.0,19166.0,242974.0,27524.0,431.3675110853749,115.47331186695908,215.23205426223024
242974,8367,242974.0,19175.0,242974.0,27512.0,425.2446713363156,113.2042601498749,211.28988149953602
242974,8385,242974.0,19178.0,242974.0,27513.0,419.1260363672474,110.94600734595889,207.37759320305753
242974,8371,242974.0,19187.0,242974.0,27521.0,413.013984292297,108.69843286889915,203.49693833711825
242974,8355,242974.0,19162.0,242974.0,27502.0,406.9110151394186,106.46149914503559,199.64943142311887
242984,8346,242984.0,19152.0,242984.0,27498.0,400.8197913672949,104.2352667603617,195.83642494744407
242984,8332,242984.0,19143.0,242984.0,27504.0,394.74298212026827,102.01965639705273,192.05907766874162
242984,8334,242984.0,19154.0,242984.0,27500.0,388.683103386491,99.81417814396286,188.31836043862074
242984,8323,242984.0,19174.0,242984.0,27489.0,382.64245313390387,97.61790543410291,184.61515413600551
242984,8328,242984.0,19166.0,242984.0,27486.0,376.623141340594,95.42974624057413,180.95029599715423
242984,8316,242984.0,19195.0,242984.0,27467.0,370.62717639128414,93.24883549309317,177.3245115752286
242995,8296,242995.0,19148.0,242995.0,27471.0,364.65651872417686,91.07484637264437,173.7382828938525
242995,8289,242995.0,19135.0,242995.0,27480.0,358.71299237925206,88.90799587486731,170.19176812234076
242995,8299,242995.0,19188.0,242995.0,27431.0,352.79813330727404,86.74877905451191,166.6848091828303
242995,8303,242995.0,19168.0,242995.0,27475.0,346.91322127158924,84.59796215719032,163.2168714568449
242995,8298,242995.0,19155.0,242995.0,27471.0,341.0595398108446,82.45692164057843,159.78702082779125
242995,8263,242995.0,19144.0,242995.0,27459.0,335.23859303754864,80.32776039281833,156.39416472975677
243004,8262,243004.0,19106.0,243004.0,27449.0,329.45202423763106,78.21301289617944,153.03728402684743
243004,8246,243004.0,19119.0,243004.0,27429.0,323.7013293108102,76.11516794971772,149.71536231561856
243004,8256,243004.0,19100.0,243004.0,27442.0,317.9876523658088,74.03624160134959,146.42716243656696
243004,8251,243004.0,19140.0,243004.0,27449.0,312.3117929391715,71.97761472689683,143.17113557128494
243004,8246,243004.0,19141.0,243004.0,27454.0,306.674353967576,69.94023840109378,139.94560057643213
243004,8240,243004.0,19101.0,243004.0,27434.0,301.07588477553884,67.92500059352705,136.7490296796787
243014,8223,243014.0,19106.0,243014.0,27429.0,295.5169239393113,65.93279072342983,133.58015524305387
243014,8218,243014.0,19121.0,243014.0,27416.0,289.99793391041845,63.964253947484536,130.4378490703275
243014,8229,243014.0,19123.0,243014.0,27440.0,284.51922249319983,62.019735009237536,127.32098678821518
243014,8194,243014.0,19131.0,243014.0,27433.0,279.0809543682143,60.09953102737492,124.2285219688298
243014,8213,243014.0,19121.0,243014.0,27409.0,273.6831676524755,58.20416988784862,121.15968907842364
243014,8215,243014.0,19091.0,243014.0,27393.0,268.32578739279893,56.334489593441276,118.11399125108562
243025,8172,243025.0,19064.0,243025.0,27390.0,263.0087250303584,54.49136474955378,115.09089600956816
243025,8184,243025.0,19098.0,243025.0,27403.0,257.7318614635798,52.67520360822388,112.08956476813614
243025,8180,243025.0,19106.0,243025.0,27394.0,252.4948671639661,50.885723598382896,109.10885493394801
243025,8187,243025.0,19126.0,243025.0,27407.0,247.2971831407433,49.1222643655274,106.14750356510416
243025,8171,243025.0,19105.0,243025.0,27394.0,242.1382032359603,47.384298341399386,103.20432464981081
243025,8148,243025.0,19076.0,243025.0,27385.0,237.01737039590978,45.67165114304143,100.27832492805351
243035,8166,243035.0,19066.0,243035.0,27383.0,231.93407562980826,43.98424158531827,97.3686836500192
243035,8141,243035.0,19073.0,243035.0,27394.0,226.88755192378312,42.3216043968732,94.47469748679322
243035,8161,243035.0,19116.0,243035.0,27410.0,221.87690478736988,40.682705621830905,91.59590513088943
243035,8142,243035.0,19125.0,243035.0,27361.0,216.90122278969773,39.06632392393132,88.73234303640112
243035,8126,243035.0,19080.0,243035.0,27340.0,211.95965882908388,37.4716598606073,85.88451137689333
243035,8143,243035.0,19062.0,243035.0,27350.0,207.05140525998695,35.89847497780548,83.0529065352095
243046,8106,243046.0,19067.0,243046.0,27347.0,202.17563777868952,34.34663730191653,80.23760175572767
243046,8120,243046.0,19050.0,243046.0,27358.0,197.33147058902978,32.81562976100835,77.43822200070315
243046,8107,243046.0,19093.0,243046.0,27352.0,192.5178864453727,31.304389860275336,74.65414706276118
243046,8112,243046.0,19091.0,243046.0,27354.0,187.73373266578665,29.811517056398543,71.8847203327727
243046,8105,243046.0,19088.0,243046.0,27341.0,182.97781350040918,28.33571024869738,69.12937217082941
243046,8102,243046.0,19063.0,243046.0,27321.0,178.24899591544067,26.876046873019362,66.38759516251804
243056,8090,243056.0,19078.0,243056.0,27323.0,173.5462741862034,25.431909359072932,63.65875508735121
243056,8101,243056.0,19075.0,243056.0,27349.0,168.8687953550574,24.002832180967488,60.94193796317802
243056,8083,243056.0,19047.0,243056.0,27325.0,164.21591034122332,22.58845772645509,58.23606996058203
243056,8087,243056.0,19072.0,243056.0,27323.0,159.5872487020075,21.18845731644953,55.54013212667684
243056,8054,243056.0,19039.0,243056.0,27323.0,154.98271182906865,19.802395125569916,52.8531886525505
243056,8058,243056.0,19047.0,243056.0,27300.0,150.40231982969897,18.42960989227973,50.174295496696345
243066,8033,243066.0,19049.0,243066.0,27327.0,145.84596875888133,17.06909014886537,47.50242498212839
243066,8048,243066.0,19064.0,243066.0,27299.0,141.31322771875296,15.719462391848936,44.83646508390723
243066,8062,243066.0,19078.0,243066.0,27317.0,136.80332962996886,14.37922376517551,42.17529141441912
243066,8042,243066.0,19074.0,243066.0,27310.0,132.31541032539542,13.047122157750778,39.51785122777568
243066,8043,243066.0,19047.0,243066.0,27292.0,127.84876730496944,11.722424722544247,36.86323721529226
243066,8031,243066.0,19034.0,243066.0,27279.0,123.40292163562037,10.404827960239345,34.210639818969355
243077,8018,243077.0,19044.0,243077.0,27314.0,118.97754979652859,9.09410045800206,31.5591942803307
243077,8026,243077.0,19061.0,243077.0,27302.0,114.57239273892912,7.789873156783472,28.90804219616598
243077,8028,243077.0,19026.0,243077.0,27306.0,110.18724740131688,6.491726910720018,26.25664605614213
243077,8001,243077.0,19040.0,243077.0,27264.0,105.82207104042936,5.199257602803527,23.60496823162555
243077,7993,243077.0,19016.0,243077.0,27266.0,101.47698386664513,3.9119326471523266,20.953277654580006
243077,7974,243077.0,19005.0,243077.0,27241.0,97.15204451185525,2.6288542432206725,18.30173394255951
243087,7980,243087.0,19041.0,243087.0,27262.0,92.84697034060446,1.3485528473865713,15.650040378794756
243087,7994,243087.0,19039.0,243087.0,27283.0,88.56103735302315,0.06903350053380564,12.997404542410038
243087,7974,243087.0,19097.0,243087.0,27298.0,84.29322849251446,-1.2117650704194318,10.342915876640461
243087,7980,243087.0,19020.0,243087.0,27282.0,80.04243609999719,-2.495353507817157,7.686129747129371
243087,7961,243087.0,19004.0,243087.0,27243.0,75.8075262888359,-3.782528138333703,5.027374342851147
243087,7954,243087.0,19010.0,243087.0,27246.0,71.58728146115834,-5.073899299917002,2.367531511239065
243097,7977,243097.0,19035.0,243097.0,27245.0,67.38033837428713,-6.370433706974637,-0.29239278419726134
243097,7955,243097.0,19017.0,243097.0,27247.0,63.18527357171388,-7.67344216599605,-2.951463193048994
243097,7953,243097.0,19034.0,243097.0,27239.0,59.0007755065493,-8.984312119905468,-5.608760759747497
243097,7931,243097.0,19004.0,243097.0,27228.0,54.825658528884105,-10.304375559134286,-8.263326683278365
243097,7934,243097.0,19013.0,243097.0,27217.0,50.65870460966369,-11.634962850530883,-10.914235628546976
243097,7925,243097.0,18991.0,243097.0,27221.0,46.49851092415474,-12.977577682937067,-13.560750052806782
243108,7933,243108.0,19035.0,243108.0,27214.0,42.34345666053309,-14.334025117495031,-16.202419988792997
243108,7937,243108.0,19050.0,243108.0,27238.0,38.19181540397392,-15.706219493301916,-18.83903319515389
243108,7932,243108.0,19045.0,243108.0,27212.0,34.041976716456475,-17.095637731452825,-21.470427834130817
243108,7898,243108.0,19022.0,243108.0,27214.0,29.892600898661613,-18.502851058209387,-24.0963356561341
243108,7915,243108.0,19004.0,243108.0,27202.0,25.742534965061054,-19.927535801577477,-26.7164054554068
243108,7913,243108.0,19029.0,243108.0,27176.0,21.590669982769782,-21.36879527667884,-29.330370380743602
243118,7906,243118.0,19025.0,243118.0,27195.0,17.436000867760526,-22.825317196134762,-31.938282211563546
243118,7902,243118.0,19001.0,243118.0,27199.0,13.277775342219684,-24.29527961411057,-34.54063856810882
243118,7878,243118.0,18979.0,243118.0,27195.0,9.115515543172478,-25.776408166338058,-37.13824318177069
243118,7878,243118.0,18962.0,243118.0,27183.0,4.948883970749648,-27.266397154278906,-39.73199348955097
243118,7870,243118.0,18983.0,243118.0,27166.0,0.7774990225575493,-28.763409199527104,-42.32287075613249
243118,7872,243118.0,18971.0,243118.0,27162.0,-3.399158216493788,-30.26629736447302,-44.912136744353745
243128,7869,243128.0,18969.0,243128.0,27189.0,-7.581709492128539,-31.774568009879943,-47.50150417559723
243128,7866,243128.0,19014.0,243128.0,27188.0,-11.77077992877446,-33.28825037200241,-50.09301178634473
243128,7851,243128.0,18999.0,243128.0,27184.0,-15.966918588511703,-34.80757574101605,-52.6886605934219
243128,7853,243128.0,18968.0,243128.0,27151.0,-20.170601760563386,-36.332589692138356,-55.290195813820105
243128,7840,243128.0,18984.0,243128.0,27163.0,-24.382284564270208,-37.86312639474488,-57.899232703045755
243128,7853,243128.0,19006.0,243128.0,27189.0,-28.602411810160334,-39.39897500856719,-60.51742270035885
243139,7831,243139.0,18983.0,243139.0,27167.0,-32.831357752390545,-40.93976867185722,-63.14629758527019
243139,7834,243139.0,18982.0,243139.0,27130.0,-37.06936959994198,-42.484772153655115,-65.78705670187264
243139,7826,243139.0,18962.0,243139.0,27153.0,-41.31657549022293,-44.03293245332375,-68.44073230332134
243139,7803,243139.0,18945.0,243139.0,27135.0,-45.5730387074002,-45.58316201618311,-71.10849418036281
243139,7806,243139.0,18947.0,243139.0,27155.0,-49.83888242861224,-47.134702818266305,-73.79169891567159
243139,7808,243139.0,18959.0,243139.0,27150.0,-54.114426310393014,-48.687389217516,-76.49172420168037
243149,7798,243149.0,18991.0,243149.0,27152.0,-58.40018313509461,-50.24157281978907,-79.20973996085712
243149,7797,243149.0,18969.0,243149.0,27126.0,-62.696766103372624,-51.797713414921134,-81.94655788884927
243149,7788,243149.0,18954.0,243149.0,27143.0,-67.00484032580562,-53.35603060149376,-84.70266057271789
243149,7781,243149.0,18938.0,243149.0,27120.0,-71.3251245694205,-54.9165742879467,-87.47829683229531
243149,7781,243149.0,18957.0,243149.0,27133.0,-75.65841086209025,-56.479544071900534,-90.27351780027789
243149,7785,243149.0,18976.0,243149.0,27133.0,-80.00554122384733,-58.045390016781084,-93.08814159240887
243159,7786,243159.0,18957.0,243159.0,27116.0,-84.3672726976614,-59.61455923083062,-95.92165668752091
243159,7763,243159.0,18963.0,243159.0,27108.0,-88.74410553539371,-61.18721810288463,-98.77319152049688
243159,7735,243159.0,18961.0,243159.0,27101.0,-93.13630522308551,-62.76317886482968,-101.64164744517956
243159,7747,243159.0,18916.0,243159.0,27081.0,-97.54419118609633,-64.34198190880875,-104.52590402900802
243159,7739,243159.0,18927.0,243159.0,27098.0,-101.9684027749679,-65.92318445786643,-107.4250036235041
243159,7743,243159.0,18947.0,243159.0,27103.0,-106.40990574779676,-67.50671394224713,-110.33819180022721
243170,7747,243170.0,18950.0,243170.0,27104.0,-110.86983029870032,-69.09286718467007,-113.2647165471908
243170,7730,243170.0,18930.0,243170.0,27060.0,-115.34928631405239,-70.68201813303702,-116.20362302878925
243170,7720,243170.0,18915.0,243170.0,27068.0,-119.84927724881027,-72.27452184939688,-119.15387785034534
243170,7708,243170.0,18917.0,243170.0,27080.0,-124.3707915165113,-73.87094223925052,-122.11466703316387
243170,7730,243170.0,18954.0,243170.0,27082.0,-128.91492565604415,-75.472231145796,-125.08542251636356
243170,7731,243170.0,18946.0,243170.0,27077.0,-133.4827842582456,-77.07951475972737,-128.06556507131398
243180,7700,243180.0,18944.0,243180.0,27060.0,-138.07520316732496,-78.69365933319168,-131.05431173047128
243180,7690,243180.0,18883.0,243180.0,27060.0,-142.692672338311,-80.31513626148461,-134.05070357991337
243180,7676,243180.0,18901.0,243180.0,27033.0,-147.33558582169871,-81.94442530486242,-137.05377299446548
243180,7693,243180.0,18917.0,243180.0,27037.0,-152.00450720873368,-83.58254107075419,-140.06277142160633
243180,7685,243180.0,18946.0,243180.0,27040.0,-156.7001773239905,-85.23105538548515,-143.07736262993916
243180,7696,243180.0,18928.0,243180.0,27068.0,-161.42329855349135,-86.89161349988171,-146.09758109888446
243190,7669,243190.0,18937.0,243190.0,27044.0,-166.17430220924098,-88.56547429712566,-149.12350901816592
243190,7645,243190.0,18907.0,243190.0,27022.0,-170.95332556961534,-90.25338003748374,-152.15501188555282
243190,7649,243190.0,18899.0,243190.0,27022.0,-175.76046536784895,-91.95572322326834,-155.19184435695013
243190,7650,243190.0,18910.0,243190.0,27038.0,-180.59604261855839,-93.67284663844882,-158.23389160410318
243190,7664,243190.0,18934.0,243190.0,27048.0,-185.46057724670288,-95.4051568014898,-161.2811151372233
243190,7645,243190.0,18905.0,243190.0,27012.0,-190.35452715260487,-97.15290916048485,-164.3332638104609
243201,7635,243201.0,18899.0,243201.0,27014.0,-195.27808514097399,-98.91601917009265,-167.38977904334388
243201,7628,243201.0,18896.0,243201.0,27000.0,-200.23119762596718,-100.69418054111148,-170.4499995026087
243201,7611,243201.0,18884.0,243201.0,26988.0,-205.21370999525902,-102.48710043655367,-173.51341432203003
243201,7629,243201.0,18886.0,243201.0,26988.0,-210.2254787635119,-104.29466341707402,-176.579855599812
243201,7604,243201.0,18880.0,243201.0,26991.0,-215.2663655264493,-106.11703628606793,-179.6496160230322
243201,7625,243201.0,18914.0,243201.0,26997.0,-220.33613498456532,-107.95465312649361,-182.72340662937268
243211,7598,243211.0,18893.0,243211.0,26999.0,-225.43433597057526,-109.80798945881907,-185.8021607704158
243211,7582,243211.0,18883.0,243211.0,26988.0,-230.56026667883748,-111.67730966781446,-188.88681175212577
243211,7588,243211.0,18874.0,243211.0,26980.0,-235.71310303987462,-113.56268314876039,-191.97818781089052
243211,7589,243211.0,18913.0,243211.0,26979.0,-240.89202027306357,-115.46412548252286,-195.07705273047623
243211,7577,243211.0,18875.0,243211.0,26967.0,-246.0961214649862,-117.38151655901581,-198.18418886569538
243211,7569,243211.0,18880.0,243211.0,26979.0,-251.3243229588645,-119.31444135776485,-201.30043755306497
243221,7558,243221.0,18858.0,243221.0,26960.0,-256.5753665804941,-121.26228123309119,-204.42667867139357
243221,7535,243221.0,18852.0,243221.0,26954.0,-261.84794659681893,-123.22449500588036,-207.56381813309048
243221,7535,243221.0,18865.0,243221.0,26951.0,-267.1409170463355,-125.20086727118675,-210.71286827564592
243221,7542,243221.0,18896.0,243221.0,26964.0,-272.45346008516833,-127.19150335268677,-213.875015891982
243221,7534,243221.0,18893.0,243221.0,26982.0,-277.78505146666316,-129.1964413950758,-217.0514714500943
243221,7544,243221.0,18851.0,243221.0,26956.0,-283.13526365900464,-131.21521348577525,-220.24312172870077
243232,7513,243232.0,18852.0,243232.0,26939.0,-288.50358471032064,-133.24686376242693,-223.45032379576247
243232,7496,243232.0,18816.0,243232.0,26926.0,-293.88942894359775,-135.29040530884444,-226.6730791034505
243232,7475,243232.0,18897.0,243232.0,26919.0,-299.2924244967335,-137.3452018433521,-229.91139948273667
243232,7516,243232.0,18838.0,243232.0,26961.0,-304.712732857279,-139.41086543835567,-233.16549267212855
243232,7514,243232.0,18875.0,243232.0,26930.0,-310.15097137698433,-141.48688480704084,-236.4355751273377
243232,7494,243232.0,18849.0,243232.0,26929.0,-315.60777114472114,-143.57243141524341,-239.72156304925164
243242,7490,243242.0,18840.0,243242.0,26907.0,-321.0834761341322,-145.66637177112807,-243.02304029974204
243242,7478,243242.0,18819.0,243242.0,26899.0,-326.5781697943846,-147.76743735144154,-246.33949511554692
243242,7444,243242.0,18827.0,243242.0,26910.0,-332.09184896618706,-149.87454208086592,-249.67056457408404
243242,7472,243242.0,18846.0,243242.0,26915.0,-337.62465405413013,-151.9869782489003,-253.01607636049204
243242,7467,243242.0,18863.0,243242.0,26920.0,-343.17696320318146,-154.1042379343586,-256.3758372562982
243242,7463,243242.0,18861.0,243242.0,26901.0,-348.7491926276126,-156.2255449599154,-259.74936061233586
243252,7449,243252.0,18805.0,243252.0,26871.0,-354.34155200208147,-158.349526426746,-263.1358201843275
243252,7435,243252.0,18819.0,243252.0,26875.0,-359.9540098951569,-160.4744043170824,-266.5343274871903
243252,7436,243252.0,18828.0,243252.0,26894.0,-365.5864085311216,-162.5984441254815,-269.9442311603503
243252,7433,243252.0,18853.0,243252.0,26878.0,-371.2385437253902,-164.7200372695831,-273.3650902928217
243252,7436,243252.0,18764.0,243252.0,26878.0,-376.9101027442159,-166.83748816572617,-276.7964633906071
243252,7398,243252.0,18793.0,243252.0,26855.0,-382.60056330828604,-168.94919003772372,-280.2378489405697
243263,7399,243263.0,18804.0,243263.0,26861.0,-388.3092743387522,-171.05414701398223,-283.6888119908486
243263,7392,243263.0,18801.0,243263.0,26854.0,-394.03569417991844,-173.15212819030424,-287.1491227251494
243263,7397,243263.0,18827.0,243263.0,26864.0,-399.7795151426658,-175.24337071720456,-290.6187674090693
243263,7393,243263.0,18840.0,243263.0,26862.0,-405.5405732020025,-177.32815167009431,-294.09781552770426
243263,7380,243263.0,18816.0,243263.0,26855.0,-411.3186885698244,-179.4063379825434,-297.58623418552736
243263,7373,243263.0,18803.0,243263.0,26841.0,-417.1135950026643,-181.47716538101938,-301.08379143023933
243273,7372,243273.0,18795.0,243273.0,26833.0,-422.9249659491762,-183.53941429728815,-304.59012742927
243273,7357,243273.0,18788.0,243273.0,26837.0,-428.7524383870732,-185.59173588957896,-308.10490244035157
243273,7350,243273.0,18829.0,243273.0,26835.0,-434.59563031523896,-187.63279834383604,-311.62785361962176
243273,7371,243273.0,18759.0,243273.0,26856.0,-440.4541458443,-189.66119480999532,-315.1586736597495
243273,7340,243273.0,18796.0,243273.0,26827.0,-446.327462668287,-191.67543276383145,-318.696767933914
243273,7322,243273.0,18761.0,243273.0,26812.0,-452.2148375230131,-193.67416066616082,-322.24113300540137
243284,7316,243284.0,18731.0,243284.0,26798.0,-458.1154704731829,-195.65647006864268,-325.79055282498086
243284,7314,243284.0,18767.0,243284.0,26815.0,-464.02877020361893,-197.62225701630743,-329.34391230014916
243284,7307,243284.0,18796.0,243284.0,26815.0,-469.9544511864732,-199.57236957125326,-332.9002700767444
243284,7319,243284.0,18778.0,243284.0,26800.0,-475.89246072110325,-201.5082115956894,-336.4586865219463
243284,7294,243284.0,18785.0,243284.0,26793.0,-481.8428309738706,-203.43121763329614,-340.0181104988693
243284,7294,243284.0,18756.0,243284.0,26784.0,-487.80558149428373,-205.34269263635954,-343.5774625784351
243294,7285,243294.0,18753.0,243294.0,26770.0,-493.7807430404034,-207.24398209264317,-347.13580341892595
243294,7289,243294.0,18780.0,243294.0,26791.0,-499.7683853403578,-209.1367013316176,-350.6924618773727
243294,7283,243294.0,18801.0,243294.0,26784.0,-505.76854153495674,-211.0226596968655,-354.2469974129097
243294,7285,243294.0,18775.0,243294.0,26768.0,-511.7810616822503,-212.90342691817244,-357.7990271614318
243294,7261,243294.0,18738.0,243294.0,26773.0,-517.805488418307,-214.78007993745734,-361.34815042595005
243294,7244,243294.0,18751.0,243294.0,26743.0,-523.8410863244135,-216.65349643297697,-364.8940394035085
243304,7235,243304.0,18716.0,243304.0,26757.0,-529.8870695390505,-218.5248671629399,-368.43659902384456
243304,7233,243304.0,18771.0,243304.0,26760.0,-535.9428596699806,-220.39599199633147,-371.97606639210846
243304,7235,243304.0,18784.0,243304.0,26768.0,-542.0081777309833,-222.26913293356043,-375.5128960370631
243304,7232,243304.0,18772.0,243304.0,26753.0,-548.0829498859639,-224.146452393607,-379.0474997661073
243304,7220,243304.0,18756.0,243304.0,26750.0,-554.1671504593685,-226.02954060626297,-382.58008800981673
243304,7203,243304.0,18743.0,243304.0,26729.0,-560.2607420928238,-227.91943071745814,-386.11071180785916
243315,7218,243315.0,18744.0,243315.0,26736.0,-566.3637332892611,-229.81689716246981,-389.63942448204097
243315,7198,243315.0,18750.0,243315.0,26740.0,-572.4761914509329,-231.7226770502738,-393.1663909786222
243315,7210,243315.0,18758.0,243315.0,26730.0,-578.5981446309593,-233.63746072955018,-396.6918315502503
243315,7184,243315.0,18754.0,243315.0,26724.0,-584.7294772327474,-235.5617102006649,-400.21591714910056
243315,7177,243315.0,18727.0,243315.0,26706.0,-590.8699248929092,-237.49552796223642,-403.7387946128112
243315,7165,243315.0,18705.0,243315.0,26704.0,-597.0191989093503,-239.43882114812587,-407.26074770961526
243325,7157,243325.0,18736.0,243325.0,26711.0,-603.1771552277621,-241.39169011993928,-410.78235237722896
243325,7163,243325.0,18729.0,243325.0,26711.0,-609.3438865731542,-243.35461451087176,-414.3044682959474
243325,7167,243325.0,18766.0,243325.0,26700.0,-615.519658807359,-245.3282201790016,-417.828095110556
243325,7151,243325.0,18729.0,243325.0,26713.0,-621.7047117497228,-247.31286180848141,-421.3542491016572
243325,7127,243325.0,18721.0,243325.0,26681.0,-627.8991409939637,-249.30841172029372,-424.883908846031
243325,7129,243325.0,18712.0,243325.0,26693.0,-634.1030226137183,-251.31443499475486,-428.4180480484244
243335,7135,243335.0,18725.0,243335.0,26705.0,-640.3165824308018,-253.33048580248635,-431.9576867075607
243335,7134,243335.0,18733.0,243335.0,26678.0,-646.5401366430484,-255.35616271061645,-435.503802736268
243335,7107,243335.0,18727.0,243335.0,26693.0,-652.7738989214417,-257.39091488364704,-439.05720923758463
243335,7100,243335.0,18702.0,243335.0,26671.0,-659.0179575268922,-259.43388453764624,-442.6185512096331
243335,7089,243335.0,18672.0,243335.0,26664.0,-665.2724629161032,-261.48407910565606,-446.18837713245165
243335,7086,243335.0,18698.0,243335.0,26657.0,-671.537813343683,-263.540824570924,-449.76727732080633
243346,7094,243346.0,18717.0,243346.0,26668.0,-677.8146927478712,-265.60402239922377,-453.35601819430286
243346,7079,243346.0,18704.0,243346.0,26672.0,-684.1039609081961,-267.67392676987606,-456.9554984058444
243346,7095,243346.0,18722.0,243346.0,26664.0,-690.4064768046259,-269.7507598341877,-460.566536923761
243346,7064,243346.0,18697.0,243346.0,26650.0,-696.7229401505497,-271.8344948633064,-464.18970957896937
243346,7047,243346.0,18688.0,243346.0,26647.0,-703.0538724982767,-273.92485180371796,-467.82537773703683
243346,7053,243346.0,18692.0,243346.0,26643.0,-709.3998046785936,-276.02147286243473,-471.47381396281236
243356,7050,243356.0,18720.0,243356.0,26649.0,-715.7614439013623,-278.12403528413876,-475.13525467348455
243356,7045,243356.0,18716.0,243356.0,26643.0,-722.1396201522733,-280.2320342015015,-478.80983120232844
243356,7028,243356.0,18643.0,243356.0,26607.0,-728.535167690455,-282.3445350811403,-482.4975229501799
243356,7011,243356.0,18659.0,243356.0,26623.0,-734.9489541124079,-284.46047254131173,-486.1983147551727
243356,7015,243356.0,18667.0,243356.0,26612.0,-741.3820468377671,-286.57929319678783,-489.9124289624794
243356,7000,243356.0,18669.0,243356.0,26601.0,-747.8358490202211,-288.7012180694852,-493.64041160777964
243366,7004,243366.0,18676.0,243366.0,26600.0,-754.312119852739,-290.82705982036515,-497.3831657968538
243366,7011,243366.0,18689.0,243366.0,26624.0,-760.8128954123782,-292.95794489932916,-501.1419666665308
243366,7005,243366.0,18685.0,243366.0,26607.0,-767.3402917770228,-295.0950255870865,-504.9182899308428
243366,6983,243366.0,18653.0,243366.0,26594.0,-773.8962935615426,-297.2392851063068,-508.7135794438845
243366,6974,243366.0,18652.0,243366.0,26586.0,-780.4827402983881,-299.3916543281483,-512.5292471729013
243366,6986,243366.0,18695.0,243366.0,26600.0,-787.1014579835908,-301.55325385984816,-516.3668205398519
243377,6973,243377.0,18678.0,243377.0,26615.0,-793.754268598823,-303.7252859093529,-520.2278991252549
243377,6971,243377.0,18676.0,243377.0,26589.0,-800.4428512433017,-305.9086527933038,-524.1138700934744
243377,6954,243377.0,18652.0,243377.0,26563.0,-807.1686511191352,-308.10380798163453,-528.0257546540929
243377,6949,243377.0,18625.0,243377.0,26567.0,-813.9329111953544,-310.31100559582916,-531.9644384801908
243377,6936,243377.0,18657.0,243377.0,26576.0,-820.7367657932762,-312.5307216875061,-535.9309784442205
243377,6935,243377.0,18644.0,243377.0,26582.0,-827.5813272465425,-314.76387289725756,-539.9265930397378
243387,6953,243387.0,18664.0,243387.0,26568.0,-834.4676664372344,-317.0116847445627,-543.9524133559026
243387,6923,243387.0,18662.0,243387.0,26563.0,-841.3966305095934,-319.2754118917205,-548.0093122910671
243387,6916,243387.0,18644.0,243387.0,26574.0,-848.3686899823513,-321.5561127169956,-552.0978848251959
243387,6900,243387.0,18638.0,243387.0,26553.0,-855.3840216532947,-323.8546198193232,-556.2184214744208
243387,6895,243387.0,18659.0,243387.0,26549.0,-862.4427119292324,-326.1716639230684,-560.3708789566339
243387,6901,243387.0,18669.0,243387.0,26549.0,-869.544868084257,-328.5078293850805,-564.5549451970373
243397,6902,243397.0,18645.0,243397.0,26555.0,-876.6905423283849,-330.8632744988927,-568.7700792756749
243397,6898,243397.0,18677.0,243397.0,26530.0,-883.8795010642743,-333.23750394758883,-573.01544335465
243397,6860,243397.0,18616.0,243397.0,26544.0,-891.1110518235471,-335.6293229208489,-577.2898662393446
243397,6869,243397.0,18599.0,243397.0,26533.0,-898.3841282403229,-338.0370720744397,-581.5918608620382
243397,6849,243397.0,18628.0,243397.0,26529.0,-905.6975157087674,-340.45915753282407,-585.9195945405039
243397,6867,243397.0,18654.0,243397.0,26539.0,-913.049948603493,-342.8943194616874,-590.2708242024498
243408,6867,243408.0,18630.0,243408.0,26514.0,-920.4399758921999,-345.34129927529744,-594.6428269916651
243408,6834,243408.0,18628.0,243408.0,26524.0,-927.8657166062818,-347.79844180625173,-599.032366803664
243408,6826,243408.0,18609.0,243408.0,26505.0,-935.3248006814549,-350.26369186524613,-603.4357332660953
243408,6818,243408.0,18614.0,243408.0,26512.0,-942.8145761786964,-352.73482334821847,-607.8487925569077
243408,6827,243408.0,18619.0,243408.0,26511.0,-950.3322814273885,-355.20960346909567,-612.2669833971527
243408,6832,243408.0,18623.0,243408.0,26502.0,-957.8749514718139,-357.6857606467506,-616.6852421626384
243418,6813,243418.0,18636.0,243418.0,26503.0,-965.4391479550729,-360.1607824268881,-621.0979179741041
243418,6802,243418.0,18599.0,243418.0,26471.0,-973.020777646068,-362.6317054117735,-625.4987831637532
243418,6789,243418.0,18593.0,243418.0,26492.0,-980.6151393594796,-365.0951461978801,-629.8811635849946
243418,6790,243418.0,18622.0,243418.0,26450.0,-988.2170638123961,-367.5475471084668,-634.2381039691422
243418,6779,243418.0,18600.0,243418.0,26463.0,-995.8209725291285,-369.98525232284294,-638.5625361629388
243418,6777,243418.0,18646.0,243418.0,26512.0,-1003.4208458420172,-372.4042849989568,-642.8473330942471
243428,6784,243428.0,18624.0,243428.0,26474.0,-1011.0101365959842,-374.7999853835859,-647.0849835883125
243428,6753,243428.0,18592.0,243428.0,26450.0,-1018.5816479662943,-377.16673669921306,-651.2671898021102
243428,6736,243428.0,18560.0,243428.0,26451.0,-1026.1275334521956,-379.49815132399425,-655.3849561866159
243428,6742,243428.0,18559.0,243428.0,26433.0,-1033.6395083221314,-381.78772958557386,-659.428977991898
243428,6753,243428.0,18622.0,243428.0,26468.0,-1041.1089853950407,-384.0293579453488,-663.3898378397596
243428,6755,243428.0,18598.0,243428.0,26459.0,-1048.5268743656995,-386.21711049388745,-667.2578649546522
243439,6727,243439.0,18617.0,243439.0,26427.0,-1055.8832412542613,-388.3446413241156,-671.022859729964
243439,6715,243439.0,18557.0,243439.0,26430.0,-1063.1672026644665,-390.4048661612035,-674.6740805924298
243439,6696,243439.0,18576.0,243439.0,26414.0,-1070.3671340978747,-392.3901783274469,-678.200517778982
243439,6699,243439.0,18563.0,243439.0,26432.0,-1077.4709599466723,-394.292879522484,-681.5911062917489
243439,6706,243439.0,18593.0,243439.0,26437.0,-1084.4662766206595,-396.10537841920757,-684.8346881554119
243439,6714,243439.0,18604.0,243439.0,26428.0,-1091.3402019405185,-397.8199913773525,-687.9197830224861
243449,6687,243449.0,18569.0,243449.0,26419.0,-1098.0790786939588,-399.4285701542374,-690.8343981929154
243449,6681,243449.0,18543.0,243449.0,26394.0,-1104.6683343077739,-400.92243446102793,-693.5660828159812
243449,6678,243449.0,18569.0,243449.0,26410.0,-1111.0925780275297,-402.2927553354315,-696.1021740448941
243449,6660,243449.0,18564.0,243449.0,26412.0,-1117.335735727722,-403.5308857031088,-698.4299684134481
243449,6664,243449.0,18597.0,243449.0,26415.0,-1123.381131780951,-404.6282579513837,-700.5366427789404
243449,6661,243449.0,18570.0,243449.0,26398.0,-1129.2115286228309,-405.576037000798,-702.4090851155211
243459,6650,243459.0,18536.0,243459.0,26399.0,-1134.8090941953303,-406.36496222936967,-704.0338763956704
243459,6631,243459.0,18539.0,243459.0,26377.0,-1140.155394963896,-406.985659832278,-705.3974442206534
243459,6638,243459.0,18543.0,243459.0,26383.0,-1145.2315182935859,-407.42915271121603,-706.4862955405708
243459,6654,243459.0,18557.0,243459.0,26398.0,-1150.0181507394095,-407.6870764280155,-707.2871872393357
243459,6643,243459.0,18588.0,243459.0,26404.0,-1154.495412514102,-407.75148818165076,-707.7870609792174
243459,6619,243459.0,18558.0,243459.0,26385.0,-1158.6426430355696,-407.6144633573555,-707.9728216579194
243470,6626,243470.0,18546.0,243470.0,26382.0,-1162.4384417553083,-407.2678664380828,-707.8312756012556
243470,6602,243470.0,18541.0,243470.0,26369.0,-1165.8608900576523,-406.70355152453635,-707.3493280765892
243470,6596,243470.0,18553.0,243470.0,26370.0,-1168.8877829029298,-405.9137195231028,-706.5142705587602
243470,6608,243470.0,18557.0,243470.0,26388.0,-1171.4968425871043,-404.8910538264356,-705.313974009444
243470,6600,243470.0,18568.0,243470.0,26378.0,-1173.6658100992395,-403.6286144990723,-703.7368914393321
243470,6583,243470.0,18560.0,243470.0,26383.0,-1175.3724289609331,-402.11966726807975,-701.7719693058023
243480,6584,243480.0,18527.0,243480.0,26364.0,-1176.5945408269126,-400.357670152664,-699.4086725140907
243480,6576,243480.0,18504.0,243480.0,26347.0,-1177.3103036826928,-398.3366405574925,-696.6372225394487
243480,6568,243480.0,18538.0,243480.0,26368.0,-1177.498393715801,-396.05177756506646,-693.4489822238529
243480,6596,243480.0,18571.0,243480.0,26383.0,-1177.1381328753018,-393.49975273591406,-689.8366981665998
243480,6590,243480.0,18588.0,243480.0,26393.0,-1176.2094476919547,-390.6783275604914,-685.794386470367
243480,6578,243480.0,18570.0,243480.0,26411.0,-1174.6927146672006,-387.5857105112598,-681.3170179030561
243491,6576,243491.0,18564.0,243491.0,26387.0,-1172.568774176128,-384.2202689826033,-676.4002698014237
243491,6572,243491.0,18559.0,243491.0,26392.0,-1169.819162086334,-380.5807074839704,-671.0405290387951
243491,6595,243491.0,18609.0,243491.0,26405.0,-1166.426318886402,-376.66630537075076,-665.235113815654
243491,6583,243491.0,18577.0,243491.0,26416.0,-1162.3736271621815,-372.47684583592707,-658.9824209479816
243491,6599,243491.0,18581.0,243491.0,26428.0,-1157.6453650057488,-368.0124446273733,-652.2818550529141
243491,6571,243491.0,18555.0,243491.0,26435.0,-1152.2267539793643,-363.27370550078103,-645.1336752712016
243501,6574,243501.0,18574.0,243501.0,26431.0,-1146.1042114202648,-358.26215180841297,-637.538907276699
243501,6582,243501.0,18587.0,243501.0,26421.0,-1139.26574279973,-352.98055373958465,-629.4994278202678
243501,6622,243501.0,18604.0,243501.0,26448.0,-1131.7011750591887,-347.43292854986856,-621.0182096294335
243501,6609,243501.0,18623.0,243501.0,26468.0,-1123.4020390535554,-341.62428249395964,-612.0994675630803
243501,6628,243501.0,18643.0,243501.0,26457.0,-1114.361348322217,-335.56025218398315,-602.748560213938
243501,6620,243501.0,18615.0,243501.0,26465.0,-1104.5735719471097,-329.2467990171937,-592.971915974472
243511,6626,243511.0,18607.0,243511.0,26482.0,-1094.034797674351,-322.6902236230659,-582.777159454097
243511,6650,243511.0,18643.0,243511.0,26495.0,-1082.7429458374895,-315.8975082300653,-572.1732214990753
243511,6679,243511.0,18660.0,243511.0,26519.0,-1070.6978358797198,-308.8764929577096,-561.1702726918477
243511,6680,243511.0,18672.0,243511.0,26516.0,-1057.9010164954398,-301.6356247458814,-549.779573129853
243511,6697,243511.0,18678.0,243511.0,26548.0,-1044.3555799803532,-294.183600439162,-538.0133636244337
243511,6703,243511.0,18665.0,243511.0,26553.0,-1030.0661570391055,-286.52922957339825,-525.8847878362149
243522,6705,243522.0,18677.0,243522.0,26564.0,-1015.0390555206137,-278.68155908142523,-513.4078044756193
243522,6723,243522.0,18681.0,243522.0,26570.0,-999.2824842383146,-270.6501078517097,-500.59717211390046
243522,6760,243522.0,18701.0,243522.0,26599.0,-982.8067382182794,-262.4450024002373,-487.46851424547214
243522,6771,243522.0,18726.0,243522.0,26635.0,-965.6241670172295,-254.0769121587801,-474.03826174998005
243522,6783,243522.0,18721.0,243522.0,26615.0,-947.7490229119899,-245.55683059638352,-460.32341153573
243522,6803,243522.0,18713.0,243522.0,26652.0,-929.1974374750612,-236.89593658035696,-446.3413720101968
243532,6821,243532.0,18734.0,243532.0,26646.0,-909.9875200006363,-228.10571775491974,-432.11002029700137
243532,6855,243532.0,18750.0,243532.0,26688.0,-890.1394092862272,-219.1981430831908,-417.6477662382881
243532,6885,243532.0,18776.0,243532.0,26704.0,-869.6751830650791,-210.18559276308156,-402.9734627275995
243532,6916,243532.0,18787.0,243532.0,26708.0,-848.6186244351353,-201.0805734610247,-388.10620832130473
243532,6928,243532.0,18781.0,243532.0,26736.0,-826.9949619445732,-191.89545321538074,-373.0652196047573
243532,6950,243532.0,18782.0,243532.0,26735.0,-804.8307505317176,-182.64243416731483,-357.8698334054147
243542,6974,243542.0,18792.0,243542.0,26745.0,-782.1539167850331,-173.3337606939558,-342.5395856118281
243542,7013,243542.0,18806.0,243542.0,26768.0,-758.9938057625586,-163.98193184155326,-327.094361921162
243542,7046,243542.0,18799.0,243542.0,26809.0,-735.3810685893754,-154.59979421144615,-311.55446405256356
243542,7060,243542.0,18851.0,243542.0,26798.0,-711.3474344023223,-145.2005513176243,-295.94045114318425
243542,7084,243542.0,18847.0,243542.0,26825.0,-686.9255781380864,-135.79761412128363,-280.2729823243756
243542,7131,243542.0,18848.0,243542.0,26843.0,-662.1491236095612,-126.40434088455422,-264.572831826905
243553,7155,243553.0,18868.0,243553.0,26854.0,-637.0525642721217,-117.03394315914704,-248.8609160709841
243553,7190,243553.0,18907.0,243553.0,26902.0,-611.6710378535524,-107.69947248188024,-233.15821064301514
243553,7225,243553.0,18909.0,243553.0,26922.0,-586.040095389531,-98.41356962638653,-217.48550588798827
243553,7252,243553.0,18923.0,243553.0,26920.0,-560.1955019769161,-89.1880933658241,-201.86305912690682
243553,7262,243553.0,18904.0,243553.0,26914.0,-534.173102495735,-80.0339743948565,-186.31048685870303
243553,7298,243553.0,18895.0,243553.0,26948.0,-508.0088543486893,-70.96142961586992,-170.84702580661786
243563,7330,243563.0,18895.0,243563.0,26960.0,-481.7389349861474,-61.98045345857764,-155.4917958767922
243563,7373,243563.0,18951.0,243563.0,27001.0,-455.39970246267706,-53.10124186309321,-140.26377096205266
243563,7414,243563.0,18969.0,243563.0,27009.0,-429.02744713901046,-44.33411349818101,-125.18152982301166
243563,7415,243563.0,18948.0,243563.0,27028.0,-402.6580891770588,-35.68904121155674,-110.26299285106495
243563,7458,243563.0,18947.0,243563.0,27043.0,-376.3270594504721,-27.1754450166236,-95.52528374873856
243563,7479,243563.0,18988.0,243563.0,27051.0,-350.06936472897166,-18.802402119583917,-80.98470745186688
243573,7525,243573.0,18997.0,243573.0,27101.0,-323.91959718680494,-10.578727276992936,-66.65672029078553
243573,7549,243573.0,18988.0,243573.0,27081.0,-297.9117919832429,-2.512751172203025,-52.55579067513395
243573,7581,243573.0,19022.0,243573.0,27113.0,-272.07923297809555,5.387839206226488,-38.695269199855375
243573,7606,243573.0,19012.0,243573.0,27091.0,-246.45431273522968,13.116031670674374,-25.08746400235748
243573,7637,243573.0,19019.0,243573.0,27128.0,-221.06846192382045,20.66551512107924,-11.743876413177645
243573,7670,243573.0,19026.0,243573.0,27133.0,-195.95208433038192,28.03062636328599,1.3246078990918022
243584,7702,243584.0,19045.0,243584.0,27168.0,-171.13443777306964,35.2062642110854,14.107722420854316
243584,7736,243584.0,19071.0,243584.0,27197.0,-146.643451836434,42.18796938123097,26.596042564250865
243584,7759,243584.0,19057.0,243584.0,27189.0,-122.505525999214,48.97216629960815,38.78131876717532
243584,7774,243584.0,19042.0,243584.0,27194.0,-98.745402363675,55.556267452429324,50.65665107254824
243584,7806,243584.0,19056.0,243584.0,27190.0,-75.3861768877531,61.93842993308664,62.21632332066247
243584,7831,243584.0,19058.0,243584.0,27234.0,-52.449357247533044,68.11720711833931,73.45551776710931
243594,7857,243594.0,19114.0,243594.0,27233.0,-29.954843130896165,74.09148206814496,84.37025839571015
243594,7893,243594.0,19116.0,243594.0,27242.0,-7.920828261737256,79.86082233408285,94.95755677805369
243594,7905,243594.0,19083.0,243594.0,27247.0,13.636333994741449,85.42595062926239,105.21546514802799
243594,7917,243594.0,19086.0,243594.0,27254.0,34.70220085194751,90.78876877811376,115.142965960413
243594,7925,243594.0,19064.0,243594.0,27257.0,55.26410906804915,95.95187623653669,124.7398214470503
243594,7960,243594.0,19070.0,243594.0,27270.0,75.31090789116843,100.91799394184454,134.00643380133067
243604,7981,243604.0,19110.0,243604.0,27305.0,94.83280127057901,105.68960709340274,142.94380099914395
243604,8013,243604.0,19134.0,243604.0,27313.0,113.8214110056706,110.2690676037368,151.55369978751895
243604,8021,243604.0,19109.0,243604.0,27321.0,132.26993770747004,114.65906304934964,159.8390006943298
243604,8020,243604.0,19121.0,243604.0,27304.0,150.17320128589597,118.86290766278381,167.80381346734504
243604,8055,243604.0,19130.0,243604.0,27301.0,167.52746809642235,122.88447718983866,175.45329488262246
243604,8086,243604.0,19138.0,243604.0,27334.0,184.33029764698904,126.7281436790717,182.79329485724276
243615,8092,243615.0,19132.0,243615.0,27354.0,200.58063969520208,130.3988436450826,189.83024544843812
243615,8122,243615.0,19132.0,243615.0,27345.0,216.27901992146258,133.90208923630945,196.57139576304502
243615,8125,243615.0,19118.0,243615.0,27316.0,231.4276199379442,137.24382106369455,203.02494330580595
243615,8129,243615.0,19105.0,243615.0,27342.0,246.03023947732004,140.43011263416878,209.1997397634034
243615,8138,243615.0,19132.0,243615.0,27332.0,260.09211034008695,143.46681929323108,215.10487452178717
243615,8162,243615.0,19141.0,243615.0,27366.0,273.6196409093002,146.35943052116284,220.74951204835764
243625,8179,243625.0,19157.0,243625.0,27384.0,286.6202995132902,149.1132609853385,226.14302939510492
243625,8183,243625.0,19138.0,243625.0,27348.0,299.1026566721679,151.7337393485622,231.29527746419575
243625,8193,243625.0,19140.0,243625.0,27364.0,311.07639778555574,154.226480984138,236.21660753527345
243625,8204,243625.0,19137.0,243625.0,27358.0,322.55221896896205,156.5971201377517,240.91758583688215
243625,8202,243625.0,19127.0,243625.0,27368.0,333.5416745371126,158.85107742076013,245.4087317689321
243625,8235,243625.0,19176.0,243625.0,27388.0,344.05704055320257,160.99343244868464,249.7004575266074
243635,8244,243635.0,19171.0,243635.0,27371.0,354.11129121421243,163.02908560996843,253.80314200659018
243635,8224,243635.0,19207.0,243635.0,27385.0,363.71815934761696,164.9632189178609,257.727180810806
243635,8245,243635.0,19122.0,243635.0,27384.0,372.8920256160678,166.8016550874242,261.48292701795003
243635,8251,243635.0,19172.0,243635.0,27358.0,381.64764813363934,168.5506937352585,265.08056286360716
243635,8266,243635.0,19120.0,243635.0,27390.0,390.0000173787914,170.2165904611631,268.52988580878423
243635,8272,243635.0,19167.0,243635.0,27406.0,397.9643703356835,171.80515621150613,271.8401746167964
243646,8292,243646.0,19180.0,243646.0,27396.0,405.55624398393036,173.32170136077605,275.0203496383741
243646,8302,243646.0,19158.0,243646.0,27408.0,412.79156764676145,174.77128587509173,278.0791963023638
243646,8298,243646.0,19170.0,243646.0,27401.0,419.68677346010145,176.15893944825933,281.0254046301477
243646,8290,243646.0,19148.0,243646.0,27404.0,426.258770647696,177.48959038670682,283.8675034155834
243646,8311,243646.0,19197.0,243646.0,27415.0,432.5247345058616,178.76792569025764,286.61378997772954
243646,8316,243646.0,19191.0,243646.0,27437.0,438.5019260941108,179.9985079890169,289.2723624700109
243656,8311,243656.0,19179.0,243656.0,27420.0,444.2076635047122,181.18609252047497,291.85130507168685
243656,8310,243656.0,19145.0,243656.0,27406.0,449.65926202348226,182.33569068566686,294.3587849779975
243656,8308,243656.0,19162.0,243656.0,27401.0,454.87382120388133,183.4521857551983,296.8028261785813
243656,8314,243656.0,19145.0,243656.0,27401.0,459.86796353374075,184.53986686080162,299.1909115433547
243656,8315,243656.0,19173.0,243656.0,27412.0,464.65763545286643,185.60220896307413,301.52970437819374
243656,8349,243656.0,19185.0,243656.0,27437.0,469.25803899637003,186.64194115906201,303.82502885041254
243666,8347,243666.0,19220.0,243666.0,27450.0,473.6837664057616,187.66140726493228,306.082133355495
243666,8353,243666.0,19184.0,243666.0,27416.0,477.9490421032368,188.66307085036118,308.3060322403121
243666,8342,243666.0,19170.0,243666.0,27428.0,482.0678206174466,189.64973156937577,310.50155132468603
243666,8337,243666.0,19189.0,243666.0,27428.0,486.05363679357777,190.62427866721737,312.6730831315108
243666,8366,243666.0,19206.0,243666.0,27446.0,489.91936366731215,191.58944702949373,314.82443617902015
243666,8368,243666.0,19195.0,243666.0,27453.0,493.6771467247388,192.54793590455012,316.9589400939709
243677,8362,243677.0,19177.0,243677.0,27444.0,497.3385343732389,193.50257451208216,319.0796445266112
243677,8345,243677.0,19156.0,243677.0,27423.0,500.9144844866646,194.45613577955294,321.1893527246664
243677,8360,243677.0,19171.0,243677.0,27415.0,504.4151029715374,195.41088311466143,323.29033789142636
243677,8372,243677.0,19164.0,243677.0,27466.0,507.8493851837254,196.3682143991585,325.38398711214245
243677,8392,243677.0,19200.0,243677.0,27459.0,511.2252350998449,197.32861360287143,327.47083418728823
243677,8408,243677.0,19205.0,243677.0,27465.0,514.5497437422189,198.29190592723643,329.5509469265511
243687,8397,243687.0,19194.0,243687.0,27455.0,517.8295201828275,199.25764646865048,331.62418724064446
243687,8393,243687.0,19180.0,243687.0,27462.0,521.070830026853,200.22530039634682,333.69018415420135
243687,8383,243687.0,19198.0,243687.0,27453.0,524.2794359305813,201.19410537745085,335.7482059273681
243687,8399,243687.0,19207.0,243687.0,27484.0,527.4603018532284,202.16294613359088,337.79708712747765
243687,8417,243687.0,19213.0,243687.0,27482.0,530.6174421592109,203.1304819775762,339.8353240051215
243687,8425,243687.0,19227.0,243687.0,27471.0,533.754048980489,204.09540999057975,341.8612754780587
243697,8411,243697.0,19166.0,243697.0,27463.0,536.8727176008649,205.05659675127737,343.8731884756909
243697,8402,243697.0,19189.0,243697.0,27474.0,539.9754520372992,206.01282771888043,345.86899103511644
243697,8422,243697.0,19209.0,243697.0,27476.0,543.063426453092,206.9623787059566,347.84611831610175
243697,8435,243697.0,19209.0,243697.0,27490.0,546.1368301853174,207.9029518409364,349.80152743190877
243697,8452,243697.0,19230.0,243697.0,27507.0,549.1950128906137,208.83198417304015,351.7318667779092
243697,8450,243697.0,19233.0,243697.0,27492.0,552.2367840975992,209.7469930553724,353.6337169837942
243708,8440,243708.0,19209.0,243708.0,27500.0,555.2605939855251,210.64580863057034,355.50373562864036
243708,8464,243708.0,19214.0,243708.0,27493.0,558.2645063851514,211.52655790867442,357.3386188098216
243708,8460,243708.0,19229.0,243708.0,27501.0,561.246148212773,212.38747336199077,359.1349990750708
243708,8467,243708.0,19265.0,243708.0,27518.0,564.2027649211726,213.2269227476133,360.8894235110986
243708,8491,243708.0,19245.0,243708.0,27552.0,567.131319311883,214.04379782724612,362.5985476881526
243708,8474,243708.0,19222.0,243708.0,27505.0,570.02862165733,214.83783907786062,364.25950509700044
243718,8462,243718.0,19209.0,243718.0,27522.0,572.8913779049229,215.609467399756,365.8700616076653
243718,8473,243718.0,19193.0,243718.0,27505.0,575.7159881013262,216.35924425630208,367.42839314586547
243718,8494,243718.0,19181.0,243718.0,27516.0,578.4983157336624,217.08730022366865,368.932802362532
243718,8503,243718.0,19242.0,243718.0,27527.0,581.2337519035432,217.79298288173737,370.38160506401744
243718,8510,243718.0,19256.0,243718.0,27537.0,583.9174975692055,218.47504581750547,371.7732107460412
243718,8515,243718.0,19234.0,243718.0,27539.0,586.5448090167957,219.13229781183577,373.10633859886923
243729,8518,243729.0,19239.0,243729.0,27525.0,589.1111237434407,219.76404441822427,374.38018285279156
243729,8519,243729.0,19224.0,243729.0,27517.0,591.612103333281,220.370038647574,375.59435751326623
243729,8539,243729.0,19255.0,243729.0,27544.0,594.0436562112594,220.95030504964404,376.74870146260616
243729,8538,243729.0,19253.0,243729.0,27555.0,596.4020294606674,221.5051731377581,377.84326369054884
243729,8534,243729.0,19254.0,243729.0,27542.0,598.6839374590338,222.0355019430175,378.87855365639723
243729,8545,243729.0,19226.0,243729.0,27535.0,600.8865938903062,222.54280224748936,379.85571274918993
243739,8540,243739.0,19215.0,243739.0,27542.0,603.0076674789965,223.02902171802356,380.7764145762693
243739,8536,243739.0,19216.0,243739.0,27525.0,605.045228322264,223.4960981286227,381.6426782036839
243739,8551,243739.0,19209.0,243739.0,27539.0,606.9976646620352,223.94557202963216,382.4567217919582
243739,8557,243739.0,19228.0,243739.0,27542.0,608.863651111852,224.37841260959203,383.2208808503201
243739,8571,243739.0,19239.0,243739.0,27532.0,610.6422695790427,224.79507289313722,383.937623419601
243739,8559,243739.0,19265.0,243739.0,27512.0,612.3331918591684,225.1957863856964,384.6095103316916
243749,8549,243749.0,19218.0,243749.0,27543.0,613.9367215618893,225.58093515530862,385.23899523523903
243749,8543,243749.0,19246.0,243749.0,27520.0,615.4535941955891,225.9511493565525,385.82828084558287
243749,8577,243749.0,19248.0,243749.0,27540.0,616.8847236112063,226.3071806812477,386.37933859956024
243749,8566,243749.0,19253.0,243749.0,27546.0,618.2311963198526,226.649922079781,386.8939864123464
243749,8567,243749.0,19248.0,243749.0,27540.0,619.4944509224969,226.9805757527007,387.3740184015892
243749,8561,243749.0,19231.0,243749.0,27541.0,620.6763289420743,227.30069415828495,387.82132176071195
243760,8555,243760.0,19207.0,243760.0,27524.0,621.7789342782586,227.6119604325603,388.23784311098336
243760,8558,243760.0,19222.0,243760.0,27548.0,622.8044347944327,227.91577091079785,388.62545284196824
243760,8580,243760.0,19243.0,243760.0,27539.0,623.7549456098183,228.21294349582354,388.98588951418
243760,8584,243760.0,19256.0,243760.0,27578.0,624.6326275952949,228.50385134156255,389.32090164042563
243760,8574,243760.0,19256.0,243760.0,27549.0,625.4399180332823,228.788840164529,389.63253619583287
243760,8572,243760.0,19222.0,243760.0,27545.0,626.1796201703573,229.06850216379638,389.92332690486313
243770,8578,243770.0,19238.0,243770.0,27542.0,626.8547989682146,229.3435657137233,390.19618391426326
243770,8586,243770.0,19258.0,243770.0,27560.0,627.4686954549751,229.6146638941634,390.454185119514
243770,8590,243770.0,19263.0,243770.0,27545.0,628.0247850508089,229.88241086405975,390.700548326291
243770,8587,243770.0,19238.0,243770.0,27541.0,628.5268967922989,230.14768082477042,390.9386728450866
243770,8578,243770.0,19233.0,243770.0,27522.0,628.9792496603114,230.41163623975035,391.17201161851483
243770,8588,243770.0,19229.0,243770.0,27545.0,629.3863674385351,230.67544254769473,391.40381627199264
243780,8574,243780.0,19224.0,243780.0,27539.0,629.7529630362078,230.9399587262407,391.63700389694355
243780,8577,243780.0,19234.0,243780.0,27540.0,630.0838326064859,231.2055635466977,391.8742142703082
243780,8587,243780.0,19264.0,243780.0,27565.0,630.3837532405331,231.4721802301467,392.11792992281084
243780,8584,243780.0,19274.0,243780.0,27534.0,630.6574630100644,231.73959865425945,392.3706124244165
243780,8589,243780.0,19243.0,243780.0,27540.0,630.909727253341,232.00791499914274,392.6347495729615
243780,8578,243780.0,19245.0,243780.0,27544.0,631.145371553565,232.27765575980035,392.9127263871443
243791,8584,243791.0,19237.0,243791.0,27540.0,631.3692266167233,232.5495294570516,393.20670803096755
243791,8584,243791.0,19254.0,243791.0,27551.0,631.5860435827904,232.82417637201596,393.51864994626635
243791,8583,243791.0,19265.0,243791.0,27557.0,631.8004524703556,233.10217127243226,393.85038048415936
243791,8576,243791.0,19247.0,243791.0,27552.0,632.0169332477961,233.38420828092953,394.2037337108087
243791,8579,243791.0,19220.0,243791.0,27525.0,632.2397326010274,233.67114204782155,394.5805926917747
243791,8580,243791.0,19226.0,243791.0,27539.0,632.4727647062953,233.96367271700225,394.9826934415278
243801,8584,243801.0,19231.0,243801.0,27523.0,632.7195727744383,234.26193976789975,395.41133316429574
243801,8589,243801.0,19242.0,243801.0,27537.0,632.9833613607684,234.56538898442017,395.8671932007237
243801,8605,243801.0,19268.0,243801.0,27551.0,633.2670993268953,234.87295504680137,396.3503272346431
243801,8608,243801.0,19261.0,243801.0,27562.0,633.5737176351249,235.18343024469263,396.860347118158
243801,8577,243801.0,19262.0,243801.0,27537.0,633.9062804554765,235.49581089901915,397.39669298380505
243801,8586,243801.0,19236.0,243801.0,27541.0,634.2678947395926,235.80938677687132,397.9586942156766
243811,8587,243811.0,19280.0,243811.0,27560.0,634.6614310186037,236.12361400502712,398.545433439789
243811,8594,243811.0,19265.0,243811.0,27574.0,635.0893750754776,236.43810541851926,399.155775801138
243811,8613,243811.0,19258.0,243811.0,27563.0,635.553909564203,236.75280716824963,399.7886505767573
243811,8581,243811.0,19244.0,243811.0,27562.0,636.057077765077,237.06802161565363,400.4432694598257
243811,8576,243811.0,19226.0,243811.0,27531.0,636.6007663227041,237.38412676194866,401.119050844698
243811,8582,243811.0,19234.0,243811.0,27559.0,637.1864178592314,237.70117636414696,401.8153290644968
243822,8595,243822.0,19226.0,243822.0,27568.0,637.8147850580253,238.01858917372857,402.53116835069886
243822,8605,243822.0,19253.0,243822.0,27556.0,638.4859831866376,238.33504872388966,403.2654737917277
243822,8616,243822.0,19267.0,243822.0,27559.0,639.199747944746,238.64866832595663,404.0171483804438
243822,8585,243822.0,19270.0,243822.0,27551.0,639.9556578097126,238.95737679382808,404.78505941074934
243822,8592,243822.0,19216.0,243822.0,27542.0,640.7530942310902,239.25919306419988,405.56788711328846
243822,8600,243822.0,19278.0,243822.0,27542.0,641.5910024243801,239.55210645694999,406.36392842321317
243832,8604,243832.0,19277.0,243832.0,27569.0,642.4677745578556,239.83396131158128,407.170957111697
243832,8613,243832.0,19279.0,243832.0,27574.0,643.3813444125501,240.10276294986934,407.9863366382209
243832,8629,243832.0,19261.0,243832.0,27545.0,644.3293721448017,240.35702659715105,408.8072846093622
243832,8591,243832.0,19253.0,243832.0,27564.0,645.3094058889046,240.59574636753152,409.63092870634154
243832,8604,243832.0,19249.0,243832.0,27544.0,646.3188259984998,240.8181078075745,410.45413595773374
243832,8596,243832.0,19240.0,243832.0,27562.0,647.3545699842424,241.0231889040971,411.2733663926991
243842,8635,243842.0,19273.0,243842.0,27555.0,648.4129782201567,241.20979529401154,412.0846301034044
243842,8635,243842.0,19270.0,243842.0,27585.0,649.4899891996408,241.37655517848935,412.88355997458495
243842,8594,243842.0,19285.0,243842.0,27570.0,650.5814395892995,241.52223755220618,413.66561842195654
243842,8622,243842.0,19249.0,243842.0,27566.0,651.683036135543,241.64600642100697,414.42628650014086
243842,8614,243842.0,19266.0,243842.0,27565.0,652.790094674063,241.7473823655394,415.1610513673138
243842,8644,243842.0,19269.0,243842.0,27577.0,653.8974916009811,241.82605920893775,415.86528939112213
243853,8626,243853.0,19305.0,243853.0,27583.0,654.9998643854559,241.88194209744825,416.53427777014633
243853,8660,243853.0,19249.0,243853.0,27591.0,656.0918386797928,241.9154231930109,417.16336719988414
243853,8639,243853.0,19256.0,243853.0,27572.0,657.1682174391711,241.9274355958186,417.748155861082
243853,8629,243853.0,19221.0,243853.0,27603.0,658.2240674640632,241.91905478121973,418.28454952733824
243853,8625,243853.0,19221.0,243853.0,27599.0,659.2545638973386,241.89091870341156,418.76883340325134
243853,8661,243853.0,19257.0,243853.0,27569.0,660.2547587825243,241.84281866498378,419.19780236997804
243863,8659,243863.0,19274.0,243863.0,27583.0,661.2196482288418,241.7737563989031,419.56869679358334
243863,8658,243863.0,19266.0,243863.0,27588.0,662.1444917975091,241.68243296590595,419.8789804277701
243863,8647,243863.0,19238.0,243863.0,27571.0,663.0249957155723,241.56762713920017,420.12625596483093
243863,8638,243863.0,19250.0,243863.0,27578.0,663.8572062667868,241.42810916428056,420.30824748871686
243863,8645,243863.0,19239.0,243863.0,27583.0,664.6372632547898,241.2623489688497,420.42272443865176
243863,8660,243863.0,19315.0,243863.0,27596.0,665.3612463967698,241.0684883664999,420.4675229834323
243873,8661,243873.0,19285.0,243873.0,27594.0,666.0252503636333,240.84480800627614,420.4407296367736
243873,8655,243873.0,19270.0,243873.0,27589.0,666.6255651467466,240.5903187829629,420.34086933204367
243873,8646,243873.0,19257.0,243873.0,27569.0,667.1587230781114,240.30485040613857,420.1669199293022
243873,8641,243873.0,19227.0,243873.0,27563.0,667.6213498887369,239.98862299249953,419.918094514852
243873,8639,243873.0,19243.0,243873.0,27552.0,668.0099352712289,239.64170643455913,419.5934927149622
243873,8650,243873.0,19259.0,243873.0,27578.0,668.3206667426501,239.26369336338675,419.1918315199554
243884,8663,243884.0,19277.0,243884.0,27594.0,668.5494382278396,238.85380224462398,418.7114802832232
243884,8659,243884.0,19236.0,243884.0,27599.0,668.6920334866016,238.41121634363788,418.1508323152077
243884,8654,243884.0,19252.0,243884.0,27564.0,668.7443084526195,237.9351789617466,417.5086771843153
243884,8650,243884.0,19237.0,243884.0,27577.0,668.7022066740291,237.42478830460976,416.78420950392376
243884,8672,243884.0,19286.0,243884.0,27596.0,668.5616929851584,236.8788906800285,415.9768462592444
243884,8651,243884.0,19256.0,243884.0,27576.0,668.3187836276543,236.296298710601,415.086253396022
243894,8674,243894.0,19256.0,243894.0,27561.0,667.9696425956373,235.67607353716457,414.11245014871463
243894,8645,243894.0,19225.0,243894.0,27565.0,667.5106229099204,235.01748451941552,413.0556673243534
243894,8642,243894.0,19263.0,243894.0,27551.0,666.938182115175,234.31971324668316,411.9160829895393
243894,8667,243894.0,19262.0,243894.0,27584.0,666.2487065222322,233.58174507813487,410.6937026858404
243894,8667,243894.0,19227.0,243894.0,27555.0,665.4384992995175,232.80252514114562,409.3884428569166
243894,8672,243894.0,19267.0,243894.0,27579.0,664.5040256209204,231.98101455133164,408.0002859447585
243904,8676,243904.0,19254.0,243904.0,27564.0,663.4421761885862,231.11615902945948,406.52937966159413
243904,8668,243904.0,19231.0,243904.0,27553.0,662.2504176998057,230.2069662482407,404.97606829385717
243904,8647,243904.0,19246.0,243904.0,27555.0,660.9268020240536,229.2524754054752,403.34081555843943
243904,8656,243904.0,19263.0,243904.0,27556.0,659.4697916739191,228.25164131652457,401.62407364094196
243904,8672,243904.0,19253.0,243904.0,27576.0,657.8780898398606,227.20345482764867,399.82629672552304
243904,8661,243904.0,19269.0,243904.0,27568.0,656.1507118141292,226.1072105388032,397.948155664689
243915,8645,243915.0,19253.0,243915.0,27550.0,654.2871339242998,224.96268711438424,395.9907574712212
243915,8650,243915.0,19236.0,243915.0,27549.0,652.2872387105701,223.77016937177075,393.95563283311833
243915,8632,243915.0,19219.0,243915.0,27537.0,650.1511231464046,222.53023120613483,391.84453208949867
243915,8638,243915.0,19251.0,243915.0,27523.0,647.8789338287746,221.24340076750383,389.65919961177445
243915,8651,243915.0,19202.0,243915.0,27548.0,645.470795919144,219.90998714765192,387.401197366088
243915,8640,243915.0,19270.0,243915.0,27550.0,642.9269026131956,218.53008272804834,385.0719212857988
243925,8638,243925.0,19219.0,243925.0,27554.0,640.2476659716293,217.10368653844463,382.672873137348
243925,8629,243925.0,19241.0,243925.0,27533.0,637.4337449456699,215.63087779103842,380.20593284270285
243925,8627,243925.0,19227.0,243925.0,27523.0,634.4859647486278,214.1118473352043,377.6733701469628
243925,8640,243925.0,19258.0,243925.0,27512.0,631.4052671883076,212.54689023822186,375.0776117590877
243925,8640,243925.0,19239.0,243925.0,27533.0,628.1928072845484,210.93657602161693,372.42100269229866
243925,8634,243925.0,19222.0,243925.0,27530.0,624.8501617361319,209.28192250200732,369.70580659687056
243936,8615,243936.0,19213.0,243936.0,27484.0,621.379444801329,207.58428787241928,366.9343296575819
243936,8604,243936.0,19197.0,243936.0,27502.0,617.7831919027557,205.8450255140046,364.10879359469413
243936,8607,243936.0,19213.0,243936.0,27480.0,614.0641080267688,204.06516053315244,361.23099614544566
243936,8597,243936.0,19191.0,243936.0,27507.0,610.2248872561994,202.24523369167937,358.3021292965434
243936,8602,243936.0,19252.0,243936.0,27520.0,606.2681701329041,200.38535519660124,355.3229130605083
243936,8589,243936.0,19233.0,243936.0,27510.0,602.196561861911,198.48555332613034,352.2939719009595
243946,8604,243946.0,19220.0,243946.0,27493.0,598.0126707961974,196.54625396227632,349.2161583159249
243946,8584,243946.0,19192.0,243946.0,27490.0,593.7191833056783,194.5684033081598,346.09055642406184
243946,8589,243946.0,19211.0,243946.0,27489.0,589.3189344695511,192.5531588968984,342.91830516081495
243946,8596,243946.0,19226.0,243946.0,27491.0,584.8149542656827,190.50165883890878,339.7005122276026
243946,8584,243946.0,19230.0,243946.0,27495.0,580.2105721351616,188.41519913705616,336.4383214924924
243946,8559,243946.0,19205.0,243946.0,27470.0,575.5095008965503,186.29556606641592,333.1330204771135
243956,8550,243956.0,19177.0,243956.0,27467.0,570.7156874106204,184.1450581189158,329.78601182788793
243956,8549,243956.0,19170.0,243956.0,27458.0,565.8330047534848,181.96607805558875,326.39862242128817
243956,8559,243956.0,19165.0,243956.0,27468.0,560.8650852821512,179.76060664833622,322.971940287998
243956,8552,243956.0,19201.0,243956.0,27468.0,555.815411843206,177.52994861596824,319.5068331159953
243956,8552,243956.0,19218.0,243956.0,27483.0,550.6875192738746,175.27496115908897,316.0041442487922
243956,8551,243956.0,19198.0,243956.0,27462.0,545.4851522765775,172.9966112457406,312.46495889014
243967,8531,243967.0,19158.0,243967.0,27456.0,540.2123491930015,170.69629902084483,308.8907502545516
243967,8517,243967.0,19187.0,243967.0,27451.0,534.8733969136584,168.37563969942366,305.28331455837986
243967,8523,243967.0,19195.0,243967.0,27448.0,529.4726527440105,166.03618149497632,301.6446405104253
243967,8508,243967.0,19187.0,243967.0,27452.0,524.0144051045488,163.6795229627766,297.97687109376085
243967,8518,243967.0,19185.0,243967.0,27437.0,518.5028700621953,161.30757674239385,294.2823474554779
243967,8490,243967.0,19154.0,243967.0,27432.0,512.9422345097578,158.92259918651655,290.5636235293527
243977,8484,243977.0,19143.0,243977.0,27410.0,507.3366122902135,156.5269271255753,286.8233582240548
243977,8470,243977.0,19162.0,243977.0,27403.0,501.68986253677724,154.12260180824984,283.0640830709498
243977,8475,243977.0,19152.0,243977.0,27438.0,496.00539354276583,151.71119766894,279.28801321554914
243977,8498,243977.0,19174.0,243977.0,27423.0,490.28616250297193,149.29394894857577,275.49716273015576
243977,8469,243977.0,19176.0,243977.0,27416.0,484.5349276781817,146.8720263845985,271.69366905889603
243977,8467,243977.0,19162.0,243977.0,27390.0,478.7544918235908,144.4468344079833,267.87990761691344
243987,8455,243987.0,19156.0,243987.0,27383.0,472.9476979891452,142.0201527415678,264.05826897816127
243987,8443,243987.0,19125.0,243987.0,27387.0,467.11728890302544,139.59400092901362,260.2308454689952
243987,8454,243987.0,19142.0,243987.0,27385.0,461.26580590893946,137.17032489966698,256.3992881518079
243987,8443,243987.0,19168.0,243987.0,27408.0,455.3956042689368,134.75081918220266,252.5649150801064
243987,8441,243987.0,19174.0,243987.0,27395.0,449.50896855779325,132.33717814317657,248.7290039863743
243987,8423,243987.0,19100.0,243987.0,27388.0,443.6081884334102,129.93147061153724,244.89308317329213
243998,8408,243998.0,19144.0,243998.0,27350.0,437.6954894736276,127.53603274003446,241.0589615269804
243998,8405,243998.0,19130.0,243998.0,27360.0,431.772847336355,125.15308343163255,237.22843688983005
243998,8413,243998.0,19111.0,243998.0,27368.0,425.8418470683218,122.78460461306982,233.40298831701583
243998,8414,243998.0,19141.0,243998.0,27363.0,419.9037554661823,120.43236891009626,229.58376988348357
243998,8401,243998.0,19125.0,243998.0,27344.0,413.95974572442015,118.09797907083198,225.77177242797444
243998,8391,243998.0,19096.0,243998.0,27354.0,408.0110436212367,115.78294538652236,221.96785368451998
244007,8395,244007.0,19111.0,244007.0,27343.0,402.0589223467393,113.48857440094096,218.172681289116
244007,8394,244007.0,19130.0,244007.0,27362.0,396.1047098517711,111.21579028268486,214.38677886129145
244007,8396,244007.0,19118.0,244007.0,27354.0,390.1499280724882,108.9652611815276,210.61071156363096
244007,8377,244007.0,19150.0,244007.0,27331.0,384.19647291668446,106.73774149308801,206.84527552968353
244007,8353,244007.0,19099.0,244007.0,27313.0,378.2466386584091,104.5343466852538,203.09144829312874
244007,8363,244007.0,19099.0,244007.0,27333.0,372.30293001325043,102.3565501915468,199.35011638145335
244017,8347,244017.0,19086.0,244017.0,27311.0,366.3678722860749,100.20585174190694,195.62190990903485
244017,8344,244017.0,19082.0,244017.0,27344.0,360.4439672413837,98.08339433497319,191.9072797303893
244017,8346,244017.0,19105.0,244017.0,27328.0,354.5337136649197,95.98979491385874,188.20672808745962
244017,8335,244017.0,19120.0,244017.0,27317.0,348.63965813005666,93.92528382420586,184.5210571430941
244017,8326,244017.0,19073.0,244017.0,27312.0,342.76445767170384,91.89002756192177,180.85143503225387
244017,8303,244017.0,19084.0,244017.0,27299.0,336.9108389309272,89.88420577183592,177.1992692840196
244028,8304,244028.0,19071.0,244028.0,27293.0,331.081421303429,87.90774535198695,173.56604340221466
244028,8293,244028.0,19105.0,244028.0,27302.0,325.2785294738211,85.9601406862908,169.95320155573654
244028,8298,244028.0,19115.0,244028.0,27286.0,319.5041227449134,84.0406574942655,166.36213597104472
244028,8286,244028.0,19083.0,244028.0,27286.0,313.7598390619181,82.14875031898839,162.7942263859684
244028,8280,244028.0,19020.0,244028.0,27272.0,308.0470585510319,80.284116913853,159.25081211926343
244028,8280,244028.0,19065.0,244028.0,27273.0,302.3669258049326,78.44611027302,155.73310278114167
244038,8277,244038.0,19057.0,244038.0,27262.0,296.72038146034606,76.63315186151453,152.24209436362023
244038,8262,244038.0,19074.0,244038.0,27264.0,291.10823135962283,74.84274104335924,148.77851495572622
244038,8270,244038.0,19122.0,244038.0,27246.0,285.53118850388387,73.07189683771679,145.34278183729305
244038,8259,244038.0,19076.0,244038.0,27270.0,279.9899039581555,71.31775280493076,141.9349719506365
244038,8232,244038.0,19071.0,244038.0,27240.0,274.4849866825515,69.57794492920505,138.55486037549454
244038,8247,244038.0,19062.0,244038.0,27246.0,269.0169090567879,67.85048295692468,135.2019681150944
244048,8236,244048.0,19111.0,244048.0,27269.0,263.5858972388871,66.13350596156926,131.87557872429508
244048,8247,244048.0,19098.0,244048.0,27250.0,258.19199657019516,64.42547467360771,128.57489176072147
244048,8227,244048.0,19074.0,244048.0,27252.0,252.8352432099869,62.72559421397463,125.29926653292964
244048,8222,244048.0,19058.0,244048.0,27237.0,247.51575581221022,61.03387230421069,122.04830117929987
244048,8197,244048.0,19057.0,244048.0,27239.0,242.23365617261004,59.35075428986991,118.82175721399898
244048,8191,244048.0,19001.0,244048.0,27232.0,236.98884110186344,57.67665067948025,115.61948133048142
244059,8205,244059.0,19045.0,244059.0,27233.0,231.78076337088618,56.011446234414194,112.44138113344306
244059,8220,244059.0,19092.0,244059.0,27219.0,226.60847469552857,54.354294158664175,109.2874284949456
244059,8194,244059.0,19098.0,244059.0,27231.0,221.4709489885152,52.70415072802544,106.1576520855358
244059,8195,244059.0,19052.0,244059.0,27211.0,216.36733984828726,51.06060718534292,103.05213931687842
244059,8181,244059.0,19022.0,244059.0,27187.0,211.29697601198563,49.424061709580485,99.97098091099153
244059,8179,244059.0,19041.0,244059.0,27198.0,206.25925669380177,47.79516266219704,96.91404476520518
244069,8178,244069.0,19044.0,244069.0,27210.0,201.25359860724808,46.1743062792402,93.88077945846706
244069,8163,244069.0,19035.0,244069.0,27203.0,196.27944076021362,44.56159960697832,90.87031453365921
244069,8168,244069.0,19034.0,244069.0,27212.0,191.33625442269516,42.95697701764533,87.88172602969269
244069,8140,244069.0,19038.0,244069.0,27190.0,186.42350971372156,41.36021531222852,84.91421634659554
244069,8145,244069.0,19003.0,244069.0,27187.0,181.5405725143824,39.77087776685988,81.96712347307005
244069,8148,244069.0,19023.0,244069.0,27163.0,176.6865964816351,38.18815475056738,79.03975555339184
244079,8143,244079.0,19040.0,244079.0,27200.0,171.8605558891764,36.61072639982348,76.1311904514327
244079,8145,244079.0,19063.0,244079.0,27178.0,167.06140312998633,35.03697521721995,73.2402852039379
244079,8134,244079.0,19047.0,244079.0,27195.0,162.28820924928942,33.46549803994779,70.36589539101243
244079,8114,244079.0,19014.0,244079.0,27159.0,157.5401964702654,31.895427685065528,67.50703732683257
244079,8123,244079.0,19028.0,244079.0,27162.0,152.8166384549715,30.32628099217476,64.66281906467862
244079,8121,244079.0,19074.0,244079.0,27197.0,148.1167720074733,28.757742081258613,61.832304167674124
244090,8128,244090.0,19019.0,244090.0,27182.0,143.4398902325633,27.189854390255874,59.01465635146354
244090,8124,244090.0,19015.0,244090.0,27160.0,138.78556860164656,25.623232947565356,56.20946181628153
244090,8093,244090.0,19016.0,244090.0,27161.0,134.15382561942238,24.0588273743669,53.41677193156505
244090,8084,244090.0,18964.0,244090.0,27144.0,129.54502584794272,22.497484515280433,50.63687033156339
244090,8071,244090.0,19007.0,244090.0,27151.0,124.9595536181559,20.93954339838058,47.87006393036114
244090,8084,244090.0,19002.0,244090.0,27138.0,120.39753264332222,19.384602138458547,45.116580820631896
244100,8084,244100.0,19016.0,244100.0,27142.0,115.85880401250944,17.831669263931474,42.376532548383636
244100,8069,244100.0,19035.0,244100.0,27148.0,111.3430957755437,16.279557817863605,39.64993266029512
244100,8079,244100.0,19006.0,244100.0,27135.0,106.85016555913762,14.727257152572008,36.936785683998494
244100,8053,244100.0,18994.0,244100.0,27135.0,102.37983729345717,13.174067936748457,34.23716963688304
244100,8050,244100.0,18995.0,244100.0,27123.0,97.93194824329117,11.619397195676953,31.55121896995928
244100,8032,244100.0,19021.0,244100.0,27149.0,93.50618611054654,10.062537202052425,28.87909496191662
244110,8065,244110.0,19047.0,244110.0,27122.0,89.10194573021164,8.502845122041265,26.2210771222135
244110,8049,244110.0,19006.0,244110.0,27122.0,84.71843000052661,6.940230345179657,23.57767036224419
244110,8034,244110.0,18981.0,244110.0,27106.0,80.3548999484546,5.375360612392001,20.949537693841876
244110,8017,244110.0,18992.0,244110.0,27101.0,76.01071575395821,3.8093076696444825,18.33730093594494
244110,8031,244110.0,18976.0,244110.0,27086.0,71.6851424453954,2.24308169240652,15.741326784181126
244110,8038,244110.0,18992.0,244110.0,27116.0,67.37727645888742,0.6774430038403807,13.161581196826148
244121,8033,244121.0,19002.0,244121.0,27117.0,63.08625295639524,-0.8870433470130763,10.597724100635673
244121,8025,244121.0,18988.0,244121.0,27097.0,58.81151131824436,-2.449807311253835,8.049414058780144
244121,7993,244121.0,18979.0,244121.0,27093.0,54.552847654735956,-4.010126215885407,5.516466733485117
244121,8008,244121.0,18971.0,244121.0,27093.0,50.310219948393524,-5.567209920800309,2.998751798984813
244121,8008,244121.0,18992.0,244121.0,27082.0,46.08356284408478,-7.120364978538817,0.4960650839503842
244121,7995,244121.0,18988.0,244121.0,27103.0,41.87282457741168,-8.668970691987056,-1.9918884638736927
244131,7990,244131.0,18989.0,244131.0,27079.0,37.678064143813174,-10.212277212359623,-4.465413128059936
244131,7979,244131.0,18959.0,244131.0,27073.0,33.49941645380261,-11.749292830727711,-6.924761480747236
244131,7969,244131.0,18944.0,244131.0,27053.0,29.336972015390074,-13.278975002741674,-9.37026615460286
244131,7965,244131.0,18951.0,244131.0,27071.0,25.1906419680235,-14.800642164774445,-11.802589443780505
244131,7970,244131.0,18950.0,244131.0,27097.0,21.060069175561637,-16.3142825771165,-14.222764904663848
244131,7964,244131.0,18996.0,244131.0,27082.0,16.944658233115604,-17.820507249260174,-16.6318730871223
244142,7954,244142.0,18984.0,244142.0,27072.0,12.843667732276344,-19.320128736317088,-19.030663020190218
244142,7952,244142.0,18956.0,244142.0,27062.0,8.756237306371531,-20.813691610659305,-21.419489762700664
244142,7937,244142.0,18945.0,244142.0,27052.0,4.681333286880829,-22.30143825632308,-23.798507286314532
244142,7938,244142.0,18939.0,244142.0,27036.0,0.6176635894590277,-23.78369580409438,-26.16791633147386
244142,7956,244142.0,18969.0,244142.0,27054.0,-3.436345048053056,-25.261190410691682,-28.528182233434052
244142,7943,244142.0,18983.0,244142.0,27070.0,-7.482390061461331,-26.734936742866893,-30.88005474279265
244152,7933,244152.0,18978.0,244152.0,27027.0,-11.522071595457419,-28.20578359394787,-33.224359471260186
244152,7927,244152.0,18942.0,244152.0,27031.0,-15.556845326672374,-29.674068917898495,-35.561933304990305
244152,7906,244152.0,18928.0,244152.0,27031.0,-19.588153573781312,-31.139768763497898,-37.89385149180242
244152,7921,244152.0,18943.0,244152.0,27028.0,-23.61759501268557,-32.60297212912582,-40.221604367503346
244152,7920,244152.0,18952.0,244152.0,27046.0,-27.64697914872204,-34.06415556921897,-42.547043575660155
244152,7925,244152.0,18973.0,244152.0,27045.0,-31.678174429444255,-35.52401470177574,-44.872170588569816
244162,7924,244162.0,18941.0,244162.0,27045.0,-35.71285315353049,-36.98309949698975,-47.19885449387863
244162,7899,244162.0,18925.0,244162.0,27031.0,-39.75231727930594,-38.44169045133913,-49.5286368371917
244162,7894,244162.0,18934.0,244162.0,27009.0,-43.79753460137749,-39.9000532440937,-51.86276512421591
244162,7910,244162.0,18970.0,244162.0,27039.0,-47.84929823624719,-41.35864688646649,-54.20238612795055
244162,7904,244162.0,18960.0,244162.0,27033.0,-51.90822404363723,-42.817880611618165,-56.54859945083763
244162,7890,244162.0,18945.0,244162.0,27035.0,-55.97457381848534,-44.277690671964734,-58.902247859913814
244173,7869,244173.0,18913.0,244173.0,26997.0,-60.04821386599809,-45.73748141450014,-61.26375601458727
244173,7856,244173.0,18902.0,244173.0,26997.0,-64.12884656657172,-47.19653991814681,-63.63330493010284
244173,7862,244173.0,18914.0,244173.0,26991.0,-68.2163328007124,-48.654574106054184,-66.01120454995294
244173,7862,244173.0,18940.0,244173.0,27019.0,-72.31084823084188,-50.111929133436035,-68.39809205564433
244173,7844,244173.0,18959.0,244173.0,27003.0,-76.41284308927243,-51.569289806117325,-70.7947899586083
244173,7856,244173.0,18945.0,244173.0,26993.0,-80.52298962708744,-53.027107821401785,-73.20206680208389
244183,7852,244183.0,18922.0,244183.0,26995.0,-84.64214756857405,-54.48523950808428,-75.62059591255729
244183,7841,244183.0,18912.0,244183.0,26983.0,-88.77126660469514,-55.94305916305896,-78.05105956195075
244183,7824,244183.0,18916.0,244183.0,26990.0,-92.91134530060015,-57.39982942827214,-80.49422245660892
244183,7847,244183.0,18924.0,244183.0,27002.0,-97.0635111484259,-58.854932077446364,-82.95090167818987
244183,7845,244183.0,18928.0,244183.0,26985.0,-101.2289890086397,-60.307817574485796,-85.42181281678916
244183,7827,244183.0,18926.0,244183.0,26981.0,-105.40888100602871,-61.757811037156785,-87.90743798071782
244193,7811,244193.0,18899.0,244193.0,26967.0,-109.6040634261833,-63.204005330111016,-90.40808160724288
244193,7809,244193.0,18876.0,244193.0,26968.0,-113.81535438271271,-64.64544570588905,-92.92404322980548
244193,7804,244193.0,18882.0,244193.0,26959.0,-118.04372961950583,-66.0815837604811,-95.4557635078371
244193,7804,244193.0,18911.0,244193.0,26978.0,-122.29039821642084,-67.51261622433611,-98.00386660805904
244193,7800,244193.0,18912.0,244193.0,26978.0,-126.55676447647517,-68.93936052507689,-100.56903416544051
244193,7795,244193.0,18905.0,244193.0,26961.0,-130.84435893060288,-70.36285127554987,-103.1517775895546
244204,7786,244204.0,18890.0,244204.0,26964.0,-135.15479912950133,-71.78411300142932,-105.75233130694622
244204,7776,244204.0,18903.0,244204.0,26936.0,-139.4898186266999,-73.20421835949901,-108.37074989814596
244204,7796,244204.0,18933.0,244204.0,26957.0,-143.8513074390985,-74.62430397348302,-111.00708972339754
244204,7800,244204.0,18931.0,244204.0,26970.0,-148.24118786869496,-76.04525446385969,-113.66145849768765
244204,7794,244204.0,18908.0,244204.0,26953.0,-152.66109122612835,-77.46727117704924,-116.33380532083595
244204,7785,244204.0,18862.0,244204.0,26936.0,-157.11207419868254,-78.88985175620678,-119.02371626930835
244214,7758,244214.0,18865.0,244214.0,26934.0,-161.59458528241515,-80.31233637348728,-121.73050899329786
244214,7741,244214.0,18865.0,244214.0,26927.0,-166.1087055318677,-81.73457744102998,-124.45347455486203
244214,7760,244214.0,18878.0,244214.0,26918.0,-170.65449766795285,-83.15724105234361,-127.19204189579847
244214,7753,244214.0,18894.0,244214.0,26936.0,-175.2321458170435,-84.58168349108072,-129.94584269644662
244214,7747,244214.0,18877.0,244214.0,26916.0,-179.84182112110614,-86.00963753818647,-132.7146685496349
244214,7740,244214.0,18904.0,244214.0,26924.0,-184.48354439403823,-87.4429412653833,-135.49837712771546
244224,7723,244224.0,18887.0,244224.0,26903.0,-189.15720164869367,-88.88334973821404,-138.29687686946642
244224,7730,244224.0,18846.0,244224.0,26898.0,-193.86264773782779,-90.33247814194962,-141.11022662010203
244224,7722,244224.0,18900.0,244224.0,26930.0,-198.59977264401317,-91.7919916264843,-143.93873285240187
244224,7729,244224.0,18910.0,244224.0,26929.0,-203.36844947665145,-93.26367350166694,-146.7827975752914
244224,7728,244224.0,18887.0,244224.0,26900.0,-208.16838442016723,-94.74904591274827,-149.642569540303
244224,7701,244224.0,18851.0,244224.0,26892.0,-212.99897387507707,-96.24909743987416,-152.51784800212994
244235,7670,244235.0,18862.0,244235.0,26879.0,-217.85938534265938,-97.76458505316216,-155.40835843017862
244235,7691,244235.0,18852.0,244235.0,26885.0,-222.74891469031547,-99.2965117177223,-158.3140682872875
244235,7681,244235.0,18865.0,244235.0,26896.0,-227.66725960220094,-100.84632833143053,-161.23528587059894
244235,7702,244235.0,18925.0,244235.0,26890.0,-232.6144340124357,-102.41575472798087,-164.17251995486123
244235,7700,244235.0,18896.0,244235.0,26892.0,-237.5904409094149,-104.00619541758573,-167.126256057101
244235,7664,244235.0,18853.0,244235.0,26867.0,-242.59496862375215,-105.61818916355605,-170.0968496579465
244245,7656,244245.0,18843.0,244245.0,26891.0,-247.62739594939046,-107.25155815735704,-173.0845687463962
244245,7658,244245.0,18871.0,244245.0,26864.0,-252.68708587338028,-108.90600785775172,-176.08963997061545
244245,7660,244245.0,18868.0,244245.0,26898.0,-257.7735793811752,-110.58137408057846,-179.112191130663
244245,7675,244245.0,18891.0,244245.0,26871.0,-262.8864829396965,-112.27736759152987,-182.15210012659486
244245,7646,244245.0,18840.0,244245.0,26862.0,-268.0252014551071,-113.99325940326247,-185.20887380774082
244245,7636,244245.0,18846.0,244245.0,26850.0,-273.18881016179375,-115.72790748532907,-188.2817368400598
244255,7615,244255.0,18846.0,244255.0,26861.0,-278.3762233152561,-117.48008443688809,-191.369849659431
244255,7625,244255.0,18834.0,244255.0,26847.0,-283.5864877037791,-119.2487317695323,-194.4724045946868
244255,7635,244255.0,18861.0,244255.0,26850.0,-288.81889340882503,-121.03299310635595,-197.58859816375036
244255,7625,244255.0,18858.0,244255.0,26844.0,-294.072798636789,-122.83207085326731,-200.71760706423328
244255,7611,244255.0,18832.0,244255.0,26827.0,-299.34739530511536,-124.6450075585231,-203.85860836032685
244255,7593,244255.0,18812.0,244255.0,26829.0,-304.6416946808055,-126.47071375947263,-207.01087222560614
244266,7592,244266.0,18829.0,244266.0,26830.0,-309.95472095790046,-128.30831520120566,-210.1738746519601
244266,7593,244266.0,18845.0,244266.0,26838.0,-315.28568412668596,-130.1573762664538,-213.34728039389364
244266,7599,244266.0,18851.0,244266.0,26825.0,-320.6339601510249,-132.01770013414767,-216.5307921192354
244266,7587,244266.0,18836.0,244266.0,26815.0,-325.9989128849753,-133.8889525765188,-219.7240479144001
244266,7557,244266.0,18816.0,244266.0,26806.0,-331.3797864326252,-135.770520219759,-222.92669262629846
244266,7557,244266.0,18798.0,244266.0,26799.0,-336.7758561801637,-137.6617429175751,-226.13855627068637
244276,7558,244276.0,18820.0,244276.0,26805.0,-342.18668877048526,-139.56229967089754,-229.3597958338865
244276,7566,244276.0,18837.0,244276.0,26813.0,-347.6121973678438,-141.47233932149058,-232.59088916881234
244276,7569,244276.0,18842.0,244276.0,26816.0,-353.0524315168443,-143.3921840137006,-235.83244657857
244276,7567,244276.0,18820.0,244276.0,26818.0,-358.5072635004967,-145.32191707529628,-239.08493114321152
244276,7535,244276.0,18816.0,244276.0,26801.0,-363.9761776207763,-147.2612580314673,-242.34844360083434
244276,7529,244276.0,18804.0,244276.0,26794.0,-369.4583364499033,-149.209742965144,-245.6226891475937
244286,7526,244286.0,18820.0,244286.0,26797.0,-374.95284514575974,-151.1669370307146,-248.9070917521583
244286,7530,244286.0,18829.0,244286.0,26776.0,-380.45891434833527,-153.13244033631318,-252.20091028695765
244286,7518,244286.0,18818.0,244286.0,26781.0,-385.9758124057215,-155.10567911464423,-255.50333220980144
244286,7498,244286.0,18789.0,244286.0,26762.0,-391.50280123365485,-157.08576956507787,-258.8135954121149
244286,7507,244286.0,18789.0,244286.0,26746.0,-397.03920963687904,-159.07171139893043,-262.13115647270064
244286,7487,244286.0,18772.0,244286.0,26765.0,-402.58454293198565,-161.0627755258632,-265.4558931979183
244297,7489,244297.0,18778.0,244297.0,26771.0,-408.13852770859023,-163.05881675567903,-268.7881552831809
244297,7495,244297.0,18825.0,244297.0,26768.0,-413.70110388843693,-165.0603253539443,-272.12853763031063
244297,7479,244297.0,18807.0,244297.0,26785.0,-419.2723377852799,-167.06807782049304,-275.47755440031267
