c_ts,c_val,d_ts,d_val,e_ts,e_val,c_val_filtered,d_val_filtered,e_val_filtered
413721.0,3411.0,413721.0,9842.0,413721.0,28626.0,27.834541395797203,0.7035542845055787,17.230754824407526
413721.0,3429.0,413721.0,9853.0,413721.0,28661.0,44.627884332775366,6.4024869781888825,26.76603170739679
413721.0,3474.0,413721.0,9901.0,413721.0,28730.0,61.64767521934971,12.119588482952551,36.35713342401033
413721.0,3511.0,413721.0,9911.0,413721.0,28724.0,78.84939728134322,17.832803897928933,45.97161114112306
413721.0,3521.0,413721.0,9912.0,413721.0,28722.0,96.18800692858596,23.520943055250015,55.578416031580915
413721.0,3548.0,413721.0,9887.0,413721.0,28701.0,113.61835712479129,29.163979731178415,65.14808276429228
413731.0,3564.0,413731.0,9941.0,413731.0,28742.0,131.09539383300884,34.7429590658211,74.65239520652742
413731.0,3608.0,413731.0,9939.0,413731.0,28770.0,148.57428889281306,40.23996715129347,84.0641788362532
413731.0,3632.0,413731.0,9968.0,413731.0,28766.0,166.01070708635473,45.638442673959844,93.35753243243192
413731.0,3652.0,413731.0,9939.0,413731.0,28782.0,183.36118860466115,50.92353167802055,102.50814981938024
413731.0,3673.0,413731.0,9922.0,413731.0,28756.0,200.5834641877616,56.08208326436318,111.49335406678418
413731.0,3682.0,413731.0,9937.0,413731.0,28783.0,217.63660315678112,61.10224420824993,120.29186112211153
413741.0,3696.0,413741.0,9943.0,413741.0,28813.0,234.48101796621273,65.97303743224786,128.8835710984961
413741.0,3734.0,413741.0,9973.0,413741.0,28814.0,251.07841766943392,70.68428899190587,137.24967527714296
413741.0,3766.0,413741.0,9987.0,413741.0,28821.0,267.3919159752647,75.22689583635182,145.37292769621732
413741.0,3770.0,413741.0,9975.0,413741.0,28822.0,283.38634977480655,79.59319991963494,153.23773992554945
413741.0,3781.0,413741.0,9945.0,413741.0,28832.0,299.02852601046555,83.7771026615385,160.83009756096135
413741.0,3794.0,413741.0,9960.0,413741.0,28848.0,314.2871996999214,87.77373382358768,168.1374871492927
413752.0,3837.0,413752.0,10005.0,413752.0,28862.0,329.13298656163545,91.57908986256642,175.14894935073164
413752.0,3851.0,413752.0,9994.0,413752.0,28863.0,343.53849659827506,95.19015594606742,181.8552324352433
413752.0,3852.0,413752.0,9993.0,413752.0,28865.0,357.47861471140277,98.60529319805022,188.248894688215
413752.0,3872.0,413752.0,9961.0,413752.0,28849.0,370.93062365162547,101.82430439211356,194.32422650678825
413752.0,3867.0,413752.0,9958.0,413752.0,28851.0,383.8741134527888,104.8480425566454,200.0769762400391
413752.0,3880.0,413752.0,9967.0,413752.0,28875.0,396.2908076052923,107.67787617886896,205.50403983532618
413762.0,3908.0,413762.0,9953.0,413762.0,28893.0,408.16440579466854,110.31533275795613,210.60340179994023
413762.0,3933.0,413762.0,10000.0,413762.0,28871.0,419.4806137918257,112.76200364070164,215.37433365110698
413762.0,3925.0,413762.0,10015.0,413762.0,28898.0,430.2273772128454,115.01976068479053,219.81752005325424
413762.0,3921.0,413762.0,9977.0,413762.0,28871.0,440.3949958158101,117.09119160443697,223.93499326603836
413762.0,3932.0,413762.0,9964.0,413762.0,28876.0,449.97592444852296,118.97972169710062,227.72996492544397
413762.0,3922.0,413762.0,9985.0,413762.0,28885.0,458.9644471460225,120.68923366130403,231.20659556941666
413772.0,3976.0,413772.0,9980.0,413772.0,28882.0,467.3564775912607,122.22372572985984,234.36983334890851
413772.0,3968.0,413772.0,10014.0,413772.0,28907.0,475.14964600066287,123.58735202808347,237.22542095409872
413772.0,3959.0,413772.0,9984.0,413772.0,28872.0,482.34353900186613,124.78466491755103,239.77996941075145
413772.0,3973.0,413772.0,9986.0,413772.0,28885.0,488.939720215885,125.82074146575829,242.040904284376
413772.0,3952.0,413772.0,9979.0,413772.0,28876.0,494.9415012019601,126.70104211468848,244.01623955801375
413772.0,3969.0,413772.0,9963.0,413772.0,28846.0,500.35367116035087,127.43113292711274,245.71429429826486
413783.0,3977.0,413783.0,9981.0,413783.0,28886.0,505.1822945709195,128.01642908738887,247.1433903054106
413783.0,3986.0,413783.0,9998.0,413783.0,28893.0,509.43468184896676,128.4620991163896,248.31172273531038
413783.0,3993.0,413783.0,10002.0,413783.0,28906.0,513.1195105623519,128.77326116768583,249.227619962284
413783.0,3958.0,413783.0,9964.0,413783.0,28861.0,516.2468804356135,128.955238508765,249.89986659759194
413783.0,3984.0,413783.0,9973.0,413783.0,28866.0,518.8281359161494,129.0134773717212,250.33761381852912
413783.0,4008.0,413783.0,10010.0,413783.0,28889.0,520.8756725151482,128.9532888988623,250.55001636106002
413793.0,3988.0,413793.0,9997.0,413793.0,28894.0,522.4030523758496,128.77992498441722,250.54613621455832
413793.0,3964.0,413793.0,9988.0,413793.0,28891.0,523.4251574902066,128.498896772698,250.33519771973312
413793.0,3983.0,413793.0,9980.0,413793.0,28865.0,523.9579875243604,128.11604590141224,249.9267667708559
413793.0,3965.0,413793.0,9955.0,413793.0,28865.0,524.0183385481002,127.63729343369124,249.33059681077788
413793.0,3969.0,413793.0,9962.0,413793.0,28878.0,523.623643450653,127.06826259305913,248.55633761093728
413793.0,3960.0,413793.0,10002.0,413793.0,28880.0,522.7918702930632,126.41404022104861,247.61344650753097
413803.0,3962.0,413803.0,9986.0,413803.0,28889.0,521.5414072051371,125.67934795556054,246.51135237577824
413803.0,3975.0,413803.0,9986.0,413803.0,28877.0,519.8910182428879,124.86892059232778,245.25966359203215
413803.0,3955.0,413803.0,9993.0,413803.0,28863.0,517.8599080625138,123.98768268246687,243.86822944721098
413803.0,3948.0,413803.0,9980.0,413803.0,28863.0,515.4677551670541,123.04075154194891,242.34699803585067
413803.0,3946.0,413803.0,9968.0,413803.0,28849.0,512.7345835866244,122.03338388833237,240.70578363181656
413803.0,3952.0,413803.0,9989.0,413803.0,28869.0,509.68061604030515,120.97084570303241,238.95410512864015
413814.0,3937.0,413814.0,9985.0,413814.0,28877.0,506.32625971167,119.85836502364383,237.10121867539348
413814.0,3928.0,413814.0,9958.0,413814.0,28846.0,502.6921086324951,118.70120594700198,235.1563057490808
413814.0,3908.0,413814.0,9961.0,413814.0,28841.0,498.7988021414386,117.50458440158128,233.1285026869809
413814.0,3897.0,413814.0,9972.0,413814.0,28841.0,494.6667407770154,116.27342956753344,231.02665198264663
413814.0,3897.0,413814.0,9953.0,413814.0,28836.0,490.31577833978616,115.01227814535146,228.85906241983298
413814.0,3903.0,413814.0,9970.0,413814.0,28838.0,485.76505541195985,113.72529322046805,226.63343763445886
413824.0,3906.0,413824.0,9976.0,413824.0,28856.0,481.0330667846598,112.41631448629256,224.35692831541394
413824.0,3880.0,413824.0,9963.0,413824.0,28852.0,476.1378326550501,111.08899230642153,222.03632600718595
413824.0,3884.0,413824.0,9956.0,413824.0,28832.0,471.096936218423,109.74687799623088,219.67828899986083
413824.0,3876.0,413824.0,9967.0,413824.0,28829.0,465.9274210000477,108.39335282946271,217.2893511673014
413824.0,3867.0,413824.0,9986.0,413824.0,28831.0,460.64571735016193,107.03161623963733,214.87573984602037
413824.0,3873.0,413824.0,9982.0,413824.0,28837.0,455.26763397804467,105.66492131144723,212.4432757460711
413834.0,3868.0,413834.0,9968.0,413834.0,28838.0,449.80840387471386,104.29685913179499,209.99746195019438
413834.0,3850.0,413834.0,9953.0,413834.0,28824.0,444.2827679219123,102.93138226396891,207.54362622319294
413834.0,3816.0,413834.0,9940.0,413834.0,28817.0,438.7049095119594,101.5725328253425,205.08693836515224
413834.0,3834.0,413834.0,9923.0,413834.0,28797.0,433.0881506591605,100.22403896497188,202.6322437482325
413834.0,3824.0,413834.0,9949.0,413834.0,28821.0,427.44469246672327,98.88896175008396,200.1838342945337
413834.0,3836.0,413834.0,9971.0,413834.0,28833.0,421.78565046107025,97.56964733298926,197.745419823176
413845.0,3838.0,413845.0,9968.0,413845.0,28833.0,416.12129737845237,96.26808953272533,195.32042105032173
413845.0,3812.0,413845.0,9953.0,413845.0,28807.0,410.46131471688045,94.98635669623195,192.91229675121625
413845.0,3807.0,413845.0,9936.0,413845.0,28803.0,404.81486046460935,93.72666790844967,190.52455082010573
413845.0,3808.0,413845.0,9938.0,413845.0,28819.0,399.1904425718295,92.49113467270021,188.16052030097046
413845.0,3803.0,413845.0,9964.0,413845.0,28820.0,393.59583666777064,91.28153226025609,185.8233267588868
413845.0,3814.0,413845.0,9962.0,413845.0,28827.0,388.0381732183875,90.09939814877085,183.51608599865358
413855.0,3803.0,413855.0,9939.0,413855.0,28794.0,382.52412708890074,88.94630166531843,181.24210889734985
413855.0,3784.0,413855.0,9953.0,413855.0,28819.0,377.06006964137646,87.82391039473234,179.00488682872088
413855.0,3776.0,413855.0,9921.0,413855.0,28786.0,371.65202732323473,86.73382901683551,176.80796073379452
413855.0,3771.0,413855.0,9936.0,413855.0,28770.0,366.30549106215136,85.67738253596154,174.65474657993684
413855.0,3762.0,413855.0,9929.0,413855.0,28794.0,361.0252644793129,84.65543289713375,172.54826245644173
413855.0,3778.0,413855.0,9982.0,413855.0,28806.0,355.81543776450314,83.66841108227692,170.4910081393897
413866.0,3768.0,413866.0,9945.0,413866.0,28810.0,350.6795072945224,82.71667191418032,168.48523582696924
413866.0,3770.0,413866.0,9935.0,413866.0,28778.0,345.62058419639743,81.80081942409842,166.5332942381749
413866.0,3748.0,413866.0,9937.0,413866.0,28777.0,340.64152781836606,80.92162230994678,164.63762911344824
413866.0,3774.0,413866.0,9952.0,413866.0,28809.0,335.74496555489134,80.07977242970182,162.80057360529014
413866.0,3761.0,413866.0,9962.0,413866.0,28794.0,330.9333729707657,79.27591938148475,161.02437774511654
413866.0,3744.0,413866.0,9943.0,413866.0,28795.0,326.20924044557034,78.51091436505341,159.31146679147164
413876.0,3748.0,413876.0,9955.0,413876.0,28765.0,321.575113766232,77.78594962562187,157.66452364175638
413876.0,3726.0,413876.0,9936.0,413876.0,28772.0,317.0334822776895,77.10251857307108,156.08627380512334
413876.0,3718.0,413876.0,9923.0,413876.0,28753.0,312.5866258141658,76.46226736810492,154.5791731995563
413876.0,3725.0,413876.0,9921.0,413876.0,28766.0,308.2364486641543,75.8667318581852,153.14517879931037
413876.0,3717.0,413876.0,9950.0,413876.0,28783.0,303.98440370627884,75.31710956815343,151.785705265433
413876.0,3738.0,413876.0,9950.0,413876.0,28789.0,299.83159367419285,74.81434192300674,150.50184237359238
413886.0,3716.0,413886.0,9934.0,413886.0,28780.0,295.7789847427023,74.35940547747481,149.29470569611755
413886.0,3718.0,413886.0,9902.0,413886.0,28760.0,291.8275785938464,73.95336083123512,148.16560479948902
413886.0,3700.0,413886.0,9931.0,413886.0,28769.0,287.97841745859137,73.59702765648512,147.11591559064897
413886.0,3720.0,413886.0,9975.0,413886.0,28782.0,284.2325030490686,73.29079982936193,146.14691580548953
413886.0,3697.0,413886.0,9956.0,413886.0,28775.0,280.5907973156072,73.03503169028238,145.25984263148348
413886.0,3691.0,413886.0,9930.0,413886.0,28772.0,277.0542544028138,72.83054210454841,144.45605504689513
413897.0,3687.0,413897.0,9927.0,413897.0,28755.0,273.6237360419687,72.67858669468937,143.73704584710606
413897.0,3673.0,413897.0,9920.0,413897.0,28753.0,270.2998548709473,72.5804419012552,143.10426283931105
413897.0,3687.0,413897.0,9927.0,413897.0,28735.0,267.0828650540363,72.53707843197708,142.55883832138232
413897.0,3686.0,413897.0,9930.0,413897.0,28773.0,263.9726750598411,72.54906167495096,142.10137655606158
413897.0,3692.0,413897.0,9956.0,413897.0,28763.0,260.9690129436048,72.6166486902632,141.73199348246106
413897.0,3692.0,413897.0,9935.0,413897.0,28752.0,258.0716571142023,72.74003116752989,141.45054388571668
413907.0,3669.0,413907.0,9930.0,413907.0,28735.0,255.2805889071227,72.91950375318143,141.25666365573892
413907.0,3670.0,413907.0,9912.0,413907.0,28754.0,252.59595768735295,73.15534120222938,141.149546190439
413907.0,3674.0,413907.0,9925.0,413907.0,28766.0,250.01792931211347,73.44749160300994,141.1278152014287
413907.0,3669.0,413907.0,9947.0,413907.0,28772.0,247.5466304390531,73.79541351075582,141.18971250997015
413907.0,3662.0,413907.0,9936.0,413907.0,28763.0,245.18219676939802,74.19822091412861,141.33339850389146
413907.0,3651.0,413907.0,9919.0,413907.0,28757.0,242.9247572529189,74.65488106310372,141.5570779413398
413917.0,3640.0,413917.0,9911.0,413917.0,28735.0,240.7742915148841,75.16411508279813,141.85887021039636
413917.0,3642.0,413917.0,9927.0,413917.0,28764.0,238.73042728445188,75.72409652222163,142.23655362126254
413917.0,3644.0,413917.0,9906.0,413917.0,28757.0,236.79230329712766,76.33226155802383,142.6874468772329
413917.0,3653.0,413917.0,9950.0,413917.0,28758.0,234.95859279869336,76.98530174490749,143.20850874584636
413917.0,3655.0,413917.0,9942.0,413917.0,28769.0,233.22767148756162,77.67933939560658,143.79646376334236
413917.0,3650.0,413917.0,9948.0,413917.0,28759.0,231.59782267856255,78.41024724421032,144.44787312017095
413928.0,3630.0,413928.0,9934.0,413928.0,28781.0,230.06732391133178,79.17385955006677,145.15921154319915
413928.0,3633.0,413928.0,9943.0,413928.0,28760.0,228.63432803727216,79.96594727899563,145.92695635531064
413928.0,3647.0,413928.0,9967.0,413928.0,28777.0,227.2966966906553,80.78217403310543,146.74764227955689
413928.0,3639.0,413928.0,9949.0,413928.0,28767.0,226.05201893126434,81.61823321336752,147.6178618634547
413928.0,3632.0,413928.0,9954.0,413928.0,28756.0,224.89774024949173,82.47001882245999,148.5342217537433
413928.0,3625.0,413928.0,9952.0,413928.0,28769.0,223.831165235553,83.33362565044001,149.49323064763215
413938.0,3611.0,413938.0,9934.0,413938.0,28749.0,222.84929959152055,84.20522956843887,150.49115950593276
413938.0,3625.0,413938.0,9934.0,413938.0,28753.0,221.94865299716386,85.08089055639165,151.52391056945697
413938.0,3648.0,413938.0,9947.0,413938.0,28776.0,221.12520125161439,85.95632311301478,152.58690946697863
413938.0,3635.0,413938.0,9998.0,413938.0,28780.0,220.37462922563378,86.82692356866097,153.67518446871043
413938.0,3622.0,413938.0,9971.0,413938.0,28774.0,219.69260178685823,87.68821835912647,154.7836289841227
413938.0,3622.0,413938.0,9945.0,413938.0,28762.0,219.0747511819708,88.53628616354045,155.90714188119082
413948.0,3624.0,413948.0,9934.0,413948.0,28779.0,218.51649839007587,89.36760562047087,157.0405405570115
413948.0,3644.0,413948.0,9994.0,413948.0,28776.0,218.01301012227958,90.17862623588263,158.17847560430192
413948.0,3635.0,413948.0,10001.0,413948.0,28808.0,217.55937053976197,90.96583970566527,159.31553747053275
413948.0,3605.0,413948.0,10002.0,413948.0,28796.0,217.15073511704577,91.72639628780036,160.4465370673748
413948.0,3630.0,413948.0,9964.0,413948.0,28793.0,216.7822219379179,92.45855600762094,161.56677027226166
413948.0,3622.0,413948.0,9966.0,413948.0,28778.0,216.44872676217503,93.16154777949177,162.67203983059417
413959.0,3618.0,413959.0,9933.0,413959.0,28778.0,216.1449170097319,93.83505303948849,163.7584348099294
413959.0,3618.0,413959.0,9955.0,413959.0,28782.0,215.86526721445915,94.47867616501772,164.8220782101793
413959.0,3635.0,413959.0,9973.0,413959.0,28789.0,215.60405314683533,95.09167287622185,165.85901689841936
413959.0,3637.0,413959.0,9971.0,413959.0,28786.0,215.35546667949467,95.67307222421721,166.8652620898804
413959.0,3626.0,413959.0,9954.0,413959.0,28774.0,215.11382931721937,96.22193315394492,167.8368307477911
413959.0,3631.0,413959.0,9962.0,413959.0,28796.0,214.8736961333378,96.73736735463524,168.76969493950824
413969.0,3628.0,413969.0,9962.0,413969.0,28784.0,214.6298280327515,97.21839723359284,169.65975462938562
413969.0,3634.0,413969.0,9977.0,413969.0,28801.0,214.37717620004034,97.66392224396992,170.50291498648699
413969.0,3629.0,413969.0,9973.0,413969.0,28787.0,214.11092342277564,98.07284419104718,171.29518131897942
413969.0,3626.0,413969.0,9948.0,413969.0,28802.0,213.8265176930897,98.44416536954932,172.0327090306452
413969.0,3598.0,413969.0,9965.0,413969.0,28796.0,213.5195950327888,98.77687743237912,172.7118370593561
413969.0,3605.0,413969.0,9947.0,413969.0,28782.0,213.18572490717534,99.06974220969059,173.32909682589863
413979.0,3636.0,413979.0,9959.0,413979.0,28784.0,212.82017871834967,99.32115271858223,173.8811077679333
413979.0,3613.0,413979.0,9978.0,413979.0,28808.0,212.41801091345113,99.52912499798106,174.36444052055955
413979.0,3635.0,413979.0,9987.0,413979.0,28800.0,211.97431929392718,99.69149367386659,174.7756826040446
413979.0,3620.0,413979.0,9975.0,413979.0,28788.0,211.48440540936468,99.80624250964995,175.11161970873445
413979.0,3608.0,413979.0,9934.0,413979.0,28780.0,210.94380078773423,99.87160371580737,175.36921698625983
413979.0,3608.0,413979.0,9967.0,413979.0,28782.0,210.34814903389423,99.88575204361072,175.54539235593282
413990.0,3627.0,413990.0,9980.0,413990.0,28803.0,209.69305322157902,99.8465166787541,175.63686322224893
413990.0,3628.0,413990.0,10022.0,413990.0,28810.0,208.9741376365419,99.75161287673083,175.6402670516919
413990.0,3644.0,413990.0,9976.0,413990.0,28820.0,208.1873300819586,99.59922948612483,175.55249722502262
413990.0,3626.0,413990.0,9982.0,413990.0,28793.0,207.32915846408795,99.38835114698618,175.37099523369344
413990.0,3605.0,413990.0,9970.0,413990.0,28798.0,206.39684322388234,99.11859260999009,175.09377266074264
413990.0,3602.0,413990.0,9946.0,413990.0,28787.0,205.38807644409508,98.78984269595028,174.71920957301722
414000.0,3605.0,414000.0,9955.0,414000.0,28780.0,204.30067997585425,98.40190409415709,174.24582973824715
414000.0,3614.0,414000.0,9999.0,414000.0,28796.0,203.13245229015155,97.95428685753618,173.67214783632042
414000.0,3607.0,414000.0,9984.0,414000.0,28836.0,201.88124662357194,97.44643487490839,172.99673846824325
414000.0,3602.0,414000.0,9971.0,414000.0,28794.0,200.5450841876197,96.8781485589204,172.2186160519308
414000.0,3604.0,414000.0,9966.0,414000.0,28771.0,199.12216691973293,96.24967557378903,171.33747840554983
414000.0,3600.0,414000.0,9963.0,414000.0,28780.0,197.61084447837192,95.56148984448626,170.35341739968825
414009.0,3591.0,414009.0,9985.0,414009.0,28799.0,196.0095942268488,94.81413322759528,169.26652774085048
414009.0,3601.0,414009.0,9989.0,414009.0,28802.0,194.31698997373155,94.00831815356015,168.07694409900085
414009.0,3598.0,414009.0,9970.0,414009.0,28751.0,192.53170606329553,93.14517586957297,166.78506170651383
414009.0,3580.0,414009.0,9969.0,414009.0,28779.0,190.65256697915683,92.22634467639502,165.39143449395667
414009.0,3578.0,414009.0,9937.0,414009.0,28771.0,188.67849679502882,91.2537686035815,163.89647824393455
414009.0,3597.0,414009.0,9916.0,414009.0,28783.0,186.6083948181056,90.22926516026818,162.3004158689708
414020.0,3585.0,414020.0,9969.0,414020.0,28774.0,184.44116816255263,89.15405638063444,160.60343849170226
414020.0,3589.0,414020.0,9984.0,414020.0,28780.0,182.1759030733425,88.02874272997605,158.80584149604607
414020.0,3580.0,414020.0,9959.0,414020.0,28778.0,179.8119686137429,86.85381494588825,156.90810316080146
414020.0,3567.0,414020.0,9955.0,414020.0,28761.0,177.34899607910316,85.63004608272595,154.91092407717952
414020.0,3563.0,414020.0,9948.0,414020.0,28774.0,174.78675641686334,84.35840554119002,152.81519090659867
414020.0,3578.0,414020.0,9973.0,414020.0,28770.0,172.1250307791668,83.03986944398353,150.62193528538103
414030.0,3574.0,414030.0,9973.0,414030.0,28779.0,169.3636502781813,81.67549361909086,148.33241129311608
414030.0,3573.0,414030.0,9960.0,414030.0,28762.0,166.50268673563335,80.26666618551162,145.9482347855558
414030.0,3552.0,414030.0,9933.0,414030.0,28757.0,163.54257181994925,78.8151774598344,143.47142062814555
414030.0,3556.0,414030.0,9920.0,414030.0,28743.0,160.48402921404653,77.32291083782269,140.90425706525963
414030.0,3546.0,414030.0,9914.0,414030.0,28746.0,157.3279270555182,75.79133673086469,138.24910620383883
414030.0,3544.0,414030.0,9938.0,414030.0,28749.0,154.07518419095715,74.22115555722667,135.5082802937029
414040.0,3558.0,414040.0,9951.0,414040.0,28746.0,150.72676866653347,72.61233259019795,132.68406658234196
414040.0,3552.0,414040.0,9974.0,414040.0,28761.0,147.2838228263857,70.9645145208407,129.77886221758536
414040.0,3527.0,414040.0,9964.0,414040.0,28730.0,143.74782189344776,69.27758488482635,126.7953260304946
414040.0,3535.0,414040.0,9948.0,414040.0,28723.0,140.12055147891698,67.55203456270227,123.73637915007069
414040.0,3528.0,414040.0,9933.0,414040.0,28728.0,136.40396468238595,65.78894498061003,120.6050017463568
414040.0,3519.0,414040.0,9958.0,414040.0,28740.0,132.60012311946235,63.98974184404847,117.40409900956207
414051.0,3529.0,414051.0,9952.0,414051.0,28730.0,128.71120967068637,62.15610792425469,114.13662852165878
414051.0,3512.0,414051.0,9933.0,414051.0,28716.0,124.739564314185,60.290101397012364,110.80577441070787
414051.0,3486.0,414051.0,9909.0,414051.0,28705.0,120.68767011577967,58.39410933931158,107.41491117803238
414051.0,3499.0,414051.0,9921.0,414051.0,28697.0,116.55796990078741,56.47050680034806,103.96738745017124
414051.0,3480.0,414051.0,9920.0,414051.0,28690.0,112.35264709276564,54.52135326193691,100.46629751617374
414051.0,3491.0,414051.0,9926.0,414051.0,28705.0,108.07355682263628,52.54836926018349,96.9143599429205
414061.0,3506.0,414061.0,9951.0,414061.0,28710.0,103.72231937907708,50.55313239043501,93.3139982833204
414061.0,3489.0,414061.0,9937.0,414061.0,28726.0,99.30056784203794,48.53740156946319,89.66764604761191
414061.0,3475.0,414061.0,9904.0,414061.0,28682.0,94.81017175527859,46.50334891428786,85.97807955409405
414061.0,3466.0,414061.0,9889.0,414061.0,28687.0,90.25320203007351,44.4533693127699,82.24846287635704
414061.0,3477.0,414061.0,9942.0,414061.0,28701.0,85.63176451167766,42.38966594107042,78.4821493166974
414061.0,3464.0,414061.0,9938.0,414061.0,28681.0,80.94796927125523,40.31425721792774,74.68261976167314
414071.0,3462.0,414071.0,9920.0,414071.0,28678.0,76.2040193641833,38.22942738447455,70.85356590587612
414071.0,3460.0,414071.0,9891.0,414071.0,28653.0,71.40227125285651,36.137936624668974,66.99882681557908
414071.0,3440.0,414071.0,9886.0,414071.0,28650.0,66.54524051175468,34.042697211397524,63.122142285865834
414071.0,3433.0,414071.0,9878.0,414071.0,28635.0,61.63553047586129,31.946275812766935,59.22686250546545
414071.0,3431.0,414071.0,9884.0,414071.0,28645.0,56.67568172663573,29.85057399610755,55.315735333896924
414071.0,3443.0,414071.0,9904.0,414071.0,28659.0,51.668104228164,27.75678601266698,51.3908925070223
414082.0,3434.0,414082.0,9910.0,414082.0,28651.0,46.615211429012675,25.66563582520419,47.45407515522757
414082.0,3415.0,414082.0,9896.0,414082.0,28650.0,41.5196024463371,23.577737510288244,43.50692249816987
414082.0,3401.0,414082.0,9882.0,414082.0,28631.0,36.38404333383761,21.493765331356457,39.55109699919532
414082.0,3401.0,414082.0,9872.0,414082.0,28646.0,31.21125544272013,19.414303942381082,35.588247946962554
414082.0,3411.0,414082.0,9911.0,414082.0,28628.0,26.00377589284369,17.33963975981692,31.619977329740323
414082.0,3383.0,414082.0,9900.0,414082.0,28632.0,20.764013512299243,15.269855729639602,27.647864612231302
414092.0,3389.0,414092.0,9918.0,414092.0,28629.0,15.494311956134766,13.20520721729666,23.673493697693118
414092.0,3407.0,414092.0,9846.0,414092.0,28608.0,10.196961236011816,11.146347962427683,19.698455714640005
414092.0,3363.0,414092.0,9831.0,414092.0,28593.0,4.874307336940319,9.093989202985185,15.724244603698224
414092.0,3355.0,414092.0,9888.0,414092.0,28596.0,-0.47122228993754334,7.048206465014232,11.752007003384222
414092.0,3356.0,414092.0,9855.0,414092.0,28607.0,-5.8373696885203685,5.008169084122045,7.782366972940565
414092.0,3367.0,414092.0,9888.0,414092.0,28621.0,-11.222244025591976,2.972428048055619,3.8155521716181227
414103.0,3363.0,414103.0,9892.0,414103.0,28601.0,-16.62419275711352,0.9392845880894924,-0.1482695956591158
414103.0,3334.0,414103.0,9868.0,414103.0,28577.0,-22.04157710027704,-1.0929142418964801,-4.108799651983048
414103.0,3328.0,414103.0,9859.0,414103.0,28594.0,-27.472785781311757,-3.125676394891684,-8.065739613324695
414103.0,3351.0,414103.0,9882.0,414103.0,28593.0,-32.91640818927755,-5.160520704851734,-12.01894494520198
414103.0,3329.0,414103.0,9884.0,414103.0,28581.0,-38.3712168863492,-7.199019440664117,-15.9683499802411
414103.0,3333.0,414103.0,9888.0,414103.0,28577.0,-43.83597368829419,-9.242553452232656,-19.91386070286609
414113.0,3321.0,414113.0,9866.0,414113.0,28566.0,-49.309322441255745,-11.29206925184522,-23.855393392049024
414113.0,3287.0,414113.0,9833.0,414113.0,28575.0,-54.789845439211604,-13.348149641004483,-27.792957940443017
414113.0,3300.0,414113.0,9842.0,414113.0,28558.0,-60.2762774558019,-15.411430230726978,-31.72667454881494
414113.0,3280.0,414113.0,9870.0,414113.0,28547.0,-65.76774994146132,-17.482977326675837,-35.65678653100139
414113.0,3296.0,414113.0,9862.0,414113.0,28558.0,-71.2638691254499,-19.564216341240325,-39.58374815093316
414113.0,3281.0,414113.0,9870.0,414113.0,28573.0,-76.76463007514616,-21.656570572342787,-43.50822356360277
414123.0,3282.0,414123.0,9855.0,414123.0,28539.0,-82.27028410332673,-23.76121504991002,-47.43088959005658
414123.0,3265.0,414123.0,9847.0,414123.0,28526.0,-87.78126476010584,-25.8790607595688,-51.35235395960524
414123.0,3261.0,414123.0,9826.0,414123.0,28525.0,-93.29821692585477,-28.010930756045326,-55.27339744122588
414123.0,3273.0,414123.0,9854.0,414123.0,28554.0,-98.82203994942864,-30.157810759625633,-59.195191764655505
414123.0,3269.0,414123.0,9847.0,414123.0,28554.0,-104.35378898674719,-32.32092124272448,-63.119116894759486
414123.0,3242.0,414123.0,9848.0,414123.0,28539.0,-109.89448915396576,-34.50155228659624,-67.04633952145932
414134.0,3219.0,414134.0,9811.0,414134.0,28524.0,-115.445166021358,-36.700964727466,-70.97759794332856
414134.0,3236.0,414134.0,9823.0,414134.0,28472.0,-121.00713896114306,-38.92058623092427,-74.9134179426438
414134.0,3225.0,414134.0,9843.0,414134.0,28504.0,-126.58221709389068,-41.1622614304769,-78.85463820347564
414134.0,3231.0,414134.0,9828.0,414134.0,28492.0,-132.1726156560532,-43.42820395618378,-82.80282431804264
414134.0,3259.0,414134.0,9892.0,414134.0,28533.0,-137.78069796572794,-45.7206543424106,-86.76021112944093
414134.0,3216.0,414134.0,9836.0,414134.0,28486.0,-143.40862184525758,-48.04140159793067,-90.72932311604902
414144.0,3205.0,414144.0,9816.0,414144.0,28487.0,-149.05814744194168,-50.3915103801108,-94.71275237027359
414144.0,3196.0,414144.0,9817.0,414144.0,28488.0,-154.73083101286528,-52.77160179706739,-98.71327622779273
414144.0,3194.0,414144.0,9834.0,414144.0,28493.0,-160.42832939182625,-55.18230531952473,-102.73398864635234
414144.0,3191.0,414144.0,9849.0,414144.0,28514.0,-166.1525095055145,-57.62428073557194,-106.77815585355395
414144.0,3177.0,414144.0,9839.0,414144.0,28483.0,-171.90542157265094,-60.09786881553495,-110.84890139942806
414144.0,3177.0,414144.0,9817.0,414144.0,28484.0,-177.6892836581015,-62.60281993397162,-114.94902002230987
414154.0,3168.0,414154.0,9800.0,414154.0,28471.0,-183.50649775454593,-65.1383961033586,-119.08105379534541
414154.0,3159.0,414154.0,9789.0,414154.0,28472.0,-189.35965887095978,-67.70377154945695,-123.24745237711133
414154.0,3160.0,414154.0,9788.0,414154.0,28474.0,-195.2515610990339,-70.29845055151861,-127.45063312545142
414154.0,3176.0,414154.0,9824.0,414154.0,28488.0,-201.18513581660386,-72.92243948646416,-131.692886355327
414154.0,3148.0,414154.0,9782.0,414154.0,28463.0,-207.1632531343211,-75.57609619009446,-135.9761641153338
414154.0,3157.0,414154.0,9807.0,414154.0,28460.0,-213.18854029698582,-78.25993186174796,-140.3019568072108
414165.0,3136.0,414165.0,9783.0,414165.0,28429.0,-219.26335253929687,-80.97459620675102,-144.67142150812492
414165.0,3118.0,414165.0,9771.0,414165.0,28424.0,-225.38985583896988,-83.72097699496038,-149.0857073064629
414165.0,3146.0,414165.0,9813.0,414165.0,28451.0,-231.57014459052294,-86.50030270959914,-153.54624488350726
414165.0,3119.0,414165.0,9813.0,414165.0,28463.0,-237.80622818561915,-89.3140074357857,-158.0546724601495
414165.0,3115.0,414165.0,9814.0,414165.0,28426.0,-244.09989250506692,-92.16327902728591,-162.612438538667
414165.0,3106.0,414165.0,9782.0,414165.0,28414.0,-250.4526730345296,-95.04871346685442,-167.22061969888642
414175.0,3092.0,414175.0,9776.0,414175.0,28400.0,-256.86594966663796,-97.9704012040342,-171.8801901792312
414175.0,3080.0,414175.0,9773.0,414175.0,28412.0,-263.3410619546466,-100.92827343546915,-176.59237691394316
414175.0,3096.0,414175.0,9785.0,414175.0,28418.0,-269.8794042985618,-103.92234202935322,-181.35873572369053
414175.0,3083.0,414175.0,9798.0,414175.0,28424.0,-276.4823775744692,-106.9526347699861,-186.18092433501334
414175.0,3093.0,414175.0,9800.0,414175.0,28431.0,-283.1511809745762,-110.0188846109489,-191.06033812663827
414175.0,3066.0,414175.0,9759.0,414175.0,28407.0,-289.8866119848638,-113.12025423627878,-195.9977947364457
414185.0,3068.0,414185.0,9758.0,414185.0,28399.0,-296.68900398326997,-116.25542175947848,-200.9934354573574
414185.0,3064.0,414185.0,9801.0,414185.0,28412.0,-303.5582609609914,-119.42286164289908,-206.0468211374607
414185.0,3059.0,414185.0,9786.0,414185.0,28390.0,-310.49384162669384,-122.620770428881,-211.156981758469
414185.0,3050.0,414185.0,9768.0,414185.0,28398.0,-317.49467063768935,-125.84669602115974,-216.32236506683722
414185.0,3036.0,414185.0,9748.0,414185.0,28382.0,-324.5590923295868,-129.09746150273259,-221.54081178399855
414185.0,3002.0,414185.0,9744.0,414185.0,28341.0,-331.68497221397337,-132.3694888038633,-226.80965053761247
414196.0,3003.0,414196.0,9716.0,414196.0,28345.0,-338.86998272416326,-135.65920662055694,-232.12602186306412
414196.0,2985.0,414196.0,9727.0,414196.0,28329.0,-346.11193363936223,-138.96340103401812,-237.4873139825545
414196.0,2997.0,414196.0,9768.0,414196.0,28357.0,-353.4089408409084,-142.2793551399811,-242.8913745134251
414196.0,3017.0,414196.0,9741.0,414196.0,28347.0,-360.7593221664492,-145.60457137246556,-248.33637069438095
414196.0,2977.0,414196.0,9738.0,414196.0,28331.0,-368.1612669712704,-148.93636398068307,-253.82050462013984
414196.0,2969.0,414196.0,9715.0,414196.0,28328.0,-375.6126234874705,-152.27180136466194,-259.34189519964946
414206.0,2979.0,414206.0,9718.0,414206.0,28327.0,-383.1109922487863,-155.60795586016096,-264.8986410645991
414206.0,2971.0,414206.0,9730.0,414206.0,28355.0,-390.65378971574506,-158.9421109634371,-270.4887750995225
414206.0,2965.0,414206.0,9742.0,414206.0,28324.0,-398.2380959984004,-162.2716933618666,-276.10998518680174
414206.0,2944.0,414206.0,9722.0,414206.0,28326.0,-405.8605235372816,-165.59399057091983,-281.7593501512045
414206.0,2929.0,414206.0,9696.0,414206.0,28288.0,-413.51727885526924,-168.9060144849932,-287.4333662073757
414206.0,2897.0,414206.0,9677.0,414206.0,28280.0,-421.20441141916933,-172.20476996650123,-293.12825388680767
414216.0,2912.0,414216.0,9694.0,414216.0,28288.0,-428.91814854582697,-175.48772619568874,-298.8403269933975
414216.0,2902.0,414216.0,9695.0,414216.0,28307.0,-436.6550877979723,-178.75305779833042,-304.5661019360638
414216.0,2907.0,414216.0,9729.0,414216.0,28282.0,-444.41211544927455,-181.99946762533924,-310.3020504187336
414216.0,2896.0,414216.0,9703.0,414216.0,28293.0,-452.18619279046595,-185.2257531428117,-316.0443113031556
414216.0,2880.0,414216.0,9703.0,414216.0,28247.0,-459.9742066811408,-188.43046253517036,-321.7886390112552
414216.0,2872.0,414216.0,9671.0,414216.0,28258.0,-467.7729674209629,-191.6118996002057,-327.53059466482233
414227.0,2880.0,414227.0,9721.0,414227.0,28245.0,-475.5792690466503,-194.76832570554063,-333.26581415374477
414227.0,2868.0,414227.0,9706.0,414227.0,28264.0,-483.3898360958883,-197.89792983335306,-338.99010233372417
414227.0,2847.0,414227.0,9694.0,414227.0,28259.0,-491.2012014653412,-200.99853034377378,-344.69926242712086
414227.0,2836.0,414227.0,9661.0,414227.0,28215.0,-499.00973403174305,-204.06748611467808,-350.38888944464196
414227.0,2812.0,414227.0,9650.0,414227.0,28199.0,-506.8118505518173,-207.10205795092975,-356.0545041764701
414227.0,2816.0,414227.0,9651.0,414227.0,28210.0,-514.6042682731786,-210.09993095343614,-361.6920096805884
414237.0,2800.0,414237.0,9647.0,414237.0,28199.0,-522.3841668283562,-213.0595478277941,-367.2979988835289
414237.0,2807.0,414237.0,9670.0,414237.0,28189.0,-530.1492109476375,-215.9801479698082,-372.8697636677864
414237.0,2806.0,414237.0,9686.0,414237.0,28214.0,-537.8974462247686,-218.86152249637703,-378.4052180454
414237.0,2803.0,414237.0,9664.0,414237.0,28202.0,-545.6270902744004,-221.70359250686028,-383.90272538852037
414237.0,2782.0,414237.0,9677.0,414237.0,28198.0,-553.3363286287375,-224.50610200196977,-389.3608216931486
414237.0,2783.0,414237.0,9649.0,414237.0,28189.0,-561.0232550707293,-227.2685752219955,-394.77804944629946
414247.0,2776.0,414247.0,9671.0,414247.0,28182.0,-568.6859018242927,-229.99040282536794,-400.15296083468814
414247.0,2773.0,414247.0,9651.0,414247.0,28179.0,-576.3222099094927,-232.67090109660816,-405.4841689201718
414247.0,2756.0,414247.0,9644.0,414247.0,28189.0,-583.929951869804,-235.3093401551911,-410.7703415958927
414247.0,2740.0,414247.0,9629.0,414247.0,28172.0,-591.5067384807676,-237.90507272786047,-416.0100918232873
414247.0,2718.0,414247.0,9638.0,414247.0,28154.0,-599.0501843897378,-240.4577614823853,-421.2018957359593
414247.0,2739.0,414247.0,9629.0,414247.0,28140.0,-606.5581295531393,-242.96752685427788,-426.34422686134366
414258.0,2719.0,414258.0,9665.0,414258.0,28184.0,-614.0286898907289,-245.43489800030594,-431.4357466351713
414258.0,2726.0,414258.0,9671.0,414258.0,28160.0,-621.4601109183881,-247.86050211732206,-436.47517889384574
414258.0,2715.0,414258.0,9633.0,414258.0,28171.0,-628.8506025092505,-250.2446378210031,-441.46093112526
414258.0,2714.0,414258.0,9649.0,414258.0,28145.0,-636.1982175779527,-252.58713326446096,-446.3908571478514
414258.0,2695.0,414258.0,9613.0,414258.0,28124.0,-643.5007707010006,-254.88755981899445,-451.262319122433
414258.0,2709.0,414258.0,9666.0,414258.0,28167.0,-650.7558068565703,-257.1454491948149,-456.07238504546103
414268.0,2697.0,414268.0,9677.0,414268.0,28156.0,-657.9605313124771,-259.3601598640273,-460.8177874210491
414268.0,2676.0,414268.0,9641.0,414268.0,28146.0,-665.111694672204,-261.5304110165903,-465.49457642533287
414268.0,2670.0,414268.0,9659.0,414268.0,28107.0,-672.2056072101733,-263.65398393226235,-470.09795336345405
414268.0,2667.0,414268.0,9606.0,414268.0,28101.0,-679.2382805778534,-265.7278619911226,-474.6225698920574
414268.0,2656.0,414268.0,9611.0,414268.0,28104.0,-686.2055067700445,-267.7486394011551,-479.06299769732857
414268.0,2651.0,414268.0,9598.0,414268.0,28106.0,-693.1028522187161,-269.7130186243099,-483.41396202967877
414278.0,2654.0,414278.0,9647.0,414278.0,28129.0,-699.9256319094628,-271.61809102405675,-487.6702259399141
414278.0,2636.0,414278.0,9667.0,414278.0,28127.0,-706.668849498819,-273.4610689492995,-491.82623062200014
414278.0,2651.0,414278.0,9637.0,414278.0,28129.0,-713.3271137037427,-275.23863124929835,-495.8756681001079
414278.0,2631.0,414278.0,9621.0,414278.0,28068.0,-719.8945392213446,-276.9465339529255,-499.8112879785388
414278.0,2629.0,414278.0,9606.0,414278.0,28086.0,-726.3646505684266,-278.57982418440736,-503.62516916406497
414278.0,2630.0,414278.0,9610.0,414278.0,28101.0,-732.7303376018717,-280.1333033013674,-507.3091451407061
414289.0,2637.0,414289.0,9636.0,414289.0,28097.0,-738.9837759110445,-281.60176990873316,-510.8548386701766
414289.0,2612.0,414289.0,9621.0,414289.0,28080.0,-745.1162556499867,-282.97990327728013,-514.2534053432686
414289.0,2596.0,414289.0,9610.0,414289.0,28112.0,-751.1181214357977,-284.2620504183508,-517.4953829032611
414289.0,2592.0,414289.0,9594.0,414289.0,28052.0,-756.9789531130979,-285.44227518589867,-520.5706527010443
414289.0,2605.0,414289.0,9620.0,414289.0,28067.0,-762.6877569919784,-286.51460482932947,-523.4685479918758
414289.0,2592.0,414289.0,9597.0,414289.0,28073.0,-768.2329230254579,-287.47315039273394,-526.1781255889011
414299.0,2590.0,414299.0,9619.0,414299.0,28078.0,-773.6020535154729,-288.31205865392997,-528.6882531372589
414299.0,2564.0,414299.0,9624.0,414299.0,28068.0,-778.7819106176554,-289.025403050861,-530.9874293896518
414299.0,2571.0,414299.0,9592.0,414299.0,28049.0,-783.7585397105883,-289.60705628420124,-533.0636838996143
414299.0,2553.0,414299.0,9595.0,414299.0,28041.0,-788.5174375151319,-290.05073704168115,-534.9047426869449
414299.0,2550.0,414299.0,9616.0,414299.0,28049.0,-793.0436702985335,-290.35023711263364,-536.4983125295414
414299.0,2563.0,414299.0,9638.0,414299.0,28068.0,-797.3219304883814,-290.49941423302505,-537.832190836999
414310.0,2550.0,414310.0,9620.0,414310.0,28057.0,-801.3364775386208,-290.49183551075396,-538.8940901983287
414310.0,2533.0,414310.0,9572.0,414310.0,28045.0,-805.0710404444688,-290.320581608784,-539.6714309640568
414310.0,2526.0,414310.0,9597.0,414310.0,28031.0,-808.5088969295286,-289.97859235348324,-540.1513977242362
414310.0,2521.0,414310.0,9587.0,414310.0,28024.0,-811.6331035219522,-289.4591836486237,-540.3212398512852
414310.0,2523.0,414310.0,9570.0,414310.0,28012.0,-814.4266686153511,-288.7563048660805,-540.1686283127306
414310.0,2526.0,414310.0,9597.0,414310.0,28026.0,-816.8725800166947,-287.86466441848336,-539.6819436908777
414320.0,2520.0,414320.0,9601.0,414320.0,28049.0,-818.9537320517178,-286.7797722762107,-538.8503541441119
414320.0,2520.0,414320.0,9617.0,414320.0,28063.0,-820.6528519406099,-285.4977437737907,-537.6635602383219
414320.0,2492.0,414320.0,9603.0,414320.0,28016.0,-821.9525332545636,-284.0150105605833,-536.1114377048123
414320.0,2509.0,414320.0,9603.0,414320.0,28019.0,-822.8354154614875,-282.3282039308308,-534.184068199625
414320.0,2508.0,414320.0,9622.0,414320.0,28061.0,-823.2843583429939,-280.43420660277064,-531.8720936322906
414320.0,2512.0,414320.0,9588.0,414320.0,28014.0,-823.28243375519,-278.3302131819336,-529.1668520262956
414330.0,2491.0,414330.0,9625.0,414330.0,28035.0,-822.8128526622626,-276.0137994082005,-526.0603538987309
414330.0,2502.0,414330.0,9590.0,414330.0,28023.0,-821.8590384563354,-273.48303063138883,-522.5454515636
414330.0,2474.0,414330.0,9585.0,414330.0,28023.0,-820.4048349628125,-270.7366278049245,-518.6160801916985
414330.0,2475.0,414330.0,9622.0,414330.0,28038.0,-818.434790976118,-267.774219388915,-514.2674150286678
414330.0,2506.0,414330.0,9658.0,414330.0,28034.0,-815.9344307766323,-264.5963371935868,-509.49594294054845
414330.0,2499.0,414330.0,9642.0,414330.0,28066.0,-812.8902743503057,-261.2039254724564,-504.29941606163504
414341.0,2512.0,414341.0,9637.0,414341.0,28067.0,-809.2896219440972,-257.5978671575265,-498.67667551619405
414341.0,2490.0,414341.0,9619.0,414341.0,28051.0,-805.120425164799,-253.7790088544777,-492.62746063968166
414341.0,2510.0,414341.0,9605.0,414341.0,28071.0,-800.3713785977033,-249.74857933562862,-486.1524202754751
414341.0,2520.0,414341.0,9632.0,414341.0,28082.0,-795.0320501991448,-245.50867365605268,-479.25324925362565
414341.0,2507.0,414341.0,9701.0,414341.0,28092.0,-789.0928909529672,-241.06236167719874,-471.9326768274599
414341.0,2516.0,414341.0,9653.0,414341.0,28097.0,-782.545257691567,-236.41319629680214,-464.19433939155385
414351.0,2506.0,414351.0,9656.0,414351.0,28103.0,-775.3815910481364,-231.56472233289378,-456.0427175033218
414351.0,2515.0,414351.0,9641.0,414351.0,28082.0,-767.595667867491,-226.5206133021592,-447.483220062207
414351.0,2515.0,414351.0,9666.0,414351.0,28104.0,-759.1828372479922,-221.28512230101887,-438.52244383080233
414351.0,2526.0,414351.0,9642.0,414351.0,28112.0,-750.1402060077453,-215.86335712630245,-429.16845633969103
414351.0,2546.0,414351.0,9691.0,414351.0,28135.0,-740.4667312232862,-210.26136735044867,-419.4308692306937
414351.0,2560.0,414351.0,9685.0,414351.0,28169.0,-730.1631733861432,-204.4860654444817,-409.3206572535886
414361.0,2578.0,414361.0,9710.0,414361.0,28169.0,-719.2319304471425,-198.54496556380312,-398.8498136733165
414361.0,2584.0,414361.0,9673.0,414361.0,28158.0,-707.6768620047939,-192.44597857350615,-388.0310886285986
414361.0,2575.0,414361.0,9701.0,414361.0,28158.0,-695.5032431967167,-186.19750389316474,-376.8780994460808
414361.0,2620.0,414361.0,9748.0,414361.0,28215.0,-682.7178764999451,-179.80857505836053,-365.4056344082395
414361.0,2624.0,414361.0,9722.0,414361.0,28239.0,-669.329140681996,-173.28865398314582,-353.6295970568998
414361.0,2639.0,414361.0,9750.0,414361.0,28214.0,-655.3468593049822,-166.64728005131937,-341.5665682924558
414372.0,2645.0,414372.0,9745.0,414372.0,28227.0,-640.7822090953558,-159.89395419121584,-329.23361513115333
414372.0,2653.0,414372.0,9766.0,414372.0,28250.0,-625.6478054725603,-153.03813822777752,-316.6485277187509
414372.0,2673.0,414372.0,9738.0,414372.0,28268.0,-609.9578697572746,-146.08925789976192,-303.82999633014015
414372.0,2694.0,414372.0,9764.0,414372.0,28300.0,-593.7283420579304,-139.0568387519238,-290.797478859157
414372.0,2711.0,414372.0,9797.0,414372.0,28313.0,-576.9768685415171,-131.950645076922,-277.5709039007575
414372.0,2747.0,414372.0,9824.0,414372.0,28344.0,-559.7226868551221,-124.78046542369638,-264.17034843439683
414382.0,2748.0,414382.0,9777.0,414382.0,28304.0,-541.9864617428401,-117.55567589950155,-250.61584731602304
414382.0,2763.0,414382.0,9788.0,414382.0,28338.0,-523.7901916578724,-110.28519413699962,-236.92754034792154
414382.0,2800.0,414382.0,9809.0,414382.0,28352.0,-505.15725248223265,-102.97787826271157,-223.12602068573457
414382.0,2823.0,414382.0,9830.0,414382.0,28406.0,-486.11238133962803,-95.6427533412844,-209.23240835308195
414382.0,2858.0,414382.0,9836.0,414382.0,28393.0,-466.6814540360017,-88.28882823094968,-195.26802677220408
414382.0,2852.0,414382.0,9821.0,414382.0,28422.0,-446.8912253191755,-80.92487896883667,-181.25406613399582
414392.0,2884.0,414392.0,9818.0,414392.0,28406.0,-426.76925980013016,-73.55954040301059,-167.21153040537178
414392.0,2903.0,414392.0,9820.0,414392.0,28444.0,-406.34402231287197,-66.20166733432147,-153.1613924101387
414392.0,2934.0,414392.0,9846.0,414392.0,28452.0,-385.6449062328844,-58.86066132625493,-139.1247154784824
414392.0,2952.0,414392.0,9873.0,414392.0,28488.0,-364.70213407116665,-51.54648564259922,-125.12258515734538
414392.0,3010.0,414392.0,9894.0,414392.0,28507.0,-343.5465739127921,-44.269327533285946,-111.17586648879839
414392.0,3013.0,414392.0,9903.0,414392.0,28515.0,-322.2094383427187,-37.03911599183877,-97.30491366938793
414403.0,3041.0,414403.0,9877.0,414403.0,28499.0,-300.72198021288364,-29.865222501447136,-83.52945604899628
414403.0,3061.0,414403.0,9897.0,414403.0,28541.0,-279.11537851792417,-22.756542775042817,-69.86877313782952
414403.0,3091.0,414403.0,9970.0,414403.0,28573.0,-257.4207344425279,-15.721631343788289,-56.3418321620492
414403.0,3132.0,414403.0,9907.0,414403.0,28610.0,-235.66897419809962,-8.768429322218225,-42.96700506002719
414403.0,3131.0,414403.0,9916.0,414403.0,28621.0,-213.8906434748501,-1.9039999357633803,-29.761493825098967
414403.0,3140.0,414403.0,9896.0,414403.0,28586.0,-192.1158252346363,4.8651334743517225,-16.740957391225948
414413.0,3176.0,414413.0,9941.0,414413.0,28612.0,-170.37432353722704,11.532429683773728,-3.919677467492079
414413.0,3207.0,414413.0,9940.0,414413.0,28631.0,-148.6958351730661,18.09116343482711,8.689002295056468
414413.0,3233.0,414413.0,9956.0,414413.0,28652.0,-127.10984707443566,24.534624810692748,21.072506627807456
414413.0,3264.0,414413.0,9988.0,414413.0,28656.0,-105.64538401215668,30.856401030894233,33.219163299613115
414413.0,3273.0,414413.0,9970.0,414413.0,28657.0,-84.33080394750829,37.050655886183165,45.1182924083767
414413.0,3316.0,414413.0,9991.0,414413.0,28682.0,-63.19368866916932,43.11232606863797,56.76012319398768
414423.0,3326.0,414423.0,9955.0,414423.0,28672.0,-42.260757966548226,49.037078758570715,68.13567228574061
414423.0,3356.0,414423.0,10019.0,414423.0,28722.0,-21.557759900045653,54.82111562922461,79.23670107902973
414423.0,3387.0,414423.0,10001.0,414423.0,28710.0,-1.1093605867093288,60.461147206213326,90.05580515068675
414423.0,3399.0,414423.0,10025.0,414423.0,28766.0,19.06098757026814,65.95462472514623,100.58664205104202
414423.0,3430.0,414423.0,9975.0,414423.0,28738.0,38.931177746599474,71.29986532453685,110.82421069106493
414423.0,3454.0,414423.0,9990.0,414423.0,28711.0,58.480547013372245,76.49576305242118,120.764907303369
414434.0,3457.0,414434.0,9979.0,414434.0,28737.0,77.68996408248609,81.54125371414551,130.40611124786795
414434.0,3469.0,414434.0,9987.0,414434.0,28761.0,96.54180596609615,86.43488775465474,139.7456751721695
414434.0,3509.0,414434.0,10029.0,414434.0,28773.0,115.01980191175545,91.17469132719813,148.78186602125737
414434.0,3523.0,414434.0,10035.0,414434.0,28785.0,133.1089880333696,95.75838642804365,157.5136254277308
414434.0,3541.0,414434.0,10032.0,414434.0,28789.0,150.79584197402784,100.18382040437973,165.9407690799295
414434.0,3553.0,414434.0,10035.0,414434.0,28788.0,168.06837952564666,104.44921635202343,174.0640198678339
414444.0,3562.0,414444.0,10045.0,414444.0,28807.0,184.9161043642921,108.5531594738826,181.8849294537822
414444.0,3592.0,414444.0,10068.0,414444.0,28816.0,201.32989628812055,112.49459872881559,189.40582585910767
414444.0,3605.0,414444.0,10069.0,414444.0,28813.0,217.30197186656108,116.27302976119293,196.62985177744605
414444.0,3615.0,414444.0,10084.0,414444.0,28823.0,232.8259339888486,119.88875998155385,203.56097211785516
414444.0,3627.0,414444.0,10036.0,414444.0,28816.0,247.89677295380545,123.3430170142912,210.20387580049038
414444.0,3633.0,414444.0,10043.0,414444.0,28815.0,262.51075455199293,126.63768194144143,216.5638020349498
414454.0,3644.0,414454.0,10041.0,414454.0,28833.0,276.6652499467366,129.77475861167284,222.64633747894993
414454.0,3675.0,414454.0,10070.0,414454.0,28826.0,290.35859854680973,132.75602417769102,228.45728732134057
414454.0,3667.0,414454.0,10109.0,414454.0,28850.0,303.590084908721,135.58316435910785,234.00266058612084
414454.0,3698.0,414454.0,10109.0,414454.0,28854.0,316.3599649666809,138.2583306369919,239.288737091903
414454.0,3697.0,414454.0,10060.0,414454.0,28842.0,328.6694566198887,140.7846417233788,244.3221612326082
414454.0,3709.0,414454.0,10066.0,414454.0,28859.0,340.5207108610473,143.16607473394276,249.1099308352704
414465.0,3727.0,414465.0,10086.0,414465.0,28860.0,351.916763409536,145.40694428833683,253.6593031420311
414465.0,3739.0,414465.0,10104.0,414465.0,28882.0,362.86151535164026,147.511687833284,257.9778038734594
414465.0,3764.0,414465.0,10101.0,414465.0,28862.0,373.3598195929536,149.4851128780877,262.07333711565235
414465.0,3756.0,414465.0,10110.0,414465.0,28884.0,383.41762240499213,151.33270327865836,265.95423186707046
414465.0,3743.0,414465.0,10089.0,414465.0,28840.0,393.0419636097056,153.06072335245784,269.62912987570485
414465.0,3764.0,414465.0,10057.0,414465.0,28851.0,402.2407117657558,154.67603262655916,273.10666997862864
414475.0,3770.0,414475.0,10047.0,414475.0,28885.0,411.02225674255226,156.18555030863627,276.3951244955847
414475.0,3778.0,414475.0,10105.0,414475.0,28895.0,419.3954043026092,157.5956869895594,279.50239821593954
414475.0,3798.0,414475.0,10087.0,414475.0,28880.0,427.3694076660155,158.9122938107481,282.4363795939275
414475.0,3796.0,414475.0,10096.0,414475.0,28879.0,434.95403661214357,160.14103579989109,285.20512987115694
414475.0,3780.0,414475.0,10079.0,414475.0,28879.0,442.1595846586047,161.28760635366507,287.8167419017916
414475.0,3785.0,414475.0,10080.0,414475.0,28882.0,448.9966521069176,162.3576207849294,290.2791375754847
414485.0,3814.0,414485.0,10104.0,414485.0,28886.0,455.4758361679769,163.35645385762768,292.59997154789795
414485.0,3810.0,414485.0,10090.0,414485.0,28879.0,461.60765769488023,164.28925183300328,294.7865985272754
414485.0,3824.0,414485.0,10083.0,414485.0,28898.0,467.4027019225573,165.1610257632194,296.8460472073618
414485.0,3802.0,414485.0,10094.0,414485.0,28884.0,472.87167943636575,165.97660123381775,298.78502287071785
414485.0,3809.0,414485.0,10090.0,414485.0,28880.0,478.02526536877224,166.74050938974955,300.6098959384339
414485.0,3815.0,414485.0,10090.0,414485.0,28884.0,482.8738237382332,167.45696479777797,302.3265791124424
414496.0,3823.0,414496.0,10080.0,414496.0,28891.0,487.427235151068,168.1298348854167,303.9403859979283
414496.0,3848.0,414496.0,10103.0,414496.0,28928.0,491.6949347918071,168.76256034704807,305.45608957756195
414496.0,3847.0,414496.0,10069.0,414496.0,28881.0,495.686119909381,169.3581093656658,306.87817834208437
414496.0,3837.0,414496.0,10101.0,414496.0,28886.0,499.4099585248654,169.91893316096048,308.21094565300285
414496.0,3836.0,414496.0,10086.0,414496.0,28905.0,502.87557847786866,170.4469166978119,309.4582604140185
414496.0,3813.0,414496.0,10119.0,414496.0,28920.0,506.0918081849384,170.94345399423597,310.6234580605034
414506.0,3855.0,414506.0,10136.0,414506.0,28919.0,509.0668630960299,171.40972891523097,311.70959054164274
414506.0,3858.0,414506.0,10114.0,414506.0,28920.0,511.8082750544953,171.8471245026723,312.719723533878
414506.0,3851.0,414506.0,10102.0,414506.0,28909.0,514.3231229849383,172.25743700434174,313.65702984387093
414506.0,3874.0,414506.0,10118.0,414506.0,28897.0,516.6182590839469,172.64272253960246,314.5246728300805
414506.0,3824.0,414506.0,10075.0,414506.0,28908.0,518.7003319596722,173.0050252620811,315.325568786117
414506.0,3864.0,414506.0,10079.0,414506.0,28909.0,520.5756125708798,173.3460658821632,316.06221234522656
414516.0,3879.0,414516.0,10115.0,414516.0,28903.0,522.2498413146925,173.66690667829278,316.7366558818821
414516.0,3872.0,414516.0,10123.0,414516.0,28906.0,523.7283975959548,173.9679693561018,317.3505153378369
414516.0,3863.0,414516.0,10124.0,414516.0,28899.0,525.0165711076116,174.24946238491216,317.9049113401652
414516.0,3863.0,414516.0,10099.0,414516.0,28911.0,526.1195541889618,174.51171388939667,318.4004022247483
414516.0,3865.0,414516.0,10093.0,414516.0,28907.0,527.0422643722346,174.75508629221875,318.8369777366505
414516.0,3873.0,414516.0,10130.0,414516.0,28947.0,527.7892499167556,174.97970340106951,319.21418219630505
414527.0,3865.0,414527.0,10133.0,414527.0,28936.0,528.3647105538204,175.1854634798404,319.53143188926646
414527.0,3882.0,414527.0,10097.0,414527.0,28920.0,528.7725523480939,175.3723221105386,319.78835467508543
414527.0,3864.0,414527.0,10085.0,414527.0,28915.0,529.01643808982,175.54028225558037,319.98481791865913
414527.0,3879.0,414527.0,10041.0,414527.0,28891.0,529.0998128550027,175.68885272557904,320.12062451936373
414527.0,3862.0,414527.0,10103.0,414527.0,28913.0,529.02588235529,175.81636968379823,320.19514012943046
414527.0,3883.0,414527.0,10145.0,414527.0,28924.0,528.7975824181556,175.91986320266565,320.2071207273595
414537.0,3887.0,414537.0,10130.0,414537.0,28948.0,528.4176346095527,175.99572391540386,320.15490651413256
414537.0,3873.0,414537.0,10147.0,414537.0,28950.0,527.8887020703859,176.04052428721675,320.03687896125587
414537.0,3847.0,414537.0,10120.0,414537.0,28912.0,527.2134167990478,176.05137130935515,319.85182286223824
414537.0,3872.0,414537.0,10116.0,414537.0,28933.0,526.3941386591563,176.0258372669639,319.59890202154503
414537.0,3871.0,414537.0,10144.0,414537.0,28940.0,525.4327536353842,175.96175199432426,319.27744896805103
414537.0,3890.0,414537.0,10148.0,414537.0,28937.0,524.330792560274,175.85719465829382,318.8869714411699
414548.0,3897.0,414548.0,10141.0,414548.0,28943.0,523.0897650177435,175.7107559703408,318.4273250793024
414548.0,3861.0,414548.0,10124.0,414548.0,28916.0,521.7114493355091,175.52170661889613,317.89877912439556
414548.0,3854.0,414548.0,10116.0,414548.0,28914.0,520.1978613667129,175.2898412630774,317.3018678906382
414548.0,3865.0,414548.0,10081.0,414548.0,28917.0,518.5509202181698,175.01508310983013,316.63710893974513
414548.0,3870.0,414548.0,10098.0,414548.0,28924.0,516.7722317968361,174.69698265227814,315.90482674768015
414548.0,3863.0,414548.0,10139.0,414548.0,28905.0,514.8631702265642,174.33441211198885,315.1051547028933
414558.0,3886.0,414558.0,10152.0,414558.0,28935.0,512.8250587600188,173.92582999011918,314.23806769569546
414558.0,3879.0,414558.0,10134.0,414558.0,28925.0,510.6593793097719,173.46991541329302,313.3034594604506
414558.0,3869.0,414558.0,10099.0,414558.0,28919.0,508.3679923400755,172.9658781839949,312.3012990737323
414558.0,3868.0,414558.0,10139.0,414558.0,28902.0,505.9532092199157,172.4132300608845,311.23165816829635
414558.0,3871.0,414558.0,10158.0,414558.0,28942.0,503.4177311428655,171.81160822003844,310.0945906507769
414558.0,3867.0,414558.0,10143.0,414558.0,28945.0,500.7646346504439,171.16107184629755,308.8902190712096
414568.0,3863.0,414568.0,10103.0,414568.0,28926.0,497.99741986231606,170.4623922442786,307.61909037660456
414568.0,3851.0,414568.0,10090.0,414568.0,28909.0,495.12001203388365,169.71676577831434,306.2823497534204
414568.0,3838.0,414568.0,10096.0,414568.0,28905.0,492.13665157028754,168.9251641338316,304.8815079078679
414568.0,3845.0,414568.0,10123.0,414568.0,28912.0,489.0517087990272,168.08793910167637,303.4181093540119
414568.0,3838.0,414568.0,10126.0,414568.0,28904.0,485.8695589558729,167.20494898936045,301.893591056194
414568.0,3834.0,414568.0,10155.0,414568.0,28932.0,482.59457188535737,166.27600832312248,300.3093374495041
414579.0,3849.0,414579.0,10163.0,414579.0,28935.0,479.2311576277708,165.30142406501426,298.6669115543082
414579.0,3844.0,414579.0,10131.0,414579.0,28930.0,475.78389203561187,164.28244632774823,296.9684074966068
414579.0,3834.0,414579.0,10114.0,414579.0,28906.0,472.2577000146781,163.2213340622109,295.2166592731724
414579.0,3829.0,414579.0,10123.0,414579.0,28919.0,468.6579282720072,162.12099317844417,293.4151458180575
414579.0,3813.0,414579.0,10162.0,414579.0,28948.0,464.99025479442116,160.9847030774037,291.5678836938284
414579.0,3830.0,414579.0,10140.0,414579.0,28896.0,461.26055833259767,159.8163200549674,289.67956633103347
414589.0,3815.0,414589.0,10082.0,414589.0,28889.0,457.4748893687932,158.62052034900202,287.75559553570355
414589.0,3798.0,414589.0,10081.0,414589.0,28873.0,453.63950190489277,157.40242297352248,285.8016813202774
414589.0,3802.0,414589.0,10072.0,414589.0,28884.0,449.76076981277254,156.16678849400853,283.8233478481843
414589.0,3793.0,414589.0,10091.0,414589.0,28875.0,445.84503206785877,154.91748772146644,281.825709582049
414589.0,3806.0,414589.0,10108.0,414589.0,28900.0,441.8985528432715,153.65748504790372,279.81350127088797
414589.0,3798.0,414589.0,10115.0,414589.0,28880.0,437.92762661601404,152.38917642569965,277.7912503067887
414599.0,3821.0,414599.0,10104.0,414599.0,28891.0,433.9387815360038,151.11479654738366,275.7634536833281
414599.0,3783.0,414599.0,10095.0,414599.0,28873.0,429.93900799799826,149.8366037284378,273.73463596057866
414599.0,3781.0,414599.0,10102.0,414599.0,28878.0,425.9358179262797,148.55681003863913,271.7093002325263
414599.0,3785.0,414599.0,10135.0,414599.0,28882.0,421.9370758578329,147.27755207070274,269.691871112896
414599.0,3769.0,414599.0,10123.0,414599.0,28883.0,417.9508444283182,146.00115523804362,267.6867307797729
414599.0,3757.0,414599.0,10101.0,414599.0,28911.0,413.9853168624152,144.73046284987333,265.6984005515877
414610.0,3745.0,414610.0,10089.0,414610.0,28852.0,410.04866014673496,143.4688008578423,263.731766664641
414610.0,3731.0,414610.0,10077.0,414610.0,28832.0,406.1487524332697,142.21959032514334,261.791981788195
414610.0,3745.0,414610.0,10062.0,414610.0,28815.0,402.29295202534223,140.98590297726076,259.8838437977248
414610.0,3726.0,414610.0,10097.0,414610.0,28855.0,398.48800899868553,139.770154006452,258.0111373383605
414610.0,3740.0,414610.0,10121.0,414610.0,28880.0,394.7400989840888,138.5741607138977,256.1765815716702
414610.0,3728.0,414610.0,10094.0,414610.0,28870.0,391.0548918735036,137.3995911949022,254.38237993658956
414620.0,3721.0,414620.0,10068.0,414620.0,28856.0,387.43760870362115,136.24826671961722,252.6307626930925
414620.0,3727.0,414620.0,10076.0,414620.0,28864.0,383.89302808226535,135.12193324679555,250.92410933284984
414620.0,3728.0,414620.0,10079.0,414620.0,28864.0,380.42550269975305,134.02187437673953,249.26486934280723
414620.0,3717.0,414620.0,10125.0,414620.0,28852.0,377.0390545763187,132.9488878085694,247.65555646953504
414620.0,3731.0,414620.0,10112.0,414620.0,28838.0,373.7374760499836,131.90370620881268,246.09871319621243
414620.0,3706.0,414620.0,10086.0,414620.0,28837.0,370.52439185167316,130.88746378907578,244.59671785817025
414630.0,3712.0,414630.0,10060.0,414630.0,28839.0,367.4032619068822,129.90167835121764,243.1515638347791
414630.0,3687.0,414630.0,10066.0,414630.0,28840.0,364.3772741540105,128.94774876362973,241.76477668784506
414630.0,3697.0,414630.0,10085.0,414630.0,28847.0,361.4491657195137,128.0265122036658,240.43747120699257
414630.0,3691.0,414630.0,10082.0,414630.0,28851.0,358.62108770073417,127.13822337105111,239.1704876005377
414630.0,3708.0,414630.0,10088.0,414630.0,28835.0,355.89462072627174,126.28278970169575,237.9645319164703
414630.0,3701.0,414630.0,10089.0,414630.0,28840.0,353.27095134257127,125.45997115658143,236.82020531285863
414641.0,3684.0,414641.0,10074.0,414641.0,28840.0,350.75105132384783,124.66946363727168,235.7379363202729
414641.0,3694.0,414641.0,10079.0,414641.0,28837.0,348.3356898729539,123.91085996329099,234.71795166571613
414641.0,3698.0,414641.0,10124.0,414641.0,28845.0,346.0253798666739,123.1836361521261,233.76031195282346
414641.0,3688.0,414641.0,10101.0,414641.0,28824.0,343.82044227838537,122.48742609660461,232.86494136055154
414641.0,3684.0,414641.0,10093.0,414641.0,28846.0,341.7210916226261,121.8223903765804,232.03160683641886
414641.0,3671.0,414641.0,10073.0,414641.0,28844.0,339.72738456087177,121.18921983003055,231.25992571124183
414651.0,3665.0,414651.0,10059.0,414651.0,28811.0,337.8390539230596,120.58876578346036,230.5494240034489
414651.0,3681.0,414651.0,10053.0,414651.0,28817.0,336.0553515915151,120.02157214871262,229.89941876941876
414651.0,3670.0,414651.0,10098.0,414651.0,28828.0,334.3750358464755,119.4875805423564,229.30874070658115
414651.0,3684.0,414651.0,10102.0,414651.0,28830.0,332.79649307900195,118.98628566207462,228.7756511837187
414651.0,3680.0,414651.0,10087.0,414651.0,28831.0,331.3178866530731,118.5172154496428,228.29799623522558
414651.0,3662.0,414651.0,10078.0,414651.0,28826.0,329.93725808952536,118.08019976762702,227.8733486574705
414661.0,3650.0,414661.0,10079.0,414661.0,28853.0,328.6524531361679,117.67524749100853,227.49908970547554
414661.0,3669.0,414661.0,10080.0,414661.0,28821.0,327.460891001822,117.30233962397219,227.1725296285378
414661.0,3681.0,414661.0,10104.0,414661.0,28842.0,326.35949050156864,116.96139950251387,226.89099427395854
414661.0,3657.0,414661.0,10089.0,414661.0,28837.0,325.34486045400513,116.65246234456288,226.65181713320857
414661.0,3681.0,414661.0,10059.0,414661.0,28827.0,324.4134711084906,116.37579725534741,226.452340125908
414661.0,3665.0,414661.0,10064.0,414661.0,28828.0,323.5616994528642,116.13169027152361,226.28988880461736
414672.0,3654.0,414672.0,10057.0,414672.0,28831.0,322.7858355341584,115.92003414527755,226.16167552152046
414672.0,3647.0,414672.0,10036.0,414672.0,28801.0,322.0819649136828,115.74001627888117,226.0646913558037
414672.0,3661.0,414672.0,10076.0,414672.0,28836.0,321.44575773374174,115.58992303140738,225.99556463291424
414672.0,3672.0,414672.0,10121.0,414672.0,28845.0,320.87242760724996,115.46725065499992,225.95052981775194
414672.0,3667.0,414672.0,10086.0,414672.0,28819.0,320.35692927667606,115.36929695265664,225.92564045573545
414672.0,3675.0,414672.0,10060.0,414672.0,28828.0,319.8941928234092,115.29364887858901,225.91691260580598
414682.0,3662.0,414682.0,10087.0,414682.0,28830.0,319.47924280899394,115.2380420214061,225.92023294670378
414682.0,3681.0,414682.0,10079.0,414682.0,28854.0,319.10723286561466,115.20004940724198,225.9313433370608
414682.0,3658.0,414682.0,10061.0,414682.0,28843.0,318.7734707729974,115.17702063131196,225.946059811133
414682.0,3663.0,414682.0,10098.0,414682.0,28820.0,318.4734038222611,115.16607307424917,225.96046508636232
414682.0,3657.0,414682.0,10082.0,414682.0,28817.0,318.20251402587496,115.16412314681813,225.97078330151936
414682.0,3659.0,414682.0,10055.0,414682.0,28820.0,317.9562042704898,115.16798193998997,225.97304437009404
414692.0,3660.0,414692.0,10079.0,414692.0,28841.0,317.72975448474847,115.17424622591903,225.96290841383458
414692.0,3659.0,414692.0,10076.0,414692.0,28841.0,317.518329757815,115.17909621830177,225.93580420894648
414692.0,3667.0,414692.0,10134.0,414692.0,28856.0,317.3170203237738,115.17842113557774,225.88723607609944
414692.0,3662.0,414692.0,10114.0,414692.0,28836.0,317.1209115435937,115.16834351803905,225.81304484415935
414692.0,3644.0,414692.0,10070.0,414692.0,28812.0,316.92511321233485,115.14568911363858,225.70942672945358
414692.0,3668.0,414692.0,10064.0,414692.0,28818.0,316.72467954380346,115.10783176583934,225.57263538732738
414703.0,3680.0,414703.0,10109.0,414703.0,28867.0,316.5146001013016,115.05215018183955,225.3987133167135
414703.0,3672.0,414703.0,10118.0,414703.0,28859.0,316.2900318252686,114.97593448787387,225.18371819471253
414703.0,3655.0,414703.0,10108.0,414703.0,28837.0,316.046519352765,114.87684181913632,224.92421761024463
414703.0,3663.0,414703.0,10062.0,414703.0,28825.0,315.7799386763098,114.75317856239349,224.61740877829675
414703.0,3641.0,414703.0,10073.0,414703.0,28814.0,315.48628773250147,114.60358839192511,224.2607783478985
414703.0,3634.0,414703.0,10051.0,414703.0,28825.0,315.1614555974176,114.42647197464402,223.8517091637902
414713.0,3649.0,414713.0,10084.0,414713.0,28823.0,314.80097851626107,114.21961396767841,223.38730524528327
414713.0,3655.0,414713.0,10096.0,414713.0,28843.0,314.3999468235929,113.98020152293394,222.86445328260308
414713.0,3668.0,414713.0,10138.0,414713.0,28846.0,313.95318229799955,113.70525055934837,222.28005193701054
414713.0,3672.0,414713.0,10119.0,414713.0,28849.0,313.45555456585635,113.39227596675556,221.63131190333948
414713.0,3661.0,414713.0,10069.0,414713.0,28838.0,312.90225255901373,113.03971204317807,220.91597505226358
414713.0,3650.0,414713.0,10079.0,414713.0,28807.0,312.2888654807376,112.64666433230369,220.13228881835886
414723.0,3669.0,414723.0,10120.0,414723.0,28859.0,311.6112855758392,112.21240170355968,219.27878447581853
414723.0,3657.0,414723.0,10085.0,414723.0,28837.0,310.8656534322693,111.73630105521906,218.35422362801708
414723.0,3641.0,414723.0,10095.0,414723.0,28835.0,310.0483803502276,111.21806860253587,217.35780604907944
414723.0,3641.0,414723.0,10070.0,414723.0,28804.0,309.15603946114845,110.65770553320229,216.2892159594899
414723.0,3638.0,414723.0,10076.0,414723.0,28807.0,308.1851439270275,110.05524839533805,215.14831653218144
414723.0,3635.0,414723.0,10071.0,414723.0,28807.0,307.13200256190373,109.4105250425616,213.93477596187546
414734.0,3641.0,414734.0,10095.0,414734.0,28799.0,305.99268132173574,108.72306577397616,212.6478740231611
414734.0,3682.0,414734.0,10091.0,414734.0,28825.0,304.76311935081475,107.99224050539718,211.28649520136128
414734.0,3662.0,414734.0,10123.0,414734.0,28830.0,303.4395110130166,107.21756936808463,209.84930437166847
414734.0,3644.0,414734.0,10067.0,414734.0,28819.0,302.0186990456714,106.39902056926866,208.33506458485894
414734.0,3649.0,414734.0,10068.0,414734.0,28806.0,300.49819444836595,105.53698185078399,206.74282784451586
414734.0,3632.0,414734.0,10055.0,414734.0,28825.0,298.8759426061491,104.63183269356387,205.07188153701634
414744.0,3653.0,414744.0,10112.0,414744.0,28834.0,297.1501635704994,103.68359890333383,203.32173993481032
414744.0,3639.0,414744.0,10099.0,414744.0,28804.0,295.31935560915167,102.69214692737144,201.49231840707174
414744.0,3648.0,414744.0,10090.0,414744.0,28813.0,293.3823952991655,101.65767302980314,199.5840070315137
414744.0,3618.0,414744.0,10077.0,414744.0,28803.0,291.3385864789006,100.58090651857633,197.59753432803709
414744.0,3627.0,414744.0,10055.0,414744.0,28779.0,289.18754881349065,99.46288737848138,195.5337890703843
414744.0,3602.0,414744.0,10084.0,414744.0,28798.0,286.92899861341647,98.30461779790595,193.39362443867657
414755.0,3625.0,414755.0,10037.0,414755.0,28822.0,284.56255953282835,97.10684052369773,191.17777805081414
414755.0,3629.0,414755.0,10101.0,414755.0,28812.0,282.087750889146,95.86996627562428,188.88713652408418
414755.0,3626.0,414755.0,10086.0,414755.0,28775.0,279.5041981367117,94.59421293184296,186.52305312457779
414755.0,3608.0,414755.0,10073.0,414755.0,28781.0,276.8118489693119,93.27994635091382,184.0872509942855
414755.0,3598.0,414755.0,10081.0,414755.0,28779.0,274.0109461435851,91.92786664548736,181.581467737933
414755.0,3621.0,414755.0,10053.0,414755.0,28810.0,271.10185820950767,90.53890228053352,179.0073391495299
414765.0,3609.0,414765.0,10089.0,414765.0,28785.0,268.08507169718183,89.11405481910472,176.36663535088115
414765.0,3595.0,414765.0,10103.0,414765.0,28787.0,264.9613346284875,87.65445534528119,173.66152346795678
414765.0,3594.0,414765.0,10035.0,414765.0,28754.0,261.7316720632722,86.16160622236849,170.89455120364102
414765.0,3581.0,414765.0,10031.0,414765.0,28748.0,258.3972453226111,84.63726781651627,168.0683451647104
414765.0,3577.0,414765.0,10050.0,414765.0,28744.0,254.95920663477605,83.08286669259107,165.18521409276357
414765.0,3594.0,414765.0,10064.0,414765.0,28747.0,251.41862809189146,81.49914972009483,162.24688357421599
414775.0,3578.0,414775.0,10094.0,414775.0,28761.0,247.77657570952636,79.88646248065729,159.25448358016956
414775.0,3585.0,414775.0,10060.0,414775.0,28760.0,244.03426986468244,78.24528363380993,156.20875235289765
414775.0,3573.0,414775.0,10051.0,414775.0,28748.0,240.1931843434806,76.57649310530843,153.1102926780157
414775.0,3546.0,414775.0,10030.0,414775.0,28739.0,236.25501919767146,74.88116158874178,149.95966802459913
414775.0,3563.0,414775.0,10056.0,414775.0,28768.0,232.22153319550432,73.16015679559207,146.7573688866506
414775.0,3556.0,414775.0,10089.0,414775.0,28759.0,228.0943977095946,71.41407235065236,143.50392857826
414786.0,3550.0,414786.0,10055.0,414786.0,28740.0,223.8752359058976,69.64360275133691,140.20017632156984
414786.0,3534.0,414786.0,10040.0,414786.0,28761.0,219.56568730516796,67.84985641545887,136.84734428662523
414786.0,3524.0,414786.0,10030.0,414786.0,28719.0,215.16731350498384,66.03417169322188,133.44702045875528
414786.0,3516.0,414786.0,10017.0,414786.0,28713.0,210.68139762574162,64.19767055953412,130.00099383846424
414786.0,3530.0,414786.0,10030.0,414786.0,28709.0,206.1088013519281,62.34092028771408,126.51093526019531
414786.0,3534.0,414786.0,10065.0,414786.0,28724.0,201.45003535325986,60.46389330131248,122.97814245470741
414796.0,3539.0,414796.0,10060.0,414796.0,28750.0,196.705549126383,58.56632637091998,119.40365083572837
414796.0,3513.0,414796.0,10045.0,414796.0,28708.0,191.87602976940713,56.64820797429216,115.78861687579547
414796.0,3513.0,414796.0,10026.0,414796.0,28695.0,186.96248099002327,54.7099222969575,112.13450250748816
414796.0,3513.0,414796.0,10033.0,414796.0,28703.0,181.96612684376595,52.75201344417919,108.44283992505045
414796.0,3507.0,414796.0,10060.0,414796.0,28704.0,176.88837289595844,50.774990785332555,104.71497743490387
414796.0,3504.0,414796.0,10029.0,414796.0,28700.0,171.73087535951404,48.779442544564205,100.9521118877837
414806.0,3495.0,414806.0,10021.0,414806.0,28697.0,166.49560483314735,46.766172276591384,97.15542753761228
414806.0,3490.0,414806.0,10015.0,414806.0,28670.0,161.18486006244922,44.736036437094896,93.32612070132677
414806.0,3467.0,414806.0,10006.0,414806.0,28661.0,155.80121951613035,42.68964289620911,89.46522518436372
414806.0,3455.0,414806.0,10028.0,414806.0,28674.0,150.34737808605408,40.62718154799594,85.57333557244067
414806.0,3458.0,414806.0,10011.0,414806.0,28668.0,144.82590727912412,38.54845378057857,81.6504975122149
414806.0,3468.0,414806.0,10027.0,414806.0,28686.0,139.23914928132476,36.45300973307786,77.69635805244238
414817.0,3442.0,414817.0,10027.0,414817.0,28674.0,133.5893318301399,34.3402921578144,73.71043438151267
414817.0,3442.0,414817.0,10008.0,414817.0,28661.0,127.8786751377014,32.20976059131891,69.69232085767135
414817.0,3435.0,414817.0,10008.0,414817.0,28664.0,122.1093471063759,30.06089466441486,65.6417129208784
414817.0,3430.0,414817.0,10014.0,414817.0,28671.0,116.28340639967041,27.89307049710267,61.55836324905019
414817.0,3428.0,414817.0,10037.0,414817.0,28676.0,110.40282234061905,25.705565183199326,57.44219277548817
414817.0,3422.0,414817.0,10034.0,414817.0,28640.0,104.46953311881387,23.49783509085583,53.29347967183287
414827.0,3406.0,414827.0,9990.0,414827.0,28632.0,98.48549164726344,21.269794797308393,49.112814644639
414827.0,3406.0,414827.0,9998.0,414827.0,28624.0,92.45264436408311,19.021704072001526,44.90077801464213
414827.0,3394.0,414827.0,9999.0,414827.0,28610.0,86.37286922274131,16.753788381584286,40.65760973993952
414827.0,3370.0,414827.0,9992.0,414827.0,28610.0,80.2478991154585,14.466034081340979,36.38300390920759
414827.0,3396.0,414827.0,10029.0,414827.0,28644.0,74.07921447902532,12.158261497265059,32.07607019716275
414827.0,3369.0,414827.0,9992.0,414827.0,28622.0,67.86802442563527,9.830356499011813,27.735579666356955
414837.0,3375.0,414837.0,10006.0,414837.0,28618.0,61.61537277621372,7.482462242223264,23.36030875845617
414837.0,3354.0,414837.0,9995.0,414837.0,28611.0,55.3221949153438,5.114975255120271,18.949147596875434
414837.0,3352.0,414837.0,9985.0,414837.0,28616.0,48.989268767839775,2.728451096723859,14.501043467177823
414837.0,3360.0,414837.0,10014.0,414837.0,28621.0,42.61717319329205,0.3235571866233471,10.015038544998959
414837.0,3353.0,414837.0,9985.0,414837.0,28608.0,36.20637721842718,-2.0988624529794464,5.490430235554868
414837.0,3360.0,414837.0,9968.0,414837.0,28599.0,29.757458061829936,-4.537736035883171,0.9268861847356789
414848.0,3323.0,414848.0,9966.0,414848.0,28588.0,23.271281987078737,-6.991971327948022,-3.675605417024002
414848.0,3315.0,414848.0,9965.0,414848.0,28569.0,16.74895773300716,-9.460783860766767,-8.316913801067784
414848.0,3309.0,414848.0,9985.0,414848.0,28584.0,10.191578681850388,-11.943812162540667,-12.99696662226441
414848.0,3298.0,414848.0,9973.0,414848.0,28577.0,3.599996576388719,-14.440969437700048,-17.71582424434058
414848.0,3306.0,414848.0,9984.0,414848.0,28567.0,-3.0252356353953473,-16.95221384328265,-22.47359290814606
414848.0,3292.0,414848.0,10009.0,414848.0,28565.0,-9.683796377841588,-19.477320341034684,-27.270352845556772
414858.0,3274.0,414858.0,9943.0,414858.0,28574.0,-16.375518818973035,-22.0156602019605,-32.10614383578931
414858.0,3279.0,414858.0,9922.0,414858.0,28543.0,-23.100422423702526,-24.566334228094874,-36.980913088735406
414858.0,3278.0,414858.0,9996.0,414858.0,28561.0,-29.858757581289183,-27.12869411318195,-41.894494262052945
414858.0,3274.0,414858.0,9952.0,414858.0,28563.0,-36.65090141099387,-29.702495098546947,-46.84660142549765
414858.0,3269.0,414858.0,9947.0,414858.0,28562.0,-43.4771735469929,-32.28759090028507,-51.83666394070664
414858.0,3240.0,414858.0,9955.0,414858.0,28523.0,-50.33774593336943,-34.88385898040279,-56.8636398813
414868.0,3246.0,414868.0,9940.0,414868.0,28532.0,-57.23272352258107,-37.49135616837964,-61.92610550033484
414868.0,3234.0,414868.0,9945.0,414868.0,28503.0,-64.16228254470553,-40.11038489011993,-67.02254994896396
414868.0,3217.0,414868.0,9942.0,414868.0,28513.0,-71.12673480267586,-42.74150845231753,-72.15162839691357
414868.0,3228.0,414868.0,9980.0,414868.0,28515.0,-78.12655846237061,-45.38546478015944,-77.31226432080655
414868.0,3227.0,414868.0,9941.0,414868.0,28492.0,-85.16236092557955,-48.04288550180527,-82.50360302706935
414868.0,3215.0,414868.0,9943.0,414868.0,28491.0,-92.23469687176333,-50.71408141858983,-87.72498036606385
414879.0,3204.0,414879.0,9902.0,414879.0,28482.0,-99.34390132601698,-53.39920194741545,-92.97601797050712
414879.0,3175.0,414879.0,9923.0,414879.0,28496.0,-106.49012392020933,-56.09865924333927,-98.25668719039942
414879.0,3199.0,414879.0,9951.0,414879.0,28512.0,-113.67350160264152,-58.813381894976786,-103.56715150864028
414879.0,3179.0,414879.0,9952.0,414879.0,28498.0,-120.89422289830668,-61.54457843071938,-108.9073935130759
414879.0,3162.0,414879.0,9944.0,414879.0,28469.0,-128.1524412180416,-64.29323726489537,-114.27691986383076
414879.0,3160.0,414879.0,9943.0,414879.0,28460.0,-135.44827398667746,-67.05983052882462,-119.67484781780144
414889.0,3122.0,414889.0,9895.0,414889.0,28434.0,-142.7819644874774,-69.84436949049606,-125.10028428310756
414889.0,3129.0,414889.0,9916.0,414889.0,28442.0,-150.15412546982174,-72.6467427412995,-130.55271208485863
414889.0,3152.0,414889.0,9901.0,414889.0,28470.0,-157.56589451874646,-75.46710037128008,-136.03213455041896
414889.0,3138.0,414889.0,9936.0,414889.0,28449.0,-165.01874820256063,-78.30595629087097,-141.53884081795547
414889.0,3121.0,414889.0,9918.0,414889.0,28459.0,-172.51413483877047,-81.1639661954087,-147.07302055141417
414889.0,3110.0,414889.0,9906.0,414889.0,28428.0,-180.0533467682119,-84.04166650207782,-152.63457411316688
414899.0,3096.0,414899.0,9904.0,414899.0,28421.0,-187.63765233107813,-86.93945553758894,-158.22318497454864
414899.0,3098.0,414899.0,9899.0,414899.0,28422.0,-195.26844465792072,-89.85775422525839,-163.83852687405061
414899.0,3113.0,414899.0,9913.0,414899.0,28420.0,-202.94722712401273,-92.79708924617688,-169.4803891949183
414899.0,3104.0,414899.0,9922.0,414899.0,28422.0,-210.67535852292684,-95.75797521419324,-175.14860926797968
414899.0,3086.0,414899.0,9888.0,414899.0,28400.0,-218.45372790728442,-98.7406970351671,-180.84294314939376
414899.0,3055.0,414899.0,9890.0,414899.0,28368.0,-226.2826808282037,-101.7452798037948,-186.56310963133905
414910.0,3054.0,414910.0,9871.0,414910.0,28389.0,-234.16226575318206,-104.77173324902239,-192.309072252249
414910.0,3039.0,414910.0,9882.0,414910.0,28388.0,-242.09254363832588,-107.82032585566685,-198.08124361452775
414910.0,3044.0,414910.0,9890.0,414910.0,28404.0,-250.0737279238574,-110.89167212177861,-203.88031857157586
414910.0,3036.0,414910.0,9908.0,414910.0,28378.0,-258.10614078413596,-113.9865560413734,-209.70691233666412
414910.0,3027.0,414910.0,9887.0,414910.0,28372.0,-266.1900847888126,-117.10558793377857,-215.56136169344666
414910.0,3008.0,414910.0,9863.0,414910.0,28368.0,-274.3257655562586,-120.24902446388373,-221.44377631169976
414920.0,3010.0,414920.0,9869.0,414920.0,28354.0,-282.5133281268708,-123.41695015985354,-227.35415600042273
414920.0,3009.0,414920.0,9898.0,414920.0,28361.0,-290.7528836044434,-126.60950067240736,-233.29244437682968
414920.0,3000.0,414920.0,9905.0,414920.0,28357.0,-299.0444026159041,-129.82668255506792,-239.25849871429847
414920.0,2984.0,414920.0,9884.0,414920.0,28337.0,-307.3875727266039,-133.06791098656882,-245.252002280574
414920.0,2970.0,414920.0,9838.0,414920.0,28336.0,-315.7817857593917,-136.33184422228243,-251.2724507140167
414920.0,2964.0,414920.0,9864.0,414920.0,28318.0,-324.226246934264,-139.61674549893937,-257.3192589943427
414930.0,2944.0,414930.0,9843.0,414930.0,28325.0,-332.72009454409806,-142.92093126335,-263.3918756960055
414930.0,2947.0,414930.0,9861.0,414930.0,28343.0,-341.2624856700473,-146.24290508129016,-269.48975681191536
414930.0,2949.0,414930.0,9846.0,414930.0,28319.0,-349.8525973717608,-149.58128048818006,-275.6121303605632
414930.0,2950.0,414930.0,9864.0,414930.0,28323.0,-358.4894543379818,-152.93466484652532,-281.75774202712853
414930.0,2916.0,414930.0,9835.0,414930.0,28294.0,-367.17168826072816,-156.3015508024153,-287.92481054687113
414930.0,2908.0,414930.0,9826.0,414930.0,28288.0,-375.89750014596893,-159.68033478692794,-294.11118073080235
414941.0,2913.0,414941.0,9849.0,414941.0,28314.0,-384.6648195357592,-163.06947880088921,-300.314483961535
414941.0,2899.0,414941.0,9868.0,414941.0,28296.0,-393.47136523798997,-166.4674917402363,-306.5320593354821
414941.0,2892.0,414941.0,9864.0,414941.0,28292.0,-402.314546919824,-169.8725340132164,-312.76069421756074
414941.0,2889.0,414941.0,9824.0,414941.0,28269.0,-411.1913735850744,-173.28203000811754,-318.99651821059894
414941.0,2866.0,414941.0,9806.0,414941.0,28262.0,-420.0984115197442,-176.69277416657184,-325.2351396888505
414941.0,2857.0,414941.0,9803.0,414941.0,28260.0,-429.03180799394704,-180.1014599148152,-331.4718489573372
414951.0,2845.0,414951.0,9814.0,414951.0,28248.0,-437.987403092814,-183.50512967011454,-337.7017323514298
414951.0,2844.0,414951.0,9824.0,414951.0,28238.0,-446.9608265914802,-186.90122627735855,-343.9197115940231
414951.0,2836.0,414951.0,9826.0,414951.0,28249.0,-455.94748287054097,-190.28733299030895,-350.1205733279474
414951.0,2842.0,414951.0,9820.0,414951.0,28255.0,-464.9424260384203,-193.66086314262532,-356.29888577933343
414951.0,2810.0,414951.0,9825.0,414951.0,28227.0,-473.9402002894815,-197.01886958328402,-362.44877439100566
414951.0,2807.0,414951.0,9809.0,414951.0,28225.0,-482.934793391883,-200.3579719399062,-368.56380754516414
414961.0,2817.0,414961.0,9814.0,414961.0,28242.0,-491.9196913413151,-203.67435930907556,-374.63704518439965
414961.0,2796.0,414961.0,9828.0,414961.0,28217.0,-500.8878178390454,-206.96378753526557,-380.6609894813675
414961.0,2783.0,414961.0,9822.0,414961.0,28204.0,-509.83139321001397,-210.22143763766243,-386.6274802810096
414961.0,2758.0,414961.0,9767.0,414961.0,28202.0,-518.7419659561563,-213.44179944483975,-392.5277763810447
414961.0,2752.0,414961.0,9792.0,414961.0,28200.0,-527.6106313631112,-216.61891855393748,-398.3527055394275
414961.0,2756.0,414961.0,9777.0,414961.0,28189.0,-536.4282208949737,-219.74681656091883,-404.0926892143823
414972.0,2761.0,414972.0,9818.0,414972.0,28176.0,-545.1852602928224,-222.81958894080654,-409.73773340075513
414972.0,2730.0,414972.0,9780.0,414972.0,28211.0,-553.8717432204928,-225.83114839090928,-415.2774283713283
414972.0,2724.0,414972.0,9786.0,414972.0,28171.0,-562.477016229463,-228.77500238361677,-420.7008119404316
414972.0,2725.0,414972.0,9800.0,414972.0,28181.0,-570.9898583412427,-231.6442472630053,-425.9961937274571
414972.0,2713.0,414972.0,9773.0,414972.0,28155.0,-579.3985188183324,-234.43157470171784,-431.15117755172747
414972.0,2698.0,414972.0,9773.0,414972.0,28158.0,-587.6906547997221,-237.1292644336213,-436.1528236499263
414982.0,2713.0,414982.0,9788.0,414982.0,28169.0,-595.8532865578355,-239.7292748028666,-440.98774874494717
414982.0,2690.0,414982.0,9758.0,414982.0,28139.0,-603.8727181616174,-242.2232937661772,-445.64208748315866
414982.0,2688.0,414982.0,9776.0,414982.0,28145.0,-611.7344138493717,-244.60274251332282,-450.10145935732777
414982.0,2667.0,414982.0,9776.0,414982.0,28112.0,-619.422972216594,-246.8588007808615,-454.3511034613189
414982.0,2642.0,414982.0,9743.0,414982.0,28110.0,-626.9222594014801,-248.9823994967409,-458.3761511847992
414982.0,2644.0,414982.0,9730.0,414982.0,28119.0,-634.2156633147674,-250.96436519850846,-462.161897686187
414993.0,2640.0,414993.0,9767.0,414993.0,28116.0,-641.2863075363833,-252.7957549670036,-465.69388239315265
414993.0,2641.0,414993.0,9797.0,414993.0,28130.0,-648.1170533989716,-254.4678661228409,-468.95773448419857
414993.0,2635.0,414993.0,9744.0,414993.0,28108.0,-654.6903454450847,-255.97177324487416,-471.9389558370439
414993.0,2625.0,414993.0,9728.0,414993.0,28099.0,-660.9880627121137,-257.29810716724256,-474.6228463069602
414993.0,2622.0,414993.0,9736.0,414993.0,28089.0,-666.991453316848,-258.43745468019165,-476.9946588250941
414993.0,2608.0,414993.0,9745.0,414993.0,28101.0,-672.6811387618438,-259.38080449983806,-479.03982694146737
415002.0,2600.0,415002.0,9756.0,415002.0,28109.0,-678.0371663102336,-260.119564234235,-480.74401232386464
415002.0,2607.0,415002.0,9709.0,415002.0,28073.0,-683.0390776765687,-260.64540362389835,-482.09299899154144
415002.0,2572.0,415002.0,9724.0,415002.0,28070.0,-687.6659542047752,-260.9503675285418,-483.07276056624914
415002.0,2554.0,415002.0,9704.0,415002.0,28043.0,-691.8965707357937,-261.0272508331518,-483.6698426589118
415002.0,2551.0,415002.0,9731.0,415002.0,28043.0,-695.7097701435667,-260.86988137678617,-483.87186049344706
415002.0,2561.0,415002.0,9715.0,415002.0,28071.0,-699.084806257742,-260.4731573313385,-483.6678470901338
415012.0,2533.0,415012.0,9748.0,415012.0,28089.0,-702.001437292703,-259.8329282724342,-483.04820753585494
415012.0,2549.0,415012.0,9756.0,415012.0,28079.0,-704.4399384205731,-258.9457504650363,-482.0043140999091
415012.0,2548.0,415012.0,9742.0,415012.0,28067.0,-706.3811333048412,-257.8085549524361,-480.5281857036034
415012.0,2540.0,415012.0,9728.0,415012.0,28090.0,-707.8063400001814,-256.418495694213,-478.6124908250668
415012.0,2531.0,415012.0,9733.0,415012.0,28091.0,-708.6973188593992,-254.77313772749542,-476.2505968502067
415012.0,2538.0,415012.0,9747.0,415012.0,28103.0,-709.0363464990672,-252.870710216836,-473.4364374278001
415023.0,2535.0,415023.0,9765.0,415023.0,28078.0,-708.8063010619776,-250.71010067479594,-470.1643680364426
415023.0,2537.0,415023.0,9750.0,415023.0,28058.0,-707.9906642346676,-248.29062886091035,-466.42929935160566
415023.0,2521.0,415023.0,9699.0,415023.0,28074.0,-706.5735316408093,-245.6120091865905,-462.2271369249892
415023.0,2509.0,415023.0,9733.0,415023.0,28077.0,-704.5397677329913,-242.67479103803794,-457.5551873514257
415023.0,2507.0,415023.0,9738.0,415023.0,28056.0,-701.8753259321111,-239.4808743021121,-452.4123307024643
415023.0,2536.0,415023.0,9762.0,415023.0,28119.0,-698.5675321285871,-236.03355569266589,-446.7990888277719
415033.0,2525.0,415033.0,9786.0,415033.0,28102.0,-694.6051012930877,-232.3371665259489,-440.71751468214904
415033.0,2539.0,415033.0,9803.0,415033.0,28108.0,-689.9779827205248,-228.39656492538612,-434.17089861529826
415033.0,2522.0,415033.0,9777.0,415033.0,28108.0,-684.6773014036057,-224.2166846938586,-427.1636558289178
415033.0,2522.0,415033.0,9757.0,415033.0,28097.0,-678.6954950233048,-219.802474614208,-419.70149810474686
415033.0,2533.0,415033.0,9802.0,415033.0,28120.0,-672.0265679164656,-215.15924420860304,-411.79168931093466
415033.0,2551.0,415033.0,9814.0,415033.0,28160.0,-664.6662578666735,-210.29284713001766,-403.44314165268224
415043.0,2552.0,415043.0,9775.0,415043.0,28155.0,-656.6119944870541,-205.20949154549743,-394.6661682729882
415043.0,2547.0,415043.0,9777.0,415043.0,28152.0,-647.8628213478228,-199.91575003249463,-385.47215095247196
415043.0,2559.0,415043.0,9799.0,415043.0,28157.0,-638.4194822790345,-194.41895901486447,-375.8735293435475
415043.0,2550.0,415043.0,9810.0,415043.0,28176.0,-628.2846314033337,-188.7274671901949,-365.8840162560547
415043.0,2585.0,415043.0,9826.0,415043.0,28189.0,-617.4630231875461,-182.85049795691197,-355.5187026526837
415043.0,2589.0,415043.0,9842.0,415043.0,28238.0,-605.9615610011209,-176.79786639347392,-344.7939122724091
415054.0,2608.0,415054.0,9855.0,415054.0,28225.0,-593.7891898599561,-170.57969620181998,-333.7268458692196
415054.0,2619.0,415054.0,9824.0,415054.0,28222.0,-580.9567687210999,-164.20623748670715,-322.33530190837706
415054.0,2622.0,415054.0,9816.0,415054.0,28232.0,-567.4770252487451,-157.6880258663337,-310.6377746992116
415054.0,2651.0,415054.0,9860.0,415054.0,28268.0,-553.3645825812097,-151.03631377355663,-298.6537128493944
415054.0,2669.0,415054.0,9888.0,415054.0,28291.0,-538.6359504291511,-144.26320089110135,-286.40349019875674
415054.0,2690.0,415054.0,9868.0,415054.0,28299.0,-523.3093849166196,-137.38126705471075,-273.9080805077723
415064.0,2702.0,415064.0,9905.0,415064.0,28303.0,-507.4047016271912,-130.403209116386,-261.18879141741706
415064.0,2707.0,415064.0,9884.0,415064.0,28310.0,-490.94319506748707,-123.34174444730856,-248.26726746999202
415064.0,2741.0,415064.0,9901.0,415064.0,28334.0,-473.9476821200364,-116.2096390111866,-235.16563805424764
415064.0,2756.0,415064.0,9903.0,415064.0,28331.0,-456.44251904012924,-109.01980090801608,-221.90661529542874
415064.0,2784.0,415064.0,9919.0,415064.0,28379.0,-438.45348602389527,-101.7853620721737,-208.5134905786174
415064.0,2820.0,415064.0,9970.0,415064.0,28396.0,-420.0075770100476,-94.5195696192439,-195.00997028198287
415074.0,2811.0,415074.0,9955.0,415074.0,28392.0,-401.1327687597927,-87.23540344586246,-181.41987425197587
415074.0,2834.0,415074.0,9940.0,415074.0,28423.0,-381.85794035817423,-79.94522119112179,-167.7669552910767
415074.0,2877.0,415074.0,9947.0,415074.0,28433.0,-362.21296246810067,-72.66084905117768,-154.07488341030378
415074.0,2903.0,415074.0,9947.0,415074.0,28462.0,-342.2286316067342,-65.39397233831193,-140.36717146950934
415074.0,2915.0,415074.0,10028.0,415074.0,28478.0,-321.9363715761303,-58.15628506597377,-126.66698882314951
415074.0,2946.0,415074.0,9969.0,415074.0,28501.0,-301.3680005625797,-50.959173547444884,-112.99693506556282
415085.0,2946.0,415085.0,9986.0,415085.0,28485.0,-280.55568431182866,-43.81340718072844,-99.37888240853101
415085.0,2959.0,415085.0,9970.0,415085.0,28499.0,-259.5320399464122,-36.7293379339054,-85.83405392825753
415085.0,3008.0,415085.0,9993.0,415085.0,28533.0,-238.3303205746355,-29.717332954902318,-72.38326007082985
415085.0,3035.0,415085.0,9992.0,415085.0,28540.0,-216.98441452561863,-22.788006890465454,-59.04696286052143
415085.0,3067.0,415085.0,10048.0,415085.0,28539.0,-195.5285387338214,-15.952170602585412,-45.84516511162116
415085.0,3099.0,415085.0,10054.0,415085.0,28577.0,-173.99684576300427,-9.220459512373452,-32.797387063505795
415095.0,3102.0,415095.0,10033.0,415095.0,28598.0,-152.4231376421807,-2.602841573456459,-19.922632653021992
415095.0,3123.0,415095.0,10037.0,415095.0,28606.0,-130.8407845724041,3.8915158442987803,-7.239160634829489
415095.0,3163.0,415095.0,10071.0,415095.0,28602.0,-109.28280288832443,10.254028576641375,5.235713408053982
415095.0,3181.0,415095.0,10094.0,415095.0,28646.0,-87.78184025210743,16.476686635338865,17.485604642823432
415095.0,3215.0,415095.0,10072.0,415095.0,28657.0,-66.3699880850341,22.552381298984812,29.49508967916975
415095.0,3238.0,415095.0,10089.0,415095.0,28654.0,-45.07856184050493,28.47511122188375,41.24990839957118
415105.0,3255.0,415105.0,10045.0,415105.0,28645.0,-23.937924982179794,34.23981077797218,52.73701160831183
415105.0,3271.0,415105.0,10057.0,415105.0,28668.0,-2.977408270961689,39.84188988030523,63.94429306483897
415105.0,3281.0,415105.0,10090.0,415105.0,28706.0,17.774626029888395,45.27675864805073,74.86036654837059
415105.0,3317.0,415105.0,10119.0,415105.0,28686.0,38.29064681332312,50.539784316173424,85.474667621289
415105.0,3354.0,415105.0,10119.0,415105.0,28738.0,58.54394289572434,55.626747319865345,95.77766999404358
415105.0,3371.0,415105.0,10105.0,415105.0,28712.0,78.50885211322134,60.53427458131972,105.76101850812455
415116.0,3390.0,415116.0,10102.0,415116.0,28746.0,98.16105150015119,65.2598453883054,115.41759725751183
415116.0,3395.0,415116.0,10121.0,415116.0,28768.0,117.47766248552688,69.80152377557758,124.74158775897945
415116.0,3429.0,415116.0,10140.0,415116.0,28765.0,136.4371759422301,74.15783640213579,133.72863275254707
415116.0,3469.0,415116.0,10160.0,415116.0,28734.0,155.01944067675748,78.32798621754253,142.37593380394537
415116.0,3469.0,415116.0,10114.0,415116.0,28754.0,173.2058739064587,82.3121469754434,150.6819570331876
415116.0,3487.0,415116.0,10129.0,415116.0,28779.0,190.97967581479872,86.1114095906083,158.64600609944597
415126.0,3478.0,415126.0,10139.0,415126.0,28781.0,208.32576951322392,89.72742485673112,166.2681421173113
415126.0,3512.0,415126.0,10138.0,415126.0,28754.0,225.23052969078117,93.16219782909613,173.54928660916266
415126.0,3511.0,415126.0,10144.0,415126.0,28776.0,241.68153924244513,96.41811274685543,180.49106429967054
415126.0,3546.0,415126.0,10165.0,415126.0,28788.0,257.66748967372735,99.49800022565913,187.09550512454263
415126.0,3558.0,415126.0,10148.0,415126.0,28821.0,273.1782094970033,102.40524057161173,193.36503240781548
415126.0,3561.0,415126.0,10140.0,415126.0,28783.0,288.2047440858629,105.1437999148308,199.30270476368645
415136.0,3598.0,415136.0,10114.0,415136.0,28813.0,302.73938815543306,107.71798251672382,204.9123048769116
415136.0,3607.0,415136.0,10143.0,415136.0,28839.0,316.77572984679887,110.13198614622357,210.19826899096222
415136.0,3609.0,415136.0,10177.0,415136.0,28824.0,330.30876332932087,112.38969548940804,215.16580506019744
415136.0,3639.0,415136.0,10168.0,415136.0,28830.0,343.33493453979486,114.49497451811516,219.8210901413941
415136.0,3628.0,415136.0,10147.0,415136.0,28813.0,355.85210403145663,116.45206104151737,224.17120889491554
415136.0,3623.0,415136.0,10141.0,415136.0,28801.0,367.85943312087943,118.26552905192386,228.22384109218086
415147.0,3643.0,415147.0,10152.0,415147.0,28804.0,379.3571003147621,119.93992800854409,231.98683754112477
415147.0,3645.0,415147.0,10146.0,415147.0,28836.0,390.34599780362964,121.47952794242838,235.46790274866737
415147.0,3687.0,415147.0,10183.0,415147.0,28823.0,400.82764884347023,122.88832201753041,238.67460667904533
415147.0,3684.0,415147.0,10192.0,415147.0,28835.0,410.8043702833752,124.17028640997691,241.61457560497962
415147.0,3695.0,415147.0,10153.0,415147.0,28860.0,420.2795061499138,125.32973952349121,244.2956391967915
415147.0,3708.0,415147.0,10144.0,415147.0,28829.0,429.25753591135447,126.37135114470513,246.7259760984843
415157.0,3698.0,415157.0,10173.0,415157.0,28836.0,437.7440552891211,127.29975282978108,248.9141605978552
415157.0,3707.0,415157.0,10169.0,415157.0,28865.0,445.74567197062254,128.1193119673517,250.86904536708363
415157.0,3720.0,415157.0,10154.0,415157.0,28842.0,453.2698443768694,128.83422722068147,252.5997592697999
415157.0,3717.0,415157.0,10187.0,415157.0,28842.0,460.32478469679074,129.4486032004856,254.11579971148268
415157.0,3712.0,415157.0,10139.0,415157.0,28834.0,466.91939964120616,129.966429354645,255.42692579973402
415157.0,3713.0,415157.0,10178.0,415157.0,28838.0,473.0631188984639,130.39150948766954,256.5429208151666
415167.0,3722.0,415167.0,10173.0,415167.0,28844.0,478.7656575522868,130.72739237482034,257.47344628850936
415167.0,3717.0,415167.0,10141.0,415167.0,28809.0,484.0368538205247,130.97739239208238,258.22796308577074
415167.0,3738.0,415167.0,10187.0,415167.0,28835.0,488.8866020408534,131.14455838780233,258.81555527034226
415167.0,3752.0,415167.0,10177.0,415167.0,28863.0,493.3249028475758,131.23165544800074,259.2448001220374
415167.0,3737.0,415167.0,10194.0,415167.0,28836.0,497.3620302192394,131.24139015937283,259.52396126886185
415167.0,3762.0,415167.0,10162.0,415167.0,28843.0,501.0086551988377,131.17665464603752,259.6612456171578
415178.0,3746.0,415178.0,10171.0,415178.0,28824.0,504.27586726537504,131.04049180431787,259.66475954216264
415178.0,3759.0,415178.0,10212.0,415178.0,28834.0,507.1751719361572,130.83596984714774,259.54228954415413
415178.0,3751.0,415178.0,10172.0,415178.0,28862.0,509.7184601941576,130.56631009142833,259.3012066196532
415178.0,3748.0,415178.0,10192.0,415178.0,28839.0,511.9179311558412,130.2351039672157,258.94862766202397
415178.0,3737.0,415178.0,10166.0,415178.0,28839.0,513.7859473593637,129.8462832064138,258.4916150906528
415178.0,3737.0,415178.0,10150.0,415178.0,28809.0,515.334808115287,129.40387749835455,257.93709068284227
415188.0,3726.0,415188.0,10142.0,415188.0,28832.0,516.5765012349551,128.91163436614883,257.2915200453213
415188.0,3739.0,415188.0,10164.0,415188.0,28821.0,517.5225035725792,128.37263672782606,256.56067915692836
415188.0,3745.0,415188.0,10203.0,415188.0,28844.0,518.1837109448655,127.78928431762432,255.74966467363407
415188.0,3752.0,415188.0,10172.0,415188.0,28810.0,518.5705476508903,127.16372183998698,254.8630223393555
415188.0,3738.0,415188.0,10157.0,415188.0,28820.0,518.6931378634387,126.49819975114403,253.90475049147074
415188.0,3746.0,415188.0,10161.0,415188.0,28834.0,518.5613645135635,125.79495273408997,252.8781845852261
415199.0,3763.0,415199.0,10171.0,415199.0,28848.0,518.1848720038133,125.05590744648629,251.78605807035484
415199.0,3741.0,415199.0,10209.0,415199.0,28837.0,517.5731702794518,124.28271528143924,250.63080426987136
415199.0,3745.0,415199.0,10149.0,415199.0,28826.0,516.7357286404864,123.47707365169603,249.4147794226842
415199.0,3721.0,415199.0,10160.0,415199.0,28821.0,515.6818748285114,122.64082576555921,248.14020443763746
415199.0,3728.0,415199.0,10156.0,415199.0,28822.0,514.4205557475095,121.77565468113315,246.80896694312935
415199.0,3720.0,415199.0,10142.0,415199.0,28817.0,512.9601173697066,120.88276215904179,245.42248391048884
415209.0,3738.0,415209.0,10163.0,415209.0,28830.0,511.30822496293,119.9627326111264,243.98167538495773
415209.0,3741.0,415209.0,10196.0,415209.0,28843.0,509.47198205824645,119.01560639300286,242.48707356361496
415209.0,3736.0,415209.0,10168.0,415209.0,28824.0,507.45817505478294,118.0412413449348,240.93905099920602
415209.0,3716.0,415209.0,10157.0,415209.0,28842.0,505.27342669178495,117.03962461558834,239.33799994179753
415209.0,3726.0,415209.0,10161.0,415209.0,28827.0,502.9241286489637,116.01078062022279,237.6843939975525
415209.0,3734.0,415209.0,10170.0,415209.0,28828.0,500.4163412664163,114.95454833537104,235.9788069681603
415219.0,3725.0,415219.0,10217.0,415219.0,28843.0,497.75587469157836,113.87067314760418,234.22192528210735
415219.0,3730.0,415219.0,10185.0,415219.0,28828.0,494.9484541180807,112.75926385288179,232.41461673395054
415219.0,3711.0,415219.0,10158.0,415219.0,28842.0,491.9997928637007,111.62115340302151,230.55804943729015
415219.0,3697.0,415219.0,10162.0,415219.0,28800.0,488.9155144135915,110.45772222276722,228.6537152549773
415219.0,3701.0,415219.0,10146.0,415219.0,28801.0,485.7009434822119,109.27043096522961,226.7032261275937
415219.0,3696.0,415219.0,10126.0,415219.0,28798.0,482.3609237642045,108.06044110115019,224.70794599034795
415230.0,3711.0,415230.0,10153.0,415230.0,28816.0,478.8998180299951,106.82831722987851,222.66876178750323
415230.0,3716.0,415230.0,10170.0,415230.0,28814.0,475.3217005278285,105.57394261999691,220.5861716300635
415230.0,3707.0,415230.0,10208.0,415230.0,28822.0,471.6306504812438,104.29689485463298,218.46054233614964
415230.0,3687.0,415230.0,10162.0,415230.0,28798.0,467.8309360801644,102.99707313774154,216.29230360803513
415230.0,3689.0,415230.0,10157.0,415230.0,28809.0,463.92694717129643,101.67499848581132,214.08195740867143
415230.0,3693.0,415230.0,10209.0,415230.0,28840.0,459.92304650173554,100.33169168942189,211.83006441989733
415240.0,3689.0,415240.0,10170.0,415240.0,28814.0,455.82357412557207,98.96868959560867,209.53746457670732
415240.0,3688.0,415240.0,10193.0,415240.0,28818.0,451.6329765002158,97.58830491035918,207.20555964102127
415240.0,3677.0,415240.0,10164.0,415240.0,28794.0,447.3559063282426,96.1937227029561,204.8363238722435
415240.0,3663.0,415240.0,10117.0,415240.0,28793.0,442.9972140746087,94.78877163946778,202.432079175623
415240.0,3659.0,415240.0,10154.0,415240.0,28784.0,438.56182493743995,93.37740627267864,199.9952289436741
415240.0,3677.0,415240.0,10153.0,415240.0,28808.0,434.05463265784834,91.96327870540875,197.52810836860533
415250.0,3652.0,415250.0,10168.0,415250.0,28805.0,429.4805638122771,90.54980424679361,195.03308066731051
415250.0,3655.0,415250.0,10154.0,415250.0,28777.0,424.8446950528293,89.14048012152837,192.51274760104997
415250.0,3659.0,415250.0,10115.0,415250.0,28800.0,420.15227742728473,87.73897547496296,189.9699848202517
415250.0,3636.0,415250.0,10135.0,415250.0,28785.0,415.4087526092792,86.34883875792316,187.4078586131551
415250.0,3644.0,415250.0,10132.0,415250.0,28782.0,410.61976693917376,84.97312998004003,184.82962228952576
415250.0,3625.0,415250.0,10162.0,415250.0,28814.0,405.791120364061,83.6143885345106,182.2387819814931
415261.0,3635.0,415261.0,10137.0,415261.0,28786.0,400.92871687677336,82.2749041163785,179.63926615802234
415261.0,3612.0,415261.0,10144.0,415261.0,28786.0,396.0385526931896,80.95694054710359,177.03561171738158
415261.0,3617.0,415261.0,10119.0,415261.0,28731.0,391.12669138390476,79.66270600987795,174.43284475848458
415261.0,3598.0,415261.0,10107.0,415261.0,28746.0,386.1991974342406,78.3940999784306,171.8359830326112
415261.0,3586.0,415261.0,10090.0,415261.0,28761.0,381.2620219658172,77.15231367257881,169.2495424007086
415261.0,3601.0,415261.0,10146.0,415261.0,28755.0,376.32086875656086,75.93750052177826,166.67746200073623
415271.0,3607.0,415271.0,10160.0,415271.0,28759.0,371.3812083355343,74.74893146254138,164.12333465259712
415271.0,3592.0,415271.0,10169.0,415271.0,28782.0,366.4485128205067,73.58567148888737,161.59064286101065
415271.0,3581.0,415271.0,10144.0,415271.0,28769.0,361.52845228280813,72.44721690263829,159.0830266042894
415271.0,3571.0,415271.0,10133.0,415271.0,28751.0,356.62685211194184,71.3336318791146,156.6045180331154
415271.0,3582.0,415271.0,10148.0,415271.0,28755.0,351.74956095056524,70.24531185560801,154.1595163027566
415271.0,3585.0,415271.0,10142.0,415271.0,28758.0,346.9024738808821,69.18279872201501,151.75262383058788
415281.0,3572.0,415281.0,10164.0,415281.0,28771.0,342.09172888545515,68.14684207932976,149.38864739438657
415281.0,3548.0,415281.0,10107.0,415281.0,28741.0,337.32382544856586,67.13851024812752,147.0727477325362
415281.0,3550.0,415281.0,10118.0,415281.0,28702.0,332.605489034651,66.15902113732452,144.81037929240495
415281.0,3518.0,415281.0,10105.0,415281.0,28713.0,327.9433965860174,65.20929901237608,142.60681354271753
415281.0,3526.0,415281.0,10146.0,415281.0,28732.0,323.343900437691,64.28968817942904,140.46664435045793
415281.0,3527.0,415281.0,10139.0,415281.0,28730.0,318.81283543253414,63.400104854790506,138.39376094809086
415292.0,3537.0,415292.0,10153.0,415292.0,28745.0,314.3555486689221,62.54044102535051,136.39166692040396
415292.0,3522.0,415292.0,10138.0,415292.0,28709.0,309.97711931160666,61.710884361337065,134.46374236258066
415292.0,3519.0,415292.0,10107.0,415292.0,28705.0,305.6825315150779,60.91194573814819,132.61320827095787
415292.0,3511.0,415292.0,10121.0,415292.0,28722.0,301.47668696403855,60.14416805257011,130.84286591059413
415292.0,3519.0,415292.0,10172.0,415292.0,28735.0,297.3643681723423,59.40788665915856,129.15500568145762
415292.0,3515.0,415292.0,10148.0,415292.0,28704.0,293.3502899933337,58.70349472251516,127.55160276850555
415302.0,3499.0,415302.0,10128.0,415302.0,28706.0,289.4392047821706,58.03188967773194,126.03440689960316
415302.0,3482.0,415302.0,10123.0,415302.0,28711.0,285.6358789216733,57.39446128865785,124.60477841527592
415302.0,3468.0,415302.0,10117.0,415302.0,28703.0,281.9448535381397,56.79271436543138,123.26355593806518
415302.0,3475.0,415302.0,10104.0,415302.0,28669.0,278.3701349624919,56.22793084291265,122.01097786014368
415302.0,3477.0,415302.0,10132.0,415302.0,28728.0,274.9150454960665,55.70097438552844,120.84651191624889
415302.0,3480.0,415302.0,10121.0,415302.0,28713.0,271.5823092299026,55.212284025282635,119.76887008405565
415312.0,3485.0,415312.0,10140.0,415312.0,28727.0,268.3742615040347,54.762050733837704,118.77637274865106
415312.0,3461.0,415312.0,10119.0,415312.0,28734.0,265.2930260891368,54.35039882557385,117.86733230289951
415312.0,3453.0,415312.0,10139.0,415312.0,28715.0,262.34050823341903,53.97745683134627,117.04026600346708
415312.0,3477.0,415312.0,10128.0,415312.0,28719.0,259.5182439792682,53.64337450132003,116.29394218079506
415312.0,3465.0,415312.0,10150.0,415312.0,28728.0,256.8273950790393,53.348389141195184,115.62730639502676
415312.0,3450.0,415312.0,10119.0,415312.0,28699.0,254.26890160163111,53.092925086163824,115.03942316684397
415323.0,3444.0,415323.0,10137.0,415323.0,28717.0,251.84347851480817,52.8775947624464,114.52939689119066
415323.0,3446.0,415323.0,10118.0,415323.0,28712.0,249.55143395118964,52.70308108553933,114.09624970444644
415323.0,3441.0,415323.0,10109.0,415323.0,28690.0,247.39254591000838,52.5699720066771,113.73884942591089
415323.0,3446.0,415323.0,10120.0,415323.0,28690.0,245.3660621441936,52.478555282794645,113.45576618391416
415323.0,3439.0,415323.0,10138.0,415323.0,28728.0,243.4707503856489,52.42870904223726,113.2450840733096
415323.0,3449.0,415323.0,10142.0,415323.0,28717.0,241.7049625046056,52.42006824816856,113.10450180428559
415333.0,3451.0,415333.0,10141.0,415333.0,28683.0,240.0667369253403,52.45233349632744,113.031592885618
415333.0,3441.0,415333.0,10096.0,415333.0,28707.0,238.55393732521998,52.52537610057357,113.02375186553901
415333.0,3406.0,415333.0,10112.0,415333.0,28685.0,237.1642556625373,52.63894924596314,113.07791575238112
415333.0,3439.0,415333.0,10130.0,415333.0,28712.0,235.8949703212121,52.792292583884816,113.19042901728177
415333.0,3469.0,415333.0,10137.0,415333.0,28724.0,234.7428277639661,52.984103830149074,113.35713727563586
415333.0,3428.0,415333.0,10141.0,415333.0,28729.0,233.70435133840425,53.21284298790639,113.5736834553958
415343.0,3414.0,415343.0,10101.0,415343.0,28714.0,232.77608962279032,53.4769280652519,113.8358264720276
415343.0,3413.0,415343.0,10128.0,415343.0,28712.0,231.95435718052948,53.77458758441965,114.13951541681786
415343.0,3409.0,415343.0,10131.0,415343.0,28696.0,231.2348179388604,54.10362492265037,114.48070927556262
415343.0,3437.0,415343.0,10140.0,415343.0,28734.0,230.61233831813396,54.46145071753211,114.85517301360143
415343.0,3443.0,415343.0,10163.0,415343.0,28729.0,230.08117501180251,54.84535305170999,115.25851728966428
415343.0,3434.0,415343.0,10146.0,415343.0,28720.0,229.63534175402285,55.252813244441725,115.68644955533583
415354.0,3423.0,415354.0,10135.0,415354.0,28711.0,229.26883348491288,55.681679128128025,116.13487848223731
415354.0,3429.0,415354.0,10121.0,415354.0,28719.0,228.97557049066643,56.13001982621166,116.59976459750223
415354.0,3443.0,415354.0,10112.0,415354.0,28704.0,228.7493035333977,56.5957430524393,117.07694189305425
415354.0,3430.0,415354.0,10146.0,415354.0,28739.0,228.5836865856562,57.07627046068626,117.56205220106852
415354.0,3454.0,415354.0,10152.0,415354.0,28731.0,228.47243439773672,57.56855241298107,118.05065520598279
415354.0,3415.0,415354.0,10132.0,415354.0,28719.0,228.40942141657402,58.069359513951945,118.53843733108832
415364.0,3426.0,415364.0,10140.0,415364.0,28688.0,228.38861702434022,58.575438170048024,119.02118572864312
415364.0,3418.0,415364.0,10122.0,415364.0,28734.0,228.4038653897065,59.08338456882451,119.4944688256724
415364.0,3419.0,415364.0,10138.0,415364.0,28746.0,228.44870035747232,59.589449674275805,119.95352139746632
415364.0,3431.0,415364.0,10184.0,415364.0,28732.0,228.51630081018982,60.0895384328366,120.39357513449443
415364.0,3435.0,415364.0,10152.0,415364.0,28760.0,228.59957456838964,60.57955306535428,120.81023618143817
415364.0,3429.0,415364.0,10173.0,415364.0,28723.0,228.69132450245831,61.055799277047676,121.19963659625004
415374.0,3432.0,415374.0,10130.0,415374.0,28723.0,228.78436149370307,61.51505684185515,121.55836593960602
415374.0,3422.0,415374.0,10166.0,415374.0,28742.0,228.87149971600687,61.95436527199654,121.8832397843077
415374.0,3435.0,415374.0,10152.0,415374.0,28737.0,228.9455052992355,62.370842401748966,122.17118250553688
415374.0,3454.0,415374.0,10189.0,415374.0,28735.0,228.9991382420894,62.76175049649999,122.4193215942725
415374.0,3432.0,415374.0,10146.0,415374.0,28723.0,229.02535256513377,63.12471688884217,122.62502443875835
415374.0,3428.0,415374.0,10143.0,415374.0,28731.0,229.01743435017684,63.45776317323113,122.78577648079705
415385.0,3437.0,415385.0,10155.0,415385.0,28717.0,228.96890992317137,63.75902970802472,122.89903237414003
415385.0,3426.0,415385.0,10137.0,415385.0,28719.0,228.8734186736624,64.02650309602808,122.9620908208761
415385.0,3427.0,415385.0,10138.0,415385.0,28726.0,228.72467011957033,64.25788431984249,122.97198507488179
415385.0,3441.0,415385.0,10169.0,415385.0,28742.0,228.51642471145212,64.45051057979589,122.92549038607595
415385.0,3438.0,415385.0,10167.0,415385.0,28739.0,228.24255726623102,64.6014725692397,122.81931323941542
415385.0,3406.0,415385.0,10156.0,415385.0,28724.0,227.8971404951691,64.70790501050281,122.6502864271758
415395.0,3425.0,415395.0,10158.0,415395.0,28729.0,227.4743221668728,64.76711258232348,122.41536161592131
415395.0,3452.0,415395.0,10202.0,415395.0,28751.0,226.96817013626753,64.77657180334106,122.11151890876846
415395.0,3434.0,415395.0,10187.0,415395.0,28742.0,226.3728436255809,64.73417322520422,121.73586063134451
415395.0,3426.0,415395.0,10154.0,415395.0,28740.0,225.6828744089218,64.63854818772666,121.28581455995936
415395.0,3429.0,415395.0,10163.0,415395.0,28704.0,224.8931756036176,64.4889864151772,120.75912896064418
415395.0,3419.0,415395.0,10165.0,415395.0,28731.0,223.9988895474211,64.28506996877678,120.15359071570808
415406.0,3423.0,415406.0,10149.0,415406.0,28734.0,222.99528539239702,64.02646070393415,119.4667883836066
415406.0,3418.0,415406.0,10147.0,415406.0,28734.0,221.87770657292853,63.7127906563433,118.69618132458898
415406.0,3432.0,415406.0,10190.0,415406.0,28736.0,220.64157437145317,63.34356835017698,117.83930093003926
415406.0,3423.0,415406.0,10186.0,415406.0,28762.0,219.28248011037238,62.91836614667358,116.89391606643423
415406.0,3433.0,415406.0,10150.0,415406.0,28729.0,217.79631957016716,62.43718746052515,115.85822756901165
415406.0,3417.0,415406.0,10151.0,415406.0,28746.0,216.1793888246058,61.900473522939535,114.73099066840686
415416.0,3430.0,415416.0,10171.0,415416.0,28728.0,214.42841531467568,61.3087719515984,113.51145612594212
415416.0,3435.0,415416.0,10155.0,415416.0,28728.0,212.54060320350095,60.66258316264405,112.19924546911022
415416.0,3421.0,415416.0,10174.0,415416.0,28743.0,210.51375989810447,59.962453415080944,110.79426558549974
415416.0,3405.0,415416.0,10173.0,415416.0,28710.0,208.34635407083312,59.209104004447326,109.29668697255083
415416.0,3381.0,415416.0,10155.0,415416.0,28730.0,206.03730894966984,58.40353789826821,107.70690065018697
415416.0,3378.0,415416.0,10128.0,415416.0,28718.0,203.5855835450194,57.54695986798764,106.02541730420403
415426.0,3387.0,415426.0,10151.0,415426.0,28701.0,200.98980088699525,56.640429137686084,104.25278554937486
415426.0,3391.0,415426.0,10156.0,415426.0,28728.0,198.248154013454,55.68459461666393,102.38950501189558
415426.0,3406.0,415426.0,10163.0,415426.0,28731.0,195.35859784805243,54.67978993283328,100.43603742293284
415426.0,3395.0,415426.0,10165.0,415426.0,28723.0,192.31916107837202,53.62630408712381,98.39303308108141
415426.0,3382.0,415426.0,10139.0,415426.0,28702.0,189.12816560476216,52.52453630007806,96.261499464217
415426.0,3391.0,415426.0,10159.0,415426.0,28719.0,185.78424231480517,51.37493790073996,94.04270554875316
415437.0,3391.0,415437.0,10180.0,415437.0,28713.0,182.28629906093374,50.177953734354354,91.738054530134
415437.0,3394.0,415437.0,10150.0,415437.0,28690.0,178.63362504135097,48.93419175337772,89.34907263524674
415437.0,3376.0,415437.0,10173.0,415437.0,28703.0,174.82604662065322,47.64461638028266,86.87733791852227
415437.0,3363.0,415437.0,10139.0,415437.0,28690.0,170.86393628600766,46.31053896424272,84.32433482672064
415437.0,3363.0,415437.0,10135.0,415437.0,28675.0,166.7480443870603,44.9334417269822,81.69134983409977
415437.0,3352.0,415437.0,10122.0,415437.0,28678.0,162.47931554476,43.51466146594155,78.9793311999828
415447.0,3364.0,415447.0,10138.0,415447.0,28694.0,158.05882327043432,42.05507058343155,76.18876137746874
415447.0,3351.0,415447.0,10160.0,415447.0,28692.0,153.4878268112213,40.55502455581172,73.31975048537224
415447.0,3354.0,415447.0,10157.0,415447.0,28704.0,148.76787935479035,39.01464866829513,70.37231439868515
415447.0,3348.0,415447.0,10131.0,415447.0,28678.0,143.90091267201774,37.43416651451528,67.34661484152278
415447.0,3329.0,415447.0,10151.0,415447.0,28679.0,138.88926576491028,35.81394038747256,64.24299958089827
415447.0,3318.0,415447.0,10123.0,415447.0,28668.0,133.73559876755962,34.154318667689445,61.0618548570261
415457.0,3319.0,415457.0,10185.0,415457.0,28705.0,128.44270214250034,32.45559982558111,57.80350883736165
415457.0,3321.0,415457.0,10149.0,415457.0,28683.0,123.01338322090366,30.71827087584038,54.468402618983944
415457.0,3319.0,415457.0,10147.0,415457.0,28678.0,117.4505412999461,28.94331992333906,51.057360797665204
415457.0,3297.0,415457.0,10127.0,415457.0,28654.0,111.7572996626942,27.132230180935167,47.57161148350424
415457.0,3299.0,415457.0,10073.0,415457.0,28647.0,105.9370122893497,25.286562336552702,44.0125152612718
415457.0,3294.0,415457.0,10114.0,415457.0,28665.0,99.99318158343902,23.407313432360024,40.38127221172469
415468.0,3285.0,415468.0,10137.0,415468.0,28664.0,93.92943675786364,21.494519690965095,36.678882177528024
415468.0,3274.0,415468.0,10161.0,415468.0,28682.0,87.7495484814695,19.54755859566609,32.90639466127154
415468.0,3273.0,415468.0,10162.0,415468.0,28651.0,81.45739467097223,17.56589523175975,29.065221663707895
415468.0,3245.0,415468.0,10111.0,415468.0,28624.0,75.05688539965908,15.549596979631392,25.15719165339531
415468.0,3240.0,415468.0,10115.0,415468.0,28652.0,68.55181644108916,13.49923206472005,21.184269743371246
415468.0,3258.0,415468.0,10162.0,415468.0,28659.0,61.94570798537356,11.415485874430736,17.148373044463554
415478.0,3256.0,415478.0,10124.0,415478.0,28641.0,55.241873273962256,9.29915475677327,13.051568499550427
415478.0,3223.0,415478.0,10119.0,415478.0,28641.0,48.44367656189789,7.151381690107414,8.896305055837345
415478.0,3214.0,415478.0,10126.0,415478.0,28617.0,41.55458162462895,4.973611678607952,4.6853826190912145
415478.0,3212.0,415478.0,10114.0,415478.0,28627.0,34.57791986817554,2.7674064723013174,0.4217710377097319
415478.0,3207.0,415478.0,10079.0,415478.0,28596.0,27.516711843381415,0.5343007008325458,-3.891573241670173
415478.0,3216.0,415478.0,10128.0,415478.0,28606.0,20.37371204846994,-1.7244240735553333,-8.251882822506701
415488.0,3194.0,415488.0,10122.0,415488.0,28620.0,13.15157573430082,-4.007804585831998,-12.65668466952991
415488.0,3195.0,415488.0,10114.0,415488.0,28626.0,5.852983698577134,-6.314914240891326,-17.103653038273208
415488.0,3186.0,415488.0,10119.0,415488.0,28587.0,-1.5193337082880305,-8.644605002958265,-21.59031938612931
415488.0,3163.0,415488.0,10092.0,415488.0,28586.0,-8.962622862158668,-10.995507585856387,-26.114050157614273
415488.0,3166.0,415488.0,10108.0,415488.0,28603.0,-16.474189590009843,-13.366172606863977,-30.672282406424003
415488.0,3170.0,415488.0,10136.0,415488.0,28619.0,-24.051471648120042,-15.755126091824863,-35.26253367148631
415499.0,3166.0,415499.0,10123.0,415499.0,28589.0,-31.691935097916087,-18.160620817906782,-39.8820769106957
415499.0,3169.0,415499.0,10093.0,415499.0,28572.0,-39.39282502156743,-20.580324366894914,-44.527750077933106
415499.0,3129.0,415499.0,10060.0,415499.0,28514.0,-47.150981130447576,-23.01146404268473,-49.19627279705091
415499.0,3123.0,415499.0,10053.0,415499.0,28584.0,-54.962908588675646,-25.451457058415713,-53.88485167091332
415499.0,3114.0,415499.0,10055.0,415499.0,28531.0,-62.825059633328266,-27.898568716234657,-58.59148340138188
415499.0,3110.0,415499.0,10109.0,415499.0,28561.0,-70.73404885448409,-30.35213522492461,-63.31483640813096
415509.0,3104.0,415509.0,10098.0,415509.0,28570.0,-78.68667880246699,-32.812183241004334,-68.05404290120413
415509.0,3106.0,415509.0,10086.0,415509.0,28570.0,-86.6798590052363,-35.278820546396815,-72.80840752573855
415509.0,3075.0,415509.0,10081.0,415509.0,28573.0,-94.71051564038973,-37.75197058004319,-77.57701439917824
415509.0,3074.0,415509.0,10085.0,415509.0,28521.0,-102.77561541112036,-40.231464990589174,-82.35853207870227
415509.0,3057.0,415509.0,10092.0,415509.0,28541.0,-110.87231789305517,-42.717111731525236,-87.15139660211901
415509.0,3081.0,415509.0,10079.0,415509.0,28537.0,-118.99806015039127,-45.20861525757907,-91.95412170396665
415519.0,3067.0,415519.0,10095.0,415519.0,28536.0,-127.15040372271551,-47.705476323568234,-96.76536186812453
415519.0,3037.0,415519.0,10051.0,415519.0,28507.0,-135.32679180018658,-50.20697865344724,-101.58382742627086
415519.0,3040.0,415519.0,10058.0,415519.0,28506.0,-143.52453034583368,-52.71236165784464,-106.40838161157907
415519.0,3020.0,415519.0,10062.0,415519.0,28510.0,-151.74096694177615,-55.22112053333777,-111.23826496867045
415519.0,3018.0,415519.0,10068.0,415519.0,28505.0,-159.9736246011559,-57.733134255561424,-116.07317800114532
415519.0,3006.0,415519.0,10091.0,415519.0,28526.0,-168.2202542046722,-60.24848791629168,-120.91315327490031
415530.0,3022.0,415530.0,10101.0,415530.0,28512.0,-176.4788117140285,-62.7670804783139,-125.75829996158942
415530.0,3002.0,415530.0,10055.0,415530.0,28506.0,-184.74730357360232,-65.28823448825305,-130.60856248525283
415530.0,2983.0,415530.0,10041.0,415530.0,28495.0,-193.02362584046574,-67.81071047423752,-135.46365719325672
415530.0,2972.0,415530.0,10052.0,415530.0,28481.0,-201.30560960055135,-70.33316247709101,-140.32318907881725
415530.0,2979.0,415530.0,10081.0,415530.0,28488.0,-209.59118774462218,-72.85444585048307,-145.18681702243856
415530.0,2967.0,415530.0,10073.0,415530.0,28504.0,-217.87842211563333,-75.37340500754256,-150.0542915008942
415540.0,2942.0,415540.0,10064.0,415540.0,28494.0,-226.16542549871986,-77.88847708947516,-154.92525144758895
415540.0,2929.0,415540.0,10011.0,415540.0,28475.0,-234.4504335062107,-80.39764585807364,-159.79897657555586
415540.0,2915.0,415540.0,10028.0,415540.0,28450.0,-242.73205677492007,-82.89888549924689,-164.67442504322918
415540.0,2910.0,415540.0,10001.0,415540.0,28436.0,-251.00952127870687,-85.3907442953355,-169.55059898409047
415540.0,2908.0,415540.0,10049.0,415540.0,28437.0,-259.28277132951916,-87.87264122126234,-174.42698901324255
415540.0,2911.0,415540.0,10047.0,415540.0,28462.0,-267.5524130313082,-90.34471361076531,-179.30378203903814
415550.0,2907.0,415550.0,10010.0,415550.0,28455.0,-275.8195244993883,-92.80744459272708,-184.18168061577822
415550.0,2909.0,415550.0,10041.0,415550.0,28442.0,-284.08540770740746,-95.26152563277104,-189.06155846612384
415550.0,2893.0,415550.0,10005.0,415550.0,28450.0,-292.35136692825347,-97.70798249879536,-193.94428606774767
415550.0,2898.0,415550.0,10044.0,415550.0,28453.0,-300.61856432458603,-100.14825095231384,-198.83067973424656
415550.0,2880.0,415550.0,10064.0,415550.0,28437.0,-308.8879364611287,-102.58401797440834,-203.72138798293057
415550.0,2862.0,415550.0,10044.0,415550.0,28434.0,-317.16017575148487,-105.0167920560069,-208.6168082558042
415561.0,2859.0,415561.0,10029.0,415561.0,28408.0,-325.435827403664,-107.44754653465067,-213.5171736103592
415561.0,2845.0,415561.0,10015.0,415561.0,28411.0,-333.71543101232766,-109.87680829632788,-218.4227729397787
415561.0,2820.0,415561.0,10006.0,415561.0,28410.0,-341.9996379735003,-112.30502991341939,-223.33415698172837
415561.0,2839.0,415561.0,10004.0,415561.0,28394.0,-350.2893411305875,-114.73293556932435,-228.2522147525723
415561.0,2855.0,415561.0,10032.0,415561.0,28414.0,-358.58564663902746,-117.16167075867993,-233.17815883891666
415561.0,2817.0,415561.0,10036.0,415561.0,28421.0,-366.889556481931,-119.59263026792844,-238.11340130511417
415571.0,2810.0,415571.0,10022.0,415571.0,28398.0,-375.20172789787637,-122.02708582433888,-243.05928780085023
415571.0,2789.0,415571.0,10012.0,415571.0,28379.0,-383.5226011070849,-124.46598573603904,-248.01696302784046
415571.0,2782.0,415571.0,10006.0,415571.0,28392.0,-391.85267877788044,-126.91006612081637,-252.9875354922397
415571.0,2774.0,415571.0,10036.0,415571.0,28402.0,-400.1927224665391,-129.36000251517737,-257.9722096161109
415571.0,2783.0,415571.0,10005.0,415571.0,28388.0,-408.54380327772844,-131.8163488746772,-262.9721301839228
415571.0,2757.0,415571.0,9996.0,415571.0,28394.0,-416.9072127926083,-134.27944810183124,-267.98814955318363
415581.0,2751.0,415581.0,10014.0,415581.0,28350.0,-425.28439005791387,-136.749550858599,-273.0207847252394
415581.0,2753.0,415581.0,9975.0,415581.0,28346.0,-433.6769597108531,-139.2269848017653,-278.0704553165457
415581.0,2739.0,415581.0,9976.0,415581.0,28351.0,-442.08674358213733,-141.71232161422648,-283.13787289313353
415581.0,2736.0,415581.0,10009.0,415581.0,28362.0,-450.51569108572977,-144.20658431685254,-288.2242234534771
415581.0,2744.0,415581.0,9997.0,415581.0,28360.0,-458.96578702617074,-146.71120747334382,-293.3309953037979
415581.0,2724.0,415581.0,10030.0,415581.0,28366.0,-467.4389064076189,-149.2276733550303,-298.45966882686815
415592.0,2706.0,415592.0,9978.0,415592.0,28358.0,-475.9367011795109,-151.75716198365978,-303.6114603534153
415592.0,2702.0,415592.0,9987.0,415592.0,28349.0,-484.460670638984,-154.300518565516,-308.78717675637006
415592.0,2694.0,415592.0,9998.0,415592.0,28343.0,-493.0123061566911,-156.85848161559994,-313.9872029920994
415592.0,2707.0,415592.0,10008.0,415592.0,28333.0,-501.59309566378744,-159.43175283438825,-319.2115820889408
415592.0,2674.0,415592.0,10005.0,415592.0,28342.0,-510.2043817818154,-162.02075491078355,-324.4600884082324
415592.0,2657.0,415592.0,9989.0,415592.0,28321.0,-518.8473083003611,-164.625392930281,-329.73223346445326
415602.0,2654.0,415602.0,9973.0,415602.0,28310.0,-527.5230047150583,-167.2450824601215,-335.02728930755603
415602.0,2647.0,415602.0,9972.0,415602.0,28298.0,-536.2328003456103,-169.87901193481378,-340.34445090543915
415602.0,2652.0,415602.0,9954.0,415602.0,28319.0,-544.9782393164015,-172.52644912878023,-345.6830221966897
415602.0,2646.0,415602.0,9954.0,415602.0,28339.0,-553.7609226656285,-175.18699257598857,-351.0423283525457
415602.0,2654.0,415602.0,10021.0,415602.0,28312.0,-562.5822686032076,-177.86062629710045,-356.4213178456409
415602.0,2629.0,415602.0,9977.0,415602.0,28298.0,-571.4432697949278,-180.54734512044362,-361.81826516581845
415612.0,2630.0,415612.0,9955.0,415612.0,28281.0,-580.3443589355456,-183.24670879889814,-367.2308858724153
415612.0,2607.0,415612.0,9987.0,415612.0,28265.0,-589.2854210321661,-185.95787740118416,-372.6566980935425
415612.0,2617.0,415612.0,9991.0,415612.0,28287.0,-598.2658552468816,-188.67976170094397,-378.09332496150574
415612.0,2610.0,415612.0,9974.0,415612.0,28292.0,-607.2845507141661,-191.4108332551918,-383.5385093814758
415612.0,2571.0,415612.0,9994.0,415612.0,28300.0,-616.3398046856079,-194.14888764746883,-388.98979668884624
415612.0,2573.0,415612.0,9932.0,415612.0,28263.0,-625.4294036237667,-196.89104629122292,-394.4441807342917
415623.0,2559.0,415623.0,9938.0,415623.0,28249.0,-634.5508632523924,-199.6340616232573,-399.8980919143878
415623.0,2565.0,415623.0,9926.0,415623.0,28242.0,-643.70155240794,-202.37484685110098,-405.34774141133363
415623.0,2564.0,415623.0,9967.0,415623.0,28279.0,-652.8785955389849,-205.11080739688066,-410.78939879784696
415623.0,2558.0,415623.0,9954.0,415623.0,28259.0,-662.0786450076939,-207.8396867663759,-416.2192489774536
415623.0,2532.0,415623.0,9939.0,415623.0,28261.0,-671.297689234513,-210.5592183430073,-421.63302892986087
415623.0,2524.0,415623.0,9957.0,415623.0,28244.0,-680.531062741908,-213.26698994980427,-427.02584710787755
415633.0,2518.0,415633.0,9939.0,415633.0,28224.0,-689.7736035875214,-215.96046863857288,-432.39226859859497
415633.0,2530.0,415633.0,9954.0,415633.0,28248.0,-699.019711444062,-218.6369753187901,-437.7265043096182
415633.0,2514.0,415633.0,9965.0,415633.0,28250.0,-708.2631870941942,-221.2935749055992,-443.02243520062774
415633.0,2497.0,415633.0,9941.0,415633.0,28263.0,-717.4970295870872,-223.92689421757714,-448.27332199323416
415633.0,2490.0,415633.0,9925.0,415633.0,28230.0,-726.7134118447732,-226.5330619977001,-453.47143733514525
415633.0,2468.0,415633.0,9912.0,415633.0,28209.0,-735.9038086377409,-229.10796949048077,-458.6080031226613
415644.0,2461.0,415644.0,9916.0,415644.0,28196.0,-745.0591598067418,-231.64766753935,-463.6735303703063
415644.0,2470.0,415644.0,9944.0,415644.0,28174.0,-754.1699840090828,-234.14854820631973,-468.65831906178954
415644.0,2436.0,415644.0,9962.0,415644.0,28210.0,-763.226370427943,-236.607106644781,-473.5528147258377
415644.0,2465.0,415644.0,9977.0,415644.0,28243.0,-772.2179074395824,-239.01935619917876,-478.3475245605143
415644.0,2433.0,415644.0,9930.0,415644.0,28198.0,-781.1335890348481,-241.380287429192,-483.0324711558732
415644.0,2428.0,415644.0,9898.0,415644.0,28186.0,-789.9617134997785,-243.6838690270504,-487.5967993367392
415654.0,2406.0,415654.0,9919.0,415654.0,28193.0,-798.6899183964657,-245.9236191218475,-492.028935124262
415654.0,2424.0,415654.0,9934.0,415654.0,28192.0,-807.3053137723047,-248.09308742943904,-496.3168479027906
415654.0,2423.0,415654.0,9974.0,415654.0,28192.0,-815.7944448433575,-250.1856980024737,-500.4480397533995
415654.0,2407.0,415654.0,9937.0,415654.0,28167.0,-824.1430400484257,-252.19416123321025,-504.4094586427428
415654.0,2386.0,415654.0,9912.0,415654.0,28160.0,-832.3358363268923,-254.11012517709236,-508.18759693059025
415654.0,2374.0,415654.0,9868.0,415654.0,28152.0,-840.3566864793213,-255.92451570068798,-511.7687634745574
415664.0,2363.0,415664.0,9896.0,415664.0,28148.0,-848.1888175625405,-257.62831477946037,-515.1393435837922
415664.0,2359.0,415664.0,9924.0,415664.0,28176.0,-855.8150344200537,-259.21304869308045,-518.2858853640803
415664.0,2375.0,415664.0,9927.0,415664.0,28155.0,-863.2177575838056,-260.6705857089068,-521.1949562296361
415664.0,2350.0,415664.0,9926.0,415664.0,28135.0,-870.3788778899614,-261.9926037501534,-523.852982507828
415664.0,2339.0,415664.0,9888.0,415664.0,28150.0,-877.2796206319058,-263.1703273365166,-526.2463457737879
