c_ts,c_val,d_ts,d_val,e_ts,e_val,c_val_filtered,d_val_filtered,e_val_filtered
172725.0,9819.0,172725.0,22973.0,172725.0,24258.0,-330.50303303030233,-257.0143481887397,-30.591595004444684
172725.0,9814.0,172725.0,23016.0,172725.0,24236.0,-341.38737124805743,-268.8027438573254,-41.29477784673506
172736.0,9803.0,172736.0,22956.0,172736.0,24241.0,-352.4312311631777,-280.6882781458185,-52.216220049270234
172736.0,9754.0,172736.0,22925.0,172736.0,24179.0,-363.61419530276953,-292.6398096039701,-63.33390454091716
172736.0,9749.0,172736.0,22823.0,172736.0,24182.0,-374.9156917199244,-304.6256513210902,-74.62560486694176
172736.0,9708.0,172736.0,22817.0,172736.0,24149.0,-386.31554143434295,-316.61486419185644,-86.06934873270279
172736.0,9713.0,172736.0,22792.0,172736.0,24132.0,-397.79448631941733,-328.5786465688147,-97.64383370370768
172736.0,9698.0,172736.0,22824.0,172736.0,24130.0,-409.3345402323016,-340.4911129853557,-109.3287249389324
172746.0,9701.0,172746.0,22841.0,172746.0,24143.0,-420.91910734183864,-352.329240262437,-121.10476279051719
172746.0,9712.0,172746.0,22822.0,172746.0,24132.0,-432.53288037757625,-364.0722772993787,-132.95355545866443
172746.0,9699.0,172746.0,22833.0,172746.0,24133.0,-444.1615719557449,-375.70114749087145,-144.85720303691514
172746.0,9707.0,172746.0,22831.0,172746.0,24124.0,-455.791594833845,-387.19808122578195,-156.7979822295693
172746.0,9720.0,172746.0,22894.0,172746.0,24126.0,-467.40975227322974,-398.5461836311166,-168.75810649343512
172746.0,9722.0,172746.0,22896.0,172746.0,24132.0,-479.00283372257445,-409.72859209089575,-180.7194609981177
172756.0,9699.0,172756.0,22835.0,172756.0,24099.0,-490.5571688728694,-420.72751551437125,-192.66330691559284
172756.0,9649.0,172756.0,22766.0,172756.0,24076.0,-502.05849062001835,-431.52404634514585,-204.57016407333933
172756.0,9637.0,172756.0,22738.0,172756.0,24028.0,-513.4923239165629,-442.09908789655515,-216.42008304653558
172756.0,9647.0,172756.0,22735.0,172756.0,24018.0,-524.8445771761141,-452.43463669863826,-228.19323041645657
172756.0,9613.0,172756.0,22705.0,172756.0,24001.0,-536.1018550485785,-462.5146190681278,-239.8704842776229
172756.0,9629.0,172756.0,22725.0,172756.0,24019.0,-547.2515092073771,-472.3252339024431,-251.4337390960559
172767.0,9633.0,172767.0,22725.0,172767.0,24004.0,-558.2815915018847,-481.8549823225426,-262.8658254203366
172767.0,9622.0,172767.0,22731.0,172767.0,24004.0,-569.180643103477,-491.0944169906826,-274.15022514412766
172767.0,9607.0,172767.0,22732.0,172767.0,23976.0,-579.9374475290442,-500.03575516274816,-285.2708581059151
172767.0,9631.0,172767.0,22798.0,172767.0,24002.0,-590.5409199320525,-508.6723982853209,-296.2120053242498
172767.0,9643.0,172767.0,22844.0,172767.0,24015.0,-600.9799043478548,-516.9980285340305,-306.9581123816262
172767.0,9616.0,172767.0,22783.0,172767.0,23982.0,-611.2427416438393,-525.0053331142692,-317.49333788245605
172777.0,9584.0,172777.0,22747.0,172777.0,23942.0,-621.3170072123056,-532.6852813820645,-327.80127247527145
172777.0,9558.0,172777.0,22701.0,172777.0,23926.0,-631.1897749597957,-540.0275601212329,-337.86522762767316
172777.0,9554.0,172777.0,22664.0,172777.0,23907.0,-640.8481955021272,-547.021685620866,-347.6688275532493
172777.0,9540.0,172777.0,22656.0,172777.0,23887.0,-650.2799700677937,-553.658131118314,-357.19649401087156
172777.0,9541.0,172777.0,22670.0,172777.0,23883.0,-659.4735768352645,-559.929107686102,-366.4337718839544
172777.0,9552.0,172777.0,22690.0,172777.0,23911.0,-668.4182946201498,-565.8287620854169,-375.36745758976383
172787.0,9545.0,172787.0,22695.0,172787.0,23900.0,-677.1040445220029,-571.3528484989461,-383.9853769846911
172787.0,9544.0,172787.0,22691.0,172787.0,23873.0,-685.5211510655147,-576.4982426519562,-392.2760054498172
172787.0,9562.0,172787.0,22731.0,172787.0,23890.0,-693.6601324462503,-581.2625413113384,-400.2283211330889
172787.0,9569.0,172787.0,22784.0,172787.0,23889.0,-701.5114210359802,-585.6435104970487,-407.8317945872881
172787.0,9564.0,172787.0,22758.0,172787.0,23896.0,-709.0649638664238,-589.6381700036785,-415.0761933932393
172787.0,9546.0,172787.0,22715.0,172787.0,23873.0,-716.3099239911182,-593.2420688140658,-421.9512891328606
172798.0,9505.0,172798.0,22649.0,172798.0,23833.0,-723.2347400658718,-596.4495225439371,-428.4468131027181
172798.0,9501.0,172798.0,22659.0,172798.0,23815.0,-729.8275849714756,-599.25471592005,-434.5528533529237
172798.0,9501.0,172798.0,22635.0,172798.0,23813.0,-736.0769364795115,-601.6528488342927,-440.2604869610169
172798.0,9494.0,172798.0,22647.0,172798.0,23823.0,-741.9719041627604,-603.6407959330364,-445.56220263788873
172798.0,9497.0,172798.0,22663.0,172798.0,23825.0,-747.5023027991875,-605.2173244077567,-450.45191764984475
172798.0,9490.0,172798.0,22673.0,172798.0,23822.0,-752.6586547537956,-606.382989482828,-454.9247633393233
172808.0,9491.0,172808.0,22717.0,172808.0,23821.0,-757.4321965446695,-607.1397521633141,-458.9768883613511
172808.0,9502.0,172808.0,22710.0,172808.0,23827.0,-761.8148676387747,-607.490406249814,-462.6053465798525
172808.0,9526.0,172808.0,22751.0,172808.0,23854.0,-765.7991684335261,-607.4379622962799,-465.8079321395114
172808.0,9535.0,172808.0,22793.0,172808.0,23860.0,-769.377790549103,-606.9850106904971,-468.58281003465856
172808.0,9523.0,172808.0,22748.0,172808.0,23838.0,-772.543169433776,-606.1330273431666,-470.9280717705097
172808.0,9502.0,172808.0,22713.0,172808.0,23811.0,-775.2872954602271,-604.8820792692943,-472.8416128303082
172818.0,9479.0,172818.0,22678.0,172818.0,23811.0,-777.6019658934712,-603.2314136836391,-474.32147771961843
172818.0,9476.0,172818.0,22682.0,172818.0,23788.0,-779.47933632572,-601.1805622838729,-475.36637719076543
172818.0,9474.0,172818.0,22685.0,172818.0,23794.0,-780.9124622074606,-598.7302402891366,-475.9761166453929
172818.0,9481.0,172818.0,22681.0,172818.0,23783.0,-781.8956202540577,-595.8827872711155,-476.15190944283916
172818.0,9514.0,172818.0,22747.0,172818.0,23835.0,-782.4243492356109,-592.6422327185134,-475.89649416819645
172818.0,9512.0,172818.0,22753.0,172818.0,23837.0,-782.4952083101023,-589.0139437598198,-475.2138757101794
172829.0,9525.0,172829.0,22762.0,172829.0,23824.0,-782.1054129198931,-585.0039743173586,-474.10882970065944
172829.0,9523.0,172829.0,22789.0,172829.0,23833.0,-781.2525912122669,-580.6185425301092,-472.58662957560307
172829.0,9558.0,172829.0,22847.0,172829.0,23884.0,-779.9346509586262,-575.8636200674057,-470.65298396586974
172829.0,9563.0,172829.0,22823.0,172829.0,23876.0,-778.1495546799387,-570.7443275588346,-468.313722844381
172829.0,9544.0,172829.0,22813.0,172829.0,23857.0,-775.8950435227638,-565.2644496300455,-465.5743395070112
172829.0,9531.0,172829.0,22768.0,172829.0,23844.0,-773.1686539847968,-559.4266279277867,-462.43995484336693
172839.0,9528.0,172839.0,22770.0,172839.0,23855.0,-769.968140888978,-553.2331854625393,-458.9157239579611
172839.0,9528.0,172839.0,22771.0,172839.0,23847.0,-766.292011217238,-546.6870620771604,-455.00723570785624
172839.0,9525.0,172839.0,22711.0,172839.0,23835.0,-762.1399341170865,-539.7925776319418,-450.72076939586356
172839.0,9571.0,172839.0,22821.0,172839.0,23858.0,-757.5129623629833,-532.5560592241964,-446.0635500940874
172839.0,9567.0,172839.0,22842.0,172839.0,23853.0,-752.4134661168428,-524.9859376692639,-441.0439437034819
172839.0,9576.0,172839.0,22847.0,172839.0,23897.0,-746.8448841858403,-517.092039835605,-435.67143771145174
172849.0,9593.0,172849.0,22875.0,172849.0,23892.0,-740.8115861404175,-508.8848030809128,-429.95640130628664
172849.0,9627.0,172849.0,22931.0,172849.0,23935.0,-734.3187986367326,-500.37482836562003,-423.9097176360965
172849.0,9672.0,172849.0,22966.0,172849.0,23945.0,-727.3722861751879,-491.5722900706406,-417.54236073610826
172849.0,9677.0,172849.0,22960.0,172849.0,23956.0,-719.9777416079916,-482.4861151653053,-410.86496332452987
172849.0,9655.0,172849.0,22919.0,172849.0,23942.0,-712.1402828632421,-473.1235567325609,-403.8875491574727
172849.0,9641.0,172849.0,22891.0,172849.0,23908.0,-703.8645292543303,-463.49064523319953,-396.61967649532494
172860.0,9636.0,172860.0,22868.0,172860.0,23916.0,-695.1552389927864,-453.59333310884193,-389.0710308043059
172860.0,9653.0,172860.0,22898.0,172860.0,23923.0,-686.018046338627,-443.4387092080624,-381.25213246359306
172860.0,9680.0,172860.0,22907.0,172860.0,23944.0,-676.4598955035374,-433.03574046956317,-373.17473619916836
172860.0,9698.0,172860.0,22983.0,172860.0,23977.0,-666.4890699305668,-422.3953463440787,-364.8518146414606
172860.0,9735.0,172860.0,22973.0,172860.0,23981.0,-656.1149523113354,-411.52992910816226,-356.297265262215
172860.0,9723.0,172860.0,23003.0,172860.0,24005.0,-645.3477275634383,-400.4527766054373,-347.52556288294045
172870.0,9766.0,172870.0,23023.0,172870.0,24015.0,-634.1982065531581,-389.1777134309313,-338.5515131360269
172870.0,9820.0,172870.0,23098.0,172870.0,24058.0,-622.6776548835198,-377.7188038333507,-329.3900274896474
172870.0,9823.0,172870.0,23106.0,172870.0,24062.0,-610.7973390326897,-366.0897234111633,-320.05578377278897
172870.0,9821.0,172870.0,23085.0,172870.0,24075.0,-598.5680282802734,-354.30307033218173,-310.5628627899664
172870.0,9802.0,172870.0,23062.0,172870.0,24075.0,-586.000002510159,-342.37030977379266,-300.9245791164054
172870.0,9809.0,172870.0,23064.0,172870.0,24048.0,-573.1036080367728,-330.30247259764815,-291.1536169243348
172881.0,9836.0,172881.0,23066.0,172881.0,24068.0,-559.8899239910069,-318.11105135636274,-281.2624582650832
172881.0,9845.0,172881.0,23074.0,172881.0,24077.0,-546.371146319435,-305.8086601866651,-271.2638726872718
172881.0,9877.0,172881.0,23120.0,172881.0,24086.0,-532.5606627216781,-293.40937523287494,-261.1711743421461
172881.0,9902.0,172881.0,23177.0,172881.0,24103.0,-518.4729699053851,-280.9286256682011,-250.99827449046825
172881.0,9935.0,172881.0,23170.0,172881.0,24134.0,-504.12346712752174,-268.3826186688612,-240.75963825904108
172881.0,9945.0,172881.0,23204.0,172881.0,24151.0,-489.52817614624917,-255.78774913490793,-230.4700844861435
172891.0,10000.0,172891.0,23248.0,172891.0,24170.0,-474.70347815379483,-243.1602708884824,-220.14446259373662
172891.0,10031.0,172891.0,23324.0,172891.0,24206.0,-459.6657720594606,-230.5158220580039,-209.7973213631148
172891.0,10052.0,172891.0,23295.0,172891.0,24184.0,-444.43097871861653,-217.86858152075723,-199.44261973104057
172891.0,10033.0,172891.0,23273.0,172891.0,24204.0,-429.01418806678015,-205.2307095658311,-189.09362889418674
172891.0,10034.0,172891.0,23253.0,172891.0,24195.0,-413.42982100810895,-192.6127239581469,-178.7631163380775
172891.0,10043.0,172891.0,23252.0,172891.0,24199.0,-397.6922347351082,-180.02452161272845,-168.4636636275559
172901.0,10055.0,172901.0,23241.0,172901.0,24216.0,-381.81636423608194,-167.47639793528901,-158.20798195213735
172901.0,10096.0,172901.0,23268.0,172901.0,24227.0,-365.8181080994155,-154.9798085040856,-148.00912585226322
172901.0,10137.0,172901.0,23350.0,172901.0,24248.0,-349.71434277133505,-142.54767442274624,-137.8805298344123
172901.0,10153.0,172901.0,23346.0,172901.0,24276.0,-333.5225991526926,-130.19399621700677,-127.83588971251427
172901.0,10170.0,172901.0,23333.0,172901.0,24268.0,-317.260702522879,-117.93322512367911,-117.88895907214345
172901.0,10203.0,172901.0,23410.0,172901.0,24308.0,-300.94662009470676,-105.78004498332848,-108.05338386323376
172912.0,10260.0,172912.0,23478.0,172912.0,24368.0,-284.59832337122145,-93.7491352453822,-98.34246539860692
172912.0,10280.0,172912.0,23485.0,172912.0,24360.0,-268.23338140400335,-81.85428119334847,-88.76859026257361
172912.0,10280.0,172912.0,23480.0,172912.0,24343.0,-251.86847257944578,-70.10739756443206,-79.34266669025462
172912.0,10273.0,172912.0,23426.0,172912.0,24331.0,-235.51929601096225,-58.51837579786746,-70.07418627879244
172912.0,10279.0,172912.0,23417.0,172912.0,24322.0,-219.20100746552487,-47.09589011507785,-60.97185401255396
172912.0,10288.0,172912.0,23446.0,172912.0,24326.0,-202.92886563263812,-35.84857319894047,-52.04431273815132
172922.0,10312.0,172922.0,23458.0,172922.0,24349.0,-186.71876241566645,-24.785788115997377,-43.30066026379319
172922.0,10368.0,172922.0,23463.0,172922.0,24372.0,-170.5874384174283,-13.917820125659887,-34.75061511182139
172922.0,10386.0,172922.0,23534.0,172922.0,24396.0,-154.5522819141994,-3.2557936476930536,-26.404332650715162
172922.0,10413.0,172922.0,23526.0,172922.0,24381.0,-138.63089898114072,7.188645471370592,-18.272106044476402
172922.0,10425.0,172922.0,23542.0,172922.0,24417.0,-122.8408103822544,17.40377346964192,-10.364222871463653
172922.0,10481.0,172922.0,23611.0,172922.0,24466.0,-107.1993110837235,27.378101320369865,-2.6908414936233385
172932.0,10519.0,172932.0,23671.0,172932.0,24481.0,-91.72319231489905,37.100890808850636,4.738481469139856
172932.0,10514.0,172932.0,23659.0,172932.0,24470.0,-76.42826086026832,46.56313748243758,11.915434794876603
172932.0,10514.0,172932.0,23634.0,172932.0,24462.0,-61.32908406894899,55.75832060589323,18.833195036878294
172932.0,10520.0,172932.0,23601.0,172932.0,24446.0,-46.439255532093966,64.68219996473044,25.48612015718794
172932.0,10535.0,172932.0,23591.0,172932.0,24463.0,-31.771911796968766,73.33184388965981,31.8692103401404
172932.0,10548.0,172932.0,23588.0,172932.0,24469.0,-17.34014754221903,81.70451802862061,37.977696396482486
172943.0,10563.0,172943.0,23604.0,172943.0,24457.0,-3.157268068429289,89.7968660297264,43.80685306452034
172943.0,10607.0,172943.0,23661.0,172943.0,24482.0,10.763101089660495,97.6045906800947,49.351867374781875
172943.0,10651.0,172943.0,23645.0,172943.0,24505.0,24.4071733342156,105.12266192416712,54.60777032807027
172943.0,10652.0,172943.0,23682.0,172943.0,24509.0,37.76144558950239,112.34571596420858,59.569604058841264
172943.0,10684.0,172943.0,23731.0,172943.0,24520.0,50.81310495055732,119.26840073297058,64.23269714874715
172943.0,10714.0,172943.0,23758.0,172943.0,24562.0,63.55022783756863,125.88591884746575,68.59289646877426
172953.0,10752.0,172953.0,23770.0,172953.0,24570.0,75.962016938376,132.19479856552618,72.64691759381418
172953.0,10756.0,172953.0,23758.0,172953.0,24547.0,88.0391835802426,138.19344160384185,76.39276130220736
172953.0,10724.0,172953.0,23725.0,172953.0,24531.0,99.77413589484172,143.88210794047654,79.82975509260058
172953.0,10735.0,172953.0,23688.0,172953.0,24526.0,111.16062095243922,149.26227492066602,82.95809431264212
172953.0,10754.0,172953.0,23722.0,172953.0,24526.0,122.19304575059266,154.33563779837652,85.77825731379374
172953.0,10757.0,172953.0,23719.0,172953.0,24529.0,132.8660034363113,159.10335272338807,88.29060426217512
172963.0,10788.0,172963.0,23750.0,172963.0,24548.0,143.17411018565815,163.565845925384,90.4952061415105
172963.0,10814.0,172963.0,23761.0,172963.0,24559.0,153.11202745152673,167.72298466836367,92.39189584458376
172963.0,10836.0,172963.0,23812.0,172963.0,24580.0,162.67467380357868,171.57443389810464,93.9805130182121
172963.0,10833.0,172963.0,23781.0,172963.0,24584.0,171.85749903905514,175.1201378717002,95.26124350176946
172963.0,10876.0,172963.0,23857.0,172963.0,24601.0,180.65662847538294,178.36075678274915,96.23494610264504
172963.0,10913.0,172963.0,23873.0,172963.0,24633.0,189.06903339728353,181.29814539773463,96.90348288702825
172974.0,10917.0,172974.0,23847.0,172974.0,24610.0,197.0929463436513,183.93598700331103,97.27010961649182
172974.0,10899.0,172974.0,23820.0,172974.0,24565.0,204.72822586742393,186.28006655154047,97.33963889792176
172974.0,10886.0,172974.0,23798.0,172974.0,24568.0,211.97620941799994,188.3377761164088,97.1180116721485
172974.0,10902.0,172974.0,23766.0,172974.0,24543.0,218.83913125641686,190.11717627644742,96.61152783148145
172974.0,10911.0,172974.0,23751.0,172974.0,24554.0,225.31958903705504,191.62598758589337,95.82622552255174
172974.0,10896.0,172974.0,23797.0,172974.0,24558.0,231.42026541242058,192.87076890154418,94.76755059959487
172984.0,10938.0,172984.0,23822.0,172984.0,24584.0,237.14374268766596,193.85669111816946,93.4403302040293
172984.0,10951.0,172984.0,23829.0,172984.0,24580.0,242.49244282273048,194.58797086376927,91.84902196240057
172984.0,10961.0,172984.0,23835.0,172984.0,24589.0,247.46882221898397,195.06843781884112,89.99803829580571
172984.0,10967.0,172984.0,23866.0,172984.0,24596.0,252.075606698711,195.30188743841597,87.89197974743695
172984.0,10999.0,172984.0,23925.0,172984.0,24626.0,256.3159026766299,195.29250024335192,85.53586622447403
172984.0,11021.0,172984.0,23894.0,172984.0,24600.0,260.1933787113222,195.04557242077578,82.9354692104717
172994.0,11014.0,172994.0,23909.0,172994.0,24602.0,263.7125962599588,194.56815891839187,80.09754443359168
172994.0,10985.0,172994.0,23824.0,172994.0,24554.0,266.879153579848,193.86907840478005,77.0296996948909
172994.0,11000.0,172994.0,23806.0,172994.0,24553.0,269.6993714529634,192.9581382094546,73.73989359249742
172994.0,10985.0,172994.0,23813.0,172994.0,24538.0,272.1797634040645,191.84493514279274,70.2357996530369
172994.0,10988.0,172994.0,23796.0,172994.0,24537.0,274.32660794014237,190.53791388713677,66.5243148938265
172994.0,11017.0,172994.0,23806.0,172994.0,24557.0,276.1456772495678,189.04393562785168,62.611340068612094
173004.0,11037.0,173004.0,23853.0,173004.0,24568.0,277.64223346809206,187.36819273931314,58.5018698272699
173004.0,11033.0,173004.0,23850.0,173004.0,24558.0,278.82131458794936,185.51451180409197,54.20031367251522
173004.0,11036.0,173004.0,23861.0,173004.0,24571.0,279.6879880685334,183.48590515826237,49.710788512524175
173004.0,11060.0,173004.0,23922.0,173004.0,24598.0,280.2474019927156,181.28508953646025,45.03734623522189
173004.0,11094.0,173004.0,23950.0,173004.0,24626.0,280.5049088297825,178.91518824846702,40.18441341451705
173004.0,11089.0,173004.0,23927.0,173004.0,24601.0,280.4664640089852,176.38068761878247,35.15745110486091
173014.0,11067.0,173014.0,23875.0,173014.0,24554.0,280.1389894995842,173.68795951495258,29.963318525666693
173014.0,11043.0,173014.0,23859.0,173014.0,24543.0,279.5302549624788,170.84484186250052,24.609929640982386
173014.0,11037.0,173014.0,23849.0,173014.0,24506.0,278.64828637205085,167.85969585502818,19.10545942814747
173014.0,11036.0,173014.0,23798.0,173014.0,24507.0,277.50069851424223,164.74053256710698,13.457573138440239
173014.0,11042.0,173014.0,23808.0,173014.0,24510.0,276.09425871693634,161.4942410940929,7.672902928433416
173014.0,11077.0,173014.0,23885.0,173014.0,24546.0,274.43477668942285,158.12607379823118,1.756935542248982
173024.0,11098.0,173024.0,23865.0,173024.0,24558.0,272.5273708483751,154.6399024683251,-4.28559810174977
173024.0,11075.0,173024.0,23882.0,173024.0,24518.0,270.3769591623296,151.0389922570722,-10.450135159387798
173024.0,11095.0,173024.0,23882.0,173024.0,24535.0,267.9885675788322,147.32653234693362,-16.732015198748172
173024.0,11123.0,173024.0,23943.0,173024.0,24573.0,265.3674214691588,143.50595561075846,-23.126465950479883
173024.0,11135.0,173024.0,23954.0,173024.0,24559.0,262.5192145507449,139.58155106209256,-29.62829826913068
173024.0,11102.0,173024.0,23889.0,173024.0,24553.0,259.45052071288353,135.55919898418222,-36.23139141307294
173035.0,11076.0,173035.0,23813.0,173035.0,24493.0,256.1688203702653,131.44632399285325,-42.92856581219945
173035.0,11071.0,173035.0,23825.0,173035.0,24481.0,252.68197316575777,127.25073598104433,-49.71207422565993
173035.0,11067.0,173035.0,23818.0,173035.0,24481.0,248.99755772115816,122.9792977230158,-56.57437355604486
173035.0,11054.0,173035.0,23800.0,173035.0,24464.0,245.1224282948263,118.6372445789874,-63.508669608835675
173035.0,11086.0,173035.0,23850.0,173035.0,24487.0,241.06249215747795,114.22801443102878,-70.50909134973406
173035.0,11087.0,173035.0,23830.0,173035.0,24467.0,236.8227358016817,109.75337924309451,-77.57063856011811
173045.0,11098.0,173045.0,23862.0,173045.0,24484.0,232.4075018191042,105.21381539821732,-84.6890285512354
173045.0,11095.0,173045.0,23864.0,173045.0,24472.0,227.82079367422165,100.60891442771293,-91.86053316831607
173045.0,11107.0,173045.0,23919.0,173045.0,24491.0,223.066464548024,95.93786244326293,-99.08180420226074
173045.0,11146.0,173045.0,23957.0,173045.0,24500.0,218.14843582767043,91.20023112306922,-106.34960638444954
173045.0,11126.0,173045.0,23933.0,173045.0,24489.0,213.0711090357549,86.39701348437404,-113.6604540300223
173045.0,11102.0,173045.0,23913.0,173045.0,24456.0,207.8397181045948,81.53132970906421,-121.01038214259592
173055.0,11074.0,173055.0,23824.0,173055.0,24445.0,202.4601786582615,76.60824443763693,-128.3951111310709
173055.0,11066.0,173055.0,23787.0,173055.0,24432.0,196.93847865877115,71.63364484215487,-135.81048586575443
173055.0,11066.0,173055.0,23820.0,173055.0,24408.0,191.2800514039742,66.6127520414347,-143.25290386325176
173055.0,11065.0,173055.0,23816.0,173055.0,24421.0,185.4894180612705,61.54920671517533,-150.71964773223425
173055.0,11085.0,173055.0,23869.0,173055.0,24433.0,179.57011980590693,56.44510314901106,-158.20902485355475
173055.0,11105.0,173055.0,23858.0,173055.0,24438.0,173.52491715977857,51.301578994671445,-165.72017272140644
173066.0,11092.0,173066.0,23837.0,173066.0,24442.0,167.3561896325205,46.11940212699733,-173.2526574966486
173066.0,11107.0,173066.0,23874.0,173066.0,24448.0,161.0662967739558,40.89920445185686,-180.806094485383
173066.0,11114.0,173066.0,23918.0,173066.0,24452.0,154.6577953243173,35.64167631144983,-188.37982698955167
173066.0,11136.0,173066.0,23945.0,173066.0,24445.0,148.13369856491545,30.348277982945262,-195.97264128650636
173066.0,11106.0,173066.0,23866.0,173066.0,24432.0,141.49781825818008,25.022134326646892,-203.5825926404909
173066.0,11092.0,173066.0,23806.0,173066.0,24395.0,134.75489563889874,19.66807841061194,-211.2070739287995
173076.0,11045.0,173076.0,23793.0,173076.0,24392.0,127.91027241741244,14.291534384362706,-218.84317551338933
173076.0,11059.0,173076.0,23789.0,173076.0,24372.0,120.9692250943574,8.897137988693203,-226.48816644537794
173076.0,11075.0,173076.0,23771.0,173076.0,24371.0,113.93642383091571,3.4879121253663357,-234.1398684104094
173076.0,11047.0,173076.0,23815.0,173076.0,24384.0,106.8158273646784,-1.9350168146404485,-241.79682738310214
173076.0,11054.0,173076.0,23832.0,173076.0,24381.0,99.61074669454678,-7.37225707081285,-249.45824258419995
173076.0,11073.0,173076.0,23820.0,173076.0,24372.0,92.32382444440157,-12.82560887702283,-257.12374790274765
173086.0,11066.0,173086.0,23862.0,173086.0,24364.0,84.95713419448055,-18.297501276969967,-264.79328258578664
173086.0,11081.0,173086.0,23883.0,173086.0,24392.0,77.51245635882452,-23.790479170434082,-272.4670552570095
173086.0,11104.0,173086.0,23913.0,173086.0,24414.0,69.99160304564765,-29.306475413738724,-280.1452977111971
173086.0,11101.0,173086.0,23905.0,173086.0,24382.0,62.396838384734,-34.845963016808014,-287.8277437231147
173086.0,11071.0,173086.0,23838.0,173086.0,24355.0,54.731258670024204,-40.40748521776021,-295.5133145129662
173086.0,11042.0,173086.0,23779.0,173086.0,24337.0,46.998751783525734,-45.98807744700423,-303.20037717239387
173097.0,11028.0,173097.0,23763.0,173097.0,24324.0,39.20347509161053,-51.58454276953523,-310.8873089526577
173097.0,11003.0,173097.0,23777.0,173097.0,24315.0,31.349175490609923,-57.19477544587835,-318.5729728364705
173097.0,11019.0,173097.0,23801.0,173097.0,24300.0,23.438640869406186,-62.818353566813244,-326.25702956108546
173097.0,11029.0,173097.0,23780.0,173097.0,24310.0,15.47346298801051,-68.45641296161651,-333.9401407642469
173097.0,11038.0,173097.0,23817.0,173097.0,24352.0,7.454190611855665,-74.11131641498866,-341.6239357670895
173097.0,11044.0,173097.0,23824.0,173097.0,24319.0,-0.6192930940730434,-79.78631850680506,-349.31060840850665
173107.0,11045.0,173107.0,23815.0,173107.0,24327.0,-8.74740368299058,-85.48514505427613,-357.00245958215316
173107.0,11067.0,173107.0,23904.0,173107.0,24351.0,-16.93054155405889,-91.21148908064444,-364.701676825543
173107.0,11070.0,173107.0,23908.0,173107.0,24329.0,-25.168731918529602,-96.9682046366527,-372.41012221144507
173107.0,11058.0,173107.0,23854.0,173107.0,24318.0,-33.46123883242416,-102.75630562358862,-380.12909609466976
173107.0,11021.0,173107.0,23808.0,173107.0,24289.0,-41.8064204281942,-108.5746883016972,-387.8593943789082
173107.0,10991.0,173107.0,23761.0,173107.0,24270.0,-50.20206416679059,-114.42098421894605,-395.60169771048925
173118.0,10991.0,173118.0,23738.0,173118.0,24263.0,-58.64606656796445,-120.29291623285033,-403.3570780542004
173118.0,10988.0,173118.0,23757.0,173118.0,24260.0,-67.13702238141747,-126.18943926426661,-411.12740203681926
173118.0,10996.0,173118.0,23760.0,173118.0,24276.0,-75.67444398457445,-132.11127323881925,-418.91547316784323
173118.0,11009.0,173118.0,23801.0,173118.0,24279.0,-84.25865961601664,-138.060785742274,-426.7248804950475
173118.0,11000.0,173118.0,23773.0,173118.0,24282.0,-92.8905442616333,-144.04151173306846,-434.5596649097462
173118.0,11000.0,173118.0,23803.0,173118.0,24285.0,-101.57126531878902,-150.05769676932889,-442.42398107637734
173128.0,11010.0,173128.0,23849.0,173128.0,24288.0,-110.30213812647446,-156.1139000687075,-450.32182569016885
173128.0,11047.0,173128.0,23900.0,173128.0,24315.0,-119.08440311985038,-162.2142343149308,-458.25674288933413
173128.0,11028.0,173128.0,23855.0,173128.0,24286.0,-127.91874648243333,-168.36123397954148,-466.2314480091812
173128.0,10986.0,173128.0,23813.0,173128.0,24253.0,-136.80489210170379,-174.55518580871598,-474.2476205081556
173128.0,10957.0,173128.0,23761.0,173128.0,24228.0,-145.74179299721158,-180.79454672689127,-482.3061978679756
173128.0,10957.0,173128.0,23720.0,173128.0,24215.0,-154.72833520599605,-187.07714963194002,-490.40803279637646
173138.0,10948.0,173138.0,23735.0,173138.0,24222.0,-163.7639652483234,-193.40149690971177,-498.5544603812547
173138.0,10943.0,173138.0,23726.0,173138.0,24223.0,-172.84897002157376,-199.7675892449185,-506.74751207729946
173138.0,10962.0,173138.0,23755.0,173138.0,24223.0,-181.9845224612039,-206.17712179481788,-514.9898230230395
173138.0,10966.0,173138.0,23801.0,173138.0,24213.0,-191.17252735988373,-212.63315295383836,-523.2844532069132
173138.0,10964.0,173138.0,23776.0,173138.0,24224.0,-200.41529361556798,-219.13939743606517,-531.6347660821413
173138.0,10958.0,173138.0,23773.0,173138.0,24222.0,-209.71524129173918,-225.69958273032967,-540.0443038214938
173149.0,10992.0,173149.0,23834.0,173149.0,24264.0,-219.0747041290166,-232.31714404042305,-548.516505302803
173149.0,10983.0,173149.0,23847.0,173149.0,24251.0,-228.49562101330298,-238.99476988084916,-557.0541857661831
173149.0,10947.0,173149.0,23811.0,173149.0,24233.0,-237.97918715768424,-245.7336221607817,-565.6589986228132
173149.0,10924.0,173149.0,23748.0,173149.0,24179.0,-247.52590205887287,-252.53302599577773,-574.3313468075715
173149.0,10917.0,173149.0,23728.0,173149.0,24166.0,-257.13607287426385,-259.39114323408245,-583.070917660872
173149.0,10913.0,173149.0,23708.0,173149.0,24168.0,-266.8103279785803,-266.30611771005783,-591.8774426476342
173159.0,10904.0,173159.0,23726.0,173159.0,24151.0,-276.5498695036796,-273.27693742313386,-600.7511759844713
173159.0,10903.0,173159.0,23733.0,173159.0,24168.0,-286.35655590176106,-280.3037162025761,-609.6930152742816
173159.0,10927.0,173159.0,23723.0,173159.0,24158.0,-296.23287115346574,-287.38754868640086,-618.7044260333563
173159.0,10916.0,173159.0,23768.0,173159.0,24160.0,-306.18169758734155,-294.53021585901104,-627.7872692436316
173159.0,10913.0,173159.0,23769.0,173159.0,24177.0,-316.20599544081296,-301.73375123403923,-636.9435905717294
173159.0,10925.0,173159.0,23771.0,173159.0,24184.0,-326.3085914428126,-308.9998514406322,-646.1753104857847
173169.0,10946.0,173169.0,23821.0,173169.0,24206.0,-336.49196097256254,-316.32930317025546,-655.4837383069912
173169.0,10925.0,173169.0,23827.0,173169.0,24179.0,-346.7578438318592,-323.7213414413283,-664.869037633665
173169.0,10910.0,173169.0,23751.0,173169.0,24132.0,-357.1069384230029,-331.1730261844022,-674.3299952273662
173169.0,10858.0,173169.0,23697.0,173169.0,24144.0,-367.5390264032732,-338.6793798803806,-683.864324060411
173169.0,10859.0,173169.0,23670.0,173169.0,24115.0,-378.05353588404523,-346.2345453772119,-693.4691787891304
173169.0,10853.0,173169.0,23662.0,173169.0,24083.0,-388.6501728326933,-353.8331707343572,-703.1415518299593
173180.0,10835.0,173180.0,23677.0,173180.0,24068.0,-399.3292746301713,-361.4712522533972,-712.87871809012
173180.0,10854.0,173180.0,23689.0,173180.0,24115.0,-410.0919141177862,-369.1463022885375,-722.6786636832551
173180.0,10868.0,173180.0,23701.0,173180.0,24116.0,-420.9398067346737,-376.85705242741756,-732.5400049263073
173180.0,10878.0,173180.0,23716.0,173180.0,24106.0,-431.8749255964927,-384.6029612786148,-742.4614158961235
173180.0,10867.0,173180.0,23730.0,173180.0,24116.0,-442.89897421787174,-392.3836766672527,-752.4411251641704
173180.0,10888.0,173180.0,23751.0,173180.0,24154.0,-454.01297585507467,-400.19846035820694,-762.4765728256036
173190.0,10892.0,173190.0,23814.0,173190.0,24122.0,-465.2169328728925,-408.0454579511416,-772.5639202812383
173190.0,10867.0,173190.0,23758.0,173190.0,24092.0,-476.5094690867196,-415.9207856495975,-782.697641540087
173190.0,10837.0,173190.0,23678.0,173190.0,24061.0,-487.8877039986725,-423.81806334902944,-792.8706818606092
173190.0,10810.0,173190.0,23672.0,173190.0,24059.0,-499.3475836031324,-431.72908223450736,-803.075050340984
173190.0,10805.0,173190.0,23641.0,173190.0,24037.0,-510.8844695244071,-439.64509306150944,-813.3023549156486
173190.0,10794.0,173190.0,23624.0,173190.0,24015.0,-522.4936223391953,-447.5578046965407,-823.5441504894795
173200.0,10787.0,173200.0,23651.0,173200.0,24032.0,-534.1704416121322,-455.45993331034924,-833.7922178487529
173200.0,10821.0,173200.0,23646.0,173200.0,24054.0,-545.9104769574145,-463.34534295564083,-844.0386198145842
173200.0,10805.0,173200.0,23673.0,173200.0,24034.0,-557.7091617040356,-471.2087838321446,-854.2753689585375
173200.0,10821.0,173200.0,23672.0,173200.0,24046.0,-569.5613664483204,-479.0454328341507,-864.4939945068284
173200.0,10808.0,173200.0,23709.0,173200.0,24053.0,-581.4610175144744,-486.8503660731591,-874.6852515412437
173200.0,10825.0,173200.0,23777.0,173200.0,24081.0,-593.4008209669928,-494.61780771320673,-884.8387704034316
173211.0,10813.0,173211.0,23724.0,173211.0,24059.0,-605.371995235727,-502.3400743405797,-894.9425251834418
173211.0,10786.0,173211.0,23671.0,173211.0,24048.0,-617.3640733026908,-510.00687277357736,-904.9824069769977
173211.0,10764.0,173211.0,23648.0,173211.0,23992.0,-629.3649831769677,-517.605680103701,-914.9422483589699
173211.0,10736.0,173211.0,23603.0,173211.0,23987.0,-641.3614555616012,-525.1228440507159,-924.8043400014883
173211.0,10717.0,173211.0,23599.0,173211.0,23952.0,-653.3395810082486,-532.5446613179231,-934.5501566310792
173211.0,10710.0,173211.0,23593.0,173211.0,23977.0,-665.2853328204899,-539.8581550993692,-944.1609306415551
173221.0,10734.0,173221.0,23646.0,173221.0,23995.0,-677.1848598458599,-547.0513720583316,-953.6178007508886
173221.0,10744.0,173221.0,23662.0,173221.0,23959.0,-689.0243512802888,-554.1130170572251,-962.9015423761595
173221.0,10741.0,173221.0,23635.0,173221.0,23971.0,-700.7895508336693,-561.0316951821978,-971.9923032934228
173221.0,10739.0,173221.0,23663.0,173221.0,23984.0,-712.4652708094115,-567.7953705731056,-980.8695455532936
173221.0,10754.0,173221.0,23716.0,173221.0,24002.0,-724.0350745320303,-574.3910363632717,-989.5118441931052
173221.0,10752.0,173221.0,23723.0,173221.0,23993.0,-735.4809798864462,-580.8040355560863,-997.896415917924
173231.0,10728.0,173231.0,23669.0,173231.0,23980.0,-746.7831602186646,-587.017221472878,-1005.9987164078198
173231.0,10687.0,173231.0,23619.0,173231.0,23949.0,-757.9199285241705,-593.0108547584788,-1013.7924004299318
173231.0,10677.0,173231.0,23595.0,173231.0,23923.0,-768.8681715069663,-598.7634843909589,-1021.2496839984992
173231.0,10670.0,173231.0,23570.0,173231.0,23911.0,-779.6039508829223,-604.2531657330671,-1028.3419536021702
173231.0,10652.0,173231.0,23558.0,173231.0,23905.0,-790.102914467639,-609.458443589865,-1035.0403542331194
173231.0,10665.0,173231.0,23599.0,173231.0,23907.0,-800.3404874585977,-614.3589249026987,-1041.3161507143789
173242.0,10665.0,173242.0,23610.0,173242.0,23911.0,-810.2918932627811,-618.9352899848016,-1047.1408369429314
173242.0,10664.0,173242.0,23613.0,173242.0,23918.0,-819.9319965671928,-623.1688259281528,-1052.4860627801686
173242.0,10659.0,173242.0,23596.0,173242.0,23921.0,-829.2351009945463,-627.0409846905712,-1057.3234584355403
173242.0,10676.0,173242.0,23647.0,173242.0,23923.0,-838.1747992958431,-630.533209318228,-1061.6244402328905
173242.0,10687.0,173242.0,23684.0,173242.0,23958.0,-846.7237514413508,-633.6266180925315,-1065.3599946309257
173242.0,10679.0,173242.0,23654.0,173242.0,23943.0,-854.8533287305829,-636.3013023368352,-1068.500352380657
173252.0,10656.0,173252.0,23628.0,173252.0,23895.0,-862.5333575347267,-638.5358314482003,-1071.014768274083
173252.0,10635.0,173252.0,23585.0,173252.0,23862.0,-869.7322287044803,-640.3075627967463,-1072.8718992081604
173252.0,10593.0,173252.0,23539.0,173252.0,23874.0,-876.4173958757353,-641.5936317092819,-1074.0407289340412
173252.0,10578.0,173252.0,23545.0,173252.0,23876.0,-882.5561402392398,-642.3721851317042,-1074.491356476361
173252.0,10595.0,173252.0,23557.0,173252.0,23866.0,-888.1163377069336,-642.62336388068,-1074.1953112523381
173252.0,10605.0,173252.0,23588.0,173252.0,23879.0,-893.0668369200296,-642.3296415750168,-1073.1256690503
173262.0,10609.0,173262.0,23607.0,173262.0,23887.0,-897.3773600862748,-641.4755633793519,-1071.257151917418
173262.0,10616.0,173262.0,23614.0,173262.0,23887.0,-901.018237279615,-640.0472392771646,-1068.5661480648173
173262.0,10620.0,173262.0,23631.0,173262.0,23904.0,-903.9602079091321,-638.0319121240302,-1065.0306870075908
173262.0,10638.0,173262.0,23679.0,173262.0,23928.0,-906.1742660329719,-635.4176049824382,-1060.6303808195348
173262.0,10651.0,173262.0,23682.0,173262.0,23941.0,-907.6314492782433,-632.1926275703551,-1055.3462269787026
173262.0,10626.0,173262.0,23662.0,173262.0,23950.0,-908.3026168271281,-628.3450798283088,-1049.1603301270056
173273.0,10607.0,173273.0,23621.0,173273.0,23888.0,-908.1585007251671,-623.8628791513493,-1042.0558711998633
173273.0,10591.0,173273.0,23600.0,173273.0,23897.0,-907.1702014416072,-618.7345180856823,-1034.0176604366634
173273.0,10591.0,173273.0,23577.0,173273.0,23911.0,-905.3098979152928,-612.9502169309723,-1025.0330521964354
173273.0,10584.0,173273.0,23564.0,173273.0,23911.0,-902.5514613560276,-606.5030668587391,-1015.0925987511761
173273.0,10591.0,173273.0,23592.0,173273.0,23930.0,-898.8708947638138,-599.3899351632659,-1004.1903179820135
173273.0,10620.0,173273.0,23657.0,173273.0,23974.0,-894.2465929296443,-591.6118394141204,-992.3237735986894
173283.0,10635.0,173283.0,23669.0,173283.0,23984.0,-888.6593366672408,-583.1735760898772,-979.4939255728181
173283.0,10644.0,173283.0,23707.0,173283.0,23976.0,-882.0920766111824,-574.0829456687827,-965.7048945449883
173283.0,10654.0,173283.0,23737.0,173283.0,24046.0,-874.5297581421264,-564.3500657902996,-950.9639174215079
173283.0,10690.0,173283.0,23809.0,173283.0,24097.0,-865.9592588193944,-553.9867236739585,-935.2811843972208
173283.0,10702.0,173283.0,23814.0,173283.0,24098.0,-856.3692607190532,-543.0055387965269,-918.6692293283728
173283.0,10684.0,173283.0,23788.0,173283.0,24101.0,-845.7500985741727,-531.4192531776445,-901.1423871516938
173293.0,10687.0,173293.0,23765.0,173293.0,24103.0,-834.0939200164555,-519.2407762213212,-882.71687041915
173293.0,10686.0,173293.0,23761.0,173293.0,24120.0,-821.3952229836196,-506.48402012337147,-863.4112722267284
173293.0,10705.0,173293.0,23753.0,173293.0,24138.0,-807.6514548358143,-493.16495877287963,-843.2470720454928
173293.0,10728.0,173293.0,23789.0,173293.0,24174.0,-792.8634143109122,-479.30245636713056,-822.248947540921
173293.0,10780.0,173293.0,23857.0,173293.0,24208.0,-777.0353430628007,-464.9185818874072,-800.4448410827338
173293.0,10800.0,173293.0,23894.0,173293.0,24255.0,-760.1746784187986,-450.03820442223764,-777.8657862114884
173304.0,10815.0,173304.0,23905.0,173304.0,24307.0,-742.2916837543754,-434.6881721820439,-754.5455214870753
173304.0,10858.0,173304.0,23976.0,173304.0,24335.0,-723.3992415877369,-418.8966248569596,-730.5199595216345
173304.0,10911.0,173304.0,24062.0,173304.0,24387.0,-703.5126937094225,-402.6923069153504,-705.8266639096869
173304.0,10940.0,173304.0,24061.0,173304.0,24426.0,-682.6494466326978,-386.10349441204505,-680.5044057494977
173304.0,10944.0,173304.0,24015.0,173304.0,24435.0,-660.8285159080197,-369.1571151921614,-654.5928005654116
173304.0,10963.0,173304.0,24019.0,173304.0,24471.0,-638.0704276469479,-351.87895808613575,-628.1321660358528
173314.0,10960.0,173314.0,24045.0,173314.0,24492.0,-614.397551513439,-334.2946646377985,-601.163631620852
173314.0,10974.0,173314.0,24035.0,173314.0,24538.0,-589.834676303094,-316.4305594649341,-573.7292781931866
173314.0,11014.0,173314.0,24057.0,173314.0,24558.0,-564.4096209539246,-298.31413627170315,-545.8721687221622
173314.0,11077.0,173314.0,24100.0,173314.0,24592.0,-538.1535584021814,-279.97440911406653,-517.6363394715528
173314.0,11118.0,173314.0,24186.0,173314.0,24661.0,-511.1008166225782,-261.4418730318928,-489.06676447825055
173314.0,11151.0,173314.0,24183.0,173314.0,24676.0,-483.28837642522535,-242.74786264012454,-460.20914819827004
173324.0,11192.0,173324.0,24222.0,173324.0,24724.0,-454.7554716650801,-223.9237954106057,-431.1096136678676
173324.0,11246.0,173324.0,24275.0,173324.0,24788.0,-425.54335137887864,-205.00074182953728,-401.81444457236216
173324.0,11322.0,173324.0,24383.0,173324.0,24847.0,-395.69492735408477,-186.00889846236083,-372.3696814051806
173324.0,11341.0,173324.0,24368.0,173324.0,24875.0,-365.2541742539954,-166.97653794716683,-342.82047510569964
173324.0,11380.0,173324.0,24379.0,173324.0,24891.0,-334.26558244572186,-147.92903801548323,-313.21058524136697
173324.0,11399.0,173324.0,24350.0,173324.0,24903.0,-302.7739960217637,-128.8888021657957,-283.5823713755865
173335.0,11427.0,173335.0,24335.0,173335.0,24965.0,-270.8247860030165,-109.87604485719038,-253.97712442150805
173335.0,11468.0,173335.0,24343.0,173335.0,24974.0,-238.46413667933814,-90.90994062660377,-224.43530959812267
173335.0,11519.0,173335.0,24359.0,173335.0,25029.0,-205.73923314343932,-72.00967100084415,-194.9965941726523
173335.0,11557.0,173335.0,24436.0,173335.0,25070.0,-172.69821697353495,-53.19496989216043,-165.69977604811618
173335.0,11610.0,173335.0,24476.0,173335.0,25105.0,-139.38998340925343,-34.4859361415098,-136.58260381252933
173335.0,11666.0,173335.0,24498.0,173335.0,25152.0,-105.86391155020908,-15.90232708211613,-107.68152139397091
173345.0,11710.0,173345.0,24541.0,173345.0,25179.0,-72.16950575596627,2.537108977609819,-79.03144335430045
173345.0,11792.0,173345.0,24626.0,173345.0,25250.0,-38.35593248293458,20.815164846995685,-50.66552726041277
173345.0,11844.0,173345.0,24644.0,173345.0,25292.0,-4.471406435870449,38.9169501565525,-22.61479831790257
173345.0,11855.0,173345.0,24623.0,173345.0,25313.0,29.437464249856816,56.83069468429005,5.092354568860628
173345.0,11874.0,173345.0,24586.0,173345.0,25298.0,63.32593418390252,74.54777839128246,32.43041364240969
173345.0,11919.0,173345.0,24598.0,173345.0,25317.0,97.15083001092762,92.06180641772892,59.376354935032055
173356.0,11949.0,173356.0,24586.0,173356.0,25351.0,130.87014532272372,109.3673931121532,85.90892262784632
173356.0,11976.0,173356.0,24599.0,173356.0,25379.0,164.4428079445421,126.45919565305917,112.00810431250727
173356.0,12037.0,173356.0,24649.0,173356.0,25422.0,197.82854001692408,143.33130471324472,137.65498594340306
173356.0,12075.0,173356.0,24703.0,173356.0,25449.0,230.9878466135201,159.97715829713002,162.83182726372343
173356.0,12131.0,173356.0,24720.0,173356.0,25493.0,263.882219200279,176.39002346910263,187.5222207100269
173356.0,12169.0,173356.0,24753.0,173356.0,25537.0,296.4744459369671,192.56361715635296,211.71131818296863
173366.0,12233.0,173366.0,24767.0,173366.0,25567.0,328.7289390016282,208.4924837579739,235.38615252530178
173366.0,12274.0,173366.0,24863.0,173366.0,25611.0,360.6121165696502,224.17229570521164,258.5359955006678
173366.0,12313.0,173366.0,24854.0,173366.0,25636.0,392.09281226712676,239.6004373675857,281.1526717445354
173366.0,12345.0,173366.0,24836.0,173366.0,25631.0,423.142561406822,254.7766032867894,303.23073189707816
173366.0,12344.0,173366.0,24789.0,173366.0,25628.0,453.7356193100146,269.70262359663366,324.7672585305245
173366.0,12372.0,173366.0,24779.0,173366.0,25631.0,483.84863776382633,284.3813446306542,345.76122815512815
173376.0,12391.0,173376.0,24806.0,173376.0,25643.0,513.4601117619318,298.8152547629222,366.2127005900726
173376.0,12427.0,173376.0,24812.0,173376.0,25670.0,542.5498745461935,313.0055718067222,386.1221575197287
173376.0,12470.0,173376.0,24885.0,173376.0,25727.0,571.0988197448544,326.95199427944635,405.49020273804706
173376.0,12521.0,173376.0,24924.0,173376.0,25742.0,599.0889059100248,340.65305376718095,424.317705023822
173376.0,12543.0,173376.0,24925.0,173376.0,25757.0,626.503389438207,354.1068417419283,442.6061225723628
173376.0,12589.0,173376.0,24944.0,173376.0,25790.0,653.3270780180269,367.31156042369923,460.35764468886
173387.0,12654.0,173387.0,25010.0,173387.0,25845.0,679.546562650562,380.2657216817381,477.5752620027465
173387.0,12673.0,173387.0,25051.0,173387.0,25874.0,705.1506027740229,392.9685262675878,494.2631132132159
173387.0,12700.0,173387.0,25049.0,173387.0,25890.0,730.1305414799133,405.42060151148416,510.4270252966662
173387.0,12702.0,173387.0,24987.0,173387.0,25831.0,754.4803990585224,417.6243912271825,526.0747127808343
173387.0,12704.0,173387.0,25009.0,173387.0,25842.0,778.1965480198596,429.5836089045507,541.2152048499001
173387.0,12728.0,173387.0,25010.0,173387.0,25867.0,801.2771215715416,441.30220945643987,555.857815742926
173397.0,12736.0,173397.0,24988.0,173397.0,25892.0,823.7214025774251,452.78359985816326,570.0114615850975
173397.0,12774.0,173397.0,25021.0,173397.0,25926.0,845.5293812766063,464.03008654410667,583.6845965661873
173397.0,12813.0,173397.0,25071.0,173397.0,25934.0,866.7015627461478,475.04253113180414,596.8854403436992
173397.0,12837.0,173397.0,25075.0,173397.0,25935.0,887.2390524475738,485.82049772625953,609.6221341551668
173397.0,12867.0,173397.0,25102.0,173397.0,25981.0,907.1437761612401,496.36268738368346,621.9027039538223
173397.0,12906.0,173397.0,25148.0,173397.0,26002.0,926.4186744013869,506.6672954786027,633.7350751774961
173407.0,12943.0,173407.0,25243.0,173407.0,26043.0,945.0679400569024,516.7325712850004,645.1273776925095
173407.0,12959.0,173407.0,25244.0,173407.0,26055.0,963.097345708574,526.557915759097,656.0884151862344
173407.0,12953.0,173407.0,25196.0,173407.0,26041.0,980.5144378789739,536.1449225972038,666.6279931630932
173407.0,12952.0,173407.0,25163.0,173407.0,26043.0,997.3283309005644,545.4973547703298,676.7568421769115
173407.0,12952.0,173407.0,25127.0,173407.0,26030.0,1013.5491224262632,554.6199876816927,686.4861440829595
173407.0,12973.0,173407.0,25139.0,173407.0,26058.0,1029.1872196907843,563.5171283286357,695.8269584589491
173418.0,12985.0,173418.0,25150.0,173418.0,26047.0,1044.2528453636296,572.1915145903107,704.7898099046213
173418.0,13022.0,173418.0,25226.0,173418.0,26099.0,1058.755813735702,580.6439345048525,713.3845087264849
173418.0,13039.0,173418.0,25246.0,173418.0,26105.0,1072.7055506083327,588.8736362863813,721.6202289587311
173418.0,13052.0,173418.0,25268.0,173418.0,26128.0,1086.111235148562,596.8791749047931,729.505792813532
173418.0,13081.0,173418.0,25277.0,173418.0,26151.0,1098.9819015111689,604.6591002732958,737.049977106522
173418.0,13134.0,173418.0,25340.0,173418.0,26168.0,1111.3265768333338,612.2123595892232,744.26178066022
173428.0,13149.0,173428.0,25360.0,173428.0,26193.0,1123.154675894981,619.5388024226049,751.1507151361682
173428.0,13140.0,173428.0,25324.0,173428.0,26175.0,1134.4764700167616,626.6397865578767,757.7270461507608
173428.0,13129.0,173428.0,25308.0,173428.0,26176.0,1145.303140151024,633.5182673571449,764.0017840206579
173428.0,13111.0,173428.0,25285.0,173428.0,26163.0,1155.6462661058736,640.1781237109636,769.9863408380008
173428.0,13144.0,173428.0,25280.0,173428.0,26161.0,1165.5170834397316,646.6231738042014,775.692005306578
173428.0,13146.0,173428.0,25278.0,173428.0,26147.0,1174.9259569293922,652.856313662869,781.1293887835707
173438.0,13176.0,173438.0,25315.0,173438.0,26182.0,1183.882234179966,658.8789686031636,786.3079413360965
173438.0,13188.0,173438.0,25366.0,173438.0,26211.0,1192.394327269429,664.6910639185039,791.2357762778502
173438.0,13213.0,173438.0,25383.0,173438.0,26222.0,1200.4698824918237,670.2915815438394,795.9199384750993
173438.0,13222.0,173438.0,25375.0,173438.0,26240.0,1208.1159832875521,675.6792898580785,800.3668490301482
173438.0,13240.0,173438.0,25408.0,173438.0,26252.0,1215.3393254022885,680.8531407226251,804.5826346978263
173438.0,13278.0,173438.0,25486.0,173438.0,26305.0,1222.1463944012899,685.812546281113,808.5734268212952
173449.0,13299.0,173449.0,25434.0,173449.0,26286.0,1228.5437910294263,690.5579908857343,812.3458016027143
173449.0,13271.0,173449.0,25419.0,173449.0,26267.0,1234.5386171857463,695.0915005679971,815.9071085441733
173449.0,13259.0,173449.0,25403.0,173449.0,26254.0,1240.1384851759003,699.4162860214794,819.2652638905784
173449.0,13265.0,173449.0,25388.0,173449.0,26256.0,1245.3510144274283,703.5358747371474,822.4281302658503
173449.0,13266.0,173449.0,25370.0,173449.0,26246.0,1250.1832404103254,707.4532765800428,825.4029274748216
173449.0,13271.0,173449.0,25382.0,173449.0,26254.0,1254.6412532502834,711.1702717520642,828.1958199360815
173459.0,13298.0,173459.0,25442.0,173459.0,26288.0,1258.7300435548761,714.6870153330278,830.8116967121543
173459.0,13307.0,173459.0,25441.0,173459.0,26288.0,1262.4535471661322,718.0022558354617,833.2542512009372
173459.0,13316.0,173459.0,25435.0,173459.0,26290.0,1265.8148461822618,721.113876353872,835.5262328390736
173459.0,13322.0,173459.0,25492.0,173459.0,26321.0,1268.8163439873804,724.0192382507555,837.6296136870071
173459.0,13388.0,173459.0,25538.0,173459.0,26359.0,1271.4599485922774,726.7155621943799,839.565811466746
173459.0,13377.0,173459.0,25567.0,173459.0,26396.0,1273.7475252658865,729.2007938682299,841.3362725439395
173469.0,13375.0,173469.0,25553.0,173469.0,26350.0,1275.6814605420764,731.4746184957675,842.9432083846909
173469.0,13344.0,173469.0,25504.0,173469.0,26334.0,1277.2647972060497,733.5388956995503,844.3898297518929
173469.0,13340.0,173469.0,25458.0,173469.0,26347.0,1278.5008086426317,735.3971423386888,845.6798863173742
173469.0,13339.0,173469.0,25460.0,173469.0,26330.0,1279.3923747001745,737.0533364749268,846.8170762098778
173469.0,13340.0,173469.0,25450.0,173469.0,26316.0,1279.9415090771963,738.5107587659222,847.8046512065482
173469.0,13359.0,173469.0,25487.0,173469.0,26338.0,1280.1491474284564,739.7713750798799,848.6450555617398
173480.0,13386.0,173480.0,25502.0,173480.0,26350.0,1280.0152123205605,740.835810829948,849.339693490841
173480.0,13409.0,173480.0,25528.0,173480.0,26353.0,1279.538987387168,741.7037469761148,849.8890033229434
173480.0,13374.0,173480.0,25512.0,173480.0,26390.0,1278.7196003357176,742.374415901046,850.29270876176
173480.0,13419.0,173480.0,25559.0,173480.0,26403.0,1277.5562626987705,742.846942177505,850.5501845049182
173480.0,13432.0,173480.0,25607.0,173480.0,26436.0,1276.0483837310526,743.1207366901155,850.6609928913542
173480.0,13447.0,173480.0,25598.0,173480.0,26444.0,1274.1959348866485,743.1962375721447,850.62550254855
173490.0,13428.0,173490.0,25552.0,173490.0,26420.0,1271.9999151373624,743.0755588227578,850.4453623918932
173490.0,13394.0,173490.0,25525.0,173490.0,26396.0,1269.4624496519825,742.7623281670328,850.1235314514565
173490.0,13398.0,173490.0,25514.0,173490.0,26385.0,1266.5863943109098,742.2608092088415,849.6637895982246
173490.0,13390.0,173490.0,25493.0,173490.0,26392.0,1263.3747819301302,741.5749553600542,849.0700852564636
173490.0,13388.0,173490.0,25522.0,173490.0,26388.0,1259.8304662844446,740.7077637390305,848.3461044969042
173490.0,13419.0,173490.0,25524.0,173490.0,26419.0,1255.956024550084,739.6610321313193,847.4951504355628
173500.0,13410.0,173500.0,25557.0,173500.0,26412.0,1251.7539099825872,738.4355249922762,846.5202721124148
173500.0,13427.0,173500.0,25577.0,173500.0,26436.0,1247.2267697498623,737.0314270099185,845.4245253688034
173500.0,13418.0,173500.0,25601.0,173500.0,26428.0,1242.3777254668487,735.448964799106,844.2112239640317
173500.0,13440.0,173500.0,25635.0,173500.0,26489.0,1237.210575868758,733.6891258827757,842.8842152336623
173500.0,13454.0,173500.0,25682.0,173500.0,26483.0,1231.7300591315422,731.7544972035117,841.448368384822
173500.0,13435.0,173500.0,25629.0,173500.0,26457.0,1225.9422131638562,729.6501401494451,839.9101255443454
173511.0,13417.0,173511.0,25543.0,173511.0,26407.0,1219.8545827731555,727.3838422706726,838.2775264981715
173511.0,13385.0,173511.0,25537.0,173511.0,26433.0,1213.4760144740285,724.9651809063657,836.5595510901072
173511.0,13374.0,173511.0,25536.0,173511.0,26400.0,1206.8161196469173,722.4040663089473,834.7653719778093
173511.0,13353.0,173511.0,25502.0,173511.0,26408.0,1199.8846688517501,719.709765713201,832.9039039970158
173511.0,13370.0,173511.0,25544.0,173511.0,26426.0,1192.691135555885,716.8904606627542,830.9835587799035
173511.0,13387.0,173511.0,25553.0,173511.0,26441.0,1185.244577172577,713.9531592163473,829.0122508903565
173521.0,13376.0,173521.0,25580.0,173521.0,26442.0,1177.5538915561765,710.9040477670509,826.9976875851388
173521.0,13373.0,173521.0,25631.0,173521.0,26454.0,1169.628159267743,707.7491891526096,824.947697074069
173521.0,13383.0,173521.0,25590.0,173521.0,26476.0,1161.476822402492,704.4953381678973,822.8704938413222
173521.0,13411.0,173521.0,25663.0,173521.0,26489.0,1153.1098838396629,701.150617260688,820.7750224313763
173521.0,13383.0,173521.0,25613.0,173521.0,26493.0,1144.538312787037,697.7249833762173,818.6713935960468
173521.0,13346.0,173521.0,25633.0,173521.0,26439.0,1135.7743264264386,694.2305322260943,816.5711251420439
173531.0,13347.0,173531.0,25537.0,173531.0,26421.0,1126.8311749393768,690.6813806211544,814.4868249068617
173531.0,13329.0,173531.0,25515.0,173531.0,26416.0,1117.722676412855,687.0928472083542,812.4313964452448
173531.0,13300.0,173531.0,25490.0,173531.0,26412.0,1108.4628573758037,683.4801375864658,810.4173012903452
173531.0,13293.0,173531.0,25478.0,173531.0,26397.0,1099.0656135292331,679.8571343665674,808.4561384433784
173531.0,13300.0,173531.0,25526.0,173531.0,26429.0,1089.544372008134,676.2357429911694,806.5584192745375
173531.0,13315.0,173531.0,25551.0,173531.0,26434.0,1079.9120279307072,672.6259608412454,804.7335678206694
173542.0,13289.0,173542.0,25549.0,173542.0,26460.0,1070.1811932515475,669.0365336570471,802.9902270891287
173542.0,13303.0,173542.0,25549.0,173542.0,26452.0,1060.3644539416405,665.4756302785556,801.3366949972234
173542.0,13305.0,173542.0,25615.0,173542.0,26489.0,1050.4745258025753,661.9512743543244,799.7813055049266
173542.0,13325.0,173542.0,25642.0,173542.0,26484.0,1040.5245230172968,658.4719901047927,798.3327890706452
173542.0,13293.0,173542.0,25586.0,173542.0,26457.0,1030.528365329259,655.0477266289377,797.0005595394917
173542.0,13247.0,173542.0,25513.0,173542.0,26416.0,1020.5009409385326,651.6901396787946,795.794577077699
173552.0,13217.0,173552.0,25502.0,173552.0,26415.0,1010.4576806316588,648.4116700099439,794.7246593586548
173552.0,13219.0,173552.0,25495.0,173552.0,26424.0,1000.4137733718442,645.2241727871808,793.7997000713289
173552.0,13191.0,173552.0,25453.0,173552.0,26420.0,990.3835571198154,642.1379536917683,793.0272659700868
173552.0,13203.0,173552.0,25504.0,173552.0,26431.0,980.3802382043502,639.1612235046143,792.4135317117543
173552.0,13205.0,173552.0,25525.0,173552.0,26422.0,970.4158416444457,636.2999748883326,791.9632952269652
173552.0,13223.0,173552.0,25523.0,173552.0,26463.0,960.501420327646,633.5584207401704,791.6800248579817
173562.0,13192.0,173562.0,25553.0,173562.0,26461.0,950.6474356318456,630.9396256010734,791.5660716725354
173562.0,13210.0,173562.0,25561.0,173562.0,26452.0,940.8640339022236,628.4460142767609,791.6229901755027
173562.0,13222.0,173562.0,25623.0,173562.0,26504.0,931.1612204630487,626.0799498154258,791.8517629441228
173562.0,13212.0,173562.0,25595.0,173562.0,26521.0,921.549169629243,623.8445082478861,792.2531112673024
173562.0,13175.0,173562.0,25526.0,173562.0,26480.0,912.0385246812483,621.7439805019064,792.8279969857526
173562.0,13150.0,173562.0,25507.0,173562.0,26462.0,902.6402847510795,619.7834396324124,793.5777508893423
173573.0,13134.0,173573.0,25461.0,173573.0,26459.0,893.3652863706351,617.9675371556348,794.5035483683642
173573.0,13119.0,173573.0,25472.0,173573.0,26454.0,884.223639552775,616.2992852075984,795.605736187151
173573.0,13105.0,173573.0,25501.0,173573.0,26463.0,875.2243224564172,614.7793262745423,796.8834171183122
173573.0,13134.0,173573.0,25527.0,173573.0,26482.0,866.3749768115802,613.4059130169892,798.3343065997063
173573.0,13114.0,173573.0,25576.0,173573.0,26500.0,857.6819867876945,612.1755313848037,799.9548472805931
173573.0,13120.0,173573.0,25529.0,173573.0,26476.0,849.1507418939015,611.0837360208927,801.7404560602109
173583.0,13119.0,173583.0,25585.0,173583.0,26503.0,840.7858469258562,610.1257042701776,803.6856264833903
173583.0,13121.0,173583.0,25594.0,173583.0,26552.0,832.5912828273254,609.2965392843234,805.7839858021409
173583.0,13148.0,173583.0,25650.0,173583.0,26561.0,824.5706640202573,608.5918040146969,808.0287217404733
173583.0,13115.0,173583.0,25616.0,173583.0,26546.0,816.727604211119,608.0083186226557,810.4132273847135
173583.0,13082.0,173583.0,25540.0,173583.0,26534.0,809.0659052070847,607.5445394497189,812.9313492043708
173583.0,13063.0,173583.0,25487.0,173583.0,26491.0,801.5892488754494,607.199833608832,815.5770218776834
173594.0,13047.0,173594.0,25512.0,173594.0,26532.0,794.3005681889082,606.9729507900701,818.3435795171503
173594.0,13036.0,173594.0,25488.0,173594.0,26518.0,787.2014959157725,606.8607810780865,821.223231215572
173594.0,13045.0,173594.0,25551.0,173594.0,26528.0,780.2920385978592,606.857937146693,824.2069116025181
173594.0,13071.0,173594.0,25542.0,173594.0,26564.0,773.5705546913559,606.9569747570692,827.284324533025
173594.0,13064.0,173594.0,25590.0,173594.0,26569.0,767.0340874618247,607.1489603168243,830.4441478223952
173594.0,13081.0,173594.0,25574.0,173594.0,26588.0,760.6788523327772,607.4240983654984,833.674411499837
173604.0,13062.0,173604.0,25647.0,173604.0,26577.0,754.5006177163323,607.7723039141762,836.962809120916
173604.0,13092.0,173604.0,25678.0,173604.0,26652.0,748.494947061342,608.1839466014275,840.2969101424037
173604.0,13097.0,173604.0,25683.0,173604.0,26647.0,742.6574722414299,608.650878283282,843.6645914761492
173604.0,13069.0,173604.0,25603.0,173604.0,26618.0,736.9842449655541,609.1671574780515,847.0546015984371
173604.0,13033.0,173604.0,25563.0,173604.0,26585.0,731.4718202917528,609.7286897680348,850.4565857288321
173604.0,13020.0,173604.0,25554.0,173604.0,26589.0,726.1168133346762,610.331926014985,853.8603882855302
173614.0,13019.0,173614.0,25546.0,173614.0,26607.0,720.9152470051721,610.9725575408114,857.2552785251385
173614.0,13011.0,173614.0,25526.0,173614.0,26611.0,715.8621259963268,611.6447224295066,860.6296299185135
173614.0,13024.0,173614.0,25580.0,173614.0,26635.0,710.9513079792944,612.3406077509534,863.9709888568136
173614.0,13030.0,173614.0,25599.0,173614.0,26654.0,706.1755851515081,613.0505045659024,867.2663145029643
173614.0,13041.0,173614.0,25624.0,173614.0,26650.0,701.5269378824187,613.76339488786,870.5022910263646
173614.0,13042.0,173614.0,25634.0,173614.0,26644.0,696.9968756884207,614.4677066394715,873.665524433391
173625.0,13057.0,173625.0,25685.0,173625.0,26702.0,692.5767686512439,615.1519698183673,876.742575852651
173625.0,13057.0,173625.0,25709.0,173625.0,26725.0,688.2581634761307,615.8055462504462,879.7202243062409
173625.0,13048.0,173625.0,25682.0,173625.0,26696.0,684.0330561300509,616.4194272183396,882.5860585590733
173625.0,13016.0,173625.0,25610.0,173625.0,26683.0,679.8939533596854,616.9865023031446,885.3287731401049
173625.0,12995.0,173625.0,25585.0,173625.0,26672.0,675.8335654962264,617.5008059424363,887.9378168077801
173625.0,13002.0,173625.0,25590.0,173625.0,26676.0,671.8442603093315,617.9561932317445,890.4027945242094
173635.0,12985.0,173635.0,25581.0,173635.0,26692.0,667.9176221823208,618.3453356127156,892.7130685037184
173635.0,13012.0,173635.0,25614.0,173635.0,26683.0,664.0442868516337,618.659344264987,894.8576416500458
173635.0,13012.0,173635.0,25636.0,173635.0,26706.0,660.2140337699925,618.8878818087712,896.8251800450023
173635.0,13022.0,173635.0,25651.0,173635.0,26737.0,656.4160756814183,619.0196310622614,898.6041404408379
173635.0,13028.0,173635.0,25685.0,173635.0,26727.0,652.6394000253317,619.0429269044458,900.1830962107666
173635.0,13038.0,173635.0,25687.0,173635.0,26747.0,648.8730775154047,618.9463917259172,901.5511042766767
173645.0,13072.0,173645.0,25757.0,173645.0,26776.0,645.1066293088952,618.7196051894599,902.6979717180225
173645.0,13048.0,173645.0,25764.0,173645.0,26774.0,641.3305077518543,618.3539523397492,903.6145883547817
173645.0,13041.0,173645.0,25686.0,173645.0,26770.0,637.536458303234,617.8433994454413,904.2932811068763
173645.0,12997.0,173645.0,25631.0,173645.0,26748.0,633.7174431934541,617.1843539545166,904.7278807917181
173645.0,12985.0,173645.0,25621.0,173645.0,26721.0,629.8671169647525,616.3744023415534,904.9133842315111
173645.0,12976.0,173645.0,25611.0,173645.0,26711.0,625.9791394691796,615.4108811702398,904.84532115461
173656.0,12981.0,173656.0,25624.0,173656.0,26735.0,622.0466665202518,614.2900605969756,904.519125570115
173656.0,13009.0,173656.0,25646.0,173656.0,26747.0,618.0622228030825,613.0069485083759,903.9298962732518
173656.0,13003.0,173656.0,25667.0,173656.0,26758.0,614.0179532164627,611.5555413768274,903.0726073431742
173656.0,12995.0,173656.0,25672.0,173656.0,26758.0,609.9059958717066,609.929335809442,901.9424611844473
173656.0,13011.0,173656.0,25695.0,173656.0,26747.0,605.7186916516157,608.1218601544319,900.5350989257718
173656.0,13039.0,173656.0,25761.0,173656.0,26792.0,601.4487621184975,606.1272607683544,898.8466784452186
173666.0,13027.0,173666.0,25801.0,173666.0,26825.0,597.0897130238193,603.9412770537859,896.8741662137213
173666.0,13024.0,173666.0,25697.0,173666.0,26766.0,592.6362713938495,601.5623565241605,894.6159240233396
173666.0,12991.0,173666.0,25658.0,173666.0,26749.0,588.0844981960363,598.9918111431066,892.071930960272
173666.0,12971.0,173666.0,25619.0,173666.0,26725.0,583.4314978276223,596.2326345283288,889.243239977402
173666.0,12961.0,173666.0,25617.0,173666.0,26742.0,578.6748844282349,593.2879716095496,886.1312114268177
173666.0,12948.0,173666.0,25606.0,173666.0,26705.0,573.8122601024145,590.1601108591477,882.7370476682431
173676.0,12943.0,173676.0,25613.0,173676.0,26737.0,568.8408548887448,586.8500273401021,879.0615659804349
173676.0,12961.0,173676.0,25640.0,173676.0,26744.0,563.7573528403234,583.3573085354733,875.1051510512902
173676.0,12964.0,173676.0,25651.0,173676.0,26738.0,558.5579710881822,579.6804366190587,870.8679720148064
173676.0,12955.0,173676.0,25674.0,173676.0,26737.0,553.2387353268286,575.8173421787164,866.3502596231957
173676.0,12959.0,173676.0,25699.0,173676.0,26748.0,547.7957089923518,571.766069558146,861.5524371246108
173676.0,12996.0,173676.0,25752.0,173676.0,26788.0,542.225178278507,567.5255781559835,856.4753213713751
173687.0,12994.0,173687.0,25715.0,173687.0,26759.0,536.52406024082,563.0966837780063,851.1205884154472
173687.0,12950.0,173687.0,25660.0,173687.0,26754.0,530.6903964872658,558.4826219910112,845.4911979759415
173687.0,12932.0,173687.0,25634.0,173687.0,26714.0,524.7233841203686,553.6886688276454,839.5913719750214
173687.0,12921.0,173687.0,25603.0,173687.0,26690.0,518.6228772081192,548.7211020600053,833.4261229972722
173687.0,12912.0,173687.0,25564.0,173687.0,26685.0,512.38885057428,543.5861363051854,827.0005895517112
173687.0,12887.0,173687.0,25527.0,173687.0,26672.0,506.02106269135925,538.288941054645,820.3194774909686
173697.0,12909.0,173697.0,25615.0,173697.0,26675.0,499.5188225650393,532.8328547673797,813.3867673006939
173697.0,12912.0,173697.0,25605.0,173697.0,26689.0,492.8809395426025,527.2193675782347,806.2056709197568
173697.0,12910.0,173697.0,25616.0,173697.0,26680.0,486.10595927395275,521.4488765587307,798.7788076053414
173697.0,12900.0,173697.0,25642.0,173697.0,26687.0,479.19246527275243,515.5214727925098,791.1084813589835
173697.0,12921.0,173697.0,25626.0,173697.0,26728.0,472.1392639830859,509.4374850138746,783.1970072057549
173697.0,12944.0,173697.0,25688.0,173697.0,26723.0,464.945653737533,503.1980003791715,775.0472582590776
173707.0,12920.0,173707.0,25672.0,173707.0,26685.0,457.6119213203451,496.80551817489805,766.6632776598725
173707.0,12869.0,173707.0,25564.0,173707.0,26654.0,450.1396674771868,490.2644288115692,758.0503947188844
173707.0,12865.0,173707.0,25550.0,173707.0,26646.0,442.53152220968946,483.5805429340737,749.2147479891833
173707.0,12841.0,173707.0,25507.0,173707.0,26608.0,434.79050074307304,476.75973729379234,740.162666387298
173707.0,12842.0,173707.0,25558.0,173707.0,26587.0,426.91951006170723,469.80679989531797,730.90011863692
173707.0,12824.0,173707.0,25527.0,173707.0,26620.0,418.92110710439124,462.7250975443762,721.4322530972892
173718.0,12836.0,173718.0,25549.0,173718.0,26624.0,410.7974053165573,455.5167883975996,711.7633333670492
173718.0,12836.0,173718.0,25575.0,173718.0,26622.0,402.5501355454429,448.18318275340715,701.8971666330207
173718.0,12827.0,173718.0,25540.0,173718.0,26594.0,394.1808571576852,440.7251872474053,691.8375571408109
173718.0,12820.0,173718.0,25566.0,173718.0,26599.0,385.69116349085493,433.1436947884106,681.588424434648
173718.0,12847.0,173718.0,25610.0,173718.0,26631.0,377.0828309887704,425.4399080546557,671.1538270593977
173718.0,12830.0,173718.0,25604.0,173718.0,26625.0,368.3580860012022,417.615966851391,660.5383125248607
173728.0,12807.0,173728.0,25555.0,173728.0,26577.0,359.5199183526561,409.67567690780635,649.7474234014626
173728.0,12770.0,173728.0,25515.0,173728.0,26524.0,350.5720672141023,401.6245750698913,638.7876834720792
173728.0,12744.0,173728.0,25478.0,173728.0,26530.0,341.5185597786391,393.469187079417,627.6659059090274
173728.0,12743.0,173728.0,25442.0,173728.0,26501.0,332.3630859420697,385.2159756002352,616.3884364553694
173728.0,12739.0,173728.0,25426.0,173728.0,26483.0,323.10858122557136,376.8703627986256,604.9607320924259
173728.0,12740.0,173728.0,25463.0,173728.0,26528.0,313.75716353042515,368.43608024455557,593.3872041623334
173738.0,12739.0,173738.0,25475.0,173738.0,26510.0,304.310298157186,359.915157616508,581.6714188587273
173738.0,12743.0,173738.0,25466.0,173738.0,26501.0,294.76904733117453,351.3084772332005,569.8165942253568
173738.0,12722.0,173738.0,25482.0,173738.0,26511.0,285.13432323058885,342.6163782905708,557.8259807005695
173738.0,12751.0,173738.0,25522.0,173738.0,26504.0,275.40709792965515,333.8391650562126,545.7030927149585
173738.0,12752.0,173738.0,25560.0,173738.0,26508.0,265.58869771305854,324.97789136088363,533.452005742494
173738.0,12724.0,173738.0,25502.0,173738.0,26502.0,255.68123029033302,316.03538898246813,521.0776923753504
173749.0,12688.0,173749.0,25464.0,173749.0,26443.0,245.68777856592988,307.0167830038677,508.58620907733837
173749.0,12660.0,173749.0,25376.0,173749.0,26398.0,235.6120714999646,297.9289375236297,495.9844197746665
173749.0,12643.0,173749.0,25373.0,173749.0,26394.0,225.4578565921155,288.7791330912747,483.27921763884723
173749.0,12643.0,173749.0,25352.0,173749.0,26376.0,215.22837254352316,279.57375883697296,470.47677505905585
173749.0,12633.0,173749.0,25346.0,173749.0,26374.0,204.9261243501312,270.31755940685815,457.5822202590599
173749.0,12648.0,173749.0,25379.0,173749.0,26370.0,194.55294250877535,261.0134526961582,444.5996331046032
173759.0,12639.0,173759.0,25379.0,173759.0,26372.0,184.11023720682658,251.66280692290098,431.53220410669167
173759.0,12607.0,173759.0,25382.0,173759.0,26378.0,173.59927136575777,242.2660170678614,418.38253017456856
173759.0,12625.0,173759.0,25400.0,173759.0,26364.0,163.02124201914194,232.82308313977074,405.1529943906692
173759.0,12641.0,173759.0,25445.0,173759.0,26392.0,152.37734199354747,223.33421452528967,391.8461649552956
173759.0,12639.0,173759.0,25421.0,173759.0,26370.0,141.6691438542765,213.80065468653584,378.46523749848444
173759.0,12602.0,173759.0,25373.0,173759.0,26313.0,130.89910369652318,204.22535584542868,365.01436079265125
173769.0,12568.0,173769.0,25317.0,173769.0,26283.0,120.07065653217046,194.61285601572035,351.4984288709261
173769.0,12550.0,173769.0,25306.0,173769.0,26268.0,109.18779593064141,184.96838864165704,337.92237989082344
173769.0,12536.0,173769.0,25264.0,173769.0,26241.0,98.25451016663817,175.29686419815187,324.29053787384794
173769.0,12510.0,173769.0,25266.0,173769.0,26251.0,87.27437628207974,165.60212428972113,310.60626429726904
173769.0,12518.0,173769.0,25271.0,173769.0,26257.0,76.25031193552081,155.88653083311442,296.87193356588296
173769.0,12509.0,173769.0,25294.0,173769.0,26242.0,65.18448897039036,146.15099138811877,283.0892180859664
173780.0,12501.0,173780.0,25280.0,173780.0,26240.0,54.07843693658867,136.3953861537044,269.25945822516337
173780.0,12499.0,173780.0,25282.0,173780.0,26235.0,42.93321304330789,126.61906065545179,255.3839207953621
173780.0,12524.0,173780.0,25330.0,173780.0,26233.0,31.749620273246137,116.82124448166962,241.4640208844104
173780.0,12523.0,173780.0,25340.0,173780.0,26255.0,20.528639559846283,107.00169761141865,227.50164460024962
173780.0,12497.0,173780.0,25315.0,173780.0,26203.0,9.271980876277894,97.16159244068376,213.49955648303387
173780.0,12451.0,173780.0,25226.0,173780.0,26177.0,-2.017692023485438,87.30392724847161,199.4615717689877
173790.0,12441.0,173790.0,25199.0,173790.0,26125.0,-13.337083858414871,77.43290846559967,185.39218985430523
173790.0,12411.0,173790.0,25178.0,173790.0,26103.0,-24.682835622537937,67.55271044417248,171.2958446631343
173790.0,12407.0,173790.0,25149.0,173790.0,26114.0,-36.0519757942086,57.666432208386595,157.17621092589786
173790.0,12400.0,173790.0,25206.0,173790.0,26109.0,-47.44215792055263,47.77560926087597,143.0359527593057
173790.0,12403.0,173790.0,25180.0,173790.0,26095.0,-58.85167455514534,37.88033094165792,128.8769164530736
173790.0,12386.0,173790.0,25196.0,173790.0,26084.0,-70.27929619784481,27.979762938446697,114.70039096145467
173800.0,12393.0,173800.0,25178.0,173800.0,26084.0,-81.72407291071352,18.072613529511386,100.50724378003792
173800.0,12392.0,173800.0,25221.0,173800.0,26072.0,-93.18512496547237,8.157460603710774,86.29805358232227
173800.0,12394.0,173800.0,25261.0,173800.0,26123.0,-104.6613416127118,-1.7666739814698076,72.07341362059879
173800.0,12385.0,173800.0,25256.0,173800.0,26106.0,-116.15102038973146,-11.699314465810971,57.834557641437186
173800.0,12356.0,173800.0,25165.0,173800.0,26033.0,-127.65161498041539,-21.63767051412981,43.5840128220367
173800.0,12319.0,173800.0,25131.0,173800.0,26008.0,-139.159785966114,-31.57680412559614,29.325557211087357
173811.0,12291.0,173811.0,25075.0,173811.0,25985.0,-150.67182335927316,-41.510793859705814,15.063467423251268
173811.0,12284.0,173811.0,25062.0,173811.0,25954.0,-162.18423460759527,-51.43408501798751,0.8017586984713034
173811.0,12273.0,173811.0,25074.0,173811.0,25962.0,-173.69416629621946,-61.34242086712345,-13.456261035066177
173811.0,12261.0,173811.0,25064.0,173811.0,25959.0,-185.19954835469207,-71.2331567483393,-27.7081272682708
173811.0,12263.0,173811.0,25070.0,173811.0,25959.0,-196.69907823778385,-81.10511303408214,-41.95202506045712
173811.0,12264.0,173811.0,25074.0,173811.0,25921.0,-208.19209574422962,-90.95828069695892,-56.18648185351606
173821.0,12247.0,173821.0,25094.0,173821.0,25923.0,-219.67834852171177,-100.79344429558739,-70.41026069258123
173821.0,12267.0,173821.0,25100.0,173821.0,25926.0,-231.15772923565692,-110.61164346221642,-84.62238712409658
173821.0,12268.0,173821.0,25135.0,173821.0,25926.0,-242.6299500153857,-120.4134789496693,-98.8219900695409
173821.0,12238.0,173821.0,25099.0,173821.0,25906.0,-254.09413192984084,-130.19837249814623,-113.0079486179227
173821.0,12204.0,173821.0,25043.0,173821.0,25876.0,-265.5486211632683,-139.9641710922274,-127.17866856720752
173821.0,12183.0,173821.0,24988.0,173821.0,25835.0,-276.9912666760264,-149.70756715899233,-141.3322275554433
173832.0,12158.0,173832.0,24986.0,173832.0,25838.0,-288.4199388200086,-159.42516275849187,-155.46680991001995
173832.0,12146.0,173832.0,24973.0,173832.0,25804.0,-299.8329914896658,-169.1144209944157,-169.58111557646612
173832.0,12137.0,173832.0,24944.0,173832.0,25782.0,-311.22956466531855,-178.77412833366668,-183.6746197366375
173832.0,12145.0,173832.0,24976.0,173832.0,25814.0,-322.6096768086745,-188.40456623554462,-197.74774184544924
173832.0,12147.0,173832.0,24985.0,173832.0,25775.0,-333.97405857203375,-198.00741236697252,-211.8017864922209
173832.0,12129.0,173832.0,24977.0,173832.0,25794.0,-345.3238188940285,-207.5852742614817,-225.8386641725806
173842.0,12131.0,173842.0,25006.0,173842.0,25796.0,-356.66016202760227,-217.14110429372226,-239.86057811756825
173842.0,12139.0,173842.0,25052.0,173842.0,25801.0,-367.984187852147,-226.67755053740734,-253.86960427361907
173842.0,12143.0,173842.0,25029.0,173842.0,25787.0,-379.296583186265,-236.19604510158638,-267.86716639613735
173842.0,12096.0,173842.0,24967.0,173842.0,25770.0,-390.597254667048,-245.69605890245566,-281.85365511725433
173842.0,12084.0,173842.0,24902.0,173842.0,25705.0,-401.8852634027794,-255.1753039886131,-295.82840951132437
173842.0,12044.0,173842.0,24889.0,173842.0,25697.0,-413.15917271071123,-264.6308530811166,-309.7901562636481
173852.0,12039.0,173852.0,24853.0,173852.0,25669.0,-424.4175479109199,-274.0603770242882,-323.7376737343268
173852.0,12016.0,173852.0,24856.0,173852.0,25653.0,-435.65936942156634,-283.46296191990086,-337.67029644785293
173852.0,12023.0,173852.0,24889.0,173852.0,25670.0,-446.88426206146585,-292.8394149431732,-351.5881345737333
173852.0,12010.0,173852.0,24883.0,173852.0,25627.0,-458.0925142849684,-302.19201434650813,-365.49204889384634
173852.0,11998.0,173852.0,24894.0,173852.0,25647.0,-469.2849683129724,-311.5239080258891,-379.3835269635407
173852.0,12013.0,173852.0,24888.0,173852.0,25641.0,-480.46288436520183,-320.83856128189154,-393.2645393686487
173863.0,12013.0,173863.0,24925.0,173863.0,25645.0,-491.62770611911867,-330.13930427776086,-407.13724044793776
173863.0,12022.0,173863.0,24955.0,173863.0,25653.0,-502.78063427195445,-339.42869375031773,-421.0035073545048
173863.0,11989.0,173863.0,24907.0,173863.0,25636.0,-513.9221741133213,-348.7076706656321,-434.8644590564595
173863.0,11959.0,173863.0,24837.0,173863.0,25588.0,-525.0519748021186,-357.97516538555806,-448.7201636689525
173863.0,11920.0,173863.0,24778.0,173863.0,25547.0,-536.169130328658,-367.2287756481304,-462.56983359746687
173863.0,11898.0,173863.0,24778.0,173863.0,25532.0,-547.2728045603931,-376.46614907421065,-476.4124821824065
173873.0,11894.0,173873.0,24781.0,173873.0,25516.0,-558.3628525541694,-385.6860847149866,-490.24758855368475
173873.0,11893.0,173873.0,24764.0,173873.0,25515.0,-569.440150789751,-394.88889027337734,-504.07543073773604
173873.0,11894.0,173873.0,24772.0,173873.0,25521.0,-580.5065614505695,-404.0763147801142,-517.8970708421941
173873.0,11895.0,173873.0,24789.0,173873.0,25487.0,-591.5646642918575,-413.25136027392864,-531.7141380194414
173873.0,11890.0,173873.0,24816.0,173873.0,25474.0,-602.617415916319,-422.4178530363372,-545.5286884525271
173873.0,11899.0,173873.0,24785.0,173873.0,25489.0,-613.66780721243,-431.579780364478,-559.3432374303395
173883.0,11894.0,173883.0,24847.0,173883.0,25513.0,-624.7185047027608,-440.7406639477497,-573.1606012052894
173883.0,11887.0,173883.0,24810.0,173883.0,25501.0,-635.7714878569261,-449.9029859214296,-586.9833097608996
173883.0,11852.0,173883.0,24754.0,173883.0,25452.0,-646.8278279987676,-459.06777475139745,-600.8130072936956
173883.0,11811.0,173883.0,24716.0,173883.0,25420.0,-657.8878151683689,-468.23487501801776,-614.6504251906076
173883.0,11795.0,173883.0,24703.0,173883.0,25416.0,-668.9514673084716,-477.4038646372966,-628.4958829308139
173883.0,11802.0,173883.0,24692.0,173883.0,25375.0,-680.019093921054,-486.5749010974139,-642.3498028627102
173894.0,11777.0,173894.0,24665.0,173894.0,25358.0,-691.09153980255,-495.74917292043244,-656.2130728967111
173894.0,11775.0,173894.0,24682.0,173894.0,25382.0,-702.1701715817796,-504.92912835411187,-670.0873198322354
173894.0,11754.0,173894.0,24697.0,173894.0,25385.0,-713.2568680944505,-514.1184792302834,-683.974844373304
173894.0,11779.0,173894.0,24680.0,173894.0,25355.0,-724.3540044347696,-523.3218767039966,-697.8781752862087
173894.0,11764.0,173894.0,24710.0,173894.0,25353.0,-735.4642535645564,-532.5444510127427,-711.7997080868304
173894.0,11775.0,173894.0,24748.0,173894.0,25373.0,-746.5902074330261,-541.791269754784,-725.741559725177
173904.0,11791.0,173904.0,24783.0,173904.0,25371.0,-757.733928833554,-551.0664291896373,-739.7052587385922
173904.0,11741.0,173904.0,24717.0,173904.0,25343.0,-768.8965108245259,-560.371960546678,-753.6912384337659
173904.0,11721.0,173904.0,24652.0,173904.0,25295.0,-780.0779188812958,-569.7074274928804,-767.6986126767326
173904.0,11685.0,173904.0,24638.0,173904.0,25253.0,-791.2773302619157,-579.0706457514758,-781.7255499809751
173904.0,11668.0,173904.0,24575.0,173904.0,25244.0,-802.493723693417,-588.4588995518177,-795.7700293828079
173904.0,11653.0,173904.0,24570.0,173904.0,25244.0,-813.7263956060731,-597.8700134498374,-809.8304519909188
173914.0,11643.0,173914.0,24556.0,173914.0,25205.0,-824.9752875921602,-607.3031520984491,-823.9058492342942
173914.0,11649.0,173914.0,24598.0,173914.0,25229.0,-836.2410947539347,-616.7591679179382,-837.9958902298974
173914.0,11648.0,173914.0,24628.0,173914.0,25226.0,-847.525142801546,-626.2402578928935,-852.1007672283783
173914.0,11648.0,173914.0,24598.0,173914.0,25201.0,-858.8290804282706,-635.7491136326968,-866.2208761811203
173914.0,11639.0,173914.0,24605.0,173914.0,25212.0,-870.154526563317,-645.2881919882433,-880.356498847786
173914.0,11662.0,173914.0,24653.0,173914.0,25230.0,-881.5027372157597,-654.8593145929921,-894.5075370317913
173925.0,11637.0,173925.0,24650.0,173925.0,25219.0,-892.8742250828823,-664.463098426281,-908.6730439547107
173925.0,11615.0,173925.0,24619.0,173925.0,25200.0,-904.2684431947205,-674.0981789006294,-922.8506742048978
173925.0,11589.0,173925.0,24534.0,173925.0,25136.0,-915.6837936435738,-683.7609803089621,-937.0365116829728
173925.0,11559.0,173925.0,24524.0,173925.0,25118.0,-927.1179634422297,-693.446440445876,-951.2254860903167
173925.0,11555.0,173925.0,24481.0,173925.0,25110.0,-938.5683609048451,-703.1491795355889,-965.4120664325374
173925.0,11528.0,173925.0,24479.0,173925.0,25075.0,-950.032462392642,-712.8644356727655,-979.5907500517644
173935.0,11524.0,173935.0,24509.0,173935.0,25079.0,-961.5080229598373,-722.5885058793808,-993.7562886736582
173935.0,11532.0,173935.0,24528.0,173935.0,25097.0,-972.9931530041463,-732.3185674567478,-1007.9037244990766
173935.0,11516.0,173935.0,24504.0,173935.0,25076.0,-984.4862002844486,-742.052021416456,-1022.0281171134252
173935.0,11526.0,173935.0,24517.0,173935.0,25081.0,-995.9854879634913,-751.7859004464412,-1036.1241030397523
173935.0,11533.0,173935.0,24555.0,173935.0,25093.0,-1007.4889957547757,-761.516473048257,-1050.1855127358438
173935.0,11551.0,173935.0,24573.0,173935.0,25072.0,-1018.9938972159407,-771.2386068296955,-1064.2049703400296
173945.0,11508.0,173945.0,24531.0,173945.0,25071.0,-1030.4960058798817,-780.9448991803297,-1078.173504705692
173945.0,11470.0,173945.0,24482.0,173945.0,25018.0,-1041.989543161591,-790.625273689338,-1092.0803966024584
173945.0,11442.0,173945.0,24429.0,173945.0,24972.0,-1053.4675034056204,-800.2674816969648,-1105.9134445120983
173945.0,11433.0,173945.0,24423.0,173945.0,24961.0,-1064.9223106780862,-809.8581531275281,-1119.659641268867
173945.0,11428.0,173945.0,24357.0,173945.0,24943.0,-1076.3462757613597,-819.3838161819588,-1133.3058794500944
173945.0,11402.0,173945.0,24363.0,173945.0,24946.0,-1087.7317422875062,-828.8317345300843,-1146.8392973773705
173956.0,11417.0,173956.0,24438.0,173956.0,24945.0,-1099.0710983209422,-838.1903802932859,-1160.2472540064537
173956.0,11404.0,173956.0,24350.0,173956.0,24952.0,-1110.3566981613162,-847.449197170261,-1173.5170545465137
173956.0,11403.0,173956.0,24403.0,173956.0,24935.0,-1121.5806521181164,-856.5981013227608,-1186.6355567408125
173956.0,11410.0,173956.0,24389.0,173956.0,24944.0,-1132.7345553392497,-865.627254630012,-1199.5888160766215
173956.0,11421.0,173956.0,24476.0,173956.0,24979.0,-1143.8091438127224,-874.526647215182,-1212.3617076220519
173956.0,11411.0,173956.0,24481.0,173956.0,24950.0,-1154.79382520435,-883.2850342369975,-1224.937334720719
173966.0,11392.0,173966.0,24402.0,173966.0,24905.0,-1165.6762629263617,-891.8887413096572,-1237.2965164579027
173966.0,11346.0,173966.0,24363.0,173966.0,24866.0,-1176.4422971064234,-900.3213872137676,-1249.4179129970094
173966.0,11325.0,173966.0,24311.0,173966.0,24845.0,-1187.0763080917375,-908.5647934991521,-1261.278732742644
173966.0,11312.0,173966.0,24305.0,173966.0,24830.0,-1197.5618084294713,-916.6002720148354,-1272.8554756110773
173966.0,11296.0,173966.0,24304.0,173966.0,24836.0,-1207.881913720275,-924.4095401409527,-1284.1243589868457
173966.0,11320.0,173966.0,24324.0,173966.0,24827.0,-1218.0195168100188,-931.9750255167937,-1295.0613825990326
173976.0,11309.0,173976.0,24333.0,173976.0,24833.0,-1227.9571355092164,-939.2796235876085,-1305.6421545092057
173976.0,11294.0,173976.0,24333.0,173976.0,24824.0,-1237.676580104135,-946.3061817438711,-1315.8416368406838
173976.0,11285.0,173976.0,24319.0,173976.0,24801.0,-1247.1587549060644,-953.0370465505903,-1325.633949655531
173976.0,11308.0,173976.0,24355.0,173976.0,24819.0,-1256.3836045503024,-959.4537879575641,-1334.9923086708359
173976.0,11324.0,173976.0,24392.0,173976.0,24828.0,-1265.3298535405272,-965.5367914405936,-1343.888923615445
173976.0,11266.0,173976.0,24334.0,173976.0,24802.0,-1273.974531598109,-971.2645689236067,-1352.2947002476055
173987.0,11240.0,173987.0,24303.0,173987.0,24771.0,-1282.2928561979888,-976.61340635804,-1360.1790565653648
173987.0,11237.0,173987.0,24269.0,173987.0,24752.0,-1290.2587098107394,-981.5578545871722,-1367.5101860424334
173987.0,11198.0,173987.0,24215.0,173987.0,24717.0,-1297.845239099561,-986.0717364159792,-1374.2556353113507
173987.0,11187.0,173987.0,24196.0,173987.0,24702.0,-1305.0253118035268,-990.1292679775697,-1380.3829544704606
173987.0,11189.0,173987.0,24187.0,173987.0,24696.0,-1311.7719191889641,-993.70610297425,-1385.8602935617375
173987.0,11216.0,173987.0,24221.0,173987.0,24698.0,-1318.058340784339,-996.7799667004139,-1390.6567924593223
173997.0,11198.0,173997.0,24251.0,173997.0,24720.0,-1323.857900256075,-999.3306013545401,-1394.7426478189036
173997.0,11195.0,173997.0,24245.0,173997.0,24693.0,-1329.1436047079942,-1001.3391589507643,-1398.0889289157349
173997.0,11200.0,173997.0,24245.0,173997.0,24717.0,-1333.8879799245262,-1002.7875706824266,-1400.6673841599059
173997.0,11213.0,173997.0,24323.0,173997.0,24737.0,-1338.0629729174755,-1003.6581098945506,-1402.4502837500654
173997.0,11205.0,173997.0,24316.0,173997.0,24732.0,-1341.6397223209653,-1003.9327404693078,-1403.410107130853
173997.0,11184.0,173997.0,24275.0,173997.0,24698.0,-1344.5883513481108,-1003.592317991197,-1403.5192522188756
174006.0,11147.0,174006.0,24186.0,174006.0,24647.0,-1346.8780918500886,-1002.6165711449919,-1402.7502732185164
174006.0,11114.0,174006.0,24185.0,174006.0,24647.0,-1348.477861865095,-1000.9852565649071,-1401.0767430310325
174006.0,11134.0,174006.0,24170.0,174006.0,24650.0,-1349.357066941716,-998.6796803149612,-1398.4742169920587
174006.0,11095.0,174006.0,24166.0,174006.0,24648.0,-1349.486221489239,-995.6837204861129,-1394.9207888036983
174006.0,11143.0,174006.0,24192.0,174006.0,24643.0,-1348.8372514996292,-991.9842766216103,-1390.3973082490331
174006.0,11135.0,174006.0,24190.0,174006.0,24692.0,-1347.383509946122,-987.5713569502292,-1384.8874779303426
174017.0,11121.0,174017.0,24212.0,174017.0,24675.0,-1345.0995968334314,-982.4379414615294,-1378.3777487006007
174017.0,11116.0,174017.0,24236.0,174017.0,24695.0,-1341.961330817989,-976.5797445944131,-1370.8570851463558
174017.0,11154.0,174017.0,24293.0,174017.0,24723.0,-1337.945937979045,-969.9947927741337,-1362.316818099825
174017.0,11171.0,174017.0,24342.0,174017.0,24740.0,-1333.0320153288274,-962.6826125487655,-1352.750463116735
174017.0,11160.0,174017.0,24327.0,174017.0,24740.0,-1327.1991665901653,-954.6431710608475,-1342.1534323489873
174017.0,11130.0,174017.0,24269.0,174017.0,24706.0,-1320.4278209128918,-945.8762711111135,-1330.5229800079426
174027.0,11119.0,174027.0,24277.0,174027.0,24714.0,-1312.6996196951548,-936.3819593665959,-1317.8586507189036
174027.0,11121.0,174027.0,24239.0,174027.0,24726.0,-1303.9981535761037,-926.1615733270386,-1304.16298597914
174027.0,11124.0,174027.0,24199.0,174027.0,24722.0,-1294.3096029430787,-915.2188644408781,-1289.4420637435767
174027.0,11136.0,174027.0,24251.0,174027.0,24756.0,-1283.6231104583344,-903.5610860047611,-1273.7058042635426
174027.0,11153.0,174027.0,24307.0,174027.0,24759.0,-1271.930946756697,-891.19961465791,-1256.968141136721
174027.0,11175.0,174027.0,24325.0,174027.0,24820.0,-1259.2285141832795,-878.1496316787786,-1239.2470187923439
174038.0,11190.0,174038.0,24366.0,174038.0,24824.0,-1245.5142211994016,-864.4292988162086,-1220.5641694137225
174038.0,11217.0,174038.0,24373.0,174038.0,24895.0,-1230.7893024832943,-850.0590818318211,-1200.9447172877403
174038.0,11268.0,174038.0,24504.0,174038.0,24964.0,-1215.0575604941391,-835.061140227469,-1180.4165613134678
174038.0,11274.0,174038.0,24482.0,174038.0,24952.0,-1198.3249373955036,-819.458347407532,-1159.009498437731
174038.0,11267.0,174038.0,24511.0,174038.0,24980.0,-1180.5991357803828,-803.2731894887705,-1136.7545485309724
174038.0,11272.0,174038.0,24448.0,174038.0,24970.0,-1161.8896806083703,-786.5273798468937,-1113.6839249622376
174048.0,11281.0,174048.0,24411.0,174048.0,24998.0,-1142.2083816287964,-769.242552943366,-1089.83143737843
174048.0,11303.0,174048.0,24457.0,174048.0,25022.0,-1121.5698195633554,-751.4416117390743,-1065.2329229191369
174048.0,11315.0,174048.0,24483.0,174048.0,25036.0,-1099.9916593569164,-733.1497869492568,-1039.9265206062419
174048.0,11352.0,174048.0,24550.0,174048.0,25087.0,-1077.4948102544809,-714.3947597944264,-1013.9527938122261
174048.0,11393.0,174048.0,24550.0,174048.0,25141.0,-1054.1034139144067,-695.2061226506651,-987.3546469517559
174048.0,11418.0,174048.0,24581.0,174048.0,25159.0,-1029.8446133339294,-675.6148303663535,-960.1769521102534
174058.0,11456.0,174058.0,24632.0,174058.0,25225.0,-1004.7482232291084,-655.6528962811631,-932.4660744520063
174058.0,11499.0,174058.0,24704.0,174058.0,25273.0,-978.8464244394685,-635.352979824092,-904.2694022163182
174058.0,11567.0,174058.0,24744.0,174058.0,25308.0,-952.1733579487949,-614.7475226530717,-875.6347685019116
174058.0,11578.0,174058.0,24755.0,174058.0,25326.0,-924.764524394063,-593.8677338229506,-846.6099312792167
174058.0,11600.0,174058.0,24699.0,174058.0,25346.0,-896.6562773540552,-572.7431332659982,-817.2424075720983
174058.0,11608.0,174058.0,24703.0,174058.0,25370.0,-867.8857593747134,-551.4020937474411,-787.5796440728685
174069.0,11624.0,174069.0,24716.0,174069.0,25389.0,-838.4912350312505,-529.8729998734951,-757.6693162289253
174069.0,11649.0,174069.0,24744.0,174069.0,25464.0,-808.5125587588473,-508.1851833758403,-727.5595336734232
174069.0,11710.0,174069.0,24784.0,174069.0,25482.0,-777.9915110977271,-486.36925935143347,-697.2987399849649
174069.0,11749.0,174069.0,24845.0,174069.0,25548.0,-746.9717612334912,-464.45695154362215,-666.9353355730227
174069.0,11785.0,174069.0,24868.0,174069.0,25589.0,-715.498505070482,-442.4805432861551,-636.5172163991183
174069.0,11841.0,174069.0,24889.0,174069.0,25608.0,-683.6180607458979,-420.4722606927218,-606.0913281563608
174079.0,11893.0,174079.0,24947.0,174079.0,25657.0,-651.3774666703002,-398.4638663259898,-575.7033699489981
174079.0,11950.0,174079.0,25039.0,174079.0,25705.0,-618.8239409630362,-376.48617494144645,-545.3976297639265
174079.0,11978.0,174079.0,25040.0,174079.0,25763.0,-586.0042635003199,-354.56812196951466,-515.2166709832071
174079.0,12002.0,174079.0,25018.0,174079.0,25761.0,-552.964342135732,-332.73590586677244,-485.2008705291973
174079.0,12025.0,174079.0,24996.0,174079.0,25766.0,-519.7491416922259,-311.0130695563143,-455.38825045966587
174079.0,12043.0,174079.0,24980.0,174079.0,25797.0,-486.4029115027233,-289.42151403460224,-425.8148445494521
174089.0,12072.0,174089.0,25030.0,174089.0,25832.0,-452.9695400456883,-267.98269661752477,-396.5152201860543
174089.0,12108.0,174089.0,25038.0,174089.0,25855.0,-419.4928875039798,-246.71834932048984,-367.52273347048833
174089.0,12177.0,174089.0,25094.0,174089.0,25919.0,-386.0169066131426,-225.6505851234054,-338.86951639686725
174089.0,12208.0,174089.0,25125.0,174089.0,25937.0,-352.58541073859476,-204.8016241389771,-310.58627597582563
174089.0,12249.0,174089.0,25154.0,174089.0,25962.0,-319.2416496555569,-184.19334336482285,-282.70203175477053
174089.0,12290.0,174089.0,25209.0,174089.0,26026.0,-286.0279830302468,-163.84678286948028,-255.24395668533953
174100.0,12348.0,174100.0,25268.0,174100.0,26066.0,-252.98563603831326,-143.78155509367724,-228.23714231194788
174100.0,12413.0,174100.0,25327.0,174100.0,26102.0,-220.15429492912665,-124.01496434123041,-201.70411538736295
174100.0,12422.0,174100.0,25301.0,174100.0,26102.0,-187.57152703871532,-104.56103415963457,-175.66440663921406
174100.0,12433.0,174100.0,25240.0,174100.0,26131.0,-155.27242061847528,-85.43019892873997,-150.13450082540737
174100.0,12453.0,174100.0,25252.0,174100.0,26128.0,-123.28977110599197,-66.63014489516394,-125.12811887472634
174100.0,12468.0,174100.0,25245.0,174100.0,26145.0,-91.65461032539241,-48.16720128264848,-100.65664943771935
174110.0,12503.0,174110.0,25253.0,174110.0,26152.0,-60.39671327711898,-30.04741303620193,-76.72964844520487
174110.0,12537.0,174110.0,25282.0,174110.0,26201.0,-29.544917581065476,-12.277149268931339,-53.35527475355053
174110.0,12586.0,174110.0,25317.0,174110.0,26242.0,0.8728121814768883,5.136657681977283,-30.540408594060125
174110.0,12635.0,174110.0,25354.0,174110.0,26247.0,30.82959437827037,22.186675181692976,-8.290420177885437
174110.0,12654.0,174110.0,25372.0,174110.0,26287.0,60.300008137865575,38.865595794874935,13.391081902283759
174110.0,12688.0,174110.0,25422.0,174110.0,26294.0,89.2603930382146,55.16660095516767,34.50232027648633
174120.0,12770.0,174120.0,25512.0,174120.0,26356.0,117.68904923272873,71.08397434188686,55.04339842297986
174120.0,12777.0,174120.0,25488.0,174120.0,26390.0,145.5666301930679,86.61405945242905,75.01656714824679
174120.0,12794.0,174120.0,25502.0,174120.0,26380.0,172.87660936947833,101.75609001914427,94.42666541939332
174120.0,12800.0,174120.0,25482.0,174120.0,26346.0,199.60533165440825,116.5122761482611,113.28121335679572
174120.0,12792.0,174120.0,25419.0,174120.0,26361.0,225.74157733347062,130.8871603722692,131.58977879939022
174120.0,12830.0,174120.0,25448.0,174120.0,26386.0,251.27592027072035,144.8864884248021,149.36307456975953
174131.0,12831.0,174131.0,25419.0,174131.0,26412.0,276.2001640234504,158.5159993519652,166.61246813499196
174131.0,12863.0,174131.0,25503.0,174131.0,26410.0,300.5069836971601,171.78068726666265,183.34992963581794
174131.0,12925.0,174131.0,25506.0,174131.0,26457.0,324.18979405194864,184.6847794422618,199.58806174815186
174131.0,12931.0,174131.0,25523.0,174131.0,26470.0,347.2429371929886,197.23218774189002,215.34016242350316
174131.0,12958.0,174131.0,25561.0,174131.0,26480.0,369.6620200671748,209.42694148125588,230.6203929554796
174131.0,13006.0,174131.0,25588.0,174131.0,26548.0,391.4441105333369,221.27352266899572,245.4439821366185
174141.0,13029.0,174141.0,25665.0,174141.0,26571.0,412.58793583101965,232.77742930689976,259.8276117533335
174141.0,13046.0,174141.0,25620.0,174141.0,26520.0,433.09419889354024,243.94597266880504,273.78991411706295
174141.0,13039.0,174141.0,25590.0,174141.0,26527.0,452.96572720215477,254.78868911616382,287.351419335551
174141.0,13031.0,174141.0,25550.0,174141.0,26533.0,472.2072133383531,265.3167651688372,300.533838397526
174141.0,13036.0,174141.0,25543.0,174141.0,26519.0,490.8246038135028,275.5417548047865,313.35932495857105
174141.0,13055.0,174141.0,25575.0,174141.0,26519.0,508.8244234024662,285.474406225247,325.84992358155375
174151.0,13077.0,174151.0,25560.0,174151.0,26526.0,526.2133403816168,295.12406925508947,338.0270236168901
174151.0,13096.0,174151.0,25616.0,174151.0,26571.0,542.9980432994146,304.4985960226703,349.9109637272787
174151.0,13137.0,174151.0,25648.0,174151.0,26570.0,559.1853339543392,313.6045889132431,361.52101909986743
174151.0,13146.0,174151.0,25642.0,174151.0,26580.0,574.782369582624,322.4479469708057,372.87559462822094
174151.0,13163.0,174151.0,25683.0,174151.0,26612.0,589.7969305884352,331.03439685353067,383.99232393190243
174151.0,13210.0,174151.0,25732.0,174151.0,26672.0,604.2376164453233,339.369917078459,394.88824968134054
174162.0,13211.0,174162.0,25740.0,174162.0,26651.0,618.1140929624415,347.4613670153457,405.5803376199949
174162.0,13210.0,174162.0,25744.0,174162.0,26660.0,631.4373461141967,355.31718483958514,416.0859432704699
174162.0,13181.0,174162.0,25641.0,174162.0,26640.0,644.2195818996468,362.94750662762056,426.42275722405077
174162.0,13176.0,174162.0,25641.0,174162.0,26626.0,656.4736302209069,370.3632712252197,436.60829928523344
174162.0,13210.0,174162.0,25618.0,174162.0,26639.0,668.2121903559497,377.57470519897174,446.65924827535275
174162.0,13183.0,174162.0,25637.0,174162.0,26615.0,679.4473466501714,384.59009011463183,456.5908194307
174172.0,13230.0,174172.0,25689.0,174172.0,26669.0,690.1903681917718,391.4152813321954,466.41632243246954
174172.0,13234.0,174172.0,25757.0,174172.0,26704.0,700.4516605446182,398.05406507820544,476.14709790878885
174172.0,13263.0,174172.0,25757.0,174172.0,26693.0,710.2409197694608,404.50920789513407,485.79291292995015
174172.0,13254.0,174172.0,25726.0,174172.0,26724.0,719.5673811401592,410.78344551219686,495.36239824315885
174172.0,13312.0,174172.0,25810.0,174172.0,26760.0,728.4400165326524,416.8798302309416,504.8632840819113
174172.0,13340.0,174172.0,25854.0,174172.0,26795.0,736.8678825570479,422.8020397966093,514.3027762753372
174182.0,13330.0,174182.0,25818.0,174182.0,26761.0,744.8607203241149,428.5552142900491,523.6880946646846
174182.0,13291.0,174182.0,25764.0,174182.0,26761.0,752.429304667034,434.1464972618621,533.0266373062049
174182.0,13290.0,174182.0,25755.0,174182.0,26749.0,759.58508109517,439.58446538283545,542.3255617853803
174182.0,13292.0,174182.0,25718.0,174182.0,26745.0,766.3394098841047,444.8779239841384,551.5911395840907
174182.0,13292.0,174182.0,25704.0,174182.0,26757.0,772.7029937011654,450.0347664081653,560.8281989798994
174182.0,13320.0,174182.0,25705.0,174182.0,26775.0,778.685644235039,455.0610426117365,570.0397797319305
174193.0,13313.0,174193.0,25772.0,174193.0,26804.0,784.2962943984502,459.9604310579741,579.2270945192106
174193.0,13333.0,174193.0,25780.0,174193.0,26815.0,789.5431242472408,464.73444155114987,588.3897626333775
174193.0,13327.0,174193.0,25782.0,174193.0,26830.0,794.4336627147068,469.38310200161425,597.5261216097372
174193.0,13337.0,174193.0,25837.0,174193.0,26864.0,798.9748244225585,473.90555635425324,606.6334933605415
174193.0,13385.0,174193.0,25899.0,174193.0,26919.0,803.1729966770635,478.3006930699513,615.7085728299925
174193.0,13393.0,174193.0,25906.0,174193.0,26897.0,807.0344030817103,482.568198800907,624.7480586522668
174203.0,13380.0,174203.0,25842.0,174203.0,26897.0,810.565650465106,486.7095293308462,633.7491231949488
174203.0,13343.0,174203.0,25815.0,174203.0,26885.0,813.7739226341515,490.7278810381523,642.7093112777568
174203.0,13339.0,174203.0,25789.0,174203.0,26868.0,816.6665556320021,494.6271749788326,651.6260194399279
174203.0,13348.0,174203.0,25823.0,174203.0,26913.0,819.2503747329905,498.41093786196177,660.4959383264596
174203.0,13340.0,174203.0,25795.0,174203.0,26893.0,821.5312766144194,502.0817152528307,669.3147537495735
174203.0,13351.0,174203.0,25809.0,174203.0,26919.0,823.5140989904006,505.6408833359999,678.0771045159612
174213.0,13372.0,174213.0,25808.0,174213.0,26940.0,825.2026399085923,509.08850905937834,686.7766069343448
174213.0,13397.0,174213.0,25840.0,174213.0,26941.0,826.5998953603686,512.4232889738512,695.4059583210314
174213.0,13365.0,174213.0,25867.0,174213.0,26956.0,827.708464486431,515.6427812809717,703.9570893551025
174213.0,13407.0,174213.0,25904.0,174213.0,27013.0,828.5308207440102,518.7439857683436,712.4213270690301
174213.0,13422.0,174213.0,25958.0,174213.0,27028.0,829.0694975173038,521.724219087214,720.7898136036538
174213.0,13409.0,174213.0,25941.0,174213.0,27037.0,829.3274531946038,524.5821357023134,729.0541587428712
174224.0,13395.0,174224.0,25872.0,174224.0,27028.0,829.3083727810699,527.3183502092479,737.2068691494188
174224.0,13360.0,174224.0,25836.0,174224.0,27007.0,829.016519420408,529.9350053739903,745.2412833922724
174224.0,13363.0,174224.0,25847.0,174224.0,27001.0,828.4562085630765,532.4345347982887,753.1510919357299
174224.0,13370.0,174224.0,25839.0,174224.0,27018.0,827.6312871326452,534.818607729691,760.9297256341548
174224.0,13375.0,174224.0,25877.0,174224.0,27040.0,826.5449393289184,537.087749739146,768.5699934045276
174224.0,13383.0,174224.0,25864.0,174224.0,27060.0,825.1998047816403,539.2414530385075,776.0641372648947
174234.0,13397.0,174234.0,25920.0,174234.0,27078.0,823.5982268174981,541.2785173859987,783.4041491470687
174234.0,13398.0,174234.0,25903.0,174234.0,27086.0,821.7425599223344,543.1975204063359,790.5821190295237
174234.0,13395.0,174234.0,25930.0,174234.0,27094.0,819.6354654890987,544.9973080776479,797.5904770339116
174234.0,13418.0,174234.0,25987.0,174234.0,27146.0,817.2801330366195,546.6774750685502,804.4221884266226
174234.0,13413.0,174234.0,25968.0,174234.0,27157.0,814.6805219244383,548.2390211365671,811.0711425897074
174234.0,13402.0,174234.0,25939.0,174234.0,27122.0,811.8416295284202,549.684948841538,817.5326370227758
174244.0,13363.0,174244.0,25894.0,174244.0,27119.0,808.7695246877269,551.0201610188003,823.8034182624567
174244.0,13363.0,174244.0,25853.0,174244.0,27100.0,805.4709944837953,552.2505648269577,829.88115440301
174244.0,13334.0,174244.0,25857.0,174244.0,27100.0,801.9530105790053,553.381873986614,835.7637562162988
174244.0,13355.0,174244.0,25830.0,174244.0,27122.0,798.2223042941681,554.4186149646323,841.4488747990929
174244.0,13356.0,174244.0,25891.0,174244.0,27124.0,794.2852201977041,555.363610135671,846.9337093893162
174244.0,13342.0,174244.0,25902.0,174244.0,27132.0,790.1478358492767,556.2180713477371,852.215060673323
174255.0,13342.0,174255.0,25888.0,174255.0,27143.0,785.8160985756265,556.9821499981231,857.2894192101306
174255.0,13361.0,174255.0,25931.0,174255.0,27163.0,781.2958778948858,557.6554457410025,862.1530587206742
174255.0,13372.0,174255.0,25986.0,174255.0,27171.0,776.5931701697729,558.2374738141807,866.8022294694272
174255.0,13398.0,174255.0,25992.0,174255.0,27221.0,771.7145888611474,558.7285220396379,871.2334923312377
174255.0,13378.0,174255.0,25961.0,174255.0,27202.0,766.6679742365643,559.1305959684569,875.4441936605828
174255.0,13338.0,174255.0,25913.0,174255.0,27166.0,761.4627519724537,559.4476507593638,879.4327856072963
174265.0,13304.0,174265.0,25882.0,174265.0,27173.0,756.1096943373404,559.6849012812879,883.1985811489283
174265.0,13279.0,174265.0,25863.0,174265.0,27166.0,750.620168650579,559.8476919646857,886.7411563836431
174265.0,13290.0,174265.0,25881.0,174265.0,27167.0,745.0053543215847,559.9405353862533,890.0599080661165
174265.0,13277.0,174265.0,25849.0,174265.0,27177.0,739.275824760253,559.9666007245631,893.1538453327503
174265.0,13283.0,174265.0,25874.0,174265.0,27185.0,733.4414998745781,559.9274961239794,896.0215286207211
174265.0,13290.0,174265.0,25900.0,174265.0,27203.0,727.5117765622383,559.8232335643376,898.6611659333649
174276.0,13281.0,174276.0,25929.0,174276.0,27203.0,721.4957478299442,559.6525724843982,901.0708260236962
174276.0,13280.0,174276.0,25929.0,174276.0,27220.0,715.4024292846751,559.4137037029079,903.2486714136302
174276.0,13292.0,174276.0,25996.0,174276.0,27243.0,709.2409319876032,559.1049964193103,905.1932072610598
174276.0,13305.0,174276.0,26011.0,174276.0,27259.0,703.0207149404152,558.725858933306,906.9036533871309
174276.0,13265.0,174276.0,25930.0,174276.0,27226.0,696.7519310707859,558.2775714630202,908.3803423690695
174276.0,13233.0,174276.0,25873.0,174276.0,27190.0,690.4454960673008,557.7632451596251,909.6247207638836
174286.0,13206.0,174286.0,25853.0,174286.0,27196.0,684.1126247472529,557.1866016984964,910.6387794143315
174286.0,13194.0,174286.0,25870.0,174286.0,27195.0,677.7641098348565,556.5505386724703,911.4243701568867
174286.0,13197.0,174286.0,25862.0,174286.0,27188.0,671.4097718232969,555.8563954038266,911.9828480224517
174286.0,13201.0,174286.0,25889.0,174286.0,27208.0,665.0582718316646,555.1038867138061,912.3149761411773
174286.0,13197.0,174286.0,25904.0,174286.0,27227.0,658.7172304778439,554.2913686726306,912.4210103376685
174286.0,13190.0,174286.0,25929.0,174286.0,27201.0,652.3934399958509,553.4163270548752,912.300957319649
174296.0,13191.0,174296.0,25906.0,174296.0,27217.0,646.0930094745283,552.4759387914069,911.9547555086963
174296.0,13209.0,174296.0,25964.0,174296.0,27259.0,639.821509777147,551.4675061435032,911.3823562494372
174296.0,13219.0,174296.0,26025.0,174296.0,27275.0,633.5842960272917,550.3890287884736,910.5841141860298
174296.0,13198.0,174296.0,25973.0,174296.0,27259.0,627.3869670008788,549.2401891184313,909.5614746592233
174296.0,13190.0,174296.0,25915.0,174296.0,27212.0,621.2356556638433,548.0230081016666,908.3173267059716
174296.0,13152.0,174296.0,25863.0,174296.0,27208.0,615.1369563934802,546.7412833003189,906.8556532951368
174307.0,13137.0,174307.0,25842.0,174307.0,27223.0,609.0975453491942,545.3991590885169,905.1808874994771
174307.0,13130.0,174307.0,25828.0,174307.0,27197.0,603.1236799654262,543.9997598742576,903.2975532644471
174307.0,13128.0,174307.0,25831.0,174307.0,27189.0,597.2208343684256,542.5443294038391,901.2101339723098
174307.0,13127.0,174307.0,25906.0,174307.0,27200.0,591.3935980128399,541.0320035544507,898.9228752201171
174307.0,13121.0,174307.0,25911.0,174307.0,27229.0,585.6457422477749,539.4603521661886,896.4397098736657
174307.0,13138.0,174307.0,25883.0,174307.0,27204.0,579.980359547974,537.8263155471327,893.7645197736849
174317.0,13122.0,174317.0,25932.0,174317.0,27215.0,574.4000773086457,536.126799086645,890.9014486200817
174317.0,13147.0,174317.0,25981.0,174317.0,27237.0,568.9073258626631,534.3590717725172,887.8550635328265
174317.0,13146.0,174317.0,25958.0,174317.0,27239.0,563.5046586061799,532.5215474843881,884.6306079968424
174317.0,13133.0,174317.0,25948.0,174317.0,27215.0,558.1951120058067,530.6145686825208,881.2343622279897
174317.0,13087.0,174317.0,25867.0,174317.0,27185.0,552.9823483876943,528.640435665025,877.6737060434663
174317.0,13058.0,174317.0,25844.0,174317.0,27153.0,547.8702899937173,526.6025559118198,873.9566796377547
174327.0,13062.0,174327.0,25831.0,174327.0,27184.0,542.8624040638238,524.5041829532177,870.0913374922975
174327.0,13052.0,174327.0,25812.0,174327.0,27119.0,537.9611386829191,522.3473821391269,866.0852978854855
174327.0,13055.0,174327.0,25864.0,174327.0,27152.0,533.1677399903377,520.1325409411216,861.9454553694707
174327.0,13048.0,174327.0,25873.0,174327.0,27160.0,528.4822827073168,517.8584945572735,857.6777810941678
174327.0,13075.0,174327.0,25871.0,174327.0,27168.0,523.9037965657981,515.5231170505381,853.287465744161
174327.0,13072.0,174327.0,25863.0,174327.0,27161.0,519.430559462704,513.1238539089577,848.779332038966
174338.0,13074.0,174338.0,25937.0,174338.0,27173.0,515.0605128438312,510.6580362145371,844.1581644965371
174338.0,13097.0,174338.0,25991.0,174338.0,27189.0,510.7916475875864,508.12357146653216,839.4289724873975
174338.0,13076.0,174338.0,25934.0,174338.0,27160.0,506.62235437676827,505.52017505346976,834.5973078414332
174338.0,13048.0,174338.0,25896.0,174338.0,27143.0,502.5516354077569,502.85015283006214,829.6694182791864
174338.0,13021.0,174338.0,25841.0,174338.0,27102.0,498.57890428473723,500.1179617400344,824.6519774502992
174338.0,13011.0,174338.0,25786.0,174338.0,27111.0,494.7034267495876,497.3289268489377,819.5515148260905
174348.0,13016.0,174348.0,25791.0,174348.0,27083.0,490.9237928490056,494.48780474536704,814.3738933153684
174348.0,13002.0,174348.0,25846.0,174348.0,27099.0,487.23766948549337,491.59783669817256,809.1240165325228
174348.0,13019.0,174348.0,25834.0,174348.0,27107.0,483.64178078429313,488.6607670002235,803.8057857688677
174348.0,13019.0,174348.0,25832.0,174348.0,27123.0,480.1320273079552,485.67743379418846,798.4223469819045
174348.0,13016.0,174348.0,25820.0,174348.0,27086.0,476.7037118420884,482.6481349740593,792.9764819643399
174348.0,13019.0,174348.0,25847.0,174348.0,27103.0,473.3517565289755,479.5726740143672,787.4708036012203
174358.0,13059.0,174358.0,25935.0,174358.0,27118.0,470.0709297096388,476.45067056591745,781.9077915473488
174358.0,13032.0,174358.0,25907.0,174358.0,27132.0,466.85624857735047,473.2825446063266,776.2900547656565
174358.0,13020.0,174358.0,25833.0,174358.0,27083.0,463.70335948120464,470.07050631861154,770.6207662007317
174358.0,12994.0,174358.0,25786.0,174358.0,27044.0,460.60850748244053,466.8183941087847,764.9036907153388
174358.0,12957.0,174358.0,25790.0,174358.0,27039.0,457.56808316134305,463.53046187753347,759.1425876252954
174358.0,12976.0,174358.0,25758.0,174358.0,27054.0,454.5780078598734,460.21022847697276,753.3405401900148
174369.0,12962.0,174369.0,25765.0,174369.0,27001.0,451.63328734902456,456.85986075507606,747.4996773979835
174369.0,12976.0,174369.0,25770.0,174369.0,27013.0,448.7279161919801,453.47989985447725,741.6210167740687
174369.0,12985.0,174369.0,25770.0,174369.0,27057.0,445.8550277321862,450.069247726841,735.7043046947018
174369.0,12993.0,174369.0,25805.0,174369.0,27051.0,443.0071866879945,446.6254037257611,729.7482953461914
174369.0,12995.0,174369.0,25808.0,174369.0,27031.0,440.17675981135613,443.1449229767388,723.751375237917
174369.0,13008.0,174369.0,25845.0,174369.0,27063.0,437.3562636585579,439.6240662410002,717.7119646381435
174379.0,13028.0,174379.0,25889.0,174379.0,27058.0,434.53872411585064,436.0596251831262,711.628756687585
174379.0,13010.0,174379.0,25838.0,174379.0,27028.0,431.7180985074353,432.44983815347786,705.5010249383672
174379.0,12979.0,174379.0,25804.0,174379.0,27011.0,428.88952575349333,428.794868386403,699.328699845742
174379.0,12950.0,174379.0,25755.0,174379.0,26990.0,426.04909311789424,425.0963630208301,693.1120462656312
174379.0,12944.0,174379.0,25732.0,174379.0,26964.0,423.1932148191005,421.3563964991472,686.8511807604807
174379.0,12933.0,174379.0,25725.0,174379.0,26968.0,420.31802940362303,417.5764216073516,680.5456169151798
174389.0,12938.0,174389.0,25710.0,174389.0,26955.0,417.41905885055564,413.7565640395712,674.1939540156409
174389.0,12930.0,174389.0,25747.0,174389.0,26979.0,414.4911012040941,409.8953333031069,667.79382041259
174389.0,12964.0,174389.0,25758.0,174389.0,26974.0,411.5283042626891,405.989788413585,661.3420857806066
174389.0,12951.0,174389.0,25745.0,174389.0,26981.0,408.5244467984044,402.0360450968067,654.835237111126
174389.0,12951.0,174389.0,25784.0,174389.0,26969.0,405.47330404367705,398.0297846006515,648.2697283044971
174389.0,12974.0,174389.0,25834.0,174389.0,27000.0,402.36890943470155,393.9668107781907,641.6422508506297
174400.0,12969.0,174400.0,25816.0,174400.0,26993.0,399.20580994467934,389.8439449607841,634.9500855791197
174400.0,12960.0,174400.0,25786.0,174400.0,26965.0,395.97937792884636,385.65985400036055,628.1914991513949
174400.0,12932.0,174400.0,25732.0,174400.0,26922.0,392.6859266879751,381.4151032725489,621.3657907520387
174400.0,12899.0,174400.0,25703.0,174400.0,26901.0,389.3224356208788,377.1113942072693,614.4727886857769
174400.0,12896.0,174400.0,25690.0,174400.0,26904.0,385.8859781780758,372.7505125020733,607.5121470093588
174400.0,12902.0,174400.0,25681.0,174400.0,26884.0,382.3731906801971,368.3335009990917,600.482895522354
174410.0,12903.0,174410.0,25687.0,174410.0,26891.0,378.7800917290439,363.8602453838306,593.3832997967469
174410.0,12908.0,174410.0,25679.0,174410.0,26893.0,375.10221387077786,359.3293836341624,586.2108916410397
174410.0,12908.0,174410.0,25699.0,174410.0,26883.0,371.3348331234282,354.7384076821512,578.9626275542223
174410.0,12921.0,174410.0,25689.0,174410.0,26875.0,367.47321353572454,350.0838925709463,571.6350679883594
174410.0,12913.0,174410.0,25770.0,174410.0,26911.0,363.5128790664234,345.3619260358186,564.2245329913186
174410.0,12935.0,174410.0,25773.0,174410.0,26923.0,359.4499048361429,340.56895312398547,556.7274852752382
174420.0,12924.0,174420.0,25753.0,174420.0,26882.0,355.2812278897826,335.702863949644,549.1411408210773
174420.0,12903.0,174420.0,25714.0,174420.0,26868.0,351.0048946176495,330.76358805195196,541.4637769110785
174420.0,12870.0,174420.0,25667.0,174420.0,26832.0,346.62000613127043,325.7527947194328,533.6944685190886
174420.0,12848.0,174420.0,25614.0,174420.0,26821.0,342.1262645181063,320.67294415427585,525.8325506005187
174420.0,12841.0,174420.0,25606.0,174420.0,26810.0,337.52334868789,315.5260860817914,517.8771301105091
174420.0,12831.0,174420.0,25603.0,174420.0,26789.0,332.8104254073346,310.312859052386,509.8267611043092
174431.0,12848.0,174431.0,25640.0,174431.0,26836.0,327.9859412459017,305.03209512470454,501.679337591372
174431.0,12851.0,174431.0,25657.0,174431.0,26800.0,323.0477156977883,299.681123004038,493.43230132667577
174431.0,12854.0,174431.0,25661.0,174431.0,26800.0,317.99325862589393,294.2565025381967,485.0829986576557
174431.0,12855.0,174431.0,25661.0,174431.0,26793.0,312.82012995769173,288.7547393575387,476.6288404476852
174431.0,12867.0,174431.0,25700.0,174431.0,26830.0,307.5262506388267,283.1728097660455,468.06740074480325
174431.0,12883.0,174431.0,25711.0,174431.0,26813.0,302.1102620538606,277.50875299630866,459.39680437561583
174441.0,12843.0,174441.0,25661.0,174441.0,26794.0,296.5719258785395,271.7623309148728,450.616227471668
174441.0,12795.0,174441.0,25587.0,174441.0,26735.0,290.912192037312,265.93511573834377,441.725990886174
174441.0,12795.0,174441.0,25564.0,174441.0,26727.0,285.13267776004346,260.02960102394064,432.7270643900785
174441.0,12766.0,174441.0,25564.0,174441.0,26717.0,279.2349381694498,254.0479328883764,423.62037221682056
174441.0,12764.0,174441.0,25565.0,174441.0,26705.0,273.2199654761809,247.99113360891633,414.40637347923837
174441.0,12778.0,174441.0,25575.0,174441.0,26709.0,267.0879632820929,241.85899765724045,405.0849700487747
174451.0,12775.0,174451.0,25577.0,174451.0,26712.0,260.83841012672144,235.6503484822519,395.6556083161451
174451.0,12772.0,174451.0,25582.0,174451.0,26697.0,254.47034346098246,229.36340307932142,386.1175141208196
174451.0,12777.0,174451.0,25563.0,174451.0,26701.0,247.98264145058468,222.99609259832704,376.46993741452445
174451.0,12783.0,174451.0,25615.0,174451.0,26706.0,241.3742702539979,216.54632487494564,366.7123621552461
174451.0,12797.0,174451.0,25675.0,174451.0,26723.0,234.6446222744657,210.01255725981352,356.84483525103724
174451.0,12779.0,174451.0,25612.0,174451.0,26677.0,227.7939352930356,203.3948619352026,346.86839837210607
174462.0,12746.0,174462.0,25580.0,174462.0,26648.0,220.82354762487444,196.6956843868808,336.7852401397951
174462.0,12727.0,174462.0,25519.0,174462.0,26601.0,213.7357423927436,189.91951184124673,326.59828735816507
174462.0,12695.0,174462.0,25475.0,174462.0,26594.0,206.53325777498753,183.07174098127047,316.3104558044839
174462.0,12684.0,174462.0,25461.0,174462.0,26585.0,199.21872219353435,176.15739644458915,305.92401582595653
174462.0,12673.0,174462.0,25448.0,174462.0,26594.0,191.79418839831146,169.1801309962837,295.44035597390234
174462.0,12682.0,174462.0,25483.0,174462.0,26575.0,184.2608898138489,162.14177638020618,284.86010210454094
174472.0,12688.0,174472.0,25490.0,174472.0,26591.0,176.61930003111166,155.04251758895157,274.18336726526155
174472.0,12702.0,174472.0,25496.0,174472.0,26577.0,168.86947314030692,147.8814921651234,263.4100291299083
174472.0,12684.0,174472.0,25515.0,174472.0,26556.0,161.01151310352543,140.65746036794093,252.5399884264587
174472.0,12689.0,174472.0,25547.0,174472.0,26584.0,153.04594752415773,133.369467295535,241.5733355002368
174472.0,12698.0,174472.0,25555.0,174472.0,26590.0,144.97396937439925,126.01765686273615,230.510615238022
174472.0,12665.0,174472.0,25490.0,174472.0,26550.0,136.7976660557472,118.60400694755947,219.35330164613742
174482.0,12641.0,174482.0,25421.0,174482.0,26511.0,128.52010015936384,111.13230774701435,208.10402064951944
174482.0,12606.0,174482.0,25394.0,174482.0,26469.0,120.14501317633227,103.60714043185294,196.76614060088338
174482.0,12583.0,174482.0,25402.0,174482.0,26461.0,111.67624515110384,96.03258047753377,185.34300564180813
174482.0,12580.0,174482.0,25363.0,174482.0,26459.0,103.11714943481991,88.41142085721219,173.83733797864284
174482.0,12574.0,174482.0,25413.0,174482.0,26452.0,94.47024121794186,80.74495342538876,162.25107205261128
174482.0,12587.0,174482.0,25421.0,174482.0,26437.0,85.73718092182702,73.03318495713557,150.58547683231052
174493.0,12589.0,174493.0,25395.0,174493.0,26454.0,76.919041772794,65.27541696564958,138.84133748221143
174493.0,12566.0,174493.0,25418.0,174493.0,26431.0,68.016687459455,57.47076633220507,127.01919231215868
174493.0,12560.0,174493.0,25432.0,174493.0,26450.0,59.03099877199122,49.61849319600424,115.11964723603546
174493.0,12617.0,174493.0,25456.0,174493.0,26451.0,49.963013947625655,41.71851253364457,103.14375354767503
174493.0,12559.0,174493.0,25406.0,174493.0,26416.0,40.814330765717614,33.77205706235799,91.09342065300564
174493.0,12543.0,174493.0,25363.0,174493.0,26374.0,31.587517386782167,25.781904582761058,78.97156622985153
174503.0,12522.0,174503.0,25343.0,174503.0,26357.0,22.286003687777395,17.751874254430106,66.78176495077491
174503.0,12491.0,174503.0,25294.0,174503.0,26310.0,12.91362097694622,9.685958010604054,54.52762840245498
174503.0,12463.0,174503.0,25263.0,174503.0,26299.0,3.4741157981144966,1.5874411480271533,42.212191316223425
174503.0,12447.0,174503.0,25282.0,174503.0,26301.0,-6.029362294413431,-6.541880769028012,29.837441611012878
174503.0,12476.0,174503.0,25299.0,174503.0,26333.0,-15.594637209842404,-14.702052851958001,17.404263307194356
174503.0,12460.0,174503.0,25332.0,174503.0,26303.0,-25.22045775277894,-22.894600461859113,4.912887358404987
174514.0,12455.0,174514.0,25305.0,174514.0,26294.0,-34.90613943804465,-31.12174276341534,-7.636572591997378
174514.0,12474.0,174514.0,25314.0,174514.0,26284.0,-44.651224577386586,-39.385738766272254,-20.243898219049356
174514.0,12483.0,174514.0,25353.0,174514.0,26305.0,-54.455106028443936,-47.68848316988448,-32.908674142597306
174514.0,12472.0,174514.0,25386.0,174514.0,26300.0,-64.31648106520197,-56.03088649570856,-45.62996294116249
174514.0,12437.0,174514.0,25318.0,174514.0,26256.0,-74.23291871954353,-64.41197267560551,-58.40585685544522
174514.0,12388.0,174514.0,25227.0,174514.0,26208.0,-84.20092312573524,-72.82859665553644,-71.23341821942586
174524.0,12369.0,174524.0,25211.0,174524.0,26192.0,-94.2165212800906,-81.276409401134,-84.10920700826205
174524.0,12359.0,174524.0,25212.0,174524.0,26175.0,-104.2759928422314,-89.75128924415321,-97.02996656793096
174524.0,12349.0,174524.0,25156.0,174524.0,26172.0,-114.37632319089272,-98.25022986187861,-109.99301027335821
174524.0,12349.0,174524.0,25194.0,174524.0,26148.0,-124.51531104418223,-106.77173155598751,-122.99629707554789
174524.0,12349.0,174524.0,25189.0,174524.0,26192.0,-134.69146025984816,-115.3159205553759,-136.0383113779726
174524.0,12330.0,174524.0,25219.0,174524.0,26141.0,-144.9037692186227,-123.88423044808684,-149.1177270767049
174534.0,12340.0,174534.0,25226.0,174534.0,26133.0,-155.15153319631298,-132.47872264654848,-162.23306831112768
174534.0,12339.0,174534.0,25234.0,174534.0,26132.0,-165.43414357321035,-141.10132310025102,-175.38265231918024
174534.0,12357.0,174534.0,25268.0,174534.0,26150.0,-175.75073820301634,-149.7530804364426,-188.56454529682424
174534.0,12330.0,174534.0,25215.0,174534.0,26110.0,-186.09972522993246,-158.43349202583693,-201.77623990709253
174534.0,12285.0,174534.0,25180.0,174534.0,26061.0,-196.478506208466,-167.14021972149584,-215.01444508462328
174534.0,12256.0,174534.0,25134.0,174534.0,26038.0,-206.88372642455124,-175.8695251576279,-228.27543141484045
174545.0,12234.0,174545.0,25104.0,174545.0,26029.0,-217.31192500734,-184.61719397700432,-241.555677205415
174545.0,12233.0,174545.0,25077.0,174545.0,26006.0,-227.76012757547932,-193.37948769109636,-254.85230336683617
174545.0,12198.0,174545.0,25072.0,174545.0,25989.0,-238.22615891555074,-202.15388449913866,-268.1632466198449
174545.0,12215.0,174545.0,25111.0,174545.0,25987.0,-248.70878101908272,-210.9394088308308,-281.4873573042663
174545.0,12217.0,174545.0,25096.0,174545.0,25994.0,-259.20766869117244,-219.7363898186931,-294.8243692414901
174545.0,12211.0,174545.0,25095.0,174545.0,25983.0,-269.7231236122601,-228.54590979547066,-308.1746303880079
174555.0,12214.0,174555.0,25087.0,174555.0,25978.0,-280.2556644826228,-237.36940826886638,-321.53872381329825
174555.0,12220.0,174555.0,25131.0,174555.0,25988.0,-290.80565109785516,-246.20841503899504,-334.91712470693244
174555.0,12228.0,174555.0,25160.0,174555.0,25969.0,-301.372865446418,-255.06397327485683,-348.3098488833342
174555.0,12171.0,174555.0,25100.0,174555.0,25930.0,-311.9561145854308,-263.93576060661405,-361.7161818207801
174555.0,12151.0,174555.0,25030.0,174555.0,25904.0,-322.5532175535542,-272.8217257924333,-375.1347614417132
174555.0,12105.0,174555.0,24977.0,174555.0,25878.0,-333.1615119504886,-281.7188683263586,-388.5640025171749
174565.0,12096.0,174565.0,24992.0,174565.0,25859.0,-343.77856859756594,-290.6246146433282,-402.0025692988927
174565.0,12076.0,174565.0,24965.0,174565.0,25853.0,-354.40277639817236,-299.53778319397327,-415.44970012663555
174565.0,12095.0,174565.0,24992.0,174565.0,25855.0,-365.0336234310862,-308.4588369273605,-428.9052990565549
174565.0,12107.0,174565.0,24992.0,174565.0,25834.0,-375.6715630231332,-317.38967820449056,-442.36979453682795
174565.0,12076.0,174565.0,24989.0,174565.0,25819.0,-386.31756398375137,-326.3332148113943,-455.8439553672598
174565.0,12063.0,174565.0,25008.0,174565.0,25810.0,-396.972763903034,-335.2928811764423,-469.32883392618635
174576.0,12074.0,174576.0,25015.0,174576.0,25815.0,-407.6384278602204,-344.272151134075,-482.8257293875439
174576.0,12089.0,174576.0,25075.0,174576.0,25844.0,-418.31584824219703,-353.2738519055864,-496.3359138873617
174576.0,12079.0,174576.0,25017.0,174576.0,25799.0,-429.0059124350727,-362.299260984288,-509.8600831548192
174576.0,12042.0,174576.0,24971.0,174576.0,25777.0,-439.70864798286584,-371.3475423685178,-523.3979423902753
174576.0,12019.0,174576.0,24883.0,174576.0,25714.0,-450.4231802904874,-380.4161980291416,-536.9483644974812
174576.0,11971.0,174576.0,24896.0,174576.0,25709.0,-461.14814941820805,-389.5023565473998,-550.5100336606847
174586.0,11969.0,174586.0,24844.0,174586.0,25691.0,-471.882335052235,-398.60402676896456,-564.0821068201828
174586.0,11952.0,174586.0,24876.0,174586.0,25668.0,-482.6251841083812,-407.72079645698807,-577.6645713123552
174586.0,11968.0,174586.0,24886.0,174586.0,25710.0,-493.3770082760378,-416.85395171491655,-591.2582825089903
174586.0,11960.0,174586.0,24899.0,174586.0,25673.0,-504.13882318759397,-426.0060698085108,-604.8646834822774
174586.0,11950.0,174586.0,24868.0,174586.0,25646.0,-514.9120133649112,-435.180394980595,-618.4854211877164
174586.0,11943.0,174586.0,24893.0,174586.0,25648.0,-525.6980617145026,-444.38042823580815,-632.1222658916339
174596.0,11954.0,174596.0,24941.0,174596.0,25667.0,-536.4983698412757,-453.6095711262316,-645.7771476133976
174596.0,11959.0,174596.0,24929.0,174596.0,25667.0,-547.3139728385296,-462.8703741699311,-659.4518197909194
174596.0,11936.0,174596.0,24877.0,174596.0,25628.0,-558.1451201836799,-472.163707527699,-673.1472937981825
174596.0,11862.0,174596.0,24831.0,174596.0,25581.0,-568.9911072186496,-481.48867144667304,-686.8636392385149
174596.0,11857.0,174596.0,24793.0,174596.0,25554.0,-579.850731596631,-490.84336584440314,-700.6004009261005
174596.0,11840.0,174596.0,24773.0,174596.0,25545.0,-590.7230731809209,-500.22593015402936,-714.3572682826916
174607.0,11841.0,174607.0,24759.0,174607.0,25509.0,-601.6079660285476,-509.6353596934248,-728.1345539650333
174607.0,11822.0,174607.0,24782.0,174607.0,25523.0,-612.5060552265714,-519.0719023076944,-741.9334250641921
174607.0,11842.0,174607.0,24803.0,174607.0,25545.0,-623.4186753606216,-528.5369240091767,-755.7558544861806
174607.0,11816.0,174607.0,24779.0,174607.0,25512.0,-634.3476274994072,-538.0323468195763,-769.6041933179863
174607.0,11809.0,174607.0,24756.0,174607.0,25506.0,-645.2949416765638,-547.5601606590178,-783.4806858931945
174607.0,11816.0,174607.0,24813.0,174607.0,25520.0,-656.2627401683569,-557.1222520738202,-797.387226999633
174617.0,11843.0,174617.0,24846.0,174617.0,25517.0,-667.2530092536028,-566.7199891768628,-811.325092009954
174617.0,11811.0,174617.0,24845.0,174617.0,25500.0,-678.267097259237,-576.3531802679347,-825.2944820317944
174617.0,11776.0,174617.0,24747.0,174617.0,25463.0,-689.3053010799479,-586.0191447596991,-839.2942118857741
174617.0,11754.0,174617.0,24689.0,174617.0,25415.0,-700.3669762327571,-595.7129325681226,-853.3218485150335
174617.0,11732.0,174617.0,24662.0,174617.0,25402.0,-711.4510146116647,-605.4286576490979,-867.3742573669522
174617.0,11704.0,174617.0,24637.0,174617.0,25393.0,-722.5563196193737,-615.1609440881897,-881.4481804103298
174627.0,11703.0,174627.0,24650.0,174627.0,25368.0,-733.6821754969649,-624.9057745922302,-895.5405180423497
174627.0,11706.0,174627.0,24683.0,174627.0,25369.0,-744.8284360055883,-634.6606342881298,-909.648377723244
174627.0,11706.0,174627.0,24685.0,174627.0,25353.0,-755.9954070121655,-644.4240147165135,-923.769037170556
174627.0,11699.0,174627.0,24645.0,174627.0,25356.0,-767.1835120301331,-654.1946990411641,-937.8998120908132
174627.0,11692.0,174627.0,24680.0,174627.0,25347.0,-778.3929633195537,-663.9713729121809,-952.037822469742
174627.0,11733.0,174627.0,24708.0,174627.0,25359.0,-789.623436515839,-673.7523627068229,-966.179667632159
174638.0,11701.0,174638.0,24713.0,174638.0,25355.0,-800.8735666535924,-683.53496896203,-980.3209899349163
174638.0,11659.0,174638.0,24711.0,174638.0,25322.0,-812.1404861891223,-693.3145630321625,-994.4560304207571
174638.0,11637.0,174638.0,24620.0,174638.0,25291.0,-823.419900881948,-703.0841047786519,-1008.5774639490619
174638.0,11604.0,174638.0,24569.0,174638.0,25257.0,-834.706640893315,-712.8345853525033,-1022.6766637483825
174638.0,11580.0,174638.0,24560.0,174638.0,25239.0,-845.9952683264564,-722.5562455373997,-1036.7442013498523
174638.0,11578.0,174638.0,24575.0,174638.0,25229.0,-857.2805592340112,-732.239655212548,-1050.7702806425834
174648.0,11588.0,174648.0,24546.0,174648.0,25193.0,-868.5577226501841,-741.8760349815491,-1064.744986952329
174648.0,11575.0,174648.0,24542.0,174648.0,25217.0,-879.8222515816999,-751.4571723927489,-1078.6584060982298
174648.0,11567.0,174648.0,24565.0,174648.0,25209.0,-891.0696084864992,-760.975337778321,-1092.5005429185385
174648.0,11573.0,174648.0,24556.0,174648.0,25185.0,-902.2949801417249,-770.4230522498277,-1106.2609991150027
174648.0,11569.0,174648.0,24585.0,174648.0,25200.0,-913.4930413417717,-779.7925988252139,-1119.928659661743
174648.0,11591.0,174648.0,24611.0,174648.0,25224.0,-924.6575839040024,-789.0753538388327,-1133.4913800268798
174658.0,11573.0,174658.0,24578.0,174658.0,25200.0,-935.7810152088298,-798.2610077018273,-1146.9354216101485
174658.0,11519.0,174658.0,24530.0,174658.0,25143.0,-946.8539915892405,-807.337090164703,-1160.2449535216776
