c_ts,c_val,d_ts,d_val,e_ts,e_val,c_val_filtered,d_val_filtered,e_val_filtered
103887,2024,103887,17961,103887,31326,16.625055428690057,-40.94304408758366,-59.655069746552044
103887,2028,103887,17948,103887,31310,16.731502483924356,-41.690392321054766,-59.83261061314396
103887,2022,103887,17923,103887,31292,16.844306227356963,-42.45337366443592,-60.0603196437703
103887,2035,103887,17911,103887,31290,16.96400711239324,-43.23243684714439,-60.343886041823374
103887,2025,103887,17955,103887,31315,17.091285018583445,-44.02916337855467,-60.69008196499045
103887,2030,103887,17977,103887,31351,17.227009870077058,-44.84623796221303,-61.10671572536869
103897,2021,103897,17995,103897,31363,17.372239436857924,-45.68684373096433,-61.60208938828381
103897,2024,103897,17962,103897,31336,17.52816226702782,-46.55398005741873,-62.1843430062045
103897,2021,103897,17939,103897,31336,17.696030238398542,-47.450285674583704,-62.86120532201164
103897,2021,103897,17957,103897,31347,17.87711104764182,-48.37839332094031,-63.64014663519294
103897,2027,103897,17971,103897,31362,18.072672739559476,-49.34125930083356,-64.52846812710823
103897,2023,103897,17979,103897,31365,18.284008330592904,-50.34206110549568,-65.5331068189726
103907,2022,103907,17980,103907,31360,18.51247012966148,-51.38385322924862,-66.66035830011938
103907,2025,103907,17983,103907,31360,18.759469192536315,-52.46929678152849,-67.91574163819793
103907,2014,103907,17939,103907,31336,19.026445937180593,-53.60060850736626,-69.30405483903719
103907,2026,103907,17952,103907,31345,19.314826040863576,-54.77981817419491,-70.82958222681704
103907,2014,103907,17991,103907,31376,19.625981810248803,-56.009079262827456,-72.49625323978603
103907,2007,103907,17981,103907,31396,19.961182789393884,-57.29055125082372,-74.30742466086616
103918,2019,103918,17966,103918,31367,20.321491040645373,-58.626005198599366,-76.26536103704733
103918,2016,103918,17943,103918,31350,20.70769212576205,-60.01675361486479,-78.37097172999714
103918,2022,103918,17959,103918,31355,21.120344725923715,-61.46396930416452,-80.62404130262792
103918,2021,103918,17978,103918,31354,21.55986995004656,-62.968917578850615,-83.0235626343325
103918,2023,103918,18004,103918,31364,22.026615553462378,-64.53274966980803,-85.56782671374947
103918,2006,103918,18003,103918,31353,22.520862673117666,-66.15595646004549,-88.2543318755641
103928,2018,103928,17965,103928,31335,23.042734593952666,-67.83792570417083,-91.07974324092967
103928,2019,103928,17948,103928,31327,23.592096581866457,-69.5770196082032,-94.04006231625686
103928,2032,103928,17936,103928,31317,24.16859451132664,-71.37112421973683,-97.13094816877793
103928,2020,103928,17945,103928,31335,24.771801935905447,-73.21821331605717,-100.34797174374208
103928,2027,103928,17961,103928,31317,25.4013177620447,-75.11657067803468,-103.68666989584798
103928,2030,103928,17990,103928,31352,26.05678013541759,-77.06458986401036,-107.14243570458106
103939,2024,103939,17947,103939,31325,26.73788154826427,-79.06034784205379,-110.71031604997457
103939,2025,103939,17929,103939,31291,27.444379108153065,-81.10145239454562,-114.38491290092915
103939,2025,103939,17922,103939,31294,28.17605545655747,-83.18541834679144,-118.16065965491337
103939,2018,103939,17954,103939,31320,28.932660701389644,-85.31012747659567,-122.03222783170254
103939,2019,103939,17964,103939,31300,29.713839418939703,-87.47382577824793,-125.9945705118026
103939,2023,103939,17970,103939,31317,30.51904880569378,-89.67469255284576,-130.04269578216403
103949,2030,103949,17922,103949,31282,31.347544893657883,-91.91047922000983,-134.17154069458292
103949,2031,103949,17899,103949,31265,32.19846720261315,-94.17868134419433,-138.37610374974417
103949,2032,103949,17904,103949,31267,33.07095102248294,-96.47718323477892,-142.65181583219257
103949,2029,103949,17936,103949,31301,33.96418842749354,-98.80476200884297,-146.99481786532698
103949,2023,103949,17966,103949,31290,34.87740769366764,-101.16094322764341,-151.40179725334045
103949,2029,103949,17938,103949,31301,35.809791383236174,-103.54538421131438,-155.86956334779728
103959,2050,103959,17916,103959,31255,36.76045252085667,-105.9574629978971,-160.39480726820756
103959,2033,103959,17880,103959,31242,37.72856805001158,-108.3965121084673,-164.97428700485546
103959,2032,103959,17906,103959,31252,38.71350972365065,-110.8624401245531,-169.60530232046727
103959,2039,103959,17947,103959,31269,39.71480448630007,-113.35605910175212,-174.28598397806317
103959,2030,103959,17950,103959,31274,40.732043767170225,-115.87871510037041,-179.0151181071988
103959,2036,103959,17943,103959,31253,41.76484288627654,-118.43159012719357,-183.79178099598275
103970,2037,103970,17893,103970,31237,42.81281416085489,-121.01538577603039,-188.61521540334095
103970,2046,103970,17886,103970,31230,43.87558408056566,-123.630665781626,-193.48504556156462
103970,2044,103970,17897,103970,31241,44.95288087195546,-126.27849319223658,-198.4015556669684
103970,2042,103970,17952,103970,31269,46.044619609587855,-128.96067812080514,-203.3656898608151
103970,2036,103970,17944,103970,31258,47.15089988576595,-131.67931629147648,-208.3786907198452
103970,2040,103970,17907,103970,31220,48.27191806538954,-134.43612830366283,-213.44173645126267
103980,2041,103980,17879,103980,31216,49.407883167127004,-137.2323867773728,-218.556026020248
103980,2044,103980,17876,103980,31219,50.55900112445261,-140.06949203651317,-223.72318265392508
103980,2033,103980,17885,103980,31236,51.72548289860272,-142.94957297927587,-228.94545558487334
103980,2050,103980,17933,103980,31237,52.9075157255807,-145.8755929889246,-234.22553379803423
103980,2038,103980,17945,103980,31259,54.105242012361074,-148.85084546344083,-239.5661497974298
103980,2042,103980,17939,103980,31218,55.31876611362506,-151.878154574149,-244.96970603816257
103990,2050,103990,17875,103990,31196,56.54814446287074,-154.95943481594287,-250.43821737856817
103990,2050,103990,17868,103990,31209,57.79340762357208,-158.09603424265202,-255.97365447147644
103990,2053,103990,17895,103990,31205,59.054642590082366,-161.28946872172196,-261.57827316480154
103990,2043,103990,17925,103990,31200,60.332040221918135,-164.54168707887732,-267.2546303346361
103990,2050,103990,17889,103990,31209,61.62585114416042,-167.85468697000445,-273.00546213976736
103990,2045,103990,17883,103990,31182,62.93630474851686,-171.23017555364504,-278.8335986556796
104000,2055,104000,17851,104000,31182,64.26356818897148,-174.66974642794764,-284.7419856305427
104000,2051,104000,17893,104000,31173,65.60776357860009,-178.1752793371062,-290.73382946110416
104000,2051,104000,17913,104000,31209,66.9689988603858,-181.7489898812193,-296.812656849454
104000,2047,104000,17921,104000,31197,68.34734961278865,-185.39293084508256,-302.9820684523596
104000,2046,104000,17880,104000,31187,69.7427796446385,-189.1084085104206,-309.2453462857432
104000,2061,104000,17850,104000,31166,71.155073231508,-192.89594529003332,-315.6053013015047
104010,2065,104010,17827,104010,31157,72.58388625210061,-196.75587363776816,-322.06445614704853
104010,2060,104010,17878,104010,31161,74.02890004117457,-200.68900873684018,-328.62531612192777
104010,2061,104010,17889,104010,31184,75.48991607136905,-204.69672605173463,-335.29043278481674
104010,2059,104010,17921,104010,31178,76.96682671419885,-208.78034050712876,-342.0621366829768
104010,2062,104010,17861,104010,31163,78.45954910634063,-212.94037210974633,-348.9421597095519
104010,2069,104010,17843,104010,31138,79.96800105015947,-217.1763880651916,-355.9315193808302
104020,2064,104020,17828,104020,31124,81.4921331174545,-221.4875245844558,-363.0307641407934
104020,2066,104020,17850,104020,31148,83.03196029482669,-225.87309948794126,-370.240302408621
104020,2061,104020,17887,104020,31155,84.58753246063267,-230.33270244296693,-377.56042072400055
104020,2071,104020,17872,104020,31155,86.15887404900884,-234.86570821536318,-384.9909201470146
104020,2064,104020,17828,104020,31128,87.74595765880272,-239.4707795932452,-392.5307371995432
104020,2069,104020,17825,104020,31095,89.34870351217589,-244.145954979931,-400.1779379116854
104031,2071,104031,17816,104031,31088,90.96697036076333,-248.8891567779254,-407.93012345801105
104031,2075,104031,17855,104031,31129,92.60056415020566,-253.69849124743433,-415.78483055678987
104031,2074,104031,17853,104031,31115,94.24927861334754,-258.5720403936611,-423.7394389907042
104031,2065,104031,17827,104031,31100,95.9129030391542,-263.50741510000495,-431.7907421553766
104031,2073,104031,17813,104031,31078,97.59114865494706,-268.50159776299586,-439.9347635538544
104031,2083,104031,17794,104031,31051,99.2835826728436,-273.551222239088,-448.1669974296228
104041,2072,104041,17793,104041,31063,100.9896671484924,-278.6529876408452,-456.48281260507565
104041,2079,104041,17808,104041,31078,102.70880957505243,-283.8039045529439,-464.87765135053047
104041,2077,104041,17831,104041,31050,104.440336185984,-289.0011916373344,-473.3468696288879
104041,2082,104041,17833,104041,31037,106.18345881577687,-294.2418186785568,-481.8855507532119
104041,2084,104041,17758,104041,31009,107.9372859334594,-299.5221110256331,-490.4886447346022
104041,2092,104041,17750,104041,31007,109.70086977930815,-304.8379983613722,-499.1513343156356
104051,2093,104051,17786,104051,31024,111.47328963275001,-310.1857197095045,-507.86929798299343
104051,2084,104051,17799,104051,31031,113.2537206481008,-315.5620700858216,-516.6386131002214
104051,2094,104051,17804,104051,31023,115.04141745709525,-320.9639278532386,-525.4553579892777
104051,2095,104051,17758,104051,30999,116.83566720505014,-326.38773678505913,-534.3152814078207
104051,2099,104051,17732,104051,30975,118.6358112068792,-331.82955410409284,-543.2138248963271
104051,2104,104051,17727,104051,30973,120.4413170322236,-337.2856241376594,-552.1464353971121
104062,2094,104062,17756,104062,30966,122.25183021009812,-342.752898927336,-561.1088687791546
104062,2095,104062,17736,104062,30978,124.06714485821044,-348.22906878645455,-570.0972597797291
104062,2098,104062,17765,104062,30949,125.88709931984927,-353.71226682317376,-579.1080030200228
104062,2098,104062,17725,104062,30942,127.7114959780044,-359.2007935615775,-588.1376860419514
104062,2105,104062,17699,104062,30909,129.54009382195414,-364.693104569762,-597.1832505456232
104062,2109,104062,17714,104062,30921,131.37265353564297,-370.18814209787126,-606.2422989628499
104072,2107,104072,17738,104072,30929,133.20901083028073,-375.68560602964817,-615.3132651653664
104072,2101,104072,17743,104072,30935,135.04910719794043,-381.185718962218,-624.395240940466
104072,2110,104072,17728,104072,30913,136.8929355929991,-386.68871612935357,-633.4876120883898
104072,2116,104072,17697,104072,30892,138.74049818175993,-392.1946045449949,-642.5898846321418
104072,2110,104072,17673,104072,30880,140.5918530616775,-397.70341599387416,-651.7018488920912
104072,2112,104072,17683,104072,30884,142.44715685879714,-403.2157292334064,-660.8238568067628
104082,2122,104082,17735,104082,30896,144.3066485606227,-408.7329170205975,-669.9568927561461
104082,2110,104082,17738,104082,30906,146.17064743269572,-414.25671522372886,-679.102314428264
104082,2122,104082,17721,104082,30885,148.03955893982985,-419.78842967854035,-688.2614276203018
104082,2120,104082,17685,104082,30879,149.91386032947926,-425.32852951513564,-697.4352086103851
104082,2109,104082,17667,104082,30843,151.79408407741928,-430.87691226152856,-706.6243420285016
104082,2116,104082,17660,104082,30886,153.6807445403184,-436.43349262668954,-715.8294143209173
104093,2115,104093,17704,104093,30887,155.5742199410853,-441.9985746275182,-725.0508580409022
104093,2122,104093,17720,104093,30879,157.47470299936165,-447.57262659952477,-734.2885073112427
104093,2125,104093,17696,104093,30859,159.38223840877504,-453.15561895694543,-743.5411813333983
104093,2122,104093,17664,104093,30836,161.296784418993,-458.74660668512047,-752.8066602208808
104093,2129,104093,17641,104093,30838,163.2182459035626,-464.3439673839056,-762.0819378432088
104093,2128,104093,17672,104093,30858,165.1464829614581,-469.94593466889046,-771.3633874804369
104103,2125,104103,17709,104103,30863,167.08131529198127,-475.55071867747256,-780.6465570631508
104103,2125,104103,17721,104103,30862,169.02248794421791,-481.15591624970295,-789.9256831603375
104103,2125,104103,17658,104103,30825,170.96959237598327,-486.7577471321048,-799.1933124168933
104103,2138,104103,17638,104103,30809,172.922017708491,-492.35095613059445,-808.4403301401469
104103,2139,104103,17631,104103,30797,174.87900302002635,-497.9294420467063,-817.6563274690677
104103,2135,104103,17665,104103,30816,176.83974617572807,-503.4868344305263,-826.8299229101985
104113,2133,104113,17677,104113,30814,178.80343565158208,-509.01642943985746,-835.948730967751
104113,2135,104113,17667,104113,30814,180.7691750221558,-514.5106590505925,-844.9990470413313
104113,2133,104113,17639,104113,30784,182.7358912058479,-519.9606847642417,-853.9655748120776
104113,2137,104113,17625,104113,30778,184.70227709035973,-525.356472235121,-862.8314333370471
104113,2147,104113,17625,104113,30763,186.66678273957754,-530.6871669915683,-871.5783816105992
104113,2143,104113,17653,104113,30788,188.62767546097814,-535.9413223067703,-880.1869859103986
104124,2131,104124,17643,104124,30786,190.5830837867957,-541.1067326742307,-888.6364977883597
104124,2136,104124,17636,104124,30776,192.5309019780359,-546.1700897962361,-896.9045101181946
104124,2141,104124,17628,104124,30752,194.46863403746175,-551.1168257517018,-904.9667338810052
104124,2155,104124,17614,104124,30731,196.39336955363532,-555.931194368275,-912.797123071025
104124,2142,104124,17605,104124,30730,198.3018995515951,-560.5964597271114,-920.3682311292066
104124,2152,104124,17628,104124,30742,200.19080447467957,-565.0950587416582,-927.6514799952215
104134,2145,104134,17642,104134,30754,202.05643952249972,-569.4085177647219,-934.6170937447614
104134,2149,104134,17599,104134,30743,203.8948842377448,-573.5171460534161,-941.2337624949475
104134,2164,104134,17593,104134,30691,205.70192931348538,-577.3999620270616,-947.4684402624343
104134,2152,104134,17567,104134,30692,207.4731412216899,-581.03506746807,-953.2866319371085
104134,2152,104134,17609,104134,30713,209.20392182587182,-584.4000838104904,-958.6529073532859
104134,2151,104134,17604,104134,30724,210.88944776883557,-587.47219993097,-963.5310222878115
104144,2159,104144,17636,104144,30704,212.5245707330036,-590.2277957379926,-967.8836090777271
104144,2161,104144,17568,104144,30692,214.10381027128537,-592.6420389484638,-971.6719702677774
104144,2167,104144,17548,104144,30662,215.62143330364466,-594.6889981741015,-974.8562780304778
104144,2165,104144,17538,104144,30644,217.0715496253608,-596.3423682324226,-977.3960875157165
104144,2169,104144,17565,104144,30668,218.4481750416209,-597.5762034213749,-979.2509043511445
104144,2166,104144,17574,104144,30679,219.74525422274561,-598.3650929591763,-980.3804433245417
104155,2166,104155,17558,104155,30660,220.95665156767137,-598.6839190604757,-980.7445046756737
104155,2176,104155,17542,104155,30626,222.0761365794364,-598.5077307080389,-980.3029408243216
104155,2169,104155,17519,104155,30613,223.09741049615252,-597.812021299456,-979.0161114798707
104155,2170,104155,17512,104155,30615,224.0141460462831,-596.5732855011145,-976.845615933538
104155,2178,104155,17554,104155,30640,224.81998993833497,-594.7694999204076,-973.7548120422734
104155,2163,104155,17574,104155,30634,225.508558644686,-592.3801317019597,-969.7089187424663
104165,2168,104165,17552,104165,30632,226.0734074476522,-589.3857182569086,-964.6749481435995
104165,2170,104165,17513,104165,30599,226.50795271728106,-585.7676785223077,-958.621858900887
104165,2175,104165,17509,104165,30606,226.80545083900057,-581.5087995731847,-951.521067517836
104165,2171,104165,17542,104165,30598,226.9590663832015,-576.593976225196,-943.3471060836159
104165,2177,104165,17561,104165,30633,226.9619447377567,-571.0104978988777,-934.0781055882888
104165,2172,104165,17564,104165,30656,226.8072570436664,-564.7478043036883,-923.695911354121
104176,2176,104176,17589,104176,30657,226.48823384395533,-557.7971474752906,-912.1858940207981
104176,2178,104176,17548,104176,30635,225.99820183157198,-550.1514640670584,-899.5368492707139
104176,2181,104176,17535,104176,30645,225.33065224598616,-541.8056382886596,-885.741332819756
104176,2172,104176,17572,104176,30687,224.47932494307292,-532.7571152402079,-870.7961902067452
104176,2177,104176,17583,104176,30718,223.43824358839296,-523.0063345852288,-854.702729139854
104176,2165,104176,17640,104176,30723,222.20169408040013,-512.5566041799369,-837.4664697372974
104186,2170,104186,17617,104186,30740,220.76418079960385,-501.4136402992495,-819.0969279538608
104186,2182,104186,17598,104186,30735,219.1204236034052,-489.5853207576483,-799.60772342775
104186,2183,104186,17606,104186,30752,217.26549288154285,-477.0820251266856,-779.0169446521927
104186,2171,104186,17658,104186,30829,215.195024152707,-463.91719549608223,-757.3474735368012
104186,2168,104186,17693,104186,30848,212.90530998728931,-450.10739901632087,-734.6268640235311
104186,2165,104186,17689,104186,30891,210.39323903969995,-435.6718674998136,-710.8868144886319
104196,2154,104196,17704,104196,30895,207.6562077800267,-420.6321307787998,-686.162732897888
104196,2161,104196,17710,104196,30940,204.69205764261025,-405.0120568749814,-660.4936243942562
104196,2160,104196,17747,104196,30956,201.4990700552295,-388.83804127038366,-633.922134225712
104196,2150,104196,17778,104196,31031,198.07603965499797,-372.13901059016814,-606.4945059487407
104196,2148,104196,17838,104196,31090,194.42233063046393,-354.94609210991564,-578.2602228213359
104196,2144,104196,17853,104196,31123,190.5378636108358,-337.2919967225925,-549.2712944632734
104207,2148,104207,17851,104207,31140,186.42311811772814,-319.2104502995642,-519.5815878822475
104207,2145,104207,17849,104207,31167,182.07921533952452,-300.7361014183526,-489.246618071589
104207,2129,104207,17901,104207,31221,177.50802252314452,-281.90484567677663,-458.32366287021875
104207,2128,104207,17958,104207,31273,172.7121656168681,-262.75394418687074,-426.87174494817197
104207,2122,104207,18000,104207,31337,167.69496224479954,-243.32152224638804,-394.95124835705485
104207,2109,104207,17980,104207,31361,162.46037004210356,-223.64582744320285,-362.62332153781307
104217,2118,104217,18016,104217,31396,157.0129644093479,-203.76491783711316,-329.9494129131326
104217,2109,104217,18012,104217,31423,151.35796984161266,-183.71684981268044,-296.9911394581318
104217,2098,104217,18065,104217,31487,145.50134873009281,-163.53993331642255,-263.8103223377047
104217,2091,104217,18129,104217,31552,139.44983413719635,-143.27266671204836,-230.4688192965051
104217,2072,104217,18145,104217,31576,133.21085171051118,-122.95320228136183,-197.02803239989555
104217,2080,104217,18153,104217,31624,126.79240134747997,-102.61870539697134,-163.54840887174203
104227,2064,104227,18169,104227,31654,120.20299753267363,-82.30514242059189,-130.08920219725803
104227,2057,104227,18174,104227,31679,113.45167820705163,-62.047490053208946,-96.70842879841052
104227,2039,104227,18208,104227,31754,106.54797261233463,-41.88003915032726,-63.462870629422696
104227,2034,104227,18279,104227,31803,99.5017812721184,-21.836472117068865,-30.40788098875987
104227,2030,104227,18288,104227,31830,92.32325886869036,-1.9494840904867488,2.4030892402558948
104227,2016,104227,18266,104227,31843,85.02277659651848,17.74969700625502,34.918843992108236
104238,2005,104238,18300,104238,31892,77.6109090231351,37.23126321964918,67.09038540488109
104238,2003,104238,18338,104238,31928,70.09838036221907,56.46644337419764,98.87073114674195
104238,1997,104238,18372,104238,31984,62.49603659845258,75.42745475310318,130.21495737763837
104238,1984,104238,18402,104238,32023,54.81488763773629,94.0878614160086,161.08048708435342
104238,1982,104238,18426,104238,32053,47.066148300160876,112.42299399683861,191.42744715724598
104238,1960,104238,18414,104238,32074,39.26123125229347,130.41018494182111,221.21887904963592
104248,1958,104248,18429,104248,32107,31.411689490946088,148.0286641600539,250.42071122125378
104248,1948,104248,18449,104248,32125,23.529138364249576,165.25920082051363,279.0015997998082
104248,1931,104248,18484,104248,32191,15.62520330127711,182.08385219547813,306.93281868033966
104248,1933,104248,18538,104248,32205,7.711474660504081,198.48609135608558,334.18834983721104
104248,1915,104248,18510,104248,32235,-0.2005327034098343,214.4512131162831,360.7450918098507
104248,1909,104248,18516,104248,32251,-8.099399340654202,229.96652092527404,386.5829180530035
104258,1894,104258,18522,104258,32277,-15.973845470237308,245.02099162869786,411.68453530999875
104258,1885,104258,18595,104258,32282,-23.81281414297979,259.6048778982291,436.0352580184474
104258,1862,104258,18625,104258,32359,-31.605587597434777,273.7098902094598,459.62282276184067
104258,1872,104258,18623,104258,32400,-39.34192704748057,287.3298635692072,482.43753466304895
104258,1855,104258,18605,104258,32368,-47.01214113342198,300.4611685769016,504.47272385770293
104258,1850,104258,18597,104258,32399,-54.60705098889224,313.10242787200957,525.724866796789
104269,1843,104269,18601,104269,32385,-62.11795342420308,325.25381331558947,546.1931196334087
104269,1828,104269,18651,104269,32454,-69.53662502283913,336.91647643550766,565.8787818875967
104269,1823,104269,18676,104269,32479,-76.85535529171989,348.092510810882,584.7851842125929
104269,1819,104269,18697,104269,32491,-84.06698889504955,358.78539576904814,602.9179901078637
104269,1811,104269,18673,104269,32488,-91.16491853443921,369.00042551499143,620.2854338760596
104269,1795,104269,18661,104269,32490,-98.14305299264026,378.74465610070786,636.898126326455
104279,1795,104279,18666,104279,32514,-104.9958415045912,388.02637006622206,652.7685939090218
104279,1786,104279,18719,104279,32540,-111.71831822703066,396.85456446065507,667.9109374741406
104279,1781,104279,18726,104279,32550,-118.30609413346934,405.23896184044577,682.3407762053014
104279,1770,104279,18735,104279,32576,-124.75532887577373,413.19041241489924,696.0753305662474
104279,1770,104279,18697,104279,32564,-131.06272525377318,420.7210960985757,709.1334474599671
104279,1766,104279,18706,104279,32555,-137.2255059443391,427.84420234938716,721.5354152674549
104289,1754,104289,18704,104289,32571,-143.24135033739736,434.57333429728465,733.3025114989691
104289,1744,104289,18750,104289,32601,-149.10836847160533,440.9221285081951,744.456563706472
104289,1736,104289,18771,104289,32627,-154.82516678629605,446.9043773169767,755.0198872456413
104289,1731,104289,18748,104289,32613,-160.3909450397653,452.5344610362379,765.0155081185048
104289,1739,104289,18717,104289,32594,-165.80552325331507,457.8274824785974,774.4671865090163
104289,1733,104289,18728,104289,32596,-171.06924002016854,462.7987937000711,783.3989711164302
104300,1723,104300,18755,104300,32620,-176.18279099364844,467.4634021978827,791.8345931544573
104300,1716,104300,18792,104300,32660,-181.14715730133395,471.83589354378785,799.7972213660726
104300,1715,104300,18797,104300,32659,-185.96363803074092,475.93089830217855,807.309706809961
104300,1705,104300,18764,104300,32646,-190.63388152266043,479.76356849747776,814.3949018085448
104300,1709,104300,18759,104300,32642,-195.159876980192,483.34953698856714,821.0755909113468
104300,1711,104300,18747,104300,32643,-199.54389622269832,486.7043977125737,827.3740736122716
104310,1693,104310,18778,104310,32669,-203.78838754587304,489.84319199106676,833.3117805728173
104310,1683,104310,18772,104310,32704,-207.89594911034362,492.7802403861499,838.9092322651263
104310,1690,104310,18820,104310,32685,-211.86943844459563,495.5293135529138,844.1863352974087
104310,1689,104310,18775,104310,32679,-215.71203382025334,498.10394330076383,849.1626008962398
104310,1694,104310,18764,104310,32668,-219.427121937506,500.5174990295243,853.8569368238141
104310,1693,104310,18752,104310,32666,-223.0180968160421,502.7827761397483,858.2871659060554
104320,1674,104320,18764,104320,32700,-226.4882053741024,504.9113995484355,862.4696348367645
104320,1683,104320,18836,104320,32693,-229.84052660838972,506.9136227100415,866.419135297258
104320,1669,104320,18818,104320,32715,-233.07802963092308,508.7987868766211,870.1490599656322
104320,1671,104320,18762,104320,32696,-236.20360725419852,510.5758999305623,873.6715298555009
104320,1674,104320,18761,104320,32704,-239.2200708629045,512.2534642874288,876.9973448209912
104320,1670,104320,18769,104320,32716,-242.13009028982447,513.8387033357508,880.1358215974858
104331,1668,104331,18831,104331,32756,-244.93609479632778,515.3371514591203,883.094782115189
104331,1655,104331,18813,104331,32773,-247.6402281637694,516.7530000134904,885.8809123702922
104331,1661,104331,18833,104331,32750,-250.24438817423425,518.0897154112746,888.5002872033249
104331,1660,104331,18806,104331,32733,-252.75026136841444,519.3503564603062,890.9585447177501
104331,1652,104331,18786,104331,32719,-255.15928623718787,520.537451206097,893.2605057479266
104331,1650,104331,18814,104331,32763,-257.4726176469705,521.6526051968552,895.4096429430331
104341,1637,104341,18833,104341,32760,-259.69117137803073,522.6962640511882,897.4079335795939
104341,1642,104341,18869,104341,32792,-261.8157224302584,523.6679844299148,899.2561486112656
104341,1637,104341,18838,104341,32774,-263.8469801651467,524.5670029295258,900.9542338598778
104341,1645,104341,18812,104341,32758,-265.7855795473037,525.3925059114678,902.5014575026548
104341,1642,104341,18803,104341,32753,-267.63199048707554,526.1432825674832,903.8961821980508
104341,1635,104341,18834,104341,32784,-269.3864140717974,526.8171518292063,905.135494605616
104351,1634,104351,18860,104351,32802,-271.04875066835865,527.4108168280392,906.2151537654913
104351,1621,104351,18874,104351,32817,-272.6186581050875,527.9202906624549,907.1299636673077
104351,1635,104351,18871,104351,32793,-274.09563720109105,528.3414908571287,907.8742038515622
104351,1631,104351,18837,104351,32793,-275.4790434682236,528.6705311116428,908.4417296557795
104351,1626,104351,18828,104351,32808,-276.7680067889565,528.9035020261249,908.8257787176531
104351,1620,104351,18867,104351,32820,-277.9613886099464,529.0360161580985,909.0188684429165
104362,1621,104362,18875,104362,32840,-279.05783941557286,529.0631003722398,909.0129890543205
104362,1616,104362,18902,104362,32841,-280.0558715224309,528.9796015717554,908.7999629458456
104362,1624,104362,18863,104362,32815,-280.95388247936586,528.7806789655402,908.3717054923526
104362,1621,104362,18846,104362,32831,-281.7501169791824,528.4618872239056,907.7201872303093
104362,1616,104362,18855,104362,32842,-282.442601738038,528.0187838970935,906.8372676647164
104362,1610,104362,18879,104362,32868,-283.0291424438843,527.446553007925,905.7147793992738
104372,1599,104372,18905,104372,32880,-283.50742938360247,526.7401185161513,904.3449377304581
104372,1604,104372,18895,104372,32867,-283.8752052734937,525.8946425769925,902.7208209784093
104372,1602,104372,18875,104372,32856,-284.13039418053165,524.9059149676494,900.8366020552437
104372,1598,104372,18877,104372,32842,-284.2711430369677,523.7703201590452,898.6874120942632
104372,1602,104372,18885,104372,32867,-284.2958324789948,522.4845906120585,896.2690609632509
104372,1596,104372,18916,104372,32897,-284.20309552010593,521.0457734216147,893.5780215899903
104382,1590,104382,18932,104382,32885,-283.99185423022755,519.4515885017993,890.6118320385965
104382,1597,104382,18901,104382,32880,-283.6613947017496,517.7009477004715,887.3695511790692
104382,1604,104382,18861,104382,32848,-283.2114054595225,515.7940966045958,883.8518349512134
104382,1607,104382,18868,104382,32866,-282.64189029475773,513.7321382492756,880.060659561382
104382,1601,104382,18894,104382,32869,-281.9530304117279,511.51646084659455,875.9990720527886
104382,1587,104382,18944,104382,32879,-281.14516183340345,509.14877578097054,871.6712454378122
104393,1591,104393,18878,104393,32882,-280.2189267482659,506.6317132098559,867.0827532982856
104393,1600,104393,18910,104393,32865,-279.17545105495907,503.96922238792524,862.2408208708536
104393,1604,104393,18865,104393,32841,-278.0163598770138,501.16643866522105,857.1543500634023
104393,1604,104393,18875,104393,32840,-276.7436552956846,498.2293428504959,851.8336574581232
104393,1595,104393,18893,104393,32859,-275.35963231272535,495.1645102639296,846.2901860758244
104393,1592,104393,18899,104393,32850,-273.86693821249014,491.97914761322545,840.5365123416403
104403,1606,104403,18898,104403,32846,-272.26870441871915,488.6814093852731,834.5865588395346
104403,1609,104403,18868,104403,32817,-270.56857469622065,485.2806332963182,828.4556724633219
104403,1618,104403,18836,104403,32800,-268.77057697953586,481.7871747881542,822.1604056167115
104403,1606,104403,18843,104403,32796,-266.8789763247199,478.21187467410795,815.7181072258719
104403,1613,104403,18871,104403,32803,-264.89824444451517,474.5656149419114,809.1466002830985
104403,1608,104403,18844,104403,32794,-262.8331315235798,470.8593347313845,802.4641254752937
104414,1614,104414,18851,104414,32794,-260.6887430302192,467.10423900597016,795.689441041574
104414,1628,104414,18835,104414,32759,-258.4705485164172,463.31181910469104,788.8418495897422
104414,1624,104414,18774,104414,32728,-256.1842898615973,459.49360791101776,781.9409549650685
104414,1629,104414,18819,104414,32734,-253.8358575905435,455.6606712945972,775.0061445033397
104414,1638,104414,18841,104414,32751,-251.43122007721993,451.8232482964441,768.0561785219402
104414,1631,104414,18845,104414,32757,-248.9763750894563,447.9910456311937,761.1092587897424
104424,1633,104424,18820,104424,32703,-246.47732955323173,444.17381583276284,754.1833284756426
104424,1650,104424,18790,104424,32693,-243.94012150868275,440.3815003052595,747.296005989306
104424,1651,104424,18761,104424,32666,-241.37076668824832,436.6237892310099,740.4640448781053
104424,1652,104424,18782,104424,32695,-238.7751133327384,432.9094582402711,733.7027947889829
104424,1640,104424,18829,104424,32690,-236.15877909141122,429.2460744848573,727.0260737734679
104424,1649,104424,18830,104424,32702,-233.5272507658811,425.64042396092225,720.4464291800596
104434,1651,104434,18778,104434,32666,-230.88601922105107,422.09918021128084,713.9754426530595
104434,1666,104434,18771,104434,32675,-228.24059548177945,418.6289864823111,707.623779318407
104434,1665,104434,18742,104434,32635,-225.59639569500368,415.23589243065237,701.4009848281858
104434,1666,104434,18788,104434,32670,-222.95860810810018,411.9247866877708,695.3152262208616
104434,1673,104434,18786,104434,32674,-220.332134980587,408.69932697420006,689.3732454449221
104434,1672,104434,18789,104434,32664,-217.7215809302284,405.56231296628766,683.580634561944
104445,1676,104445,18792,104445,32629,-215.13123898606236,402.5160768133581,677.9420742108796
104445,1678,104445,18736,104445,32638,-212.56508431793577,399.5625755106122,672.4611850475965
104445,1678,104445,18749,104445,32637,-210.02677955097585,396.7030858891886,667.1402308073742
104445,1676,104445,18774,104445,32640,-207.51969963092293,393.9377733413005,661.9800472628488
104445,1684,104445,18799,104445,32662,-205.04698219234194,391.2657150487363,656.9802212892487
104445,1688,104445,18772,104445,32645,-202.611548679529,388.6853999697706,652.1393965609507
104455,1686,104455,18752,104455,32627,-200.21606778620304,386.19505599732736,647.4554994695109
104455,1695,104455,18740,104455,32615,-197.8629157598518,383.79244006540443,642.9256525772823
104455,1697,104455,18748,104455,32611,-195.5541456270419,381.47439481980973,638.5458586465684
104455,1694,104455,18793,104455,32642,-193.29144502607073,379.23668797727544,634.3108013953761
104455,1698,104455,18820,104455,32642,-191.07612710248588,377.07443398566704,630.2140059563976
104455,1700,104455,18759,104455,32648,-188.90916250761745,374.98281682059917,626.2482580230533
104465,1706,104465,18766,104465,32598,-186.79118769841241,372.95735719959976,622.4058771442806
104465,1704,104465,18732,104465,32606,-184.72247331718995,370.99350580541045,618.6785428648741
104465,1709,104465,18761,104465,32628,-182.7028951288005,369.0861070458621,615.0569208540946
104465,1704,104465,18778,104465,32641,-180.73193583853964,367.22922121857164,611.530643792074
104465,1706,104465,18797,104465,32642,-178.8087238657082,365.4164226248555,608.08871814553
104465,1706,104465,18762,104465,32623,-176.9320989702036,363.6412844303818,604.7199119464857
104476,1708,104476,18742,104476,32626,-175.10067035611524,361.8975101437578,601.4128325096721
104476,1715,104476,18727,104476,32613,-173.3128349094616,360.1785318090439,598.1557895643354
104476,1710,104476,18759,104476,32620,-171.56675561456152,358.47699200511727,594.9366485648279
104476,1705,104476,18800,104476,32640,-169.86036293584093,356.78469674652354,591.7428141956111
104476,1704,104476,18789,104476,32638,-168.19144803018716,355.0931771362324,588.5614314822076
104476,1715,104476,18750,104476,32638,-166.55778512027382,353.39427315219564,585.3796996792582
104486,1724,104486,18743,104486,32621,-164.95713536777944,351.6800922469367,582.1850463830411
104486,1722,104486,18753,104486,32617,-163.3871100574711,349.942519086867,578.9650631177029
104486,1715,104486,18782,104486,32651,-161.84505101543527,348.17295868227984,575.7073889830803
104486,1711,104486,18799,104486,32652,-160.3280699996498,346.362618753802,572.3998604881842
104486,1716,104486,18799,104486,32636,-158.833198579145,344.50309483512973,569.0308935642532
104486,1718,104486,18766,104486,32621,-157.3574968147721,342.5867949587846,565.5896650714114
104496,1718,104496,18753,104496,32621,-155.8980661956191,340.60687432590703,562.0659383448483
104496,1725,104496,18769,104496,32617,-154.45202156571077,338.5568299604996,558.4498124038216
104496,1726,104496,18778,104496,32633,-153.01644844309413,336.43025947786754,554.7316380021426
104496,1717,104496,18792,104496,32655,-151.58836606209866,334.22102297815167,550.9021858365817
104496,1716,104496,18794,104496,32619,-150.1647751578106,331.9236139934418,546.9529903208731
104496,1728,104496,18757,104496,32607,-148.7427703510962,329.5334199356298,542.8765029271564
104507,1725,104507,18724,104507,32582,-147.31957354616094,327.04655854432855,538.6658024022969
104507,1719,104507,18759,104507,32600,-145.89249248119586,324.4593269129581,534.3141251883036
104507,1723,104507,18775,104507,32632,-144.45894415787487,321.76787438528885,529.8146958949848
104507,1720,104507,18809,104507,32623,-143.01654323609586,318.9685406142676,525.1610583918177
104507,1725,104507,18778,104507,32585,-141.56316440911291,316.05853915653614,520.3475131095961
104507,1736,104507,18729,104507,32586,-140.09693836080672,313.0362844842847,515.3691062577085
104517,1734,104517,18715,104517,32577,-138.61616518392103,309.9009658528369,510.2212642306514
104517,1735,104517,18746,104517,32593,-137.11920400816626,306.6517910353821,504.89955905753845
104517,1735,104517,18766,104517,32615,-135.60443400862934,303.28772360981793,499.3998296760106
104517,1740,104517,18777,104517,32579,-134.07027065818502,299.80791012608597,493.71854179569
104517,1737,104517,18738,104517,32559,-132.5151725171664,296.2122386377021,487.8529716193783
104517,1745,104517,18706,104517,32540,-130.93763253992344,292.50140329088833,481.80092211863524
104527,1749,104527,18722,104527,32566,-129.3361478767435,288.6764243805408,475.5602815815711
104527,1743,104527,18725,104527,32560,-127.7091641725418,284.738196565418,469.1289122219957
104527,1728,104527,18758,104527,32563,-126.05509559657234,280.6875347152206,462.5048911792177
104527,1735,104527,18732,104527,32553,-124.3725056482101,276.52559188926585,455.68678220337046
104527,1759,104527,18701,104527,32536,-122.66027474825935,272.2541495580744,448.67373571207605
104527,1745,104527,18677,104527,32509,-120.91753407541863,267.8753854027027,441.46536869275
104538,1748,104538,18680,104538,32544,-119.14350734395487,263.3912785095707,434.0615236397654
104538,1745,104538,18735,104538,32544,-117.3375074445708,258.8032671047892,426.46226068908305
104538,1746,104538,18738,104538,32534,-115.49904142795913,254.11259993572992,418.6682104471149
104538,1756,104538,18693,104538,32494,-113.6278781444318,249.32103721709422,410.6808483607963
104538,1764,104538,18667,104538,32499,-111.7240137954488,244.43104910965604,402.502344548821
104538,1764,104538,18647,104538,32474,-109.78754147566495,239.44528501565435,394.13520760689636
104548,1772,104548,18669,104548,32470,-107.81851375012857,234.36591668202772,385.5820177812981
104548,1765,104548,18691,104548,32497,-105.81686707120777,229.19445405150526,376.84533847491633
104548,1759,104548,18705,104548,32492,-103.78243838976057,223.93214509685515,367.92792337651764
104548,1769,104548,18656,104548,32484,-101.71507598547544,218.58053865160693,358.8331503190456
104548,1774,104548,18650,104548,32433,-99.61472512081275,213.14161521788358,349.5652547674789
104548,1773,104548,18611,104548,32422,-97.48139543114367,207.6173723705865,340.12906938405445
104558,1778,104558,18650,104558,32419,-95.31509504835341,202.0092997957461,330.52949821452324
104558,1765,104558,18685,104558,32443,-93.11583466694819,196.31830042405284,320.77124746085826
104558,1777,104558,18677,104558,32422,-90.88371369396914,190.54526200560753,310.8590231490884
104558,1775,104558,18624,104558,32388,-88.61901562706058,184.6917084019729,300.79781710222016
104558,1788,104558,18598,104558,32366,-86.32221754128292,178.7597473818763,290.5928054887975
104558,1794,104558,18594,104558,32356,-83.99389748509958,172.75138165319888,280.2489063302469
104569,1781,104569,18629,104569,32401,-81.63461869541987,166.66795612761123,269.7704997066339
104569,1791,104569,18651,104569,32372,-79.24491406014243,160.51029180820132,259.16166465209585
104569,1786,104569,18628,104569,32367,-76.82537283330277,154.27933221462033,248.42665939217773
104569,1792,104569,18607,104569,32321,-74.37671625616014,147.97663448551444,237.5700882627209
104569,1806,104569,18565,104569,32313,-71.8998033759014,141.60426395124335,226.5966216031769
104569,1805,104569,18582,104569,32312,-69.39554477714717,135.16427426019112,215.5105882227266
104579,1807,104579,18596,104579,32330,-66.86477681549813,128.65833154128327,204.3158450330846
104579,1803,104579,18611,104579,32318,-64.30821977093754,122.0878690682778,193.01605322475035
104579,1800,104579,18575,104579,32294,-61.72655227330068,115.45454773721457,181.61505527599735
104579,1818,104579,18541,104579,32266,-59.120514955398875,108.76041721455874,170.11695399815977
104579,1816,104579,18552,104579,32250,-56.49091581619166,102.00756925706335,158.52583682563858
104579,1820,104579,18551,104579,32262,-53.83853524558428,95.19774656940413,146.84545079919917
104589,1816,104589,18575,104589,32258,-51.164070321106394,88.33236651756403,135.07916404799641
104589,1815,104589,18576,104589,32257,-48.468185133650735,81.41292523702859,123.23023590814972
104589,1826,104589,18549,104589,32233,-45.75160235973047,74.44145828950872,111.30212438588791
104589,1832,104589,18502,104589,32202,-43.01512475291928,67.4206348571285,99.29855967629368
104589,1833,104589,18484,104589,32200,-40.259554150814694,60.35327494013296,87.22333505335547
104589,1824,104589,18535,104589,32203,-37.48562939437252,53.241726598305235,75.08008011676247
104600,1837,104600,18523,104600,32182,-34.69407824804304,46.08780942592011,62.87227733176769
104600,1835,104600,18534,104600,32176,-31.885694252326445,38.89332823133668,50.60339829613645
104600,1843,104600,18482,104600,32154,-29.0613393218091,31.660499149116447,38.27693903325246
104600,1844,104600,18472,104600,32143,-26.221904441514425,24.391861116718985,25.89634812504545
104600,1842,104600,18463,104600,32130,-23.368289144726077,17.08982442181781,13.464920423720912
104600,1849,104600,18492,104600,32116,-20.50142200382163,9.756352051483816,0.9857088462854335
104610,1857,104610,18466,104610,32125,-17.622279606209077,2.393063158570783,-11.538491215585339
104610,1841,104610,18490,104610,32104,-14.731875652465249,-4.998451886307635,-24.105036402460314
104610,1862,104610,18446,104610,32081,-11.831290974165938,-12.416406447874635,-36.711308066771835
104610,1868,104610,18416,104610,32060,-8.921699915940565,-19.85887489251502,-49.35477570391032
104610,1864,104610,18419,104610,32077,-6.0042817419627,-27.324201032001554,-62.033186462432866
104610,1870,104610,18442,104610,32077,-3.0801242858761952,-34.8113773453793,-74.74453273747588
104620,1867,104620,18458,104620,32059,-0.15023313423120044,-42.31989922053026,-87.48671899878156
104620,1875,104620,18444,104620,32058,2.78441845113241,-49.84919746042942,-100.25723350519178
104620,1873,104620,18401,104620,32036,5.722859616909744,-57.398227860183056,-113.05300306695176
104620,1885,104620,18410,104620,32000,8.664120135859235,-64.9655700054364,-125.87041879959077
104620,1883,104620,18391,104620,31989,11.607262861300342,-72.549770220619,-138.7055774922075
104620,1874,104620,18423,104620,32008,14.551399857566764,-80.14947135172457,-151.5545646668421
104631,1888,104631,18426,104631,32020,17.49562140757709,-87.76316550988128,-164.413360546548
104631,1886,104631,18390,104631,31967,20.438908757715836,-95.38876207680033,-177.27739537071773
104631,1900,104631,18405,104631,31941,23.38014395897099,-103.02336362753448,-190.14136737942044
104631,1897,104631,18349,104631,31934,26.31819255339576,-110.66337733653916,-202.99958872509706
104631,1896,104631,18361,104631,31922,29.251964027384332,-118.3048182772963,-215.84640009916285
104631,1893,104631,18380,104631,31938,32.180375191173766,-125.94357604968701,-228.6762515363696
104641,1901,104641,18384,104641,31929,35.10223878189768,-133.5753008315653,-241.4834596995031
104641,1897,104641,18344,104641,31916,38.01617446550097,-141.19500815215662,-254.26183812953911
104641,1915,104641,18329,104641,31859,40.92058882325938,-148.79697726746656,-267.0045365882364
104641,1929,104641,18304,104641,31853,43.81376484266363,-156.3751092456668,-279.70432849518363
104641,1918,104641,18318,104641,31860,46.694060963487374,-163.92337055800346,-292.3540775261939
104641,1913,104641,18329,104641,31854,49.560025456572134,-171.43593583940827,-304.9468716046431
104651,1917,104651,18305,104651,31848,52.410286551772316,-178.9069834679026,-317.4757820190582
104651,1931,104651,18291,104651,31811,55.243398474107494,-186.33049628026055,-329.9336364478547
104651,1939,104651,18251,104651,31780,58.05786401936359,-193.7004055753784,-342.31311170056154
104651,1931,104651,18258,104651,31792,60.85228312366576,-201.01101991160715,-354.60709581577805
104651,1931,104651,18286,104651,31796,63.625414984921235,-208.2573381954776,-366.80889881898133
104651,1934,104651,18291,104651,31787,66.37608902260018,-215.4348607149076,-378.9120492875911
104662,1940,104662,18272,104662,31776,69.1031023299665,-222.5390541082627,-390.9099400268601
104662,1948,104662,18217,104662,31726,71.80521496264504,-229.56509979634194,-402.7957075773496
104662,1951,104662,18216,104662,31708,74.48122893728461,-236.50826196419956,-414.5625117157431
104662,1950,104662,18207,104662,31726,77.13007407910337,-243.3645150246794,-426.20400267971536
104662,1949,104662,18259,104662,31722,79.7508238556376,-250.13079931261097,-437.71447647817604
104662,1953,104662,18267,104662,31704,82.34263718431632,-256.80460765250126,-449.0886233777858
104672,1961,104672,18234,104672,31680,84.90470719357609,-263.38322872288916,-460.32131699490776
104672,1968,104672,18205,104672,31646,87.43629386693428,-269.86337382131507,-471.4077517732334
104672,1970,104672,18175,104672,31643,89.93682845402543,-276.2415068698925,-482.3438338985036
104672,1969,104672,18205,104672,31634,92.40600265225231,-282.51443659640825,-493.1265364121524
104672,1966,104672,18187,104672,31662,94.84376972332186,-288.679586146597,-503.7539494997616
104672,1969,104672,18198,104672,31621,97.25026362635663,-294.73486737430045,-514.225017958661
104683,1968,104683,18170,104683,31645,99.62570092951412,-300.67850190177796,-524.5392472072731
104683,1977,104683,18139,104683,31602,101.97032216166537,-306.5090824587422,-534.6965741761747
104683,1976,104683,18124,104683,31568,104.28439081199551,-312.22596562425764,-544.6974617880453
104683,1984,104683,18163,104683,31588,106.56823175702007,-317.8297228117547,-554.5432433369269
104683,1971,104683,18175,104683,31608,108.82225244275756,-323.32212132507345,-564.2363362917425
104683,1985,104683,18174,104683,31574,111.0468982429012,-328.705574757183,-573.7799774019976
104693,1992,104693,18156,104693,31561,113.2426107870105,-333.98259491808903,-583.1779019874941
104693,1998,104693,18108,104693,31537,115.40990459663573,-339.15571269906366,-592.434426694542
104693,1991,104693,18124,104693,31551,117.54950130330695,-344.22788195989824,-601.5547312039924
104693,1993,104693,18151,104693,31564,119.66236358125369,-349.2028745916832,-610.5449117469225
104693,1992,104693,18154,104693,31572,121.7496166292755,-354.0851384673176,-619.4116423409066
104693,1993,104693,18121,104693,31531,123.81245228647467,-358.8793346970547,-628.1617066379309
104703,2001,104703,18096,104703,31514,125.85207443490035,-363.59022592280326,-636.8018737233713
104703,2004,104703,18101,104703,31501,127.8697099363813,-368.2230510909611,-645.3392127639706
104703,2001,104703,18117,104703,31514,129.86666280417737,-372.78388061855924,-653.781441541229
104703,2002,104703,18141,104703,31537,131.8443285975441,-377.27951263432215,-662.1369038963381
104703,2008,104703,18123,104703,31511,133.80415280763677,-381.71699914356327,-670.414171791118
104703,2008,104703,18126,104703,31501,135.7476080677819,-386.1032248590582,-678.6216744394467
104714,2006,104714,18097,104714,31470,137.67620026069858,-390.44480560603347,-686.767704339514
104714,2015,104714,18083,104714,31487,139.59145693021034,-394.748285843516,-694.8606805367057
104714,2016,104714,18093,104714,31479,141.494926281216,-399.02047116539325,-702.9093005314752
104714,2006,104714,18123,104714,31490,143.38819481376427,-403.2685616534558,-710.922412590899
104714,2009,104714,18124,104714,31472,145.27283045095558,-407.49983492129616,-718.9087518685064
104714,2013,104714,18111,104714,31470,147.15025718178865,-411.7211255135054,-726.8767545637478
104724,2017,104724,18081,104724,31459,149.02169068769877,-415.93859421708055,-734.834510553368
104724,2029,104724,18073,104724,31425,150.8881855007525,-420.1579550354119,-742.7898380338002
104724,2021,104724,18092,104724,31455,152.75074103754227,-424.38484797199726,-750.7504536041799
104724,2019,104724,18102,104724,31466,154.61035719337673,-428.6249101948197,-758.7239825484329
104724,2024,104724,18078,104724,31467,156.46797470544058,-432.8835170662985,-766.7175702703407
104724,2025,104724,18105,104724,31441,158.32439132058593,-437.1655409379473,-774.7373880788012
104734,2045,104734,18066,104734,31420,160.18027718497376,-441.4752611044498,-782.788492481421
104734,2029,104734,18064,104734,31404,162.03629145359912,-445.8164065478959,-790.8750802874849
104734,2031,104734,18102,104734,31440,163.89315641358732,-450.19227466975076,-799.0007750865508
104734,2029,104734,18116,104734,31429,165.7515777954244,-454.60555555048427,-807.1685402222703
104734,2045,104734,18100,104734,31449,167.61213469632696,-459.05775842445667,-815.3802262409489
104734,2044,104734,18073,104734,31398,169.47530503871587,-463.5487947873304,-823.6361493727871
104745,2040,104745,18037,104745,31380,171.341569881326,-468.07714509559037,-831.935075378338
104745,2051,104745,18021,104745,31368,173.21145490691245,-472.64048156533045,-840.2746289878982
104745,2043,104745,18078,104745,31405,175.0855171654744,-477.23623916015833,-848.6516655395573
104745,2036,104745,18098,104745,31410,176.9643033646782,-481.86152165254236,-857.0621131274319
104745,2034,104745,18052,104745,31392,178.8482108845476,-486.5124096256467,-865.5004088107987
104745,2047,104745,18036,104745,31368,180.73730816498613,-491.1835589265031,-873.9591118520541
104755,2042,104755,18012,104755,31343,182.63127028164806,-495.868524800419,-882.429005820569
104755,2059,104755,18020,104755,31378,184.52943780411547,-500.56033023318855,-890.899410531
104755,2052,104755,18073,104755,31375,186.43091799811353,-505.25167158970305,-899.3581921127181
104755,2052,104755,18045,104755,31382,188.33465756215944,-509.9345391642894,-907.7913521578292
104755,2058,104755,18046,104755,31363,190.2394343103747,-514.5996454840374,-916.1825666852042
104755,2057,104755,17999,104755,31333,192.14381842855678,-519.2362707683494,-924.5130234582928
104765,2062,104765,18021,104765,31338,194.0461701261931,-523.832570369618,-932.7615905674742
104765,2063,104765,18027,104765,31339,195.94465551767303,-528.3758689667444,-940.9050355884141
104765,2057,104765,18032,104765,31350,197.83724435913257,-532.8525796474984,-948.9179762522324
104765,2064,104765,18056,104765,31330,199.72166339244353,-537.2478272157912,-956.7726038544706
104765,2072,104765,18040,104765,31321,201.5953519082434,-541.5450028245947,-964.4384797372878
104765,2070,104765,17997,104765,31291,203.45549852698494,-545.7255094574081,-971.8825939528261
104776,2062,104776,17986,104776,31285,205.29908845091813,-549.7689983080463,-979.0696486420147
104776,2066,104776,18011,104776,31307,207.12283985527753,-553.6538902393396,-985.9623263720645
104776,2067,104776,18025,104776,31292,208.9230801100856,-557.3575434807113,-992.5212713711044
104776,2062,104776,18027,104776,31272,210.695663126198,-560.8558982694312,-998.7048981956526
104776,2080,104776,17986,104776,31276,212.4359340171245,-564.1230889103894,-1004.4693771850011
104776,2074,104776,17946,104776,31243,214.1387594249315,-567.1315704394467,-1009.7688162622223
104786,2080,104786,17951,104786,31241,215.79861354210288,-569.8527951284474,-1014.555517051674
104786,2081,104786,17997,104786,31223,217.40963499877563,-572.2578103408912,-1018.7802926284583
104786,2081,104786,18012,104786,31223,218.96564062756798,-574.3171290438291,-1022.3927695141558
104786,2093,104786,17945,104786,31208,220.46014486456002,-576.0001633048455,-1025.341610747541
104786,2093,104786,17932,104786,31180,221.8864254604998,-577.2751769256081,-1027.5747547474498
104786,2097,104786,17899,104786,31161,223.23762964016362,-578.1100172368836,-1029.0398314981176
104796,2092,104796,17933,104796,31150,224.50684604887368,-578.4729572244582,-1029.6847557114922
104796,2091,104796,17944,104796,31182,225.6870900906976,-578.3330277361927,-1029.4582193808687
104796,2100,104796,17944,104796,31162,226.77124335648367,-577.6598124596662,-1028.3098243457964
104796,2102,104796,17909,104796,31125,227.75204653038762,-576.4231964123128,-1026.1900932998078
104796,2103,104796,17880,104796,31116,228.62217231368925,-574.593587000415,-1023.0508587027783
104796,2109,104796,17867,104796,31095,229.3743077701761,-572.1426329024113,-1018.8460210742105
104807,2110,104807,17894,104807,31102,230.00122204461977,-569.0439843654999,-1013.5322835915163
104807,2110,104807,17898,104807,31126,230.49583385594684,-565.2736242977544,-1007.0696135338757
104807,2100,104807,17939,104807,31138,230.8512324529856,-560.8097042207087,-999.4213267323777
104807,2110,104807,17892,104807,31105,231.0606198824627,-555.632203583403,-990.553988571889
104807,2105,104807,17850,104807,31070,231.11724967095364,-549.722969668679,-980.4376730616792
104807,2109,104807,17851,104807,31101,231.0144269003585,-543.0664686020732,-969.0467530665929
104817,2103,104817,17902,104817,31123,230.74552537383073,-535.6506874723775,-956.3606276848319
104817,2112,104817,17915,104817,31111,230.30398768565007,-527.467348214647,-942.3639383268566
104817,2118,104817,17928,104817,31143,229.68336709690337,-518.5114882801113,-927.0465918788705
104817,2112,104817,17905,104817,31138,228.87744583150712,-508.78110856847496,-910.4038970254232
104817,2118,104817,17897,104817,31137,227.88035107486203,-498.2773137656691,-892.4367938171914
104817,2114,104817,17933,104817,31171,226.68661423450516,-487.00478122866593,-873.1521847252676
104827,2115,104827,17943,104827,31201,225.2912080547917,-474.9720605419132,-852.5631951296504
104827,2103,104827,18018,104827,31233,223.68955569083028,-462.19139396163706,-830.6891221917891
104827,2109,104827,18016,104827,31261,221.87748154862393,-448.6781202077052,-807.5551748940877
104827,2107,104827,17968,104827,31263,219.8511607039342,-434.450150951533,-783.192277823834
104827,2112,104827,17986,104827,31307,217.60714798386397,-419.5281711432035,-757.6370815694617
104827,2113,104827,18026,104827,31360,215.14248481065022,-403.9363339150086,-730.9319986161735
104838,2100,104838,18095,104838,31419,212.4548090402855,-387.70246788313216,-703.1249013086656
104838,2106,104838,18117,104838,31453,209.54238896534466,-370.857458102436,-674.2684622971494
104838,2092,104838,18123,104838,31510,206.40408965256051,-353.4343967745704,-644.419455670359
104838,2099,104838,18110,104838,31532,203.0393364300425,-335.468213041795,-613.6382133783525
104838,2097,104838,18142,104838,31570,199.4481200827111,-316.9959001982044,-581.9882755875011
104838,2095,104838,18208,104838,31626,195.63106805866445,-298.056782664039,-549.5361945672423
104848,2090,104848,18236,104848,31688,191.58953716389703,-278.69224071681873,-516.3512512551104
104848,2078,104848,18279,104848,31739,187.32564475143286,-258.9449888468765,-482.5048941429772
104848,2076,104848,18314,104848,31767,182.84221609943725,-238.8583576936594,-448.07008645243934
104848,2072,104848,18293,104848,31813,178.14270659768243,-218.47582305806364,-413.12087296803907
104848,2069,104848,18313,104848,31848,173.23117555258645,-197.84096879851438,-377.73219857350085
104848,2060,104848,18376,104848,31916,168.11230542793328,-176.9977547089398,-341.979755510184
104858,2050,104858,18432,104858,31993,162.79139353588428,-155.99043025815726,-305.93959384977524
104858,2049,104858,18458,104858,32041,157.27429174202558,-134.86283170957813,-269.6873814305009
104858,2047,104858,18436,104858,32055,151.5673648431795,-113.6576784278714,-233.29762245414935
104858,2038,104858,18450,104858,32092,145.67752206881045,-92.4165226431218,-196.84332406398983
104858,2037,104858,18493,104858,32145,139.6122729301847,-71.1801914160633,-160.39607813838995
104858,2016,104858,18535,104858,32211,133.37973838637834,-49.989009130485414,-124.02604393552832
104869,2016,104869,18576,104869,32271,126.9885867278812,-28.882483488154406,-87.80152571332195
104869,2011,104869,18613,104869,32321,120.44794248436095,-7.898710714514834,-51.78828269257946
104869,1993,104869,18590,104869,32326,113.76734295403121,12.926106673746602,-16.048941521953395
104869,1995,104869,18603,104869,32356,106.95670360910577,33.557674594574905,19.357140777120264
104869,1986,104869,18630,104869,32404,100.02627183164665,53.963184125204435,54.37362207718701
104869,1975,104869,18697,104869,32459,92.98661925167244,74.11103214712253,88.94701016961403
104879,1968,104879,18716,104879,32505,85.84863188134779,93.97111600467738,123.02687876661946
104879,1959,104879,18703,104879,32518,78.6234592523321,113.51535512042591,156.56623955676986
104879,1954,104879,18714,104879,32533,71.32246874936115,132.71778080744855,189.52165101299346
104879,1945,104879,18719,104879,32565,63.95723108750041,151.5541223346961,221.85293595827136
104879,1936,104879,18777,104879,32622,56.53951632775236,170.00139804371196,253.5228452374629
104879,1915,104879,18819,104879,32657,49.08124743970231,188.03797169136612,284.49705533149256
104889,1918,104889,18822,104889,32690,41.59438269854616,205.64405654979697,314.74445052985357
104889,1900,104889,18831,104889,32706,34.09079736151165,222.80215191307337,344.23734674128013
104889,1895,104889,18809,104889,32727,26.582216854208433,239.49698362043262,372.95145962586184
104889,1899,104889,18840,104889,32740,19.080188940805797,255.7150402317289,400.8656543747153
104889,1878,104889,18876,104889,32782,11.59611473538854,271.44415664432637,427.96163375509957
104889,1871,104889,18913,104889,32813,4.141277468525743,286.67356045625087,454.22377355416154
104900,1859,104900,18917,104900,32834,-3.2732305225091523,301.3943025455031,479.6391728010632
104900,1858,104900,18900,104900,32834,-10.636614138574046,315.5995541407924,504.19769262014734
104900,1853,104900,18902,104900,32859,-17.93840020537094,329.2844064031733,527.8917514086537
104900,1842,104900,18939,104900,32880,-25.168386922749434,342.44539130427535,550.7159839291518
104900,1821,104900,18949,104900,32915,-32.316633768087826,355.08024203708226,572.667037770001
104900,1811,104900,18987,104900,32964,-39.37359539357263,367.1880448544029,593.7436510358508
104910,1817,104910,18992,104910,32950,-46.33031484200376,378.76956182352745,613.9469324534592
104910,1812,104910,18951,104910,32964,-53.178471993492096,389.82740275386266,633.2804918068282
104910,1806,104910,18961,104910,32956,-59.910263248308596,400.36571640749696,651.7501575843652
104910,1787,104910,18956,104910,32982,-66.5183009220903,410.38951221814204,669.3634719560528
104910,1786,104910,19022,104910,33028,-72.99565403036203,419.9042012938377,686.1293615715838
104910,1778,104910,19036,104910,33044,-79.33594975323777,428.91576129039447,702.0582288108974
104921,1768,104921,19004,104921,33038,-85.5334285472494,437.4312477315061,717.1622567807365
104921,1769,104921,18990,104921,33026,-91.58296322871541,445.4588987570902,731.4554177442208
104921,1763,104921,18974,104921,33036,-97.48005233378484,453.0075618944825,744.9530348367385
104921,1758,104921,19050,104921,33051,-103.22076970837875,460.0860476833917,757.6712467254939
104921,1754,104921,19065,104921,33099,-108.80170892539039,466.7031485312831,769.626779467517
104921,1746,104921,19077,104921,33096,-114.2199550368459,472.8683103723571,780.8371343292823
104931,1742,104931,19035,104931,33079,-119.47307972478592,478.5921858045348,791.3208449717655
104931,1746,104931,19021,104931,33070,-124.55913161389509,483.88647746922163,801.0973197667172
104931,1743,104931,19022,104931,33082,-129.47656313767095,488.76324941829046,810.1862990039112
104931,1722,104931,19053,104931,33122,-134.22413449696526,493.23433142564545,818.6074424156084
104931,1722,104931,19081,104931,33131,-138.80093844588143,497.31127322020563,826.3803944645351
104931,1715,104931,19088,104931,33129,-143.20653380294056,501.0057875477928,833.5251243887777
104941,1719,104941,19066,104941,33118,-147.4410237951337,504.3302142060147,840.062072888211
104941,1723,104941,19028,104941,33125,-151.50500234752258,507.2975108826756,846.0119550510053
104941,1709,104941,19039,104941,33114,-155.39942295626736,509.9206975456515,851.3954313516671
104941,1703,104941,19080,104941,33157,-159.12552774014998,512.2122983505973,856.2328848537555
104941,1705,104941,19088,104941,33162,-162.68489735231094,514.1843776471679,860.5444860865526
104941,1697,104941,19101,104941,33150,-166.07951040783274,515.8490583745916,864.350480177436
104952,1699,104952,19065,104952,33149,-169.3117435694365,517.2189335505778,867.671315127278
104952,1704,104952,19046,104952,33126,-172.38433044088092,518.306979880263,870.5274264154286
104952,1706,104952,19059,104952,33119,-175.30025086023423,519.1260621223714,872.9388108416014
104952,1695,104952,19064,104952,33163,-178.06257883845208,519.6885094423795,874.9246358423308
104952,1695,104952,19093,104952,33167,-180.674410471727,520.0061114205428,876.5032337431396
104952,1684,104952,19063,104952,33141,-183.13890613248384,520.090393680653,877.6924297339689
104962,1701,104962,19068,104962,33153,-185.45934767690233,519.9527862263828,878.5096768074461
104962,1696,104962,19006,104962,33124,-187.63908914378084,519.6044088862704,878.9718432799247
104962,1693,104962,19046,104962,33131,-189.6814129817483,519.0555240936322,879.09489113172
104962,1683,104962,19078,104962,33171,-191.5894515713603,518.3151565053761,878.8936733048592
104962,1679,104962,19104,104962,33171,-193.36625488544203,517.3914093443057,878.3821105033921
104962,1690,104962,19081,104962,33136,-195.01489692910823,516.2922322997438,877.5735932118031
104972,1685,104972,19040,104972,33136,-196.53847717626738,515.0258312307906,876.4810357670436
104972,1687,104972,19048,104972,33135,-197.9400249980772,513.6003774025799,875.116539552685
104972,1684,104972,19048,104972,33166,-199.2224223358275,512.0234753754672,873.4911829711567
104972,1676,104972,19101,104972,33151,-200.38839511418854,510.3020287817831,871.6151867218833
104972,1672,104972,19067,104972,33133,-201.44057734923413,508.4426271921068,869.498160587476
104972,1681,104972,19028,104972,33113,-202.38160738804913,506.45190137062394,867.1490286766043
104983,1684,104983,19022,104983,33100,-203.21413679473258,504.336265897653,864.5756166246202
104983,1676,104983,19015,104983,33109,-203.9407335840565,502.1012735801381,861.7842060491754
104983,1678,104983,19065,104983,33143,-204.56381733044938,499.75126546468323,858.7793879024948
104983,1675,104983,19052,104983,33159,-205.0856827340324,497.2896036449819,855.5644087952039
104983,1684,104983,19078,104983,33155,-205.50852252215657,494.71922768536547,852.1418340755831
104983,1680,104983,19032,104983,33122,-205.83438485337703,492.0430792094826,848.5140256702476
104993,1685,104993,19000,104993,33092,-206.0650955092027,489.26405456984133,844.6830602106169
104993,1685,104993,18998,104993,33094,-206.20219135383005,486.384449077235,840.6501926028049
104993,1668,104993,19054,104993,33124,-206.24690345426774,483.4054310101741,836.415403287683
104993,1673,104993,19022,104993,33146,-206.20025052252754,480.3271423310992,831.9775168703134
104993,1678,104993,19060,104993,33103,-206.06318597488027,477.149207509842,827.3347362925833
104993,1688,104993,19001,104993,33107,-205.83661846326547,473.8710777334157,822.4849470168956
105002,1687,105002,19001,105002,33099,-205.521273468438,470.4919676641633,817.4255868804341
105002,1669,105002,19001,105002,33084,-205.1175760372963,467.0104839265033,812.153439885842
105002,1672,105002,19046,105002,33107,-204.62572463389932,463.42442092373244,806.6645604322658
105002,1673,105002,19040,105002,33135,-204.04588728330825,459.7311024657585,800.9544353484478
105002,1677,105002,19010,105002,33075,-203.3783156046203,455.92793131490384,795.0183959948988
105002,1687,105002,18967,105002,33060,-202.6233139910931,452.01246676309245,788.8517706012827
105013,1680,105013,18974,105013,33065,-201.78113475930863,447.9818886637289,782.449497716324
105013,1684,105013,18999,105013,33090,-200.85189842064574,443.83245106932924,775.805793872676
105013,1689,105013,19035,105013,33100,-199.83557751850614,439.5595610176263,768.9143896562824
105013,1668,105013,19033,105013,33059,-198.73201974316422,435.15847044361027,761.769044973714
105013,1677,105013,18990,105013,33067,-197.54105686986458,430.6249621014771,754.363779098573
105013,1685,105013,18956,105013,33057,-196.2626610729094,425.95539014857275,746.6927691496954
105023,1691,105023,18975,105023,33061,-194.89696041415547,421.14612207195944,738.7502915810288
105023,1687,105023,18997,105023,33076,-193.44411553018534,416.19312073606625,730.5308829343567
105023,1680,105023,19021,105023,33091,-191.90425786253235,411.0921928381946,722.029722060862
105023,1681,105023,19013,105023,33085,-190.27757846958582,405.8396772433939,713.2431894599357
105023,1690,105023,18979,105023,33038,-188.56446015808956,400.43298240155343,704.1693003265094
105023,1685,105023,18945,105023,33028,-186.76552340876384,394.8705520256914,694.8076572680261
105033,1689,105033,18949,105033,33038,-184.8816144146204,389.151342087314,685.1590846518059
105033,1688,105033,19003,105033,33036,-182.9138222311581,383.2744365352111,675.2254849296761
105033,1691,105033,19005,105033,33040,-180.8635189394989,377.23937650881714,665.0100788108327
105033,1703,105033,18987,105033,33032,-178.7323681463842,371.04694808342566,654.5177701827495
105033,1700,105033,18932,105033,33006,-176.52226737333646,364.699588711753,643.7554029431619
105033,1705,105033,18932,105033,32976,-174.2352667796253,358.2010480627083,632.7317517304275
105044,1702,105044,18925,105044,32962,-171.87354308314747,351.55576863505974,621.4572179980061
105044,1692,105044,18950,105044,32965,-169.4394609923031,344.76860731085884,609.943480068503
105044,1707,105044,18984,105044,32980,-166.93570588754577,337.8451243633525,598.2034388409577
105044,1715,105044,18938,105044,32940,-164.3653642277667,330.79223131540635,586.2514850811893
105044,1716,105044,18905,105044,32920,-161.73184636044795,323.61857618018985,574.1036851552573
105044,1721,105044,18879,105044,32890,-159.03875686922584,316.33421861498766,561.7775791566065
105054,1722,105054,18904,105054,32876,-156.28983377248002,308.94999742959794,549.2917588763837
105054,1717,105054,18889,105054,32906,-153.4889564569616,301.47726200254095,536.6655994395724
105054,1724,105054,18885,105054,32887,-150.64021008280093,293.9280077317721,523.9194070897265
105054,1726,105054,18878,105054,32832,-147.74796181148952,286.3150387405817,511.0747457179075
105054,1736,105054,18842,105054,32813,-144.8168738460197,278.6519631713674,498.15434245568554
105054,1751,105054,18812,105054,32805,-141.85181873830842,270.95293970373257,485.18156556312545
105064,1734,105064,18853,105064,32787,-138.85773931178824,263.2322639025462,472.18002028285525
105064,1751,105064,18856,105064,32800,-135.83958458406232,255.50428570318846,459.1734804687951
105064,1747,105064,18831,105064,32781,-132.8023458147414,247.78381542050408,446.18604796865816
105064,1748,105064,18784,105064,32734,-129.75108930843194,240.08638439012165,433.2423143554255
105064,1771,105064,18766,105064,32708,-126.69094938374252,232.42788216360154,420.3671801938279
105064,1766,105064,18748,105064,32699,-123.62704086997293,224.82385712523168,407.5853411655328
105075,1771,105075,18789,105075,32695,-120.56431322704006,217.28905273445417,394.9208834447587
105075,1772,105075,18782,105075,32707,-117.5074837368701,209.8375128080969,382.39726882436395
105075,1768,105075,18793,105075,32673,-114.4610738911467,202.4831076320183,370.0375934603844
105075,1778,105075,18725,105075,32643,-111.429482039517,195.23993808542818,357.8647471080442
105075,1779,105075,18713,105075,32608,-108.41703346290478,188.1221599643722,345.9011705655979
105075,1785,105075,18696,105075,32607,-105.42797130167072,181.143337329592,334.1683441515787
105085,1795,105085,18723,105085,32611,-102.46640438795896,174.31591737495847,322.6864334970427
105085,1783,105085,18760,105085,32604,-99.53625029565926,167.65131004988194,311.47432671088825
105085,1794,105085,18719,105085,32589,-96.6412382339766,161.16049310592666,300.5498841773131
105085,1801,105085,18672,105085,32548,-93.78495749139643,154.85443591490383,289.93003812521033
105085,1803,105085,18666,105085,32526,-90.97083798071536,148.74377505817566,279.6305349702449
105085,1801,105085,18670,105085,32536,-88.20208502956885,142.83815214798125,269.6654838038189
105095,1798,105095,18702,105095,32563,-85.48169377564146,137.1459744585165,260.0471921661275
105095,1800,105095,18720,105095,32546,-82.81255722804529,131.67480852250296,250.78652946814586
105095,1817,105095,18625,105095,32499,-80.19755659203851,126.43192881965203,241.89336637060552
105095,1814,105095,18636,105095,32490,-77.6395244815364,121.42423610513751,233.3765049089554
105095,1827,105095,18605,105095,32468,-75.14111532924844,116.65751276365694,225.2431921345031
105095,1828,105095,18649,105095,32496,-72.70468004214732,112.13582648146064,217.49874720312488
105106,1822,105106,18668,105106,32495,-70.33218731567936,107.86160214962928,210.14661130782312
105106,1827,105106,18658,105106,32484,-68.02523402919694,103.83621008676303,203.18870897668097
105106,1826,105106,18615,105106,32448,-65.78512644492727,100.0604633810214,196.62569159204128
105106,1835,105106,18598,105106,32450,-63.61293501925174,96.53449004028818,190.45678783931857
105106,1841,105106,18617,105106,32463,-61.509470166367315,93.25719443773019,184.67952819378385
105106,1835,105106,18641,105106,32447,-59.47520929516679,90.22600218637561,179.28972595294695
105116,1838,105116,18637,105116,32456,-57.51026818417002,87.43716168117939,174.281652158246
105116,1840,105116,18633,105116,32453,-55.61444905830206,84.88621585867563,169.6481900243632
105116,1847,105116,18606,105116,32413,-53.787278343289394,82.5681930010264,165.3808962041192
105116,1846,105116,18580,105116,32422,-52.027981486715625,80.47738923126877,161.46984769435096
105116,1839,105116,18583,105116,32444,-50.335461643218714,78.60687440399266,157.90340417389717
105116,1843,105116,18627,105116,32444,-48.70836117321362,76.94813441826278,154.6682908376036
105126,1836,105126,18647,105126,32474,-47.145181704750286,75.491303491618,151.7500324557608
105126,1846,105126,18649,105126,32456,-45.644387923022954,74.22589357544598,149.13345980876142
105126,1854,105126,18594,105126,32414,-44.20443239908973,73.14135541990268,146.80298135284812
105126,1869,105126,18583,105126,32421,-42.823640795534786,72.22693128901687,144.7423656151808
105126,1860,105126,18636,105126,32437,-41.49999595091425,71.47110120046011,142.93431004850623
105126,1847,105126,18653,105126,32447,-40.231019223141836,70.8615053809919,141.36036553661984
105137,1857,105137,18649,105137,32472,-39.01387462816572,70.38554568086047,140.0012919873579
105137,1857,105137,18625,105137,32445,-37.845533955756274,70.03094185076333,138.83752181025335
105137,1855,105137,18599,105137,32432,-36.72282688888457,69.78570072667176,137.84937572081265
105137,1850,105137,18620,105137,32422,-35.64245514786776,69.63767478163552,137.01686960316573
105137,1860,105137,18626,105137,32467,-34.60105778045936,69.57423862550377,136.31943079114308
105137,1853,105137,18644,105137,32478,-33.59526092091553,69.58237931058787,135.73603034329426
105147,1856,105147,18651,105147,32463,-32.62168986483236,69.64905311920364,135.2457036420659
105147,1866,105147,18601,105147,32448,-31.676975947550126,69.76145509932525,134.82789537457643
105147,1861,105147,18592,105147,32436,-30.757721908133753,69.90684154603869,134.46232803443297
105147,1868,105147,18607,105147,32451,-29.860431919167233,70.07197465101424,134.12866781039492
105147,1863,105147,18652,105147,32468,-28.98147317520857,70.2428353018125,133.80639528622623
105147,1857,105147,18676,105147,32484,-28.117097485059013,70.40504360671991,133.47504148291893
105158,1860,105158,18667,105158,32462,-27.263531079435673,70.54468403557672,133.11458753156302
105158,1863,105158,18636,105158,32446,-26.4170760897548,70.64885566337875,132.70562793801622
105158,1871,105158,18620,105158,32460,-25.5741246566118,70.70556547717914,132.22917868441436
105158,1857,105158,18640,105158,32465,-24.73110602397972,70.70324038820374,131.66647482660682
105158,1866,105158,18666,105158,32484,-23.884486134792738,70.63048164480779,130.9990617590292
105158,1861,105158,18696,105158,32502,-23.030836032654037,70.47639188752447,130.20914634817365
105168,1863,105168,18630,105168,32469,-22.166888234342636,70.23113725017066,129.27999805939112
105168,1864,105168,18609,105168,32453,-21.289567016797875,69.88599607948771,128.19605863883663
105168,1869,105168,18622,105168,32460,-20.396000818186906,69.43272257482857,126.94264149000895
105168,1870,105168,18632,105168,32474,-19.483494591187934,68.86296024374866,125.50562801588046
105168,1866,105168,18666,105168,32483,-18.549490533247905,68.16826601455682,123.87152971903379
105168,1862,105168,18657,105168,32447,-17.59158811080502,67.34057528374336,122.02773033326054
105178,1874,105178,18641,105178,32484,-16.607617388340074,66.37264473475312,119.96256034046155
105178,1873,105178,18609,105178,32464,-15.595658482005078,65.25807653510981,117.66528117881057
105178,1883,105178,18618,105178,32452,-14.553960662065606,63.99091604991861,115.12614343821826
105178,1874,105178,18658,105178,32464,-13.480840091542674,62.56531099663613,112.3363736811944
105178,1870,105178,18648,105178,32478,-12.37466149143873,60.97567947667898,109.28815091401458
105178,1875,105178,18651,105178,32453,-11.233930094982782,59.217180651662744,105.9747692898573
105189,1880,105189,18640,105189,32456,-10.057382638143935,57.28599445246223,102.39078492202754
105189,1887,105189,18595,105189,32414,-8.84396410542655,55.179240481013125,98.53189810453728
105189,1879,105189,18585,105189,32420,-7.592736816874961,52.8945321812011,94.39460551898384
105189,1883,105189,18627,105189,32442,-6.3028453372843956,50.42942541204701,89.97588362831641
105189,1881,105189,18647,105189,32450,-4.973563546168236,47.78137064287077,85.27325752195293
105189,1886,105189,18643,105189,32445,-3.6043490178559523,44.948290271193144,80.2852310225079
105199,1890,105199,18595,105199,32391,-2.194850093834077,41.92910319476823,75.01157827049849
105199,1891,105199,18589,105199,32375,-0.7448676879482008,38.72361993976406,69.45308601683178
105199,1898,105199,18599,105199,32393,0.745701855919549,35.33204313011669,63.61095305019302
105199,1886,105199,18611,105199,32397,2.2769023727955755,31.754712801225082,57.48648420801396
105199,1886,105199,18634,105199,32395,3.848669213979676,27.992341422347067,51.08128940010636
105199,1893,105199,18615,105199,32371,5.460702383845671,24.046497790977014,44.397580833064524
105209,1903,105209,18558,105209,32389,7.112405163690369,19.91986217287993,37.4382688682262
105209,1911,105209,18555,105209,32336,8.802985371637774,15.615872175506098,30.20691917264537
105209,1901,105209,18570,105209,32359,10.531620115347735,11.13806889888454,22.70761761265038
105209,1910,105209,18584,105209,32365,12.297526212194498,6.489855605658903,14.944858125521591
105209,1906,105209,18576,105209,32357,14.09992820813467,1.6747881966658156,6.923706399737398
105209,1912,105209,18576,105209,32330,15.938021159444986,-3.3030478389254085,-1.3499145881854702
105220,1911,105220,18545,105220,32295,17.810958559113416,-8.438891842798625,-9.869254470745148
105220,1915,105220,18514,105220,32280,19.71784722135409,-13.727491049744884,-18.627159938490934
105220,1923,105220,18549,105220,32291,21.657759270783643,-19.163501141809007,-27.61655599633235
105220,1910,105220,18558,105220,32312,23.629757218111607,-24.74163496000679,-36.83054915694885
105220,1920,105220,18553,105220,32294,25.632869417713252,-30.4563065826988,-46.26205971048523
105220,1917,105220,18498,105220,32276,27.6660118909587,-36.30126675617447,-55.90339006626289
105230,1926,105230,18482,105230,32235,29.72794559149945,-42.269806620986344,-65.74617259588234
105230,1923,105230,18491,105230,32233,31.81729140957148,-48.3553639906423,-75.78171341960422
105230,1936,105230,18511,105230,32237,33.93256652905322,-54.55186052199815,-86.00136004211595
105230,1933,105230,18526,105230,32245,36.07224218187439,-60.853438098193834,-96.3965187302748
105230,1927,105230,18503,105230,32217,38.2347864207146,-67.25389413470316,-106.95836441267551
105230,1931,105230,18462,105230,32196,40.418613034899494,-73.7463785981011,-117.67764610303249
105240,1953,105240,18436,105240,32162,42.62201356116478,-80.32368280821896,-128.54484919617937
105240,1944,105240,18449,105240,32169,44.84323636223982,-86.97886120807831,-139.5505732765139
105240,1950,105240,18460,105240,32176,47.080637950787775,-93.70557921526574,-150.68574731047443
105240,1942,105240,18469,105240,32162,49.332716385367874,-100.49792024644503,-161.9414761082818
105240,1947,105240,18438,105240,32149,51.598024767908356,-107.3499657985081,-173.30874500808955
105240,1948,105240,18415,105240,32106,53.87507012580616,-114.25564256968616,-184.77834532033324
105251,1950,105251,18394,105251,32085,56.16225641504073,-121.20900478330014,-196.34115236817115
105251,1965,105251,18410,105251,32090,58.45788990740421,-128.20465442317408,-207.98856821542387
105251,1957,105251,18433,105251,32089,60.760249037647526,-135.23783816326863,-219.71273677388814
105251,1965,105251,18421,105251,32098,63.06765805365413,-142.30407545944718,-231.50635145749862
105251,1960,105251,18394,105251,32056,65.37849167136858,-149.39871056291537,-243.36230051087972
105251,1980,105251,18354,105251,32021,67.69115935804592,-156.51690465325657,-255.27358332931578
105261,1974,105261,18348,105261,32031,70.00416441124062,-163.65411478845687,-267.2336275206703
105261,1978,105261,18374,105261,32024,72.31620348161871,-170.80658222788082,-279.23658195532926
105261,1975,105261,18375,105261,32044,74.62619325954185,-177.97133446153873,-291.27719139188514
105261,1968,105261,18391,105261,32003,76.93319401212383,-185.14572130534697,-303.35040262626853
105261,1987,105261,18368,105261,31993,79.23629678976042,-192.32688383702742,-315.4511192256863
105261,1988,105261,18300,105261,31947,81.53459980446979,-199.5115852933095,-327.5743336953842
105271,1990,105271,18308,105271,31960,83.82731043698425,-206.69665496410744,-339.7154935601577
105271,1983,105271,18337,105271,31957,86.11382112285855,-213.87960603886376,-351.8707311810914
105271,1989,105271,18345,105271,31946,88.39365795732905,-221.05864634943805,-364.0367510353624
105271,1989,105271,18322,105271,31940,90.66638501172184,-228.23214280205724,-376.21056076879916
105271,1994,105271,18305,105271,31914,92.93155746910597,-235.39825595726097,-388.3893092155914
105271,1999,105271,18271,105271,31889,95.18872966562725,-242.55506456275634,-400.57032052950706
105282,2000,105282,18253,105282,31872,97.43749376780414,-249.7010161779939,-412.7513224964747
105282,2012,105282,18293,105282,31892,99.67753695779817,-256.83535182200484,-424.93067483786285
105282,2005,105282,18310,105282,31904,101.90871106827541,-263.9580392373343,-437.1072494991413
105282,1999,105282,18279,105282,31874,104.13105194148389,-271.0691905122482,-449.2799447674647
105282,2009,105282,18264,105282,31835,106.34468983005746,-278.16861368163114,-461.44733919017335
105282,2011,105282,18217,105282,31814,108.54975404912801,-285.2559516207061,-473.6078819830651
105292,2009,105292,18237,105292,31823,110.74636901524465,-292.33118562929974,-485.76034272581614
105292,2007,105292,18259,105292,31839,112.9346526254406,-299.39494921632695,-497.9039436336784
105292,2010,105292,18274,105292,31817,115.11464411953,-306.44825341149306,-510.0380206434538
105292,2021,105292,18239,105292,31809,117.28624034781035,-313.4918684572949,-522.161599873366
105292,2024,105292,18188,105292,31767,119.44923353468306,-320.5260762267712,-534.2732739904845
105292,2024,105292,18196,105292,31745,121.60341613834504,-327.55109285519,-546.3714372082366
105302,2021,105302,18225,105302,31771,123.74863341347026,-334.5675848151634,-558.4546381366611
105302,2030,105302,18250,105302,31761,125.88475130387653,-341.5765377454214,-570.5216215081167
105302,2029,105302,18225,105302,31744,128.01162466661094,-348.5785589627849,-582.5710001390078
105302,2031,105302,18175,105302,31714,130.12910630674358,-355.5733947871338,-594.6010185792021
105302,2036,105302,18166,105302,31689,132.23705635370945,-362.56016454681367,-606.6096918179278
105302,2035,105302,18150,105302,31680,134.33534388935675,-369.5379935483622,-618.5951592296021
105313,2042,105313,18182,105313,31680,136.42385702216896,-376.50641161053204,-630.5559502640484
105313,2041,105313,18182,105313,31677,138.50251938837317,-383.4652318431692,-642.4909757577587
105313,2043,105313,18178,105313,31669,140.57130296510923,-390.4140877748516,-654.3993056263981
105313,2044,105313,18134,105313,31644,142.63021898491218,-397.3520983427356,-666.2799535624134
105313,2049,105313,18115,105313,31610,144.6792970714039,-404.2780169345449,-678.1318853088769
105313,2053,105313,18109,105313,31612,146.71859104683557,-411.19073499252363,-689.9542808982452
105323,2052,105323,18140,105323,31633,148.7482134344375,-418.0896342864752,-701.746725070163
105323,2056,105323,18156,105323,31615,150.76835817950305,-424.97439124099697,-713.5089940057667
105323,2056,105323,18136,105323,31601,152.77929539585978,-431.84437095253776,-725.2406468378941
105323,2057,105323,18087,105323,31573,154.781354321439,-438.69822814686245,-736.9408610958369
105323,2067,105323,18068,105323,31533,156.77491471177893,-445.5341663903384,-748.6086355485647
105323,2068,105323,18079,105323,31552,158.76044308786987,-452.35056822925645,-760.2431884560596
105333,2058,105333,18087,105333,31551,160.73854347016123,-459.1463325310291,-771.8441707995153
105333,2054,105333,18099,105333,31553,162.70989711345362,-465.9206802777995,-783.4114455977111
105333,2067,105333,18090,105333,31514,164.675097295445,-472.6727040755036,-794.9447166439433
105333,2073,105333,18037,105333,31488,166.63457341529084,-479.4010924602242,-806.4434701027707
105333,2075,105333,18011,105333,31495,168.58868330886503,-486.1043852079651,-817.9072593336681
105333,2069,105333,18046,105333,31506,170.5378219877826,-492.781583624614,-829.3358836922192
105344,2072,105344,18095,105344,31511,172.48241322463448,-499.43231041987417,-840.7291253865033
105344,2072,105344,18066,105344,31489,174.42282444604356,-506.05614481042335,-852.0862487941713
105344,2085,105344,18027,105344,31461,176.3593202724832,-512.6518917643472,-863.4057054471431
105344,2086,105344,18008,105344,31426,178.29211742869865,-519.217602988896,-874.6852713679265
105344,2081,105344,17986,105344,31435,180.2214823280561,-525.751167566943,-885.922456933582
105344,2087,105344,18017,105344,31417,182.14775597129395,-532.2508166162509,-897.114804829554
105354,2084,105354,18020,105354,31460,184.07130615080985,-538.7151514571867,-908.2598191595047
105354,2088,105354,18040,105354,31457,185.99248182739004,-545.1427054646593,-919.3544812707952
105354,2097,105354,17989,105354,31387,187.9116020475969,-551.53143023156,-930.3946640350805
105354,2081,105354,17974,105354,31377,189.82896927231093,-557.8785978597632,-941.3750882292621
105354,2093,105354,17977,105354,31396,191.74483627638938,-564.181157897079,-952.2897988907605
105354,2092,105354,17998,105354,31367,193.65932458658938,-570.4360167690514,-963.1324130404802
105364,2090,105364,18014,105364,31386,195.57238349393984,-576.6398168459125,-973.8959588528967
105364,2089,105364,17998,105364,31373,197.48376130554038,-582.7883852397455,-984.5726201567879
105364,2102,105364,17958,105364,31346,199.39295241131285,-588.8763705176219,-995.1535180373947
105364,2107,105364,17933,105364,31315,201.299219336259,-594.8974378094834,-1005.6287139537422
105364,2105,105364,17946,105364,31322,203.2017120550215,-600.844828205449,-1015.9875034645954
105364,2116,105364,17943,105364,31340,205.0995753107962,-606.7117220728495,-1026.2186103053568
105375,2097,105375,17979,105375,31330,206.99197920589833,-612.4911211637044,-1036.3099512956717
105375,2104,105375,17964,105375,31321,208.87804475938213,-618.1753772287602,-1046.2481970778035
105375,2112,105375,17928,105375,31298,210.7567089812847,-623.7557579469117,-1056.0185318008048
105375,2109,105375,17892,105375,31258,212.62667520079086,-629.2225219474889,-1065.6047578925723
105375,2119,105375,17924,105375,31281,214.48646284946904,-634.5654485668542,-1074.989635093857
105375,2113,105375,17943,105375,31284,216.3344575792934,-639.7741204209258,-1084.1550738167507
105385,2116,105385,17931,105385,31282,218.16892128849463,-644.8375948532281,-1093.081908158732
105385,2123,105385,17935,105385,31264,219.98797222583903,-649.743905768238,-1101.7495162901964
105385,2121,105385,17894,105385,31244,221.78958582248055,-654.4798758297754,-1110.1356773927623
105385,2118,105385,17878,105385,31217,223.57161024115192,-659.0313304814196,-1118.2167427186969
105385,2122,105385,17913,105385,31243,225.33172992571414,-663.3834916043804,-1125.9679292357064
105385,2124,105385,17929,105385,31258,227.06740555312166,-667.5210311734156,-1133.3633500904032
105395,2136,105395,17902,105395,31240,228.77587748290676,-671.4276417050949,-1140.3756288900304
105395,2128,105395,17876,105395,31215,230.45424088106196,-675.0857270648245,-1146.9755256478259
105395,2131,105395,17860,105395,31205,232.09950153972767,-678.4766452141341,-1153.1319840717072
105395,2132,105395,17874,105395,31177,233.70855177460237,-681.581191813202,-1158.8124817430348
105395,2143,105395,17890,105395,31193,235.2781433980314,-684.3798031584719,-1163.9833927712407
105395,2136,105395,17909,105395,31211,236.80493072201622,-686.852298963786,-1168.6101170787408
105406,2133,105406,17914,105406,31191,238.28550477103724,-688.9773518028003,-1172.656868121931
105406,2139,105406,17860,105406,31168,239.7163378641845,-690.7320865910527,-1176.0864480109103
105406,2132,105406,17825,105406,31132,241.09369938879735,-692.0922722084706,-1178.8604483091754
105406,2143,105406,17830,105406,31161,242.41360966322281,-693.033114094053,-1180.9397846229358
105406,2140,105406,17879,105406,31162,243.67183605745137,-693.5299220742866,-1182.2850420747457
105406,2136,105406,17895,105406,31182,244.86390721590269,-693.5579823470867,-1182.8563536490442
105416,2144,105416,17845,105416,31160,245.9850949263812,-693.0919480961004,-1182.6130737441813
105416,2151,105416,17810,105416,31125,247.03040425410387,-692.1057128273119,-1181.513707606468
105416,2145,105416,17785,105416,31099,247.994640899738,-690.5731375877049,-1179.5163671143848
105416,2153,105416,17822,105416,31128,248.87248713591123,-688.469007574269,-1176.5795296168517
105416,2142,105416,17846,105416,31132,249.65851363557468,-685.7694216242575,-1172.6625122701075
105416,2147,105416,17866,105416,31118,250.34713545874166,-682.4514494521762,-1167.7255013123124
105427,2151,105427,17817,105427,31097,250.9325548715951,-678.4926159541515,-1161.7296131611974
105427,2155,105427,17787,105427,31079,251.40876808014642,-673.8709540048244,-1154.6373488403829
105427,2161,105427,17784,105427,31077,251.76965832648239,-668.5657661082382,-1146.4133073961539
105427,2148,105427,17830,105427,31092,252.00909459203027,-662.5584257546654,-1137.024827618135
105427,2159,105427,17853,105427,31112,252.1209511084258,-655.8325088196987,-1126.44231432967
105427,2151,105427,17846,105427,31116,252.09907215826672,-648.3733426246279,-1114.639252321982
105437,2160,105437,17804,105437,31088,251.93726331243678,-640.1677199425649,-1101.592222562039
105437,2161,105437,17776,105437,31089,251.62933358752684,-631.2043430420132,-1087.2812777022134
105437,2162,105437,17812,105437,31106,251.16917860432437,-621.4747634375119,-1071.690598717205
105437,2165,105437,17821,105437,31110,250.55087459054312,-610.974056784184,-1054.8090285607564
105437,2161,105437,17879,105437,31159,249.76874902053976,-599.700822365754,-1036.6302971625987
105437,2155,105437,17876,105437,31153,248.81740379782508,-587.6567157755196,-1017.1530049032491
105447,2151,105447,17864,105447,31157,247.69166283136755,-574.8460126728335,-996.3805995169574
105447,2168,105447,17861,105447,31180,246.38650691567594,-561.2756508055559,-974.3216055002217
105447,2156,105447,17876,105447,31212,244.8971195287508,-546.9556914704216,-950.989956153814
105447,2155,105447,17918,105447,31254,243.21899311660576,-531.8996922282363,-926.405073826352
105447,2158,105447,17965,105447,31284,241.34796042998886,-516.1246019894975,-900.5916513591042
105447,2160,105447,17966,105447,31321,239.2802036745187,-499.6502407663302,-873.5793243321096
105458,2157,105458,17954,105458,31350,237.0123306514539,-482.4988856642835,-845.4023891397577
105458,2148,105458,17973,105458,31364,234.5414471813222,-464.6953854312446,-816.09964688616
105458,2151,105458,18022,105458,31409,231.86515104151212,-446.26750535424804,-785.7144084161336
105458,2141,105458,18072,105458,31459,228.98148798514148,-427.24587029687405,-754.2945074446939
105458,2144,105458,18090,105458,31493,225.8889225354145,-407.6633956974555,-721.8921018195831
105458,2141,105458,18104,105458,31544,222.58633576084992,-387.5546871852796,-688.5633220792348
105468,2139,105468,18114,105468,31575,219.073060199057,-366.9558185687828,-654.3679457296751
105468,2133,105468,18113,105468,31613,215.3489276796776,-345.90448707695066,-619.3691622071761
105468,2133,105468,18168,105468,31687,211.41429364004784,-324.4403058846058,-583.6333739755567
105468,2123,105468,18215,105468,31755,207.27004400911042,-302.6048481907145,-547.2297868440013
105468,2127,105468,18260,105468,31809,202.9175988132398,-280.4411906252997,-510.22964772319057
105468,2124,105468,18265,105468,31830,198.35894080641873,-257.9932318916927,-472.7054513806008
105478,2104,105478,18256,105478,31874,193.59666098285206,-235.3053498716707,-434.73053280408936
105478,2109,105478,18317,105478,31921,188.63393186345118,-212.4225576719561,-396.37901045053115
105478,2094,105478,18362,105478,31992,183.47441454314549,-189.39063100785066,-357.72568742779714
105478,2093,105478,18418,105478,32065,178.12219046375603,-166.255693465515,-318.84561072395815
105478,2094,105478,18444,105478,32097,172.58174207871613,-143.06343422772142,-279.81334475286496
105478,2083,105478,18441,105478,32119,166.85799037189105,-119.85848496672102,-240.70237974840978
105489,2085,105489,18441,105489,32163,160.9563647995794,-96.68433488936037,-201.58501460517562
105489,2069,105489,18502,105489,32215,154.8828468070937,-73.58367118487229,-162.5324972717463
105489,2068,105489,18554,105489,32294,148.64396852932248,-50.59850194573892,-123.61494275606856
105489,2057,105489,18562,105489,32342,142.2467806467999,-27.769732335579647,-84.9008382292684
105489,2054,105489,18598,105489,32378,135.69882358846715,-5.136645958193753,-46.456381877769445
105489,2042,105489,18587,105489,32405,129.00811399475518,17.263266699274197,-8.345072199874721
105499,2034,105499,18616,105499,32431,122.18311786441016,39.39415223360385,29.372294520848072
105499,2024,105499,18658,105499,32497,115.23269191180755,61.22156286084805,66.63744120854801
105499,2019,105499,18694,105499,32542,108.1660151215147,82.71248864489667,103.39461174344672
105499,2009,105499,18743,105499,32602,100.99254461658266,103.83576381611829,139.59090708632755
105499,2000,105499,18752,105499,32633,93.72198947215227,124.56262158953655,175.176767354341
105499,1995,105499,18720,105499,32635,86.36427990702373,144.86698969664434,210.10627169316967
105509,1990,105509,18743,105509,32679,78.92955379922353,164.72518555365343,244.33703494131282
105509,1971,105509,18755,105509,32730,71.42816425083339,184.11525273794678,277.8299231622548
105509,1969,105509,18833,105509,32765,63.87064513805787,203.01661142179915,310.54903261596064
105509,1957,105509,18870,105509,32800,56.267634311022746,221.41040393818116,342.4619293932068
105509,1945,105509,18850,105509,32824,48.62981076631304,239.28023258573467,373.5398392243933
105509,1939,105509,18837,105509,32834,40.9678333057536,256.6124807923603,403.75763066466084
105520,1935,105520,18850,105520,32874,33.29228640690452,273.39587008797946,433.0936067563191
105520,1924,105520,18904,105520,32924,25.61368152904427,289.6208685422863,461.5293285966251
105520,1907,105520,18944,105520,32966,17.94246291846403,305.27967755371924,489.0497609089881
105520,1899,105520,18947,105520,32979,10.288926505115882,320.3667709920718,515.6436592676143
105520,1898,105520,18930,105520,32961,2.6631001217650123,334.87932721328764,541.3037340074966
105520,1889,105520,18917,105520,32970,-4.925289817041033,348.81704617055095,566.026251202376
105530,1871,105530,18915,105530,32996,-12.466789785650548,362.1814690926932,589.8102895162328
105530,1871,105530,18965,105530,33046,-19.952250506085846,374.97532286785054,612.6572318436774
105530,1860,105530,19002,105530,33070,-27.372896240640188,387.2024031155406,634.5707912883308
105530,1847,105530,18992,105530,33068,-34.72035946096517,398.86800395735236,655.5572881188841
105530,1842,105530,18969,105530,33072,-41.986723675865136,409.97924474925605,675.6256716551709
105530,1836,105530,18978,105530,33078,-49.164582783716526,420.5448038645236,694.7871472468582
105540,1832,105540,18967,105540,33099,-56.247048399822944,430.57432440775483,713.0546893587805
105540,1819,105540,19038,105540,33144,-63.227713494063266,440.07802989539925,730.4427743218928
105540,1813,105540,19041,105540,33152,-70.10064541663169,449.06687339101506,746.96747197274
105540,1811,105540,19033,105540,33144,-76.86041256769249,457.55302953525745,762.6466508457152
105540,1808,105540,19002,105540,33145,-83.5020680027342,465.5500653349759,777.4998754672899
105540,1801,105540,18993,105540,33143,-90.0210658661598,473.07246754714674,791.5479526802096
105551,1800,105551,19019,105551,33173,-96.4131674791742,480.13492894458716,804.8124501668012
105551,1777,105551,19061,105551,33204,-102.67439591891178,486.7520244028175,817.3155062534297
105551,1765,105551,19088,105551,33225,-108.80111208092876,492.9385576339821,829.0800355360195
105551,1770,105551,19042,105551,33211,-114.79019818749947,498.71017537463456,840.1300725988899
105551,1769,105551,19046,105551,33182,-120.63915255817497,504.0835240540091,850.4907775115319
105551,1772,105551,19013,105551,33180,-126.34597836803943,509.0757743963609,860.1878938864907
105561,1758,105561,19051,105561,33222,-131.90899194687944,513.7039889979217,869.2470512929899
105561,1748,105561,19064,105561,33230,-137.3267307974167,517.9848342124371,877.6935122467785
105561,1745,105561,19068,105561,33243,-142.59800591087662,521.9347471025627,885.5523973555853
105561,1741,105561,19040,105561,33213,-147.72198509979836,525.5701724125194,892.848881875206
105561,1746,105561,19028,105561,33190,-152.69818798752186,528.9074157175886,899.6079520502442
105561,1739,105561,19016,105561,33239,-157.52638458733378,531.9621243640452,905.8538317341645
105571,1726,105571,19059,105571,33223,-162.20649260328827,534.7488064928501,911.6096248913022
105571,1723,105571,19086,105571,33272,-166.73858274254582,537.2808369116559,916.8974241434423
105571,1713,105571,19077,105571,33270,-171.12297382922708,539.5709695835583,921.7386660533937
105571,1718,105571,19057,105571,33228,-175.36031046041597,541.631795726499,926.1544167290604
105571,1729,105571,19027,105571,33224,-179.45152807940485,543.4756452257502,930.165200523775
105571,1708,105571,19037,105571,33235,-183.39769330438025,545.1140382107948,933.7904136535878
105582,1702,105582,19071,105582,33286,-187.19989757144742,546.557232807157,937.0479878766355
105582,1692,105582,19110,105582,33292,-190.85935179022312,547.8143665297005,939.9547083547407
105582,1694,105582,19066,105582,33262,-194.37755852992075,548.894071585421,942.5267904912585
105582,1695,105582,19048,105582,33254,-197.7563856324232,549.8048129870605,944.7800291586173
105582,1692,105582,19065,105582,33237,-200.9980169187445,550.55459504542,946.7293983678385
105582,1698,105582,19072,105582,33266,-204.10484468835455,551.1505904668202,948.3885663286496
105592,1683,105592,19088,105592,33289,-207.0793687015762,551.5991795158384,949.7697767105526
105592,1685,105592,19086,105592,33301,-209.92416025725294,551.9062452100393,950.8841988750353
105592,1674,105592,19081,105592,33271,-212.6419094993028,552.0774207806354,951.7423945537514
105592,1696,105592,19040,105592,33253,-215.23546075469852,552.1180787403745,952.3543886084033
105592,1680,105592,19036,105592,33236,-217.70772451212997,552.0329440024376,952.7292362741682
105592,1680,105592,19041,105592,33268,-220.0615388046004,551.8255312300726,952.8744892877812
105602,1673,105602,19092,105602,33286,-222.29963977710838,551.497904104929,952.7960624954508
105602,1675,105602,19119,105602,33294,-224.42472111155126,551.0510984107484,952.49860188471
105602,1674,105602,19051,105602,33268,-226.4394628213658,550.4858688774111,951.9859389851551
105602,1682,105602,19031,105602,33249,-228.34648480730618,549.8028672871172,951.2611559110935
105602,1682,105602,19052,105602,33262,-230.14822508888375,549.0020413510688,950.3262568748275
105602,1667,105602,19083,105602,33298,-231.8468134587601,548.0821548937442,949.1819418848316
105613,1667,105613,19096,105613,33293,-233.44407000073556,547.0410506319298,947.8278670721406
105613,1666,105613,19101,105613,33277,-234.94161626068922,545.8763054840578,946.2631103245725
105613,1667,105613,19053,105613,33264,-236.34094925619775,544.5856632639604,944.4863140467588
105613,1677,105613,19057,105613,33239,-237.6434054183013,543.1669250858713,942.4954160317965
105613,1666,105613,19074,105613,33264,-238.8500508446685,541.6175464714987,940.2872558595301
105613,1666,105613,19112,105613,33283,-239.96159900829718,539.9345726329201,937.8574373517614
105623,1667,105623,19099,105623,33297,-240.9784186238249,538.1151164090533,935.2006556314193
105623,1651,105623,19077,105623,33300,-241.90058915089617,536.1568750421575,932.311276434493
105623,1665,105623,19039,105623,33280,-242.7279776140369,534.0581232901916,929.1837792870989
105623,1666,105623,19036,105623,33250,-243.46027804825206,531.8171728316709,925.8128158080759
105623,1659,105623,19037,105623,33267,-244.09694679220877,529.431757408578,922.1929116474304
105623,1644,105623,19084,105623,33294,-244.6371712521855,526.8988254137432,918.3182473355699
105633,1648,105633,19097,105633,33280,-245.08000976711014,524.2149403462645,914.182888562374
105633,1646,105633,19062,105633,33251,-245.42458117690433,521.3769755535991,909.7811443025728
105633,1655,105633,19027,105633,33257,-245.6701341308472,518.3823930407287,905.1075612144052
105633,1655,105633,19024,105633,33251,-245.8159840214936,515.228827172308,900.1566921081273
105633,1649,105633,19031,105633,33254,-245.8614147075918,511.9134954722968,894.9230150740646
105633,1644,105633,19073,105633,33274,-245.80566242487976,508.43305788438863,889.4010763014281
105644,1646,105644,19089,105644,33260,-245.64800416925556,504.7840925530226,883.5857940300167
105644,1648,105644,19051,105644,33249,-245.3878473670511,500.9638280064225,877.472757863069
105644,1655,105644,19017,105644,33225,-245.02473181171587,496.97043973411945,871.058278733022
105644,1653,105644,19005,105644,33229,-244.55825400485395,492.80263399667734,864.3391957335892
105644,1652,105644,19071,105644,33274,-243.98799081872886,488.45913211543217,857.3128001599271
105644,1639,105644,19063,105644,33252,-243.31351153773616,483.938832394749,849.9772067243761
105654,1644,105654,19069,105654,33259,-242.5345046007272,479.24154043539744,842.3319494220082
105654,1644,105654,19027,105654,33238,-241.65092798965946,474.3684988557644,834.3783406931072
105654,1653,105654,19013,105654,33200,-240.66306185023575,469.3223197725445,826.1194724695926
105654,1653,105654,18997,105654,33199,-239.57144917932357,464.1065264196008,817.5599238213878
105654,1648,105654,19041,105654,33207,-238.3768176615817,458.72518546888824,808.7054219988543
105654,1643,105654,19047,105654,33227,-237.08009191913246,453.1830589704632,799.5628655165718
105665,1649,105665,19026,105665,33206,-235.68250222179137,447.4861685208679,790.1407455190404
105665,1657,105665,18985,105665,33166,-234.1856621329955,441.6421259350845,780.4494997460091
105665,1660,105665,18947,105665,33150,-232.59151993642678,435.6597991726785,770.5013880048522
105665,1659,105665,18995,105665,33167,-230.90224855049692,429.548643140467,760.3100992787199
105665,1654,105665,18984,105665,33154,-229.12020136281404,423.318431723176,749.8906283845779
105665,1659,105665,18997,105665,33153,-227.24796831804798,416.979593110273,739.2594986402194
105675,1655,105675,18977,105675,33113,-225.2884633762593,410.54366240800437,728.4349617366199
105675,1672,105675,18915,105675,33079,-223.24496433206548,404.02337359730495,717.436870721424
105675,1673,105675,18900,105675,33074,-221.1210543071269,397.43218404453194,706.2862295514535
105675,1655,105675,18932,105675,33079,-218.92053159303308,390.7835488813922,695.0047848683759
105675,1664,105675,18966,105675,33063,-216.64746379225548,384.09074621623887,683.6149831161265
105675,1675,105675,18939,105675,33056,-214.3063395881575,377.3674632085547,672.1401486127728
105685,1675,105685,18911,105685,33009,-211.90208730774324,370.6283877254484,660.6045418645278
105685,1684,105685,18847,105685,32997,-209.43996215520804,363.8890907596682,649.0331273736906
105685,1691,105685,18860,105685,32975,-206.92542945184707,357.1652719883163,637.4511513434495
105685,1694,105685,18874,105685,32979,-204.36404978514722,350.4720621099608,625.883811795296
105685,1691,105685,18886,105685,32997,-201.761384105254,343.8239703602942,614.3562489649403
105685,1690,105685,18875,105685,32931,-199.12299144359207,337.23533101008013,602.8937843302231
105696,1708,105696,18846,105696,32915,-196.4544826468998,330.72066554117737,591.5219399769552
105696,1703,105696,18791,105696,32881,-193.76150042874463,324.2945512421247,580.2659703525519
105696,1712,105696,18805,105696,32872,-191.04962353339187,317.97100789673334,569.1502516410746
105696,1706,105696,18815,105696,32882,-188.32431018188174,311.76292421846415,558.1979245965885
105696,1715,105696,18831,105696,32891,-185.59091097605346,305.6820517719767,547.4309438518458
105696,1709,105696,18829,105696,32843,-182.85470656200442,299.73946477863956,536.8703953392215
105706,1726,105706,18788,105706,32799,-180.12093142865058,293.94597139687653,526.5365468492901
105706,1737,105706,18753,105706,32804,-177.39471486399523,288.3120389915207,516.4483618896413
105706,1724,105706,18773,105706,32821,-174.68093080562593,282.84726744560106,506.62301247594576
105706,1729,105706,18804,105706,32823,-171.98412236532874,277.56004562643204,497.0759629558813
105706,1730,105706,18811,105706,32802,-169.30858181920894,272.45788043610213,487.8214280082835
105706,1742,105706,18769,105706,32775,-166.65842806591385,267.5480177125433,478.8726376710369
105716,1741,105716,18720,105716,32752,-164.03757213257938,262.83755536443147,470.2416762062798
105716,1746,105716,18709,105716,32739,-161.44963737773247,258.33280363471556,461.9390744852601
105716,1746,105716,18751,105716,32735,-158.89791723746123,254.03852366787544,453.9734448966652
105716,1746,105716,18760,105716,32744,-156.38538254024797,249.95782736138315,446.35134664629675
105716,1749,105716,18753,105716,32729,-153.91472007018655,246.09270799246463,439.0773953360959
105716,1751,105716,18724,105716,32713,-151.48837597341586,242.44449523751535,432.1544162603212
105727,1760,105727,18686,105727,32689,-149.10856546950646,239.01375287012652,425.58339437389117
105727,1761,105727,18705,105727,32698,-146.77722855117906,235.79974861248962,419.36323500666674
105727,1764,105727,18719,105727,32708,-144.49596195667795,232.80004860064275,413.4906287312437
105727,1748,105727,18746,105727,32727,-142.26601437209214,230.01066551813565,407.96026528860136
105727,1763,105727,18721,105727,32731,-140.08839742804756,227.4265823877297,402.7653420338701
105727,1773,105727,18708,105727,32694,-137.9639849549899,225.04210574107898,397.8980412481761
105737,1776,105737,18683,105737,32673,-135.89343856617836,222.85074881404168,393.3495900003977
105737,1776,105737,18719,105737,32683,-133.877042512871,220.8448857737714,389.10990078569114
105737,1766,105737,18730,105737,32699,-131.91464409191855,219.0156891892142,385.16729713134026
105737,1774,105737,18763,105737,32717,-130.00574007131155,217.35357157572835,381.50870495571434
105737,1781,105737,18712,105737,32688,-128.14957759623863,215.84879535679252,378.1201117306917
105737,1771,105737,18726,105737,32668,-126.34516435745323,214.49171728481542,374.98678995998097
105747,1776,105747,18674,105747,32688,-124.59127101771288,213.27252799589624,372.09312352538234
105747,1777,105747,18703,105747,32681,-122.8864967576944,212.18077033252158,369.4224279539018
105747,1781,105747,18733,105747,32697,-121.2293170316947,211.20506578371752,366.95705450222374
105747,1779,105747,18742,105747,32707,-119.61807917443744,210.33338329584834,364.67867538654497
105747,1778,105747,18728,105747,32709,-118.05100864290463,209.55362213859408,362.5686394192697
105747,1781,105747,18698,105747,32678,-116.52625427813109,208.85388995210906,360.6082488845497
105758,1789,105758,18688,105758,32666,-115.04192002706935,208.22224161199574,358.77870326380094
105758,1797,105758,18735,105758,32692,-113.5960103303054,207.64626987524002,357.0607913639201
105758,1789,105758,18752,105758,32717,-112.18631149829106,207.11316138147893,355.43483231492723
105758,1785,105758,18731,105758,32716,-110.81034473041095,206.61025281242073,353.8811008078927
105758,1790,105758,18735,105758,32700,-109.46545156006465,206.12546633735525,352.38034257959305
105758,1789,105758,18709,105758,32682,-108.14889847690854,205.64729690671123,350.9139153206979
105768,1798,105768,18711,105768,32684,-106.85789962511012,205.1645480831314,349.4635576505676
105768,1797,105768,18726,105768,32691,-105.58956980761123,204.66608189088046,348.01113079373425
105768,1798,105768,18749,105768,32710,-104.34086252698256,204.1408380357878,346.5386209176361
105768,1793,105768,18726,105768,32701,-103.1085558917183,203.57814916301683,345.02840069323634
105768,1800,105768,18730,105768,32684,-101.88929862867646,202.9679983565511,343.46347543217126
105768,1793,105768,18715,105768,32689,-100.679663688573,202.30099054200087,341.8274775918736
105778,1794,105778,18686,105778,32684,-99.47619740955662,201.5681150171835,340.10452150095267
105778,1798,105778,18721,105778,32689,-98.27548256197032,200.7604208395859,338.2791454898976
105778,1787,105778,18747,105778,32710,-97.07419919507097,199.8689251116065,336.3364107464387
105778,1784,105778,18716,105778,32684,-95.8692177979211,198.88496087163145,334.2621229896006
105778,1800,105778,18704,105778,32673,-94.65773095113616,197.80048525714642,332.0429629281785
105778,1808,105778,18680,105778,32666,-93.43726571941397,196.60788478642803,329.6663296597126
105789,1811,105789,18711,105789,32678,-92.20550604550331,195.29954919732933,327.1200937411627
105789,1802,105789,18727,105789,32686,-90.96010736143002,193.86775644796705,324.39257603882737
105789,1804,105789,18752,105789,32700,-89.69867348561921,192.3050674492497,321.47280536489916
105789,1807,105789,18723,105789,32667,-88.41884528917667,190.6049272161626,318.35084885481973
105789,1810,105789,18690,105789,32648,-87.11835550040448,188.7619242441295,315.01787545107584
105789,1813,105789,18668,105789,32641,-85.79500722482607,186.771431069933,311.4658334134333
105799,1811,105799,18704,105799,32660,-84.44663291772723,184.6289884398268,307.68708617419315
105799,1804,105799,18722,105799,32683,-83.07110268646299,182.3301192788628,303.6744378517824
105799,1805,105799,18742,105799,32665,-81.66641841877444,179.8707911674437,299.42155676215083
105799,1816,105799,18694,105799,32658,-80.23082499818109,177.24803570144377,294.92338026907134
105799,1817,105799,18669,105799,32615,-78.76281522297327,174.46006512783933,290.17613083190145
105799,1821,105799,18656,105799,32599,-77.2610345561847,171.50575885548608,285.17691305672963
105809,1811,105809,18692,105809,32628,-75.72421527342443,168.3840845191432,279.9231974566976
105809,1807,105809,18708,105809,32638,-74.15123719076821,165.0940749179513,274.41269694721893
105809,1815,105809,18705,105809,32618,-72.54128263302835,161.6353487186842,268.64372924807446
105809,1829,105809,18655,105809,32590,-70.89391770830292,158.00856581058667,262.6155168346921
105809,1831,105809,18615,105809,32563,-69.20898456237678,154.2152344888345,256.328005579384
105809,1834,105809,18644,105809,32577,-67.48640783713108,150.25697972706587,249.78140447867136
105820,1839,105820,18656,105820,32594,-65.72606307105019,146.13504353150017,242.9759584705062
105820,1839,105820,18693,105820,32590,-63.92771311699078,141.85052730406213,235.9122012277988
105820,1824,105820,18649,105820,32573,-62.09100853435835,137.40505035266227,228.59139042948922
105820,1836,105820,18631,105820,32537,-60.215598508021735,132.80111620479374,221.01566003071372
105820,1842,105820,18613,105820,32528,-58.301255165207806,128.04187906184447,213.18775996948705
105820,1830,105820,18607,105820,32537,-56.347887853299,123.13065029746281,205.11068072706797
105830,1844,105830,18645,105830,32540,-54.35553642809786,118.07064273552646,196.7875673972689
105830,1837,105830,18645,105830,32531,-52.32441033729351,112.86519747130117,188.2219676883194
105830,1843,105830,18596,105830,32516,-50.254914809265806,107.51824016367004,179.4181061462055
105830,1850,105830,18589,105830,32496,-48.14765199727591,102.03434945202207,170.3809497280376
105830,1853,105830,18565,105830,32470,-46.00338289944092,96.41832201696258,161.1160463719242
105830,1851,105830,18568,105830,32480,-43.82295812988287,90.67469554659723,151.62926187225924
105840,1852,105840,18605,105840,32475,-41.60729846512409,84.80759777329507,141.9266597506932
105840,1857,105840,18601,105840,32482,-39.357435256466054,78.82106714166554,132.014669638908
105840,1859,105840,18568,105840,32446,-37.0745378240249,72.71958390967438,121.90036993332768
105840,1863,105840,18547,105840,32417,-34.75989946618128,66.50822669185928,111.59154047675452
105840,1866,105840,18518,105840,32397,-32.41490835440317,60.192298470357,101.09634135166255
105840,1872,105840,18556,105840,32411,-30.041013389994376,53.776854986442544,90.4229008542112
105851,1867,105851,18541,105851,32408,-27.639691048930246,47.2666129409304,79.57922927197029
105851,1882,105851,18553,105851,32400,-25.212429357468423,40.666260100542644,68.57349058018207
105851,1872,105851,18516,105851,32370,-22.760712760799123,33.98077050513115,57.41428168964859
105851,1874,105851,18481,105851,32351,-20.28602604956737,27.215364398196726,46.11063160906525
105851,1889,105851,18490,105851,32340,-17.789899556308512,20.375092481707583,34.67176880961608
105851,1889,105851,18534,105851,32339,-15.273896410966273,13.464532044040112,23.10692362973083
105861,1878,105861,18507,105861,32339,-12.739539781874356,6.488076442193602,11.42535969731614
105861,1881,105861,18503,105861,32313,-10.188354090685536,-0.5495161270910671,-0.36342664362672394
105861,1895,105861,18460,105861,32293,-7.621999913662648,-7.642954210251787,-12.249592170519577
105861,1903,105861,18447,105861,32259,-5.042281933554236,-14.786722329820634,-24.223096281702
105861,1891,105861,18450,105861,32273,-2.4510217927792155,-21.975544242757223,-36.27399912561276
105861,1903,105861,18476,105861,32258,0.14999981499533988,-29.204573395326406,-48.39260107958802
105871,1901,105871,18486,105871,32266,2.7589974705423117,-36.46906992304321,-60.5692862886263
105871,1912,105871,18463,105871,32229,5.374165395413016,-43.76380315644781,-72.79426081127286
105871,1912,105871,18419,105871,32199,7.99372834422465,-51.082738339384065,-85.05749734113209
105871,1921,105871,18393,105871,32165,10.616014559638998,-58.41933962304873,-97.3490487208507
105871,1923,105871,18395,105871,32173,13.239530609867302,-65.76722442277276,-109.6595403425041
105871,1923,105871,18427,105871,32192,15.863021972571076,-73.12054806301782,-121.98038237047649
105882,1917,105882,18423,105882,32176,18.485470844216863,-80.47377488306151,-134.30347138720037
105882,1924,105882,18385,105882,32135,21.106008955380304,-87.82118205103521,-146.62076017979416
105882,1926,105882,18331,105882,32117,23.723822327657828,-95.15680861862552,-158.92423424457303
105882,1930,105882,18352,105882,32093,26.338124903130733,-102.47502606624576,-171.20627908319136
105882,1932,105882,18347,105882,32109,28.948176789299154,-109.7710971048568,-183.46000952138093
105882,1931,105882,18363,105882,32105,31.55329048150726,-117.041190675043,-195.67925369116807
105892,1933,105892,18377,105892,32081,34.152800802845874,-124.28197269647535,-207.85825666064477
105892,1942,105892,18317,105892,32052,36.74602489297851,-131.49016732216575,-219.99148842208712
105892,1950,105892,18293,105892,32045,39.332285121964304,-138.6625522418704,-232.07377296661627
105892,1944,105892,18299,105892,32027,41.910998998776606,-145.79647516167955,-244.1005261359175
105892,1948,105892,18337,105892,32035,44.481726815583826,-152.8902298060811,-256.06784540690194
105892,1943,105892,18349,105892,32043,47.04411835904479,-159.94272083953035,-267.97235664470384
105903,1948,105903,18314,105903,32023,49.59781334425294,-166.95273144347215,-279.81084831072087
105903,1952,105903,18295,105903,31977,52.142364390753244,-173.918536296838,-291.57999882257843
105903,1962,105903,18242,105903,31961,54.6772331466706,-180.83817165731642,-303.2765432300524
105903,1962,105903,18282,105903,31939,57.20186564715807,-187.7100327326533,-314.8977538445042
105903,1970,105903,18298,105903,31958,59.71578823652008,-194.53314676486235,-326.4417917311648
105903,1961,105903,18278,105903,31973,62.21865931243548,-201.30682843923483,-337.9076195226572
105913,1960,105913,18248,105913,31921,64.71022833843492,-208.03025596178543,-349.29457477841754
105913,1970,105913,18245,105913,31916,67.1902203502236,-214.70251828272632,-360.60212200097476
105913,1974,105913,18219,105913,31891,69.65827345967145,-221.32295338367862,-371.830030228557
105913,1976,105913,18234,105913,31885,72.11398805431264,-227.89141743474744,-382.97865647572667
105913,1971,105913,18240,105913,31887,74.55697842381988,-234.40832294360803,-394.04905980346564
105913,1977,105913,18238,105913,31890,76.986839806843,-240.87440138056758,-405.04288732023963
105923,1983,105923,18218,105923,31844,79.40309158284606,-247.29039264162958,-415.96214338740594
105923,1985,105923,18174,105923,31825,81.80518566643397,-253.657017504041,-426.80918803489044
105923,1994,105923,18176,105923,31822,84.19257202529334,-259.9753544742963,-437.5870576147847
105923,1993,105923,18191,105923,31823,86.56477479376557,-266.2472729234724,-448.2997170386882
105923,1993,105923,18195,105923,31844,88.92144257247065,-272.475457017459,-458.9519278007747
105923,1986,105923,18207,105923,31821,91.26232031279568,-278.6630224060588,-469.54881261061064
105934,2004,105934,18165,105934,31779,93.58716101190336,-284.81311414266804,-480.0955090891864
105934,2004,105934,18144,105934,31767,95.8957067454476,-290.92886619745406,-490.5972827075806
105934,2001,105934,18117,105934,31766,98.18776737864238,-297.0138175782056,-501.0599227399563
105934,2013,105934,18171,105934,31773,100.46327554103698,-303.0723802111345,-511.4899131065672
105934,2009,105934,18183,105934,31777,102.72229965741505,-309.10974932596525,-521.8942079273254
105934,2007,105934,18179,105934,31749,104.96505348762,-315.1312096599063,-532.2798503787192
105944,2016,105944,18149,105944,31748,107.19186574674902,-321.14149098077695,-542.6537462872266
105944,2013,105944,18110,105944,31708,109.40314015529069,-327.14472321710093,-553.022695445714
105944,2020,105944,18105,105944,31696,111.59935650225702,-333.14492628535817,-563.3936197194193
105944,2010,105944,18149,105944,31727,113.78106616348458,-339.1464779553478,-573.7737974914792
105944,2022,105944,18159,105944,31700,115.94884158603108,-345.15396667207534,-584.1707885241608
105944,2025,105944,18119,105944,31701,118.10323638575969,-351.1715688312219,-594.5921016194401
105954,2027,105954,18093,105954,31657,120.24482079916172,-357.2027497337513,-605.0450257716184
105954,2025,105954,18049,105954,31649,122.37423580765426,-363.2506705701036,-615.5367945644138
105954,2034,105954,18085,105954,31657,124.49219710952468,-369.3188824096413,-626.0748629918684
105954,2026,105954,18104,105954,31678,126.59947927466476,-375.4116129525468,-636.6668977965716
105954,2032,105954,18106,105954,31656,128.69689017810745,-381.53337070182505,-647.3203535922856
105954,2029,105954,18068,105954,31641,130.78521545107066,-387.68836223330345,-658.0420210585836
105965,2041,105965,18046,105965,31621,132.86517542241546,-393.88038215518554,-668.8379112415525
105965,2041,105965,18040,105965,31592,134.9374491661571,-400.11319788448225,-679.7134332465412
105965,2040,105965,18058,105965,31602,137.00273729985696,-406.39091913885744,-690.6736546615759
105965,2038,105965,18076,105965,31608,139.06177244461858,-412.7179290628013,-701.723387523509
105965,2039,105965,18079,105965,31599,141.11524899235778,-419.0983910230465,-712.8669438375845
105965,2051,105965,18059,105965,31572,143.16375512996382,-425.53569520661136,-724.107797273348
105975,2049,105975,18008,105975,31531,145.20779209486412,-432.0322860638637,-735.4485515974615
105975,2060,105975,17993,105975,31529,147.24786242965797,-438.5900667896346,-746.8912885860208
105975,2052,105975,18014,105975,31542,149.2845503177794,-445.21103065674646,-758.4379128480159
105975,2052,105975,18052,105975,31537,151.31853124814492,-451.89742500074414,-770.0900846999848
105975,2053,105975,18053,105975,31530,153.35049480043108,-458.6511847077936,-781.8488300756953
105975,2055,105975,18010,105975,31507,155.3810473128715,-465.4731815429668,-793.7142139517316
105985,2063,105985,17968,105985,31460,157.41067333658478,-472.3630643472732,-805.6853282016638
105985,2058,105985,17961,105985,31478,159.43975585771295,-479.3198175719524,-817.760585783107
105985,2066,105985,18001,105985,31492,161.46860063167853,-486.3423581886118,-829.9379185665196
105985,2055,105985,18012,105985,31480,163.497420095573,-493.42946472663175,-842.2144943512984
105985,2072,105985,17994,105985,31452,165.5262849441422,-500.57914168353807,-854.5862445551215
105985,2073,105985,17954,105985,31421,167.55511824056555,-507.78816205787143,-867.0477409819026
105996,2077,105996,17935,105996,31411,169.58377860528475,-515.052235315548,-879.5924643008137
105996,2087,105996,17930,105996,31414,171.61217379688426,-522.3665357869933,-892.2130920473276
105996,2081,105996,17969,105996,31390,173.64035409544053,-529.7260087992048,-904.9015351773104
105996,2079,105996,17936,105996,31401,175.6685490633858,-537.1251693525443,-917.6487982884934
105996,2072,105996,17951,105996,31382,177.69708697080932,-544.5576950413116,-930.444795315067
105996,2083,105996,17903,105996,31359,179.72624140075933,-552.0162464752933,-943.2781817014427
106005,2080,106005,17881,106005,31311,181.75613454363096,-559.4926550458968,-956.1364037318211
106005,2088,106005,17856,106005,31349,183.78673562391631,-566.97842767917,-969.0059957382721
106005,2080,106005,17919,106005,31327,185.81788160226623,-574.465194447388,-981.8726985882475
106005,2087,106005,17928,106005,31328,187.84925539520833,-581.9445063621696,-994.7211833499003
106005,2087,106005,17879,106005,31280,189.8803378079644,-589.4070908800038,-1007.5347711766435
106005,2097,106005,17844,106005,31247,191.91039795008294,-596.8424983333236,-1020.295552629226
106015,2091,106015,17847,106015,31261,193.93853631694813,-604.2395220732303,-1032.984821978349
106015,2093,106015,17874,106015,31273,195.96370973066087,-611.5866722173533,-1045.583304945626
106015,2102,106015,17872,106015,31258,197.9847078136212,-618.8720577967558,-1058.0708668111317
106015,2094,106015,17865,106015,31259,200.0001397164891,-626.0828881412369,-1070.4260232854872
106015,2108,106015,17822,106015,31229,202.00844530598766,-633.205170651688,-1082.625637286484
106015,2106,106015,17816,106015,31198,204.00791871529088,-640.2238745311055,-1094.644901482442
106026,2108,106026,17808,106026,31203,205.99675442575898,-647.1233383175397,-1106.4575628303658
106026,2106,106026,17835,106026,31194,207.97306736572253,-653.8874785079562,-1118.0361207560654
106026,2109,106026,17829,106026,31193,209.93485470528802,-660.4995832405981,-1129.3517630498313
106026,2107,106026,17824,106026,31170,211.8799398829629,-666.9418919065029,-1140.374169886036
106026,2113,106026,17777,106026,31142,213.80592928546886,-673.1953781209812,-1151.071458079046
106026,2113,106026,17754,106026,31113,215.71019379419923,-679.2400138808855,-1161.4104082170034
106036,2121,106036,17743,106036,31122,217.5898853946786,-685.055390049774,-1171.3568563036029
106036,2120,106036,17795,106036,31155,219.44198286282162,-690.6211656226516,-1180.8758381413218
106036,2120,106036,17805,106036,31140,221.26333221652183,-695.9168445453471,-1189.9312062649394
106036,2120,106036,17783,106036,31105,223.0506395319946,-700.9210547889453,-1198.4850929246845
106036,2122,106036,17751,106036,31081,224.80042432193224,-705.6110912668272,-1206.497839550932
106036,2132,106036,17720,106036,31062,226.50899631766518,-709.9631482711752,-1213.9284263064824
106046,2128,106046,17744,106046,31079,228.17249624245846,-713.9529082489488,-1220.734931480173
106046,2129,106046,17770,106046,31076,229.78694807845193,-717.5558259273274,-1226.874649680553
106046,2127,106046,17777,106046,31073,231.34824605059376,-720.7467908495834,-1232.3038924452158
106046,2136,106046,17745,106046,31034,232.85210478831135,-723.4995637433267,-1236.9778247754184
106046,2135,106046,17696,106046,31016,234.29405577044201,-725.7866796494067,-1240.8506628049824
106046,2141,106046,17673,106046,30994,235.6694982869769,-727.5800736487947,-1243.8762117904305
106057,2131,106057,17725,106057,31015,236.97373827918767,-728.8519200927823,-1246.0084119841554
106057,2137,106057,17732,106057,31022,238.2019585426792,-729.5748727024863,-1247.2015437759057
106057,2132,106057,17732,106057,31000,239.34914068277146,-729.7216133436315,-1247.4101016844031
106057,2145,106057,17677,106057,30993,240.4100158800531,-729.2644733050457,-1246.5887333026305
106057,2137,106057,17647,106057,30958,241.37908510332977,-728.1757654373051,-1244.6925239410161
106057,2146,106057,17656,106057,30961,242.25066846602897,-726.4286701925332,-1241.6775454594142
106067,2149,106067,17686,106067,30955,243.01895152391367,-723.9979398187552,-1237.501427887591
106067,2144,106067,17680,106067,30949,243.67804286301686,-720.8599621843687,-1232.1237751364288
106067,2145,106067,17683,106067,30918,244.2220047145851,-716.9924987224043,-1225.5065273486978
