c_ts,c_val,d_ts,d_val,e_ts,e_val,c_val_filtered,d_val_filtered,e_val_filtered
241908.0,12260.0,241908.0,6035.0,241908.0,19022.0,215.3845198653098,75.874388806,140.02227888334232
241908.0,12269.0,241908.0,6021.0,241908.0,19016.0,218.93465516573664,74.68867858794037,138.986384436588
241908.0,12263.0,241908.0,6030.0,241908.0,19005.0,222.484976103799,73.47802319122712,137.9111365150089
241908.0,12258.0,241908.0,6009.0,241908.0,19002.0,226.0275631484692,72.24514719736426,136.7992811981348
241918.0,12265.0,241918.0,6024.0,241918.0,19007.0,229.55420747976552,70.99241603206542,135.6532198173711
241918.0,12285.0,241918.0,6042.0,241918.0,19009.0,233.05635595739156,69.72183986816674,134.47498341287857
241918.0,12282.0,241918.0,6029.0,241918.0,19022.0,236.52523895977316,68.43528057608917,133.2663581316784
241918.0,12290.0,241918.0,6020.0,241918.0,19004.0,239.95209232520898,67.13468356713852,132.02908257408822
241918.0,12284.0,241918.0,5999.0,241918.0,18997.0,243.32829154199123,65.82203900449801,130.76494298843147
241918.0,12289.0,241918.0,6004.0,241918.0,18989.0,246.6453701370308,64.49910267469147,129.47566304668496
241928.0,12288.0,241928.0,6003.0,241928.0,18996.0,249.89498932392254,63.16713954062094,128.16272170880748
241928.0,12302.0,241928.0,6025.0,241928.0,18983.0,253.06893406182243,61.82689229339708,126.82726708968315
241928.0,12301.0,241928.0,6021.0,241928.0,18997.0,256.1591904349873,60.47879712281414,125.47012021039765
241928.0,12297.0,241928.0,6011.0,241928.0,18987.0,259.15805402481527,59.12326049781934,124.09182609821404
241928.0,12296.0,241928.0,6010.0,241928.0,18994.0,262.058150133365,57.760764212064124,122.69274208874393
241928.0,12298.0,241928.0,5989.0,241928.0,18977.0,264.8523600360476,56.391766299997265,121.27310259941765
241939.0,12298.0,241939.0,6016.0,241939.0,18978.0,267.5337526646728,55.0165455394046,119.83299357881268
241939.0,12318.0,241939.0,6011.0,241939.0,18995.0,270.0955988527975,53.635187850593844,118.37230340619195
241939.0,12319.0,241939.0,6018.0,241939.0,18988.0,272.5315189598365,52.247777317764005,116.89081415865074
241939.0,12314.0,241939.0,5997.0,241939.0,18985.0,274.83570135429466,50.85458743222031,115.38839884421263
241939.0,12308.0,241939.0,5980.0,241939.0,18963.0,277.00300173062874,49.45603780160696,113.86508783097813
241939.0,12308.0,241939.0,6001.0,241939.0,18982.0,279.0288647585524,48.05245274318999,112.32095185826478
241949.0,12306.0,241949.0,6004.0,241949.0,18965.0,280.90919572554685,46.64393744881165,110.75599792919772
241949.0,12313.0,241949.0,6009.0,241949.0,18980.0,282.64029160169014,45.23054979843444,109.17019141089911
241949.0,12311.0,241949.0,6021.0,241949.0,18973.0,284.21885392082726,43.812599848281444,107.56354970094996
241949.0,12312.0,241949.0,5995.0,241949.0,18963.0,285.642045146987,42.39088473457497,105.93623258198119
241949.0,12294.0,241949.0,5981.0,241949.0,18966.0,286.90749554107714,40.96670517712123,104.28855438476832
241949.0,12302.0,241949.0,5978.0,241949.0,18950.0,288.0131958607193,39.54160082140817,102.62091390613223
241959.0,12323.0,241959.0,5991.0,241959.0,18968.0,288.95740751184167,38.117059367533926,100.93372909130375
241959.0,12315.0,241959.0,5985.0,241959.0,18974.0,289.738792588439,36.69447061660027,99.2274918191845
241959.0,12304.0,241959.0,5980.0,241959.0,18960.0,290.35663838451393,35.275236343738186,97.5029711071732
241959.0,12304.0,241959.0,5978.0,241959.0,18946.0,290.8108910752266,33.86081536684909,95.7613461557152
241959.0,12295.0,241959.0,5975.0,241959.0,18949.0,291.10202084996166,32.45268150374678,94.00410326102916
241959.0,12307.0,241959.0,5977.0,241959.0,18941.0,291.23091277616356,31.052289484714734,92.23286250248604
241970.0,12305.0,241970.0,5989.0,241970.0,18949.0,291.19887849402176,29.661115555061613,90.44931426816075
241970.0,12298.0,241970.0,5987.0,241970.0,18944.0,291.00775430953996,28.280809146080458,88.65526354258674
241970.0,12299.0,241970.0,5978.0,241970.0,18937.0,290.6599621954834,26.9133766392617,86.85270499988674
241970.0,12289.0,241970.0,5956.0,241970.0,18934.0,290.15848709391855,25.56120289137816,85.04383979879692
241970.0,12272.0,241970.0,5952.0,241970.0,18933.0,289.5067846075668,24.22682545910108,83.23103199035968
241970.0,12286.0,241970.0,5968.0,241970.0,18935.0,288.7086210079208,22.912651677217596,81.41679350977908
241980.0,12289.0,241980.0,5960.0,241980.0,18923.0,287.76798913300473,21.62088766492461,79.60381791248271
241980.0,12279.0,241980.0,5962.0,241980.0,18933.0,286.68921135727106,20.35365489846174,77.79500610793492
241980.0,12284.0,241980.0,5958.0,241980.0,18910.0,285.47707570046504,19.113081787439015,75.99346174211514
241980.0,12264.0,241980.0,5960.0,241980.0,18917.0,284.13686327339104,17.901325662721035,74.20243994438619
241980.0,12265.0,241980.0,5945.0,241980.0,18915.0,282.6742749991602,16.720567603871388,72.42526957523634
241980.0,12255.0,241980.0,5965.0,241980.0,18925.0,281.09530196083733,15.572984083322424,70.66536826856274
241990.0,12280.0,241990.0,5945.0,241990.0,18912.0,279.40616466187566,14.460749996577036,68.92637444398255
241990.0,12258.0,241990.0,5953.0,241990.0,18912.0,277.613430285466,13.38607300745484,67.21225249275457
241990.0,12248.0,241990.0,5949.0,241990.0,18901.0,275.72415597102327,12.351192354679654,65.52727995019251
241990.0,12241.0,241990.0,5934.0,241990.0,18896.0,273.74582921351333,11.358344071588661,63.875952952367044
241990.0,12224.0,241990.0,5944.0,241990.0,18892.0,271.68615170246534,10.409686475361767,62.26286650294817
241990.0,12244.0,241990.0,5951.0,241990.0,18907.0,269.55285861271614,9.507246565250085,60.692650353827545
242000.0,12244.0,242000.0,5942.0,242000.0,18897.0,267.353726901011,8.652998563913656,59.1700453465279
242000.0,12233.0,242000.0,5951.0,242000.0,18876.0,265.0967764044184,7.848991562659478,57.700004711289154
242000.0,12215.0,242000.0,5923.0,242000.0,18865.0,262.79040647432896,7.097378473747526,56.287577323502276
242000.0,12218.0,242000.0,5929.0,242000.0,18881.0,260.44329991582157,6.400295629873426,54.93762739808848
242000.0,12201.0,242000.0,5920.0,242000.0,18863.0,258.0642437151943,5.759649626240559,53.65468389906239
242000.0,12209.0,242000.0,5943.0,242000.0,18862.0,255.66201603048242,5.176995496034522,52.44293367427554
242010.0,12202.0,242010.0,5940.0,242010.0,18862.0,253.24535939843372,4.65363769973041,51.306178058371856
242010.0,12186.0,242010.0,5942.0,242010.0,18866.0,250.82299939909657,4.19086483281356,50.24778923487416
242010.0,12186.0,242010.0,5917.0,242010.0,18858.0,248.40360326111463,3.7900812320812776,49.27075325344488
242010.0,12178.0,242010.0,5928.0,242010.0,18870.0,245.99567205381595,3.4527059191865987,48.3777449515777
242010.0,12196.0,242010.0,5939.0,242010.0,18855.0,243.60751189282075,3.180020970349716,47.571196231587464
242010.0,12173.0,242010.0,5923.0,242010.0,18871.0,241.2473466182219,2.9731918756501443,46.8533596280495
242020.0,12170.0,242020.0,5928.0,242020.0,18859.0,238.92342191946005,2.8333465181394644,46.226373156150814
242020.0,12157.0,242020.0,5916.0,242020.0,18854.0,236.64394683652702,2.761532623689476,45.69230815275711
242020.0,12153.0,242020.0,5916.0,242020.0,18850.0,234.4169351051435,2.7585961429971775,45.25312920976961
242020.0,12150.0,242020.0,5907.0,242020.0,18853.0,232.25007762241734,2.825045291818057,44.910594464236226
242020.0,12149.0,242020.0,5927.0,242020.0,18855.0,230.15069434335066,2.960948792592916,44.66621962835386
242020.0,12146.0,242020.0,5936.0,242020.0,18857.0,228.12576131147475,3.1659978191967895,44.52133808130884
242031.0,12149.0,242031.0,5938.0,242031.0,18840.0,226.1819822295503,3.439766044025319,44.47716590545579
242031.0,12128.0,242031.0,5918.0,242031.0,18846.0,224.3258517259111,3.781949232763978,44.534762541688536
242031.0,12125.0,242031.0,5918.0,242031.0,18830.0,222.56361903059982,4.192349646673875,44.69489714294882
242031.0,12129.0,242031.0,5923.0,242031.0,18851.0,220.90116196901914,4.670684186428886,44.957933920194634
242031.0,12120.0,242031.0,5928.0,242031.0,18841.0,219.34392487309685,5.216481391669163,45.323831570990194
242031.0,12123.0,242031.0,5932.0,242031.0,18855.0,217.8969546224934,5.829152302107701,45.79225475435403
242041.0,12119.0,242041.0,5936.0,242041.0,18839.0,216.5649516659913,6.5081319849840895,46.362694401577755
242041.0,12102.0,242041.0,5913.0,242041.0,18818.0,215.35228931249264,7.252962228101367,47.0344471170729
242041.0,12102.0,242041.0,5911.0,242041.0,18835.0,214.26294447426505,8.06318792160664,47.80639499772097
242041.0,12103.0,242041.0,5916.0,242041.0,18847.0,213.3003741237189,8.938105594896314,48.67682469319345
242041.0,12106.0,242041.0,5926.0,242041.0,18854.0,212.46748708980795,9.876613042453656,49.64355287430881
242041.0,12105.0,242041.0,5951.0,242041.0,18851.0,211.76674346065408,10.87732803070665,50.704224597535486
242051.0,12098.0,242051.0,5923.0,242051.0,18835.0,211.20027221537464,11.938878981421581,51.85647702775293
242051.0,12087.0,242051.0,5913.0,242051.0,18839.0,210.76989772238244,13.0600378075426,53.097863359330546
242051.0,12082.0,242051.0,5916.0,242051.0,18831.0,210.4770406306072,14.239510786222226,54.42566248205196
242051.0,12085.0,242051.0,5933.0,242051.0,18842.0,210.32257404305113,15.475680948701267,55.83674446428495
242051.0,12087.0,242051.0,5933.0,242051.0,18861.0,210.30676646849133,16.766623801392633,57.32759312800843
242051.0,12103.0,242051.0,5928.0,242051.0,18870.0,210.42937830494512,18.110285126107854,58.89454450309516
242062.0,12091.0,242062.0,5916.0,242062.0,18848.0,210.68987541666596,19.504535576192417,60.53410568189241
242062.0,12079.0,242062.0,5918.0,242062.0,18848.0,211.08758981667646,20.94702523295735,62.24304658368219
242062.0,12078.0,242062.0,5922.0,242062.0,18837.0,211.6216696193258,22.434994018379207,64.01820402867466
242062.0,12083.0,242062.0,5934.0,242062.0,18840.0,212.29092756404975,23.965216128610898,65.85621881198502
242062.0,12076.0,242062.0,5935.0,242062.0,18852.0,213.09378646193673,25.53410893359993,67.75338396928501
242062.0,12073.0,242062.0,5939.0,242062.0,18851.0,214.02829327129712,27.137899188752925,69.705663031807
242072.0,12074.0,242072.0,5925.0,242072.0,18840.0,215.09209459543374,28.772711083301267,71.70878125171993
242072.0,12067.0,242072.0,5934.0,242072.0,18853.0,216.28238783088236,30.43451755823908,73.75822600629266
242072.0,12067.0,242072.0,5933.0,242072.0,18852.0,217.59587434986307,32.1190400151312,75.84920306335076
242072.0,12080.0,242072.0,5948.0,242072.0,18858.0,219.0287350441335,33.82173820655342,77.97667634735407
242072.0,12078.0,242072.0,5955.0,242072.0,18862.0,220.5767052368328,35.537941038917104,80.1354630277888
242072.0,12073.0,242072.0,5950.0,242072.0,18858.0,222.2352167040807,37.26304760246532,82.32031528467466
242082.0,12065.0,242082.0,5951.0,242082.0,18845.0,223.99944302080476,38.99265489297179,84.52592213437141
242082.0,12071.0,242082.0,5947.0,242082.0,18853.0,225.86421397360297,40.722545589336576,86.74678089213617
242082.0,12075.0,242082.0,5941.0,242082.0,18870.0,227.82394490352067,42.448590669308025,88.97707808008941
242082.0,12077.0,242082.0,5958.0,242082.0,18875.0,229.87268233106818,44.16664592538275,91.21078435359452
242082.0,12084.0,242082.0,5954.0,242082.0,18875.0,232.00422354432283,45.87253965347774,93.44190292091922
242082.0,12077.0,242082.0,5953.0,242082.0,18872.0,234.21223343882315,47.56214962456401,95.6646409440379
242093.0,12077.0,242093.0,5949.0,242093.0,18861.0,236.4903001193291,49.231425789594546,97.87340090227643
242093.0,12080.0,242093.0,5953.0,242093.0,18868.0,238.83191732398694,50.87631837627954,100.06264269800593
242093.0,12083.0,242093.0,5956.0,242093.0,18884.0,241.2304707780483,52.49271471832715,102.22677858320382
242093.0,12095.0,242093.0,5976.0,242093.0,18884.0,243.67930558728605,54.07648208653653,104.36025691214651
242093.0,12088.0,242093.0,5988.0,242093.0,18872.0,246.1718647641299,55.62367938848952,106.45773168990094
242093.0,12072.0,242093.0,5977.0,242093.0,18878.0,248.70176958126925,57.13087310817633,108.51408739049069
242103.0,12074.0,242103.0,5963.0,242103.0,18895.0,251.2627043503585,58.59530059719752,110.52437588010065
242103.0,12068.0,242103.0,5966.0,242103.0,18874.0,253.84818475712956,60.014735118890385,112.48385583909732
242103.0,12086.0,242103.0,5962.0,242103.0,18887.0,256.4514163773552,61.387236893487355,114.38804984590504
242103.0,12076.0,242103.0,5974.0,242103.0,18905.0,259.065320485056,62.71101687462949,116.23275249206358
242103.0,12094.0,242103.0,5980.0,242103.0,18894.0,261.6826524939596,63.984465937996916,118.01414954488374
242103.0,12084.0,242103.0,5965.0,242103.0,18876.0,264.29612826233574,65.20626656714221,119.72894912945358
242114.0,12073.0,242114.0,5952.0,242114.0,18877.0,266.8984836151609,66.37538269217455,121.37425387406034
242114.0,12086.0,242114.0,5958.0,242114.0,18883.0,269.48240458204486,67.49083463326306,122.94728947775606
242114.0,12094.0,242114.0,5965.0,242114.0,18891.0,272.0404601263896,68.55147369808799,124.44529537640418
242114.0,12082.0,242114.0,5985.0,242114.0,18899.0,274.5651812849296,69.5559972887581,125.86563426148707
242114.0,12099.0,242114.0,5973.0,242114.0,18887.0,277.04916958061295,70.50317622271648,127.20596673670669
242114.0,12104.0,242114.0,5952.0,242114.0,18872.0,279.4851823308858,71.39201098709839,128.46428679992354
242124.0,12080.0,242124.0,5964.0,242124.0,18887.0,281.8662436567936,72.2216024506613,129.63875751332284
242124.0,12094.0,242124.0,5961.0,242124.0,18886.0,284.1856478595021,72.99091920048846,130.72756144102428
242124.0,12099.0,242124.0,5983.0,242124.0,18897.0,286.4368634831527,73.69875902012194,131.72894804811816
242124.0,12092.0,242124.0,5988.0,242124.0,18894.0,288.61354469873925,74.34394704031916,132.64139514635744
242124.0,12092.0,242124.0,5964.0,242124.0,18900.0,290.70960164971143,74.92558846428823,133.46375492242242
242124.0,12092.0,242124.0,5952.0,242124.0,18876.0,292.71918830262194,75.44307841633338,134.1953097175827
242134.0,12088.0,242134.0,5972.0,242134.0,18876.0,294.63665454365247,75.89583656289372,134.8356566457086
242134.0,12087.0,242134.0,5976.0,242134.0,18886.0,296.45650723072663,76.2831469854574,135.38448987958196
242134.0,12107.0,242134.0,5986.0,242134.0,18889.0,298.173406691183,76.60430974387283,135.8415194179371
242134.0,12112.0,242134.0,5990.0,242134.0,18882.0,299.78231014475597,76.85891999316337,136.2065708647285
242134.0,12086.0,242134.0,5970.0,242134.0,18878.0,301.27870555693977,77.04706015881611,136.4796577858953
242134.0,12069.0,242134.0,5946.0,242134.0,18868.0,302.6586102641639,77.16923518885959,136.6609112957494
242145.0,12082.0,242145.0,5964.0,242145.0,18874.0,303.9182515431715,77.22603469082675,136.75043770227862
242145.0,12085.0,242145.0,5967.0,242145.0,18886.0,305.0538016183072,77.217851805778,136.74825193847954
242145.0,12082.0,242145.0,5973.0,242145.0,18894.0,306.06139793341714,77.1449178381744,136.65440617476102
242145.0,12098.0,242145.0,5971.0,242145.0,18880.0,306.93729703232543,77.00749680257263,136.469234684178
242145.0,12080.0,242145.0,5975.0,242145.0,18871.0,307.67802455673035,76.80602941067016,136.193466038196
242145.0,12081.0,242145.0,5952.0,242145.0,18868.0,308.2804546961601,76.54116982352276,135.828103457689
242155.0,12076.0,242155.0,5952.0,242155.0,18864.0,308.74176455923055,76.21366658450714,135.37422912144154
242155.0,12089.0,242155.0,5965.0,242155.0,18883.0,309.0593748698957,75.82416259015672,134.83291858234566
242155.0,12084.0,242155.0,5975.0,242155.0,18883.0,309.23101671460023,75.37316906383266,134.20535227568945
242155.0,12086.0,242155.0,5956.0,242155.0,18881.0,309.25487989926484,74.8612479141234,133.4930552757142
242155.0,12061.0,242155.0,5963.0,242155.0,18847.0,309.12968311264484,74.28912925784653,132.69801229429456
242155.0,12070.0,242155.0,5963.0,242155.0,18858.0,308.8545748847956,73.65767706767247,131.82248585434658
242165.0,12064.0,242165.0,5971.0,242165.0,18850.0,308.4289766854269,72.96789112497984,130.86871970881563
242165.0,12067.0,242165.0,5955.0,242165.0,18861.0,307.85253615752987,72.22099381816668,129.8388127776289
242165.0,12059.0,242165.0,5976.0,242165.0,18862.0,307.12517431406593,71.41849247197237,128.7347979337437
242165.0,12072.0,242165.0,5966.0,242165.0,18859.0,306.24714778185796,70.56223942725984,127.55880212186382
242165.0,12045.0,242165.0,5937.0,242165.0,18841.0,305.21911394987,69.65447565488512,126.31314000979991
242165.0,12045.0,242165.0,5935.0,242165.0,18839.0,304.0421160385788,68.69765142452098,125.00022979712455
242176.0,12046.0,242176.0,5943.0,242176.0,18834.0,302.71745568796473,67.69408062178128,123.62239991218951
242176.0,12033.0,242176.0,5956.0,242176.0,18847.0,301.2465967132006,66.64579897690774,122.18177472543724
242176.0,12044.0,242176.0,5951.0,242176.0,18843.0,299.63115867268345,65.55472934055216,120.68033634187945
242176.0,12024.0,242176.0,5949.0,242176.0,18832.0,297.872939487769,64.42290502184883,119.1200632403208
242176.0,12025.0,242176.0,5935.0,242176.0,18822.0,295.9739144429931,63.25253660963013,117.50294939217798
242176.0,12022.0,242176.0,5933.0,242176.0,18831.0,293.9361912692343,62.04590804324838,115.83088558108909
242186.0,12014.0,242186.0,5935.0,242186.0,18821.0,291.76197993183035,60.80522126086241,114.10557892136883
242186.0,12002.0,242186.0,5940.0,242186.0,18840.0,289.4535770535631,59.532535059677556,112.32860360452237
242186.0,12012.0,242186.0,5938.0,242186.0,18833.0,287.01331633011404,58.22983654747357,110.50156055557194
242186.0,11986.0,242186.0,5924.0,242186.0,18818.0,284.443531407288,56.89912571836514,108.62624880664686
242186.0,11980.0,242186.0,5913.0,242186.0,18805.0,281.74649673980423,55.542357261213766,106.70465830360848
242186.0,11981.0,242186.0,5921.0,242186.0,18809.0,278.92428159623773,54.161249654645225,104.73876587308781
242196.0,11997.0,242196.0,5928.0,242196.0,18802.0,275.9786911749727,52.7571719528832,102.7303548709638
242196.0,11979.0,242196.0,5934.0,242196.0,18813.0,272.9114384457034,51.33125189078088,100.68098999059374
242196.0,11989.0,242196.0,5934.0,242196.0,18808.0,269.72438070925966,49.88461217088713,98.59211479285797
242196.0,11964.0,242196.0,5910.0,242196.0,18801.0,266.41963868076306,48.418528473709024,96.46518083775202
242196.0,11955.0,242196.0,5914.0,242196.0,18791.0,262.9995636287239,46.934367492292104,94.30168492137221
242196.0,11958.0,242196.0,5917.0,242196.0,18784.0,259.4665949973089,45.43340815893561,92.10307187161827
242207.0,11960.0,242207.0,5918.0,242207.0,18808.0,255.8231844977295,43.916784818914714,89.87064046606392
242207.0,11947.0,242207.0,5916.0,242207.0,18793.0,252.07188979744453,42.38557457070694,87.60563051129982
242207.0,11942.0,242207.0,5909.0,242207.0,18780.0,248.21548392236983,40.84087493237121,85.3093939011417
242207.0,11925.0,242207.0,5911.0,242207.0,18780.0,244.25694267325278,39.28380501496883,82.98339259901081
242207.0,11918.0,242207.0,5903.0,242207.0,18767.0,240.19933222486708,37.715470640790016,80.62904778382774
242207.0,11911.0,242207.0,5903.0,242207.0,18774.0,236.04566966438995,36.13692777289751,78.24762022268008
242217.0,11910.0,242217.0,5921.0,242217.0,18778.0,231.7988393412182,34.54918874147396,75.84019872552813
242217.0,11911.0,242217.0,5915.0,242217.0,18782.0,227.46162159311783,32.95336027488068,73.40782901910457
242217.0,11896.0,242217.0,5893.0,242217.0,18762.0,223.0368013730708,31.35081818556602,70.95169395835265
242217.0,11887.0,242217.0,5878.0,242217.0,18754.0,218.52723526032312,29.743137376651156,68.47314064308894
242217.0,11879.0,242217.0,5876.0,242217.0,18751.0,213.93580593219053,28.13175284053809,65.97351797314104
242217.0,11878.0,242217.0,5897.0,242217.0,18760.0,209.26534899787617,26.517679443223322,63.454031017247445
242227.0,11883.0,242227.0,5901.0,242227.0,18761.0,204.51867959290186,24.901565675239844,60.91578619139483
242227.0,11870.0,242227.0,5903.0,242227.0,18740.0,199.6987388763492,23.284004434017945,58.35993816257225
242227.0,11851.0,242227.0,5874.0,242227.0,18745.0,194.8087166518693,21.66577094717981,55.78772190189768
242227.0,11850.0,242227.0,5880.0,242227.0,18717.0,189.8520083534336,20.04776520562597,53.200321279021566
242227.0,11818.0,242227.0,5868.0,242227.0,18736.0,184.8320508121031,18.430774232494215,50.598687485772416
242227.0,11830.0,242227.0,5884.0,242227.0,18734.0,179.7521318079634,16.8153152196951,47.98346105372161
242238.0,11819.0,242238.0,5880.0,242238.0,18737.0,174.61526841046702,15.201666764535844,45.355090524993685
242238.0,11816.0,242238.0,5877.0,242238.0,18718.0,169.4242369719063,13.59000521657699,42.714006092958314
242238.0,11805.0,242238.0,5859.0,242238.0,18712.0,164.18166765393443,11.98046601311325,40.06062761040367
242238.0,11788.0,242238.0,5860.0,242238.0,18712.0,158.89006375755054,10.373028810618834,37.39522111554619
242238.0,11786.0,242238.0,5859.0,242238.0,18723.0,153.55172553135338,8.767337712533404,34.71781635195387
242238.0,11796.0,242238.0,5867.0,242238.0,18721.0,148.16869979781933,7.162634682060514,32.02832086189167
242248.0,11788.0,242248.0,5871.0,242248.0,18713.0,142.74290912267423,5.557856744369886,29.326725416055154
242248.0,11765.0,242248.0,5877.0,242248.0,18702.0,137.27636129483494,3.951836289302463,26.61319840771361
242248.0,11760.0,242248.0,5864.0,242248.0,18692.0,131.77118406202965,2.34349927237605,23.88800242627738
242248.0,11739.0,242248.0,5848.0,242248.0,18691.0,126.22947088784161,0.7319136175845529,21.151326095087626
242248.0,11749.0,242248.0,5865.0,242248.0,18692.0,120.65312181811026,-0.8838425003762609,18.403168777958257
242248.0,11729.0,242248.0,5860.0,242248.0,18709.0,115.04379676353886,-2.50477592666455,15.643385405110308
242258.0,11730.0,242258.0,5870.0,242258.0,18696.0,109.40295280318588,-4.1318835175803486,12.871899511026243
242258.0,11734.0,242258.0,5857.0,242258.0,18682.0,103.7319128354917,-5.765988244502722,10.08890032709516
242258.0,11702.0,242258.0,5852.0,242258.0,18683.0,98.03196147837275,-7.407674349025385,7.294831674953116
242258.0,11700.0,242258.0,5849.0,242258.0,18663.0,92.30435686762632,-9.057355927424098,4.490237411639612
242258.0,11706.0,242258.0,5861.0,242258.0,18678.0,86.55023200094166,-10.71535750303758,1.6756212620928181
242258.0,11695.0,242258.0,5861.0,242258.0,18666.0,80.77060616928446,-12.381854794860985,-1.148600053466481
242269.0,11697.0,242269.0,5857.0,242269.0,18670.0,74.96655298124779,-14.056706029167827,-3.9820443431031265
242269.0,11677.0,242269.0,5849.0,242269.0,18651.0,69.1393488796578,-15.739343783049833,-6.824315342510715
242269.0,11664.0,242269.0,5834.0,242269.0,18660.0,63.29049485425031,-17.428828552171495,-9.675036929021786
242269.0,11651.0,242269.0,5826.0,242269.0,18649.0,57.421599163763005,-19.12404989512455,-12.533905405744719
242269.0,11649.0,242269.0,5829.0,242269.0,18657.0,51.534216131990036,-20.823973997138737,-15.40067892031172
242269.0,11642.0,242269.0,5845.0,242269.0,18640.0,45.62977655371077,-22.527755552619396,-18.275126290636337
242279.0,11630.0,242279.0,5835.0,242279.0,18657.0,39.70961572964336,-24.234620908577305,-21.156983816561677
242279.0,11615.0,242279.0,5817.0,242279.0,18625.0,33.77498372970928,-25.94371677454042,-24.045926158280537
242279.0,11614.0,242279.0,5815.0,242279.0,18639.0,27.826981174801915,-27.654179513825625,-26.941591765997316
242279.0,11614.0,242279.0,5817.0,242279.0,18624.0,21.866523703674886,-29.36534814274848,-29.843664896215785
242279.0,11604.0,242279.0,5842.0,242279.0,18634.0,15.894430201148907,-31.076821554982445,-32.75191101758253
242279.0,11595.0,242279.0,5825.0,242279.0,18647.0,9.911551781962714,-32.78825273602166,-35.666082645582264
242289.0,11581.0,242289.0,5834.0,242289.0,18614.0,3.918814005541492,-34.499086402621415,-38.58573204338424
242289.0,11562.0,242289.0,5807.0,242289.0,18610.0,-2.0828580648651496,-36.208474833017036,-41.51015745610226
242289.0,11574.0,242289.0,5811.0,242289.0,18611.0,-8.09266520804482,-37.915400239913424,-44.43858812785737
242289.0,11566.0,242289.0,5816.0,242289.0,18615.0,-14.1099479301148,-39.61885598214374,-47.37033694664166
242289.0,11564.0,242289.0,5808.0,242289.0,18602.0,-20.13402415919211,-41.317908559885225,-50.30476086832688
242289.0,11542.0,242289.0,5821.0,242289.0,18613.0,-26.164020767278146,-43.011632330989045,-53.24117485088121
242300.0,11536.0,242300.0,5801.0,242300.0,18601.0,-32.19886084324929,-44.69902828415904,-56.17879015203255
242300.0,11527.0,242300.0,5794.0,242300.0,18584.0,-38.237362226718176,-46.3790321335962,-59.11668915723247
242300.0,11499.0,242300.0,5802.0,242300.0,18579.0,-44.278354248506616,-48.05064414735418,-62.05393592687619
242300.0,11495.0,242300.0,5803.0,242300.0,18583.0,-50.32084711982856,-49.713018846250975,-64.98976987574582
242300.0,11508.0,242300.0,5801.0,242300.0,18583.0,-56.3641953207798,-51.36539723023087,-67.92367619567736
242300.0,11497.0,242300.0,5791.0,242300.0,18587.0,-62.40804050772175,-53.00701714952369,-70.8552844774413
242310.0,11485.0,242310.0,5780.0,242310.0,18572.0,-68.4520886041978,-54.637153625141394,-73.78422506865098
242310.0,11478.0,242310.0,5784.0,242310.0,18561.0,-74.49599024588576,-56.2552729538415,-76.71009698485153
242310.0,11451.0,242310.0,5771.0,242310.0,18569.0,-80.5393933997475,-57.861183244524895,-79.63257167225598
242310.0,11459.0,242310.0,5791.0,242310.0,18565.0,-86.58208317504261,-59.45509842979263,-82.55146466739762
242310.0,11463.0,242310.0,5797.0,242310.0,18564.0,-92.62405098931066,-61.037551000096926,-85.46667397949693
242310.0,11439.0,242310.0,5783.0,242310.0,18542.0,-98.66537977046312,-62.60916559792447,-88.37812079208538
242321.0,11438.0,242321.0,5776.0,242321.0,18556.0,-104.70611519101664,-64.17051809023752,-91.28580986428858
242321.0,11430.0,242321.0,5770.0,242321.0,18556.0,-110.74626661953442,-65.72222580860733,-94.18988214153964
242321.0,11418.0,242321.0,5780.0,242321.0,18543.0,-116.78582851056291,-67.26510299397815,-97.09053410648755
242321.0,11420.0,242321.0,5790.0,242321.0,18551.0,-122.82476152406144,-68.80015881694831,-99.9879212430572
242321.0,11404.0,242321.0,5786.0,242321.0,18554.0,-128.8629556382628,-70.32840759237284,-102.88210025023778
242321.0,11400.0,242321.0,5772.0,242321.0,18546.0,-134.9001914502349,-71.85068138753815,-105.77291286516956
242331.0,11387.0,242331.0,5765.0,242331.0,18523.0,-140.93613609772086,-73.36764736514876,-108.65990641103477
242331.0,11371.0,242331.0,5750.0,242331.0,18527.0,-146.9703900017285,-74.88001971608955,-111.54245297378904
242331.0,11361.0,242331.0,5775.0,242331.0,18523.0,-153.002594561185,-76.38877997693726,-114.41994782338995
242331.0,11369.0,242331.0,5771.0,242331.0,18520.0,-159.03254010242694,-77.89519321739579,-117.2918867513826
242331.0,11360.0,242331.0,5774.0,242331.0,18527.0,-165.06013243686715,-79.40060994779694,-120.15782436822454
242331.0,11357.0,242331.0,5781.0,242331.0,18515.0,-171.08522410798497,-80.90624798511332,-123.01728825582006
242341.0,11335.0,242341.0,5755.0,242341.0,18500.0,-177.10748437458938,-82.4130776839017,-125.86974005898924
242341.0,11335.0,242341.0,5751.0,242341.0,18496.0,-183.12640710136822,-83.921883348602,-128.71468674211067
242341.0,11326.0,242341.0,5771.0,242341.0,18493.0,-189.1413756218514,-85.43345222659062,-131.5518711983067
242341.0,11321.0,242341.0,5772.0,242341.0,18517.0,-195.15166721700837,-86.94859964092024,-134.38132973646626
242341.0,11301.0,242341.0,5770.0,242341.0,18500.0,-201.156425563854,-88.46795131313897,-137.20321931718672
242341.0,11295.0,242341.0,5763.0,242341.0,18490.0,-207.1547064131446,-89.99175200648745,-140.01760476862793
242352.0,11283.0,242352.0,5760.0,242352.0,18487.0,-213.1455904546791,-91.51984820334117,-142.8244528738081
242352.0,11263.0,242352.0,5734.0,242352.0,18474.0,-219.12830471415845,-93.05180838326547,-145.6237827360455
242352.0,11256.0,242352.0,5739.0,242352.0,18503.0,-225.1023727490989,-94.58716471572926,-148.4157538626441
242352.0,11258.0,242352.0,5769.0,242352.0,18481.0,-231.0677592660017,-96.1256102345458,-151.20056851999846
242352.0,11270.0,242352.0,5746.0,242352.0,18478.0,-237.02484120709903,-97.66690259110631,-153.97830573281993
242352.0,11249.0,242352.0,5741.0,242352.0,18460.0,-242.9741668605344,-99.21065248449176,-156.748931792878
242362.0,11231.0,242362.0,5719.0,242362.0,18467.0,-248.9162559511077,-100.756379260262,-159.51247918109402
242362.0,11229.0,242362.0,5731.0,242362.0,18465.0,-254.85164509370253,-102.30379523993332,-162.26917331873415
242362.0,11232.0,242362.0,5741.0,242362.0,18476.0,-260.78100455586826,-103.85298690538613,-165.01938572368925
242362.0,11226.0,242362.0,5741.0,242362.0,18458.0,-266.70508144474593,-105.40432093042278,-167.76347832508398
242362.0,11215.0,242362.0,5743.0,242362.0,18454.0,-272.62453001116137,-106.95821064696558,-170.50171903754455
242362.0,11215.0,242362.0,5735.0,242362.0,18458.0,-278.5397970193327,-108.5149554272464,-173.23433334451076
242372.0,11190.0,242372.0,5733.0,242372.0,18453.0,-284.4510925209125,-110.07470963552628,-175.96154819942143
242372.0,11185.0,242372.0,5731.0,242372.0,18438.0,-290.35844804553994,-111.63752852446476,-178.68357764533562
242372.0,11180.0,242372.0,5734.0,242372.0,18431.0,-296.26183791822825,-113.20340809917491,-181.40068978272444
242372.0,11173.0,242372.0,5741.0,242372.0,18448.0,-302.1612422808045,-114.77224811750084,-184.11333888891224
242372.0,11169.0,242372.0,5727.0,242372.0,18447.0,-308.05660932194417,-116.34375239376784,-186.82214209593954
242372.0,11151.0,242372.0,5725.0,242372.0,18430.0,-313.94780576237133,-117.9173858099582,-189.5276985899908
242383.0,11146.0,242383.0,5709.0,242383.0,18426.0,-319.8346345246074,-119.49247506438685,-192.23052046904246
242383.0,11148.0,242383.0,5728.0,242383.0,18430.0,-325.7168831669554,-121.06836817865316,-194.93113392907313
242383.0,11139.0,242383.0,5725.0,242383.0,18436.0,-331.59428773869536,-122.64447064932521,-197.6301200595222
242383.0,11130.0,242383.0,5728.0,242383.0,18427.0,-337.4664242084558,-124.2201117202903,-200.32800011746255
242383.0,11115.0,242383.0,5706.0,242383.0,18413.0,-343.3326630666305,-125.79442495473496,-203.02513727944938
242383.0,11095.0,242383.0,5704.0,242383.0,18409.0,-349.1922579481575,-127.36642526426037,-205.72180865829498
242393.0,11100.0,242393.0,5694.0,242393.0,18405.0,-355.0445197281167,-128.93523992471597,-208.4183747197237
242393.0,11096.0,242393.0,5711.0,242393.0,18417.0,-360.8889162412057,-130.50029730822945,-211.11536597869434
242393.0,11075.0,242393.0,5704.0,242393.0,18407.0,-366.7250288421578,-132.06133169793304,-213.81341411000426
242393.0,11074.0,242393.0,5699.0,242393.0,18400.0,-372.5525236761787,-133.6182750339529,-216.51314078579398
242393.0,11063.0,242393.0,5702.0,242393.0,18398.0,-378.37121052896293,-135.17120559264208,-219.21514992880006
242393.0,11043.0,242393.0,5682.0,242393.0,18399.0,-384.18111439137965,-136.7203940766342,-221.92008288851636
242403.0,11055.0,242403.0,5694.0,242403.0,18380.0,-389.9825496274942,-138.2664066389066,-224.62864950157234
242403.0,11048.0,242403.0,5720.0,242403.0,18396.0,-395.7761238928183,-139.81013126648293,-227.34166739538097
242403.0,11048.0,242403.0,5705.0,242403.0,18403.0,-401.562586799149,-141.3525554907364,-230.06004475396955
242403.0,11032.0,242403.0,5693.0,242403.0,18395.0,-407.3426447331366,-142.894487651425,-232.78459724081736
242403.0,11024.0,242403.0,5684.0,242403.0,18374.0,-413.11689358718263,-144.43656774075478,-235.5158791629505
242403.0,11017.0,242403.0,5681.0,242403.0,18378.0,-418.88586128818395,-145.97950911419386,-238.2542534845856
242414.0,11017.0,242414.0,5703.0,242414.0,18380.0,-424.6500467788535,-147.52426344094255,-241.00006103682082
242414.0,11000.0,242414.0,5693.0,242414.0,18379.0,-430.40989270113255,-149.07194494881185,-243.75364404164014
242414.0,11006.0,242414.0,5708.0,242414.0,18368.0,-436.16574033695304,-150.6236050009872,-246.51526239029283
242414.0,10987.0,242414.0,5678.0,242414.0,18374.0,-441.9177971502912,-152.18006946155867,-249.2850584922992
242414.0,10971.0,242414.0,5680.0,242414.0,18365.0,-447.666145253864,-153.74198047806993,-252.06306461718157
242414.0,10952.0,242414.0,5671.0,242414.0,18349.0,-453.41088388592823,-155.3100102748215,-254.84922641691847
242424.0,10960.0,242424.0,5685.0,242424.0,18353.0,-459.15236137272404,-156.88504253909912,-257.6435073871663
242424.0,10964.0,242424.0,5700.0,242424.0,18347.0,-464.89125979826645,-158.4681311478781,-260.4460236756096
242424.0,10952.0,242424.0,5696.0,242424.0,18352.0,-470.6284352329511,-160.0602341838068,-263.2570817440754
242424.0,10944.0,242424.0,5679.0,242424.0,18338.0,-476.36471587374285,-161.66195188946952,-266.0771391178773
242424.0,10930.0,242424.0,5669.0,242424.0,18344.0,-482.1008523488614,-163.27353161501185,-268.90678535187146
242424.0,10922.0,242424.0,5683.0,242424.0,18332.0,-487.83759385466794,-164.89507700516168,-271.7467593890564
242434.0,10919.0,242434.0,5675.0,242434.0,18339.0,-493.57577879736834,-166.5266659539518,-274.5979628192173
242434.0,10919.0,242434.0,5676.0,242434.0,18328.0,-499.3163468252367,-168.16830649262326,-277.46145080095096
242434.0,10909.0,242434.0,5677.0,242434.0,18332.0,-505.0602499650497,-169.8198783395954,-280.3384127610469
242434.0,10886.0,242434.0,5653.0,242434.0,18331.0,-510.80838223405067,-171.48114510908806,-283.23014283820976
242434.0,10895.0,242434.0,5641.0,242434.0,18327.0,-516.5616369793654,-173.1519161068422,-286.1379818205296
242434.0,10875.0,242434.0,5656.0,242434.0,18311.0,-522.3209968027484,-174.83234152869687,-289.06328315275726
242445.0,10884.0,242445.0,5658.0,242445.0,18328.0,-528.087536643367,-176.52307191118604,-292.00745558769586
242445.0,10867.0,242445.0,5677.0,242445.0,18318.0,-533.8623642729065,-178.22511385966834,-294.97197315778266
242445.0,10856.0,242445.0,5668.0,242445.0,18323.0,-539.6465770951826,-179.93951964735888,-297.95827552126707
242445.0,10845.0,242445.0,5654.0,242445.0,18310.0,-545.4413100937065,-181.6671575498332,-300.9676679174478
242445.0,10837.0,242445.0,5645.0,242445.0,18300.0,-551.2478566791609,-183.4087409707882,-304.00132996670936
242445.0,10841.0,242445.0,5649.0,242445.0,18301.0,-557.0677450247982,-185.16504347746218,-307.06042922620713
242455.0,10834.0,242455.0,5651.0,242455.0,18309.0,-562.9026909237641,-186.93704878017815,-310.1462099448755
242455.0,10832.0,242455.0,5651.0,242455.0,18294.0,-568.7544595003566,-188.72593241991996,-313.2599497228286
242455.0,10818.0,242455.0,5660.0,242455.0,18298.0,-574.6247409559198,-190.53295000966452,-316.4028831977802
242455.0,10804.0,242455.0,5636.0,242455.0,18292.0,-580.515127314947,-192.35933317862037,-319.5761918802946
242455.0,10793.0,242455.0,5644.0,242455.0,18273.0,-586.427210355437,-194.2062984132105,-322.78104188548116
242455.0,10799.0,242455.0,5654.0,242455.0,18281.0,-592.3627075814121,-196.0751242335075,-326.0186857123879
242465.0,10803.0,242465.0,5659.0,242465.0,18280.0,-598.3234421468828,-197.96708215215043,-329.2905632738254
242465.0,10788.0,242465.0,5644.0,242465.0,18281.0,-604.3111463217332,-199.88323149420012,-332.5982685705461
242465.0,10767.0,242465.0,5648.0,242465.0,18271.0,-610.3273110523311,-201.8243168372303,-335.94343862795404
242465.0,10760.0,242465.0,5627.0,242465.0,18281.0,-616.3732677451646,-203.79084089254673,-339.3276840445053
242465.0,10755.0,242465.0,5625.0,242465.0,18261.0,-622.4503828266571,-205.78324197278778,-342.7525530056822
242465.0,10746.0,242465.0,5624.0,242465.0,18273.0,-628.5601606400273,-207.80210519730147,-346.219514546551
242476.0,10744.0,242476.0,5646.0,242476.0,18267.0,-634.7042384448757,-209.8482515926957,-349.72994280012773
242476.0,10742.0,242476.0,5641.0,242476.0,18277.0,-640.8843281119335,-211.92257959868607,-353.28502730774153
242476.0,10724.0,242476.0,5624.0,242476.0,18248.0,-647.1021327939228,-214.02582287536916,-356.88565184654954
242476.0,10719.0,242476.0,5620.0,242476.0,18251.0,-653.3593174438697,-216.15851782378587,-360.5324097054536
242476.0,10705.0,242476.0,5610.0,242476.0,18238.0,-659.6575715776992,-218.32119496264193,-364.22577157061596
242476.0,10706.0,242476.0,5633.0,242476.0,18240.0,-665.9986853026616,-220.51454522527763,-367.96624612642313
242486.0,10716.0,242486.0,5643.0,242486.0,18245.0,-672.3845211819176,-222.739336526037,-371.7544260982254
242486.0,10691.0,242486.0,5618.0,242486.0,18242.0,-678.8168474757241,-224.99612712028522,-375.59090757772753
242486.0,10677.0,242486.0,5609.0,242486.0,18227.0,-685.297218883228,-227.28513190969437,-379.47617165645215
242486.0,10678.0,242486.0,5611.0,242486.0,18232.0,-691.8270585318761,-229.6063995257935,-383.4105639383407
242486.0,10667.0,242486.0,5603.0,242486.0,18219.0,-698.4077731962329,-231.96003507687038,-387.39435167948574
242486.0,10666.0,242486.0,5628.0,242486.0,18225.0,-705.0407438502306,-234.3462439220235,-391.4277573580274
242496.0,10656.0,242496.0,5606.0,242496.0,18220.0,-711.7272542429962,-236.7652025393702,-395.51094033342923
242496.0,10651.0,242496.0,5615.0,242496.0,18227.0,-718.4684262613674,-239.21690421421033,-399.64391646993363
242496.0,10637.0,242496.0,5611.0,242496.0,18200.0,-725.2651843000319,-241.70110298983502,-403.8264642894925
242496.0,10630.0,242496.0,5610.0,242496.0,18198.0,-732.118268841199,-244.21729314727543,-408.0581593145812
242496.0,10615.0,242496.0,5597.0,242496.0,18202.0,-739.0282951669116,-246.7646898193296,-412.33853053656725
242496.0,10624.0,242496.0,5598.0,242496.0,18203.0,-745.9958045633783,-249.34228360882372,-416.6671204611123
242507.0,10618.0,242507.0,5611.0,242507.0,18214.0,-753.0212088356618,-251.948904477083,-421.0433414887254
242507.0,10597.0,242507.0,5591.0,242507.0,18187.0,-760.1046443062479,-254.58317553571862,-425.46626423584894
242507.0,10590.0,242507.0,5591.0,242507.0,18179.0,-767.2459214677104,-257.2434579654506,-429.9345644738311
242507.0,10574.0,242507.0,5590.0,242507.0,18186.0,-774.4446330211238,-259.92791055325483,-434.4466712145452
242507.0,10575.0,242507.0,5597.0,242507.0,18187.0,-781.7002806695144,-262.6345404539396,-439.0008609966641
242507.0,10565.0,242507.0,5586.0,242507.0,18183.0,-789.0123113978392,-265.36114202597844,-443.5951506915414
242517.0,10564.0,242517.0,5593.0,242517.0,18188.0,-796.3800612317242,-268.1052148736254,-448.2271244744534
242517.0,10545.0,242517.0,5581.0,242517.0,18176.0,-803.8026752999189,-270.863929973856,-452.893800260729
242517.0,10549.0,242517.0,5581.0,242517.0,18166.0,-811.2790710057906,-273.6341358746657,-457.59157211388305
242517.0,10533.0,242517.0,5572.0,242517.0,18165.0,-818.8079220755735,-276.4124070797777,-462.3162611023237
242517.0,10533.0,242517.0,5585.0,242517.0,18158.0,-826.3876189974047,-279.19509222307977,-467.0631998436015
242517.0,10532.0,242517.0,5576.0,242517.0,18152.0,-834.016193752641,-281.9782791708925,-471.8272719455591
242527.0,10521.0,242527.0,5577.0,242527.0,18152.0,-841.6911927032658,-284.75769943141825,-476.60292673182425
242527.0,10508.0,242527.0,5564.0,242527.0,18147.0,-849.409556388612,-287.528687350439,-481.3841734643091
242527.0,10493.0,242527.0,5560.0,242527.0,18130.0,-857.1676155927889,-290.2862468482217,-486.1645714320998
242527.0,10489.0,242527.0,5564.0,242527.0,18141.0,-864.9611875922841,-293.02516311255295,-490.937270740552
242527.0,10486.0,242527.0,5572.0,242527.0,18138.0,-872.7856411602223,-295.74002584321556,-495.6950291313754
242527.0,10480.0,242527.0,5561.0,242527.0,18143.0,-880.6358454659784,-298.42511767091685,-500.43009375122335
242538.0,10470.0,242538.0,5567.0,242538.0,18125.0,-888.5060536133819,-301.07429137329,-505.13403310061835
242538.0,10460.0,242538.0,5546.0,242538.0,18125.0,-896.3898241941996,-303.68094737845854,-509.7976792891274
242538.0,10444.0,242538.0,5548.0,242538.0,18106.0,-904.2800255654827,-306.23812389748207,-514.4112071786278
242538.0,10440.0,242538.0,5547.0,242538.0,18110.0,-912.1689028219623,-308.7386371627823,-518.9642738091856
242538.0,10439.0,242538.0,5562.0,242538.0,18109.0,-920.0481226974291,-311.1751202176147,-523.4461152142528
242538.0,10444.0,242538.0,5569.0,242538.0,18116.0,-927.9086853414798,-313.53985525562496,-527.8455078676636
242548.0,10419.0,242548.0,5543.0,242548.0,18099.0,-935.7407275268441,-315.82452319728833,-532.1506295143286
242548.0,10409.0,242548.0,5527.0,242548.0,18097.0,-943.5334179280878,-318.0201763359741,-536.3489836696443
242548.0,10399.0,242548.0,5530.0,242548.0,18087.0,-951.2750419300036,-320.11752741342264,-540.4274590009552
242548.0,10387.0,242548.0,5535.0,242548.0,18090.0,-958.9531407263485,-322.1072457826327,-544.3724268564496
242548.0,10393.0,242548.0,5557.0,242548.0,18081.0,-966.5545715209631,-323.9799614455684,-548.1697862972425
242548.0,10389.0,242548.0,5543.0,242548.0,18084.0,-974.0654386404908,-325.726009646546,-551.8049631439071
242559.0,10365.0,242559.0,5515.0,242559.0,18079.0,-981.4709465772728,-327.33523809718764,-555.2628898015477
242559.0,10358.0,242559.0,5525.0,242559.0,18068.0,-988.7553636183405,-328.7971503484769,-558.5279926432463
242559.0,10353.0,242559.0,5533.0,242559.0,18070.0,-995.9021349898425,-330.10117719437767,-561.5842319608263
242559.0,10382.0,242559.0,5534.0,242559.0,18058.0,-1002.8938910368893,-331.236708127978,-564.4151848674209
242559.0,10345.0,242559.0,5534.0,242559.0,18070.0,-1009.7121971724823,-332.19293176023245,-567.0041069106209
242559.0,10345.0,242559.0,5537.0,242559.0,18050.0,-1016.3373051950182,-332.95870815425434,-569.3339486419754
242569.0,10325.0,242569.0,5508.0,242569.0,18043.0,-1022.7481737031969,-333.52256044599153,-571.387408632024
242569.0,10306.0,242569.0,5496.0,242569.0,18037.0,-1028.9226712271266,-333.8728832492933,-573.1471105006597
242569.0,10295.0,242569.0,5527.0,242569.0,18026.0,-1034.8378393067,-333.99829940710686,-574.5958438082122
242569.0,10302.0,242569.0,5520.0,242569.0,18055.0,-1040.4701373040173,-333.88779916789593,-575.7167216349491
242569.0,10290.0,242569.0,5507.0,242569.0,18041.0,-1045.7955239814357,-333.5306115602075,-576.4931380279702
242569.0,10278.0,242569.0,5519.0,242569.0,18055.0,-1050.7894170790355,-332.9161604476765,-576.9085805021567
242579.0,10269.0,242579.0,5504.0,242579.0,18029.0,-1055.426725944797,-332.0341744192079,-576.9465166950217
242579.0,10243.0,242579.0,5509.0,242579.0,18023.0,-1059.6820227701012,-330.87480514767435,-576.5905034412833
242579.0,10262.0,242579.0,5504.0,242579.0,18031.0,-1063.5297743144097,-329.4287504996953,-575.824464159849
242579.0,10241.0,242579.0,5514.0,242579.0,18027.0,-1066.944485183195,-327.6873624756446,-574.6329144964652
242579.0,10246.0,242579.0,5527.0,242579.0,18016.0,-1069.9007109843096,-325.6426512356665,-573.0010618609123
242579.0,10243.0,242579.0,5512.0,242579.0,18023.0,-1072.3730474191484,-323.28718953829707,-570.9149311351889
242590.0,10234.0,242590.0,5506.0,242590.0,18008.0,-1074.3361285102633,-320.6140979607728,-568.3615575027197
242590.0,10213.0,242590.0,5506.0,242590.0,18016.0,-1075.7646813316233,-317.6172406580089,-565.329188159343
242590.0,10221.0,242590.0,5518.0,242590.0,18025.0,-1076.6337210320582,-314.2914699827242,-561.807446776438
242590.0,10212.0,242590.0,5530.0,242590.0,18032.0,-1076.9187736378994,-310.63269552957814,-557.7873720498733
242590.0,10216.0,242590.0,5516.0,242590.0,18026.0,-1076.595985779184,-306.6378040761749,-553.2613610245485
242590.0,10202.0,242590.0,5526.0,242590.0,18015.0,-1075.6421808156224,-302.30464304265485,-548.2232137836166
242600.0,10189.0,242600.0,5512.0,242600.0,18030.0,-1074.0349997436501,-297.63216066046,-542.6683546235666
242600.0,10180.0,242600.0,5530.0,242600.0,18022.0,-1071.7531944130076,-292.62060577902463,-536.5940761096667
242600.0,10209.0,242600.0,5537.0,242600.0,18054.0,-1068.776940205562,-287.27165175221063,-529.99965640059
242600.0,10197.0,242600.0,5557.0,242600.0,18051.0,-1065.0879260128672,-281.588351303137,-522.8863195711004
242600.0,10200.0,242600.0,5546.0,242600.0,18081.0,-1060.669272743317,-275.5749830241208,-515.2570774058065
242600.0,10207.0,242600.0,5565.0,242600.0,18065.0,-1055.5055278427506,-269.23696547659256,-507.11656190554135
242610.0,10204.0,242610.0,5560.0,242610.0,18077.0,-1049.582744467656,-262.58088125065547,-498.4709920929564
242610.0,10212.0,242610.0,5574.0,242610.0,18095.0,-1042.8885567647721,-255.61452783560694,-489.32828103769134
242610.0,10223.0,242610.0,5580.0,242610.0,18103.0,-1035.4122436103196,-248.34695258869772,-479.69809671567
242610.0,10230.0,242610.0,5597.0,242610.0,18118.0,-1027.1447407316675,-240.78844321621784,-469.591799543213
242610.0,10234.0,242610.0,5604.0,242610.0,18131.0,-1018.0786116744866,-232.95045121234736,-459.02235948117374
242610.0,10229.0,242610.0,5610.0,242610.0,18144.0,-1008.2080892104461,-224.8455005391427,-448.00428876774987
242621.0,10242.0,242621.0,5623.0,242621.0,18146.0,-997.5292420630226,-216.48714795948325,-436.55359997797774
242621.0,10252.0,242621.0,5622.0,242621.0,18187.0,-986.0401699949921,-207.8899946170409,-424.68779096280184
242621.0,10267.0,242621.0,5658.0,242621.0,18205.0,-973.7410998857897,-199.06968771192817,-412.4257124649083
242621.0,10279.0,242621.0,5666.0,242621.0,18206.0,-960.6343828559367,-190.04280251813987,-399.7872854659543
242621.0,10281.0,242621.0,5680.0,242621.0,18225.0,-946.7244895661695,-180.82659614214066,-386.79331859691797
242621.0,10309.0,242621.0,5679.0,242621.0,18243.0,-932.0180622998037,-171.43881866943477,-373.46550793963564
242631.0,10311.0,242631.0,5694.0,242631.0,18260.0,-916.5239710634703,-161.8976985171014,-359.8264242684761
242631.0,10342.0,242631.0,5714.0,242631.0,18280.0,-900.2533188473449,-152.22198404182146,-345.8994141747886
242631.0,10361.0,242631.0,5741.0,242631.0,18284.0,-883.219387659738,-142.43085058323825,-331.7085033860528
242631.0,10386.0,242631.0,5753.0,242631.0,18309.0,-865.4375006898961,-132.5436257907702,-317.278370329481
242631.0,10392.0,242631.0,5758.0,242631.0,18332.0,-846.9248629028882,-122.57949653620176,-302.6343345207365
242631.0,10417.0,242631.0,5763.0,242631.0,18343.0,-827.700507063128,-112.55739106534787,-287.80226183928755
242641.0,10427.0,242641.0,5774.0,242641.0,18361.0,-807.7853466508541,-102.4960438630375,-272.8084465813334
242641.0,10462.0,242641.0,5792.0,242641.0,18386.0,-787.2022338659789,-92.41408679114869,-257.6795483772776
242641.0,10494.0,242641.0,5807.0,242641.0,18416.0,-765.9759107342444,-82.33003232597659,-242.44248396002067
242641.0,10521.0,242641.0,5821.0,242641.0,18434.0,-744.1327959094947,-72.26215031442177,-227.12418994880147
242641.0,10528.0,242641.0,5814.0,242641.0,18443.0,-721.7007379117152,-62.22836311995525,-211.75137315389276
242641.0,10549.0,242641.0,5832.0,242641.0,18454.0,-698.7089565533263,-52.24628201319081,-196.35042359408982
242652.0,10581.0,242652.0,5854.0,242652.0,18479.0,-675.1881574836152,-42.33330125308515,-180.94748126701967
242652.0,10619.0,242652.0,5874.0,242652.0,18509.0,-651.1705659368511,-32.50653072584106,-165.56845344438563
242652.0,10648.0,242652.0,5876.0,242652.0,18523.0,-626.6897410739803,-22.78257062555423,-150.23885617385042
242652.0,10672.0,242652.0,5909.0,242652.0,18552.0,-601.7802993908714,-13.177307734610622,-134.98357628710625
242652.0,10686.0,242652.0,5894.0,242652.0,18549.0,-576.477752525092,-3.705781337289636,-119.82670082015863
242652.0,10728.0,242652.0,5900.0,242652.0,18571.0,-550.8185048844958,5.617835201730031,-104.79148994141883
242662.0,10753.0,242662.0,5911.0,242662.0,18579.0,-524.83985209528,14.780068875931363,-89.90047236919696
242662.0,10793.0,242662.0,5943.0,242662.0,18637.0,-498.57984957002355,23.7679983020617,-75.17547431741025
242662.0,10833.0,242662.0,5961.0,242662.0,18629.0,-472.07707022354765,32.56938533307584,-60.63740517542243
242662.0,10853.0,242662.0,5946.0,242662.0,18647.0,-445.3703108155809,41.17297006163159,-46.30597527895674
242662.0,10877.0,242662.0,5957.0,242662.0,18652.0,-418.49837316557347,49.56856736394428,-32.199648653003635
242662.0,10906.0,242662.0,5957.0,242662.0,18667.0,-391.5000221919724,57.74688642382591,-18.335791637053205
242672.0,10945.0,242672.0,5974.0,242672.0,18680.0,-364.4140021416376,65.69932248634376,-4.7308184673091205
242672.0,10983.0,242672.0,5990.0,242672.0,18701.0,-337.2789255930724,73.41790125611999,8.599739604010153
242672.0,11021.0,242672.0,5991.0,242672.0,18731.0,-310.1330036212803,80.8953620550729,21.641286708480322
242672.0,11030.0,242672.0,6016.0,242672.0,18737.0,-283.01375753370905,88.12527881250355,34.380348926588965
242672.0,11074.0,242672.0,5993.0,242672.0,18745.0,-255.9578829555096,95.10213007891895,46.804749783134696
242672.0,11098.0,242672.0,6017.0,242672.0,18768.0,-229.0012245733909,101.82125148953958,58.90363952029429
242683.0,11141.0,242683.0,6017.0,242683.0,18775.0,-202.1786822604447,108.2787093085737,70.66747163444722
242683.0,11165.0,242683.0,6044.0,242683.0,18793.0,-175.52401706327805,114.47127329444822,82.08803226308476
242683.0,11193.0,242683.0,6034.0,242683.0,18811.0,-149.06965912947055,120.3965335364299,93.15850047164741
242683.0,11217.0,242683.0,6043.0,242683.0,18808.0,-122.8466035004883,126.05299339916905,103.87351137547
242683.0,11245.0,242683.0,6039.0,242683.0,18807.0,-96.88439069402784,131.44001925435538,114.22912113348241
242683.0,11280.0,242683.0,6046.0,242683.0,18816.0,-71.21108809660063,136.5577016899192,124.22258697067758
242693.0,11294.0,242693.0,6059.0,242693.0,18846.0,-45.85322466097284,141.40674761918336,133.85213640111823
242693.0,11324.0,242693.0,6078.0,242693.0,18849.0,-20.835744778883964,145.988508522517,143.11695847181227
242693.0,11353.0,242693.0,6066.0,242693.0,18862.0,3.817985130250463,150.3051387281563,152.0173482811091
242693.0,11366.0,242693.0,6065.0,242693.0,18860.0,28.08617883758427,154.35967726929243,160.55477611898232
242693.0,11388.0,242693.0,6053.0,242693.0,18864.0,51.948607687672734,158.15588932747602,168.7318043197734
242693.0,11410.0,242693.0,6066.0,242693.0,18875.0,75.38649314461509,161.69797240021063,176.55192261264943
242703.0,11447.0,242703.0,6093.0,242703.0,18891.0,98.38242039480417,164.99039420552157,184.01943343219864
242703.0,11471.0,242703.0,6083.0,242703.0,18897.0,120.92040111309973,168.0380139690493,191.1394720753936
242703.0,11499.0,242703.0,6083.0,242703.0,18887.0,142.98605358003215,170.8462825541202,197.91805431100983
242703.0,11507.0,242703.0,6086.0,242703.0,18898.0,164.56675293847798,173.42125212272651,204.36198128520908
242703.0,11520.0,242703.0,6080.0,242703.0,18889.0,185.65161849264734,175.7694497918663,210.47861974528695
242703.0,11535.0,242703.0,6086.0,242703.0,18911.0,206.2313242964549,177.89775270418704,216.27569902610645
242714.0,11567.0,242714.0,6091.0,242714.0,18915.0,226.2978831446486,179.8133007313287,221.7612277745704
242714.0,11587.0,242714.0,6106.0,242714.0,18923.0,245.84458438580293,181.52350730085294,226.94354028372254
242714.0,11601.0,242714.0,6083.0,242714.0,18927.0,264.86607165475493,183.03614787941285,231.83136896929653
242714.0,11620.0,242714.0,6086.0,242714.0,18928.0,283.3583948008901,184.35933766728186,236.43385367667503
242714.0,11626.0,242714.0,6087.0,242714.0,18913.0,301.3189572643073,185.50133956648233,240.76045111039736
242714.0,11667.0,242714.0,6113.0,242714.0,18938.0,318.74643390961114,186.47044096085096,244.82074409367135
242724.0,11664.0,242724.0,6104.0,242724.0,18933.0,335.6407707103266,187.27507712937518,248.62429606313088
242724.0,11682.0,242724.0,6088.0,242724.0,18943.0,352.00321776185183,187.92400270053497,252.18065167793884
242724.0,11694.0,242724.0,6092.0,242724.0,18945.0,367.8362600399165,188.42622553053593,255.4993780026848
242724.0,11697.0,242724.0,6080.0,242724.0,18947.0,383.1434681298173,188.7907573640381,258.59006905549086
242724.0,11703.0,242724.0,6090.0,242724.0,18937.0,397.9293073025342,189.02639955061312,261.46229722354053
242724.0,11735.0,242724.0,6094.0,242724.0,18965.0,412.1989250661351,189.14165257254876,264.1255173090401
242734.0,11752.0,242734.0,6101.0,242734.0,18960.0,425.95808704613694,189.14476529101307,266.5890564633971
242734.0,11754.0,242734.0,6095.0,242734.0,18951.0,439.21329948336586,189.0438588769971,268.8621998237726
242734.0,11761.0,242734.0,6079.0,242734.0,18950.0,451.9718712726162,188.84696123886886,270.9541489430799
242734.0,11772.0,242734.0,6087.0,242734.0,18953.0,464.2417898645343,188.5618666884247,272.8738203357924
242734.0,11783.0,242734.0,6083.0,242734.0,18965.0,476.031554482767,188.1959480819437,274.6296983591508
242734.0,11788.0,242734.0,6115.0,242734.0,18964.0,487.35007163669354,187.75613165299683,276.229845353947
242745.0,11808.0,242745.0,6108.0,242745.0,18984.0,498.20659039915915,187.24911524767936,277.6820121080016
242745.0,11820.0,242745.0,6075.0,242745.0,18963.0,508.6106933551671,186.6816091516892,278.9937633855387
242745.0,11809.0,242745.0,6084.0,242745.0,18979.0,518.5723247124654,186.06024716497683,280.17251910965786
242745.0,11810.0,242745.0,6079.0,242745.0,18970.0,528.1016832521273,185.3912527045315,281.22549476423035
242745.0,11847.0,242745.0,6104.0,242745.0,18990.0,537.2089858735526,184.68027458592763,282.1596621998166
242745.0,11848.0,242745.0,6078.0,242745.0,18983.0,545.9044069902081,183.9324813285856,282.9818075127864
242755.0,11859.0,242755.0,6108.0,242755.0,18973.0,554.1982480898114,183.15269321746194,283.69859268228606
242755.0,11864.0,242755.0,6092.0,242755.0,18967.0,562.1010679777073,182.34547100438954,284.3164608732451
242755.0,11851.0,242755.0,6084.0,242755.0,18986.0,569.6236438542346,181.51517728198678,284.8414317380265
242755.0,11860.0,242755.0,6078.0,242755.0,18978.0,576.7767790778767,180.66589907858844,285.27901721501644
242755.0,11878.0,242755.0,6079.0,242755.0,18988.0,583.5710726228485,179.80123962981526,285.6342879877815
242755.0,11882.0,242755.0,6096.0,242755.0,18984.0,590.0168542824936,178.9241957348405,285.9119426963123
242766.0,11893.0,242766.0,6095.0,242766.0,18986.0,596.1242832559424,178.03724605307815,286.11632914397376
242766.0,11891.0,242766.0,6095.0,242766.0,18981.0,601.9034357468495,177.14255108211722,286.25142342026936
242766.0,11891.0,242766.0,6081.0,242766.0,18979.0,607.3642922041831,176.2420583164428,286.3207566819466
242766.0,11900.0,242766.0,6076.0,242766.0,18991.0,612.516640071876,175.3374113308683,286.3273319639876
242766.0,11905.0,242766.0,6104.0,242766.0,18992.0,617.3699848193919,174.42980033967598,286.27362602315145
242766.0,11902.0,242766.0,6100.0,242766.0,18993.0,621.9335215571627,173.52001321541246,286.16168421284965
242776.0,11916.0,242776.0,6082.0,242776.0,19002.0,626.2161143165001,172.60864443094545,285.9932192662159
242776.0,11901.0,242776.0,6087.0,242776.0,18997.0,630.226252344205,171.69613405665933,285.76968761272076
242776.0,11915.0,242776.0,6071.0,242776.0,18997.0,633.9719730100967,170.78258822476954,285.4923391256434
242776.0,11918.0,242776.0,6090.0,242776.0,19003.0,637.4607753414186,169.86760163374498,285.1622159692954
242776.0,11929.0,242776.0,6104.0,242776.0,19003.0,640.6996210660532,168.95025613147612,284.7801531232261
242776.0,11947.0,242776.0,6104.0,242776.0,19008.0,643.6950654225261,168.02935205471022,284.34682709618687
242786.0,11930.0,242786.0,6100.0,242786.0,19007.0,646.4534487063172,167.10369831292763,283.8628204240297
242786.0,11932.0,242786.0,6089.0,242786.0,19000.0,648.9809783490318,166.17221638339873,283.32865133733117
242786.0,11938.0,242786.0,6096.0,242786.0,19010.0,651.2836284733821,165.23385218381526,282.7447463200033
242786.0,11934.0,242786.0,6110.0,242786.0,19007.0,653.3670206475076,164.28750227728676,282.1114142311434
242786.0,11938.0,242786.0,6111.0,242786.0,19018.0,655.2363787403024,163.3321244367196,281.42889078397127
242786.0,11950.0,242786.0,6104.0,242786.0,19010.0,656.8965212726812,162.36694356021252,280.6974270642088
242797.0,11949.0,242797.0,6098.0,242797.0,19019.0,658.3519234777402,161.39153036115687,279.9173593452632
242797.0,11949.0,242797.0,6087.0,242797.0,18998.0,659.6068246311761,160.40569012267855,279.0891136470133
242797.0,11959.0,242797.0,6116.0,242797.0,19017.0,660.6652934887707,159.40931331046932,278.2131308624912
242797.0,11962.0,242797.0,6102.0,242797.0,19020.0,661.5312901457107,158.40239447110582,277.28981969737595
242797.0,11962.0,242797.0,6103.0,242797.0,19019.0,662.2087747801991,157.3851809692839,276.31965073729305
242797.0,11959.0,242797.0,6101.0,242797.0,19021.0,662.7017903007236,156.35822895499842,275.3032944916266
242807.0,11959.0,242807.0,6085.0,242807.0,19013.0,663.0144600826313,155.32232203082896,274.2416678093613
242807.0,11965.0,242807.0,6091.0,242807.0,19029.0,663.1509532819302,154.2783193854516,273.1359210248919
242807.0,11964.0,242807.0,6082.0,242807.0,19020.0,663.1154965203993,153.22698801097226,271.98746496686664
242807.0,11949.0,242807.0,6107.0,242807.0,19020.0,662.9123974063102,152.16893028325714,270.7980317224344
242807.0,11974.0,242807.0,6103.0,242807.0,19022.0,662.5460109501267,151.1046959250564,269.56968411574195
242807.0,11969.0,242807.0,6097.0,242807.0,19033.0,662.0207600423154,150.03499131191535,268.3048163432767
242817.0,11953.0,242817.0,6083.0,242817.0,19013.0,661.3412543758167,148.96074932693134,267.0062124825697
242817.0,11955.0,242817.0,6092.0,242817.0,19018.0,660.5122931578713,147.88299093494527,265.6770494694103
242817.0,11950.0,242817.0,6086.0,242817.0,19014.0,659.5387089664235,146.80267070055913,264.3207857670244
242817.0,11966.0,242817.0,6113.0,242817.0,19012.0,658.4252711605061,145.72067823468632,262.94105300196236
242817.0,11970.0,242817.0,6105.0,242817.0,19023.0,657.1767782089976,144.63802387105972,261.5416212871096
242817.0,11967.0,242817.0,6099.0,242817.0,19013.0,655.7982780728989,143.5560709295539,260.1264300209452
242828.0,11951.0,242828.0,6100.0,242828.0,19017.0,654.2952201852344,142.47661013630093,258.6996334488655
242828.0,11965.0,242828.0,6083.0,242828.0,19008.0,652.6734275610903,141.40176198979623,257.2655880059572
242828.0,11945.0,242828.0,6093.0,242828.0,19020.0,650.9390082624587,140.333818320743,255.82880356857635
242828.0,11942.0,242828.0,6105.0,242828.0,19014.0,649.0982748387715,139.2751484496261,254.39394144722547
242828.0,11949.0,242828.0,6086.0,242828.0,19007.0,647.1576290509316,138.22825486528697,252.96584278609208
242828.0,11936.0,242828.0,6103.0,242828.0,19008.0,645.1234825079837,137.1958569251656,251.5494900809021
242838.0,11951.0,242838.0,6086.0,242838.0,18996.0,643.0022656286734,136.18089119154692,250.14989154146747
242838.0,11937.0,242838.0,6083.0,242838.0,19011.0,640.8004802006861,135.186454624359,248.7719670647018
242838.0,11937.0,242838.0,6091.0,242838.0,18999.0,638.5247467614987,134.21569863158064,247.42050244084703
242838.0,11936.0,242838.0,6096.0,242838.0,19009.0,636.1818000463148,133.27177304057736,246.1001675879263
242838.0,11936.0,242838.0,6086.0,242838.0,19004.0,633.7784727647119,132.35789274297363,244.81554604356876
242838.0,11938.0,242838.0,6085.0,242838.0,18999.0,631.3217362959198,131.47738120373901,243.57114520791248
242848.0,11923.0,242848.0,6065.0,242848.0,18990.0,628.8187576086107,130.63356323678533,242.3713386209323
242848.0,11908.0,242848.0,6064.0,242848.0,18998.0,626.276850758081,129.82952313123386,241.22023203511912
242848.0,11918.0,242848.0,6089.0,242848.0,19004.0,623.7032923757571,129.06787980270553,240.12158266198537
242848.0,11908.0,242848.0,6088.0,242848.0,19013.0,621.1051668625497,128.35081362340821,239.07888074140584
242848.0,11912.0,242848.0,6097.0,242848.0,19003.0,618.4893483109211,127.68033270390347,238.0955204583625
242848.0,11904.0,242848.0,6080.0,242848.0,19007.0,615.8625319089375,127.05849928098644,237.1748981957669
242859.0,11915.0,242859.0,6082.0,242859.0,18988.0,613.2312660359848,126.4874461522403,236.32036515929212
242859.0,11908.0,242859.0,6084.0,242859.0,18991.0,610.6020293558611,125.9692579676209,235.5350585502528
242859.0,11903.0,242859.0,6090.0,242859.0,19003.0,607.981328411098,125.50589944457948,234.82172248506566
242859.0,11903.0,242859.0,6087.0,242859.0,19016.0,605.3757325368287,125.09925722291123,234.18271081521522
242859.0,11889.0,242859.0,6087.0,242859.0,19015.0,602.7918377896292,124.75120018134405,233.62020818616702
242859.0,11894.0,242859.0,6079.0,242859.0,18989.0,600.2361961073331,124.46356911116516,233.13641426949255
242869.0,11891.0,242869.0,6060.0,242869.0,19006.0,597.7152560339705,124.23804914168457,232.73346646413717
242869.0,11887.0,242869.0,6076.0,242869.0,19002.0,595.2353633689476,124.07593093143575,232.41325075149888
242869.0,11880.0,242869.0,6092.0,242869.0,19007.0,592.8027749878006,123.97796092133365,232.17734955443206
242869.0,11879.0,242869.0,6102.0,242869.0,19007.0,590.423620871715,123.94449714699397,232.0270921375564
242869.0,11884.0,242869.0,6077.0,242869.0,19000.0,588.1038647376464,123.97580464013632,231.96357393310296
242869.0,11863.0,242869.0,6084.0,242869.0,18986.0,585.8493055703113,124.07212816011784,231.98757189619909
242879.0,11861.0,242879.0,6068.0,242879.0,19022.0,583.6655207026392,124.23350177201894,232.0993943064804
242879.0,11871.0,242879.0,6086.0,242879.0,19018.0,581.5577300220758,124.4595320400407,232.29889974348987
242879.0,11875.0,242879.0,6101.0,242879.0,19012.0,579.5307754010063,124.749357209213,232.58572165284272
242879.0,11871.0,242879.0,6109.0,242879.0,19017.0,577.5892799423041,125.10185726609168,232.95940102025423
242879.0,11848.0,242879.0,6089.0,242879.0,19012.0,575.7377642744075,125.51594086474316,233.4193381208138
242879.0,11846.0,242879.0,6088.0,242879.0,19011.0,573.980527493607,125.99060154697526,233.9647050188886
242890.0,11855.0,242890.0,6087.0,242890.0,19023.0,572.3214099850096,126.52472305446886,234.59437752747033
242890.0,11846.0,242890.0,6102.0,242890.0,19016.0,570.7636909507215,127.11690494502537,235.30692105837562
242890.0,11854.0,242890.0,6102.0,242890.0,19033.0,569.3101367132203,127.76548259062224,236.10063849517104
242890.0,11847.0,242890.0,6108.0,242890.0,19029.0,567.963066123533,128.46866874922517,236.97364977959705
242890.0,11846.0,242890.0,6098.0,242890.0,19022.0,566.7243864393195,129.22465688960213,237.92395672035326
242890.0,11846.0,242890.0,6088.0,242890.0,19027.0,565.595595550799,130.03157704560093,238.949406065402
242900.0,11843.0,242900.0,6091.0,242900.0,19029.0,564.5777687068703,130.8873002118831,240.04758328278024
242900.0,11845.0,242900.0,6109.0,242900.0,19025.0,563.671558025928,131.7892593124288,241.21574640174077
242900.0,11842.0,242900.0,6109.0,242900.0,19045.0,562.877202733668,132.73447906564735,242.4508121363047
242900.0,11856.0,242900.0,6116.0,242900.0,19039.0,562.1945683207415,133.71976018895083,243.7494085463893
242900.0,11840.0,242900.0,6116.0,242900.0,19051.0,561.6232328260252,134.74183387930995,245.10798826500724
242900.0,11828.0,242900.0,6095.0,242900.0,19041.0,561.1625109692347,135.7973854859142,246.52290728511394
242910.0,11849.0,242910.0,6113.0,242910.0,19044.0,560.8113372224361,136.88292117242906,247.9904066853594
242910.0,11845.0,242910.0,6137.0,242910.0,19052.0,560.5682021207886,137.99466385920323,249.50653384000924
242910.0,11861.0,242910.0,6138.0,242910.0,19059.0,560.4312956501481,139.1287396181106,251.0671165639131
242910.0,11833.0,242910.0,6132.0,242910.0,19061.0,560.3986918151015,140.28150893286525,252.66783889002096
242910.0,11828.0,242910.0,6119.0,242910.0,19057.0,560.4683275518273,141.44967463098016,254.3043174286172
242910.0,11827.0,242910.0,6123.0,242910.0,19057.0,560.6377497409517,142.63010791625067,255.97207726190476
242921.0,11840.0,242921.0,6125.0,242921.0,19072.0,560.9038833547767,143.81961926623055,257.66647406178834
242921.0,11858.0,242921.0,6144.0,242921.0,19078.0,561.2630656907176,145.01488274127772,259.3827082839516
242921.0,11836.0,242921.0,6138.0,242921.0,19072.0,561.7112860793217,146.21254618905328,261.11594373093214
242921.0,11848.0,242921.0,6135.0,242921.0,19067.0,562.2443498873636,147.4093696016326,262.86135052834777
242921.0,11847.0,242921.0,6134.0,242921.0,19077.0,562.8578718295896,148.60222174054823,264.6139977934417
242921.0,11830.0,242921.0,6132.0,242921.0,19073.0,563.5472282424689,149.78795941928067,266.3687357898964
242931.0,11839.0,242931.0,6154.0,242931.0,19097.0,564.3074664394596,150.96334537177006,268.120187129177
242931.0,11848.0,242931.0,6152.0,242931.0,19102.0,565.1331915363044,152.1251221849395,269.86287956481334
242931.0,11848.0,242931.0,6161.0,242931.0,19100.0,566.0185928052016,153.27020192485102,271.59146793552395
242931.0,11845.0,242931.0,6136.0,242931.0,19098.0,566.9575672346607,154.3957772834544,273.3008673451431
242931.0,11850.0,242931.0,6141.0,242931.0,19093.0,567.9437765614593,155.49920661383393,274.98619858891107
242931.0,11845.0,242931.0,6158.0,242931.0,19098.0,568.9706379717046,156.57779436895484,276.64263503488206
242941.0,11858.0,242941.0,6155.0,242941.0,19121.0,570.0313235535825,157.62874023300347,278.26531706471593
242941.0,11861.0,242941.0,6162.0,242941.0,19125.0,571.1188213314723,158.6492671519641,279.8494718434693
242941.0,11862.0,242941.0,6165.0,242941.0,19121.0,572.226064172796,159.6367381239572,281.3906576259329
242941.0,11865.0,242941.0,6156.0,242941.0,19115.0,573.3460498919612,160.58870112629012,282.8848757397399
242941.0,11859.0,242941.0,6154.0,242941.0,19107.0,574.4718900436127,161.5028440505482,284.32844920237034
242941.0,11860.0,242941.0,6166.0,242941.0,19121.0,575.5967876312038,162.37687793920074,285.71780369159217
242952.0,11863.0,242952.0,6184.0,242952.0,19122.0,576.7139783573434,163.20852668635223,287.04934526761
242952.0,11872.0,242952.0,6179.0,242952.0,19138.0,577.8167165850309,163.99572243837642,288.3195118654252
242952.0,11870.0,242952.0,6161.0,242952.0,19138.0,578.8983507506052,164.7367902286865,289.5249318907578
242952.0,11866.0,242952.0,6165.0,242952.0,19127.0,579.952409521074,165.43037097138333,290.66255444430266
242952.0,11851.0,242952.0,6154.0,242952.0,19137.0,580.9725693927508,166.0751617936358,291.7296359302057
242952.0,11871.0,242952.0,6171.0,242952.0,19135.0,581.952503941192,166.66970850455363,292.7236418352679
242962.0,11882.0,242962.0,6180.0,242962.0,19144.0,582.8858274183247,167.2123797630536,293.6422094759116
242962.0,11883.0,242962.0,6178.0,242962.0,19141.0,583.7662786090643,167.70151894474733,294.48317989036
242962.0,11868.0,242962.0,6168.0,242962.0,19135.0,584.5879448043294,168.13559162485433,295.24460788534645
242962.0,11855.0,242962.0,6172.0,242962.0,19143.0,585.3452387235928,168.51315671352458,295.9246976907895
242962.0,11864.0,242962.0,6169.0,242962.0,19135.0,586.0326447680641,168.8327361706576,296.5217108314966
242962.0,11867.0,242962.0,6190.0,242962.0,19147.0,586.6445079893123,169.09276143478823,297.0339090103718
242973.0,11890.0,242973.0,6191.0,242973.0,19160.0,587.1750683252974,169.2916876812984,297.4595765816344
242973.0,11864.0,242973.0,6192.0,242973.0,19154.0,587.6186694564726,169.42821120028688,297.7971570728732
242973.0,11879.0,242973.0,6195.0,242973.0,19160.0,587.9698955728866,169.5014300679044,298.04540464762835
242973.0,11871.0,242973.0,6176.0,242973.0,19145.0,588.2235512373159,169.5108651788002,298.2034109208762
242973.0,11868.0,242973.0,6175.0,242973.0,19143.0,588.3746099893181,169.4563254787869,298.27048490633445
242973.0,11872.0,242973.0,6197.0,242973.0,19163.0,588.4181743565456,169.33771657672318,298.2459893357559
242983.0,11890.0,242983.0,6197.0,242983.0,19167.0,588.3494818392586,169.15503761283736,298.12933776895386
242983.0,11884.0,242983.0,6184.0,242983.0,19162.0,588.1640582111371,168.90855626792606,297.92017679961737
242983.0,11878.0,242983.0,6192.0,242983.0,19151.0,587.8579171024504,168.59887859197147,297.6184963622959
242983.0,11869.0,242983.0,6169.0,242983.0,19145.0,587.4275935177812,168.22683876518894,297.2245103012422
242983.0,11872.0,242983.0,6174.0,242983.0,19169.0,586.8700154636806,167.79330186380884,296.738463028178
242983.0,11862.0,242983.0,6203.0,242983.0,19165.0,586.1823655776329,167.29901114729313,296.16061927531723
242993.0,11878.0,242993.0,6185.0,242993.0,19165.0,585.3620158312406,166.74466804565003,295.4914308644964
242993.0,11869.0,242993.0,6186.0,242993.0,19159.0,584.4065596836358,166.1311274464702,294.7316396601493
242993.0,11856.0,242993.0,6169.0,242993.0,19149.0,583.3138729630896,165.45939255786578,293.88220943329117
242993.0,11855.0,242993.0,6182.0,242993.0,19157.0,582.0820517752613,164.73042550911484,292.94416756129067
242993.0,11866.0,242993.0,6184.0,242993.0,19163.0,580.7092780996777,163.94502055113284,291.91850224123687
242993.0,11859.0,242993.0,6200.0,242993.0,19163.0,579.1938134840765,163.10387541556287,290.80620827523876
243003.0,11869.0,243003.0,6198.0,243003.0,19174.0,577.5341208947793,162.20781426015523,289.6084227070968
243003.0,11884.0,243003.0,6187.0,243003.0,19154.0,575.7290419231826,161.25799015919728,288.3265369482829
243003.0,11849.0,243003.0,6182.0,243003.0,19142.0,573.7780030862943,160.25590116507436,286.9621578608181
243003.0,11845.0,243003.0,6169.0,243003.0,19158.0,571.6810468604649,159.20321383196787,285.51689346779426
243003.0,11841.0,243003.0,6179.0,243003.0,19164.0,569.4385862802944,158.10153379127513,283.9922162055022
243003.0,11853.0,243003.0,6193.0,243003.0,19156.0,567.0511785650287,156.95230546150998,282.38956151567345
243013.0,11837.0,243013.0,6182.0,243013.0,19157.0,564.5195262031248,155.75692179011367,280.7104553104009
243013.0,11833.0,243013.0,6187.0,243013.0,19151.0,561.8445375085422,154.51688410576924,278.95650836450613
243013.0,11839.0,243013.0,6163.0,243013.0,19146.0,559.0272988936051,153.23380966287283,277.1293342491505
243013.0,11824.0,243013.0,6166.0,243013.0,19153.0,556.0690418002368,151.90926052092647,275.2304615850661
243013.0,11826.0,243013.0,6189.0,243013.0,19157.0,552.9711406804115,150.5445596526141,273.2613134173696
243013.0,11822.0,243013.0,6182.0,243013.0,19169.0,549.7350913922858,149.14083505326943,271.22332044442555
243023.0,11826.0,243023.0,6186.0,243023.0,19152.0,546.3625185355525,147.69924728639182,269.1181053176143
243023.0,11807.0,243023.0,6171.0,243023.0,19152.0,542.8552278658188,146.22112115354582,266.9475659472481
243023.0,11801.0,243023.0,6155.0,243023.0,19140.0,539.2151863586193,144.7078539552628,264.71378085955257
243023.0,11804.0,243023.0,6178.0,243023.0,19143.0,535.4444035554045,143.1606933915188,262.41883772928134
243023.0,11803.0,243023.0,6175.0,243023.0,19154.0,531.5448699536853,141.58063599894425,260.06473477698216
243023.0,11789.0,243023.0,6181.0,243023.0,19158.0,527.5186090395558,139.96856143670433,257.65345412569303
243034.0,11791.0,243034.0,6177.0,243034.0,19132.0,523.3677113553,138.3254184292149,255.1871139602771
243034.0,11777.0,243034.0,6163.0,243034.0,19139.0,519.0942979183028,136.65228829529315,252.66795657760352
243034.0,11772.0,243034.0,6163.0,243034.0,19129.0,514.7004574442475,134.95029567604752,250.0981661876184
243034.0,11775.0,243034.0,6157.0,243034.0,19135.0,510.1881856373688,133.22043725709955,247.4797268598931
243034.0,11775.0,243034.0,6168.0,243034.0,19147.0,505.55939933295497,131.46346606292573,244.81442375564708
243034.0,11766.0,243034.0,6174.0,243034.0,19144.0,500.8160497102053,129.67992438280842,242.10398758015975
243044.0,11766.0,243044.0,6173.0,243044.0,19129.0,495.96023130119613,127.87030911341162,239.3502627962447
243044.0,11739.0,243044.0,6155.0,243044.0,19126.0,490.9941956627777,126.03521164845117,236.55520324017527
243044.0,11748.0,243044.0,6146.0,243044.0,19123.0,485.92025345223504,124.17524813963237,233.72071126920667
243044.0,11743.0,243044.0,6170.0,243044.0,19128.0,480.7406700663099,122.29085701110228,230.84851263120112
243044.0,11738.0,243044.0,6180.0,243044.0,19139.0,475.4576883333241,120.38229357391111,227.9401823470621
243044.0,11740.0,243044.0,6179.0,243044.0,19118.0,470.07363568524556,118.44992898216782,224.99727702750405
243054.0,11720.0,243054.0,6164.0,243054.0,19120.0,464.59100645369665,116.49454793811327,222.0213934606028
243054.0,11718.0,243054.0,6151.0,243054.0,19114.0,459.0124625478653,114.51735776289341,219.01407449357148
243054.0,11713.0,243054.0,6153.0,243054.0,19106.0,453.3407665977239,112.51975737589004,215.97667953263678
243054.0,11706.0,243054.0,6161.0,243054.0,19118.0,447.5787446134921,110.503129228152,212.91030460778714
243054.0,11708.0,243054.0,6165.0,243054.0,19113.0,441.7293185447837,108.46884235191948,209.8157883856215
243054.0,11695.0,243054.0,6169.0,243054.0,19132.0,435.79557221900177,106.41842195944011,206.69384052046013
243065.0,11680.0,243065.0,6147.0,243065.0,19109.0,429.78078175555,104.35369733905841,203.5452316026086
243065.0,11668.0,243065.0,6142.0,243065.0,19105.0,423.68832535816915,102.27675395781763,200.3708767094552
243065.0,11669.0,243065.0,6144.0,243065.0,19112.0,417.52151892411445,100.18971399598843,197.17174575003298
243065.0,11659.0,243065.0,6148.0,243065.0,19107.0,411.28352711560336,98.09457392752573,193.94877865995423
243065.0,11663.0,243065.0,6153.0,243065.0,19111.0,404.97739430720435,95.99323062050783,190.70292481418375
243065.0,11645.0,243065.0,6144.0,243065.0,19095.0,398.6061244746699,93.88760280161556,187.4351973458279
243075.0,11632.0,243075.0,6130.0,243075.0,19090.0,392.1727026671103,91.77967175850928,184.14662293984424
243075.0,11621.0,243075.0,6126.0,243075.0,19081.0,385.67998713335254,89.67134407900828,180.83807897400047
243075.0,11630.0,243075.0,6148.0,243075.0,19088.0,379.13057116705045,87.56427600010264,177.51012118439138
243075.0,11620.0,243075.0,6135.0,243075.0,19109.0,372.52679064041814,85.45989000951911,174.1629697963673
243075.0,11627.0,243075.0,6133.0,243075.0,19104.0,365.87088321159484,83.3595168631676,170.79674112141018
243075.0,11606.0,243075.0,6134.0,243075.0,19091.0,359.1651655610076,81.26443833845639,167.4117444985381
243085.0,11593.0,243085.0,6107.0,243085.0,19081.0,352.41209501487884,79.17580032358201,164.00855113367592
243085.0,11587.0,243085.0,6115.0,243085.0,19083.0,345.61417095636625,77.09442453393372,160.58783280128245
243085.0,11582.0,243085.0,6124.0,243085.0,19076.0,338.7738014138785,75.02061191134791,157.15019906977344
243085.0,11579.0,243085.0,6134.0,243085.0,19092.0,331.8932764048846,72.95416028954514,153.69616254772927
243085.0,11565.0,243085.0,6130.0,243085.0,19090.0,324.97482164747146,70.89460036253924,150.2262483202156
243085.0,11546.0,243085.0,6132.0,243085.0,19067.0,318.0206010217003,68.84142127965994,146.74114637091478
243096.0,11552.0,243096.0,6120.0,243096.0,19057.0,311.0326150902478,66.79415636113444,143.24167019603163
243096.0,11542.0,243096.0,6115.0,243096.0,19055.0,304.0126251247631,64.75233097246178,139.72848313714778
243096.0,11535.0,243096.0,6126.0,243096.0,19061.0,296.9621956624967,62.715349473671694,136.20185751507998
243096.0,11531.0,243096.0,6132.0,243096.0,19070.0,289.8827664903762,60.68248517999837,132.6616648691846
243096.0,11526.0,243096.0,6134.0,243096.0,19065.0,282.77570543358684,58.65304418244243,129.10755074709536
243096.0,11518.0,243096.0,6121.0,243096.0,19057.0,275.6423763018788,56.6265492470033,125.53910786460648
243106.0,11509.0,243106.0,6099.0,243106.0,19058.0,268.48419968526116,54.60272727522242,121.95591407884218
243106.0,11491.0,243106.0,6121.0,243106.0,19070.0,261.3026498879282,52.58128819882047,118.35752220547583
243106.0,11488.0,243106.0,6104.0,243106.0,19069.0,254.09917176260242,50.56174221205084,114.74356966015117
243106.0,11488.0,243106.0,6119.0,243106.0,19062.0,246.87510239214288,48.54339701270869,111.11397150911208
243106.0,11481.0,243106.0,6115.0,243106.0,19050.0,239.63171089790694,46.52543995300511,107.46900468471878
243106.0,11466.0,243106.0,6108.0,243106.0,19046.0,232.3703057361405,44.507022148932506,103.80921253656743
243116.0,11445.0,243116.0,6116.0,243116.0,19043.0,225.092235398651,42.487298027247164,100.13524101338784
243116.0,11440.0,243116.0,6107.0,243116.0,19048.0,217.79872580935213,40.46542640739754,96.44774407149771
243116.0,11451.0,243116.0,6113.0,243116.0,19040.0,210.49072841182314,38.440583737677485,92.74739471601421
243116.0,11427.0,243116.0,6100.0,243116.0,19036.0,203.1689569941219,36.41196927496907,89.03492070421656
243116.0,11429.0,243116.0,6116.0,243116.0,19047.0,195.83400596079383,34.378790091782065,85.3111122712643
243116.0,11419.0,243116.0,6100.0,243116.0,19029.0,188.48639217582445,32.3402724812782,81.57685244612395
243127.0,11414.0,243127.0,6097.0,243127.0,19029.0,181.1265749941449,30.295669429581586,77.83313755120079
243127.0,11405.0,243127.0,6120.0,243127.0,19028.0,173.75500303115047,28.244233824094707,74.0810190497131
243127.0,11401.0,243127.0,6093.0,243127.0,19030.0,166.3721552728938,26.18525860695575,70.32155777507377
243127.0,11388.0,243127.0,6110.0,243127.0,19020.0,158.97857246190853,24.1181575883678,66.5558532425413
243127.0,11383.0,243127.0,6092.0,243127.0,19011.0,151.57487064541857,22.04246147114395,62.785042774709325
243127.0,11367.0,243127.0,6086.0,243127.0,19009.0,144.16172067610376,19.957737199635858,59.01019957444031
243137.0,11363.0,243137.0,6095.0,243137.0,19011.0,136.7397976907717,17.86346505187167,55.23221672818076
243137.0,11352.0,243137.0,6094.0,243137.0,19022.0,129.3097268516666,15.758968604282316,51.451810670043045
243137.0,11362.0,243137.0,6112.0,243137.0,19022.0,121.87208806182645,13.643510913713598,47.669682526912084
243137.0,11351.0,243137.0,6110.0,243137.0,18999.0,114.42753831898733,11.51652860455465,43.88669970580436
243137.0,11333.0,243137.0,6090.0,243137.0,18999.0,106.97697276046108,9.377848055233272,40.103885207779214
243137.0,11315.0,243137.0,6089.0,243137.0,19000.0,99.52153009700555,7.2276853752293135,36.3222449949412
243147.0,11323.0,243147.0,6084.0,243147.0,18994.0,92.06243835674377,5.066450414590193,32.542660033790156
243147.0,11303.0,243147.0,6101.0,243147.0,18994.0,84.60091541481734,2.8946077643791597,28.765885480705208
243147.0,11304.0,243147.0,6086.0,243147.0,19006.0,77.13818700284725,0.7127202059531044,24.992592221366678
243147.0,11306.0,243147.0,6087.0,243147.0,18998.0,69.67554727900449,-1.478460995451556,21.223483117081855
243147.0,11289.0,243147.0,6070.0,243147.0,18978.0,62.214470010254615,-3.6780309879725337,17.459402985151954
243147.0,11268.0,243147.0,6072.0,243147.0,18987.0,54.75668330133851,-5.885093469341797,13.701276343849273
243158.0,11265.0,243158.0,6080.0,243158.0,18984.0,47.30406818344761,-8.098910453896536,9.94997205595557
243158.0,11248.0,243158.0,6079.0,243158.0,18987.0,39.858474096172245,-10.318904109521426,6.20629721230884
243158.0,11247.0,243158.0,6086.0,243158.0,18975.0,32.42160095622813,-12.544524854983806,2.471073680961382
243158.0,11249.0,243158.0,6084.0,243158.0,18971.0,24.994984179152425,-14.775095019165306,-1.254856508064762
243158.0,11229.0,243158.0,6069.0,243158.0,18960.0,17.580076525484458,-17.009715102410027,-4.9707333969503225
243158.0,11219.0,243158.0,6065.0,243158.0,18974.0,10.178309343088927,-19.247315635962252,-8.675999936973824
243168.0,11209.0,243168.0,6072.0,243168.0,18970.0,2.791023875003816,-21.486812170702464,-12.370307887605009
243168.0,11212.0,243168.0,6068.0,243168.0,18965.0,-4.580622182332718,-23.727183318330134,-16.053408796888533
243168.0,11200.0,243168.0,6069.0,243168.0,18974.0,-11.935637326889037,-25.967431405488583,-19.725055546872966
243168.0,11194.0,243168.0,6070.0,243168.0,18951.0,-19.27311064290234,-28.20652493663873,-23.384963043868936
243168.0,11170.0,243168.0,6058.0,243168.0,18944.0,-26.59219153731226,-30.44337349218881,-27.032870561076138
243168.0,11181.0,243168.0,6049.0,243168.0,18952.0,-33.89216723234961,-32.67688366521706,-30.668721932575906
243178.0,11164.0,243178.0,6066.0,243178.0,18956.0,-41.17251459725986,-34.906085953332436,-34.292769329882745
243178.0,11166.0,243178.0,6064.0,243178.0,18945.0,-48.43284944317895,-37.13015860121979,-37.90549336611252
243178.0,11152.0,243178.0,6061.0,243178.0,18948.0,-55.67284817852021,-39.34829378551403,-41.50751153682512
243178.0,11141.0,243178.0,6050.0,243178.0,18938.0,-62.892218741851025,-41.55960247069113,-45.09958426457413
243178.0,11128.0,243178.0,6045.0,243178.0,18953.0,-70.09074915758549,-43.76318545761863,-48.68263555644377
243178.0,11115.0,243178.0,6050.0,243178.0,18948.0,-77.26842765459884,-45.95827958641587,-52.25768706558017
243189.0,11129.0,243189.0,6049.0,243189.0,18949.0,-84.42554126487823,-48.14432936696434,-55.8257156475907
243189.0,11122.0,243189.0,6052.0,243189.0,18950.0,-91.5626092205913,-50.32094561093565,-59.38752949615498
243189.0,11100.0,243189.0,6037.0,243189.0,18938.0,-98.68019364162427,-52.48784822237721,-62.9437093746522
243189.0,11094.0,243189.0,6050.0,243189.0,18944.0,-105.77883641794733,-54.644878156572645,-66.49461087229872
243189.0,11087.0,243189.0,6046.0,243189.0,18923.0,-112.85916679354904,-56.79201582189917,-70.04042159593209
243189.0,11095.0,243189.0,6047.0,243189.0,18921.0,-119.9219570278438,-58.92932498203348,-73.58128542847965
243199.0,11077.0,243199.0,6040.0,243199.0,18928.0,-126.96802290692676,-61.05688894291231,-77.1174634915059
243199.0,11075.0,243199.0,6050.0,243199.0,18923.0,-133.99809657706356,-63.174797711419146,-80.64939824138457
243199.0,11060.0,243199.0,6042.0,243199.0,18917.0,-141.01279310079678,-65.28312541286415,-84.17766854847298
243199.0,11051.0,243199.0,6024.0,243199.0,18915.0,-148.0126565490503,-67.38192224976194,-87.70297942975142
243199.0,11050.0,243199.0,6029.0,243199.0,18915.0,-154.99822287627177,-69.47133837507182,-91.2262066545448
243199.0,11037.0,243199.0,6039.0,243199.0,18925.0,-161.97004289875247,-71.55178456281675,-94.7483889445864
243210.0,11044.0,243210.0,6053.0,243210.0,18918.0,-168.92864310015364,-73.62388277744489,-98.27061917247835
243210.0,11028.0,243210.0,6033.0,243210.0,18912.0,-175.87444043912967,-75.68822686707742,-101.79392559438872
243210.0,11013.0,243210.0,6031.0,243210.0,18922.0,-182.80767995173903,-77.7452468019764,-105.31923415129577
243210.0,10999.0,243210.0,6017.0,243210.0,18908.0,-189.72850441860078,-79.79532214843206,-108.84735514357908
243210.0,11002.0,243210.0,6031.0,243210.0,18893.0,-196.6371156161144,-81.83898489038174,-112.37899829754062
243210.0,10998.0,243210.0,6018.0,243210.0,18907.0,-203.5338389425046,-83.87701933193546,-115.91489714680523
243220.0,10992.0,243220.0,6045.0,243220.0,18916.0,-210.41903272618237,-85.91042061223644,-119.45588283194508
243220.0,10970.0,243220.0,6048.0,243220.0,18910.0,-217.29299196378844,-87.94020371368379,-123.00273325610252
243220.0,10973.0,243220.0,6034.0,243220.0,18905.0,-224.15597802101337,-89.96711757497783,-126.55596958798759
243220.0,10968.0,243220.0,6020.0,243220.0,18890.0,-231.00828726929245,-91.99151926795832,-130.11582876981447
243220.0,10959.0,243220.0,6019.0,243220.0,18895.0,-237.85022306308787,-94.0135417809937,-133.68239582533676
243220.0,10950.0,243220.0,6022.0,243220.0,18892.0,-244.68202771467242,-96.03333481160269,-137.25573406281384
243230.0,10940.0,243230.0,6029.0,243230.0,18894.0,-251.50387969263193,-98.0511417873353,-140.83590591293742
243230.0,10939.0,243230.0,6024.0,243230.0,18874.0,-258.3159297304853,-100.0672151331296,-144.4229532062395
243230.0,10928.0,243230.0,6007.0,243230.0,18892.0,-265.1183050117894,-102.08174584137473,-148.01694212189594
243230.0,10923.0,243230.0,6030.0,243230.0,18860.0,-271.91108142911787,-104.09491459446008,-151.61804447506157
243230.0,10911.0,243230.0,5998.0,243230.0,18885.0,-278.6942724844148,-106.10696527191513,-155.22661486620265
243230.0,10905.0,243230.0,6016.0,243230.0,18877.0,-285.4678530441008,-108.11825833786523,-158.84321714148692
243241.0,10892.0,243241.0,6018.0,243241.0,18882.0,-292.23180580815983,-110.12932029019694,-162.46852729998676
243241.0,10894.0,243241.0,6023.0,243241.0,18876.0,-298.9861662111132,-112.1407738084437,-166.10319378021327
243241.0,10883.0,243241.0,6011.0,243241.0,18860.0,-305.7310232592122,-114.15317894051483,-169.74780081386592
243241.0,10880.0,243241.0,5999.0,243241.0,18874.0,-312.46647225748677,-116.16700387118817,-173.40294696977446
243241.0,10861.0,243241.0,6014.0,243241.0,18865.0,-319.192586209056,-118.18275561077107,-177.06931137533445
243241.0,10865.0,243241.0,6027.0,243241.0,18872.0,-325.90944838396183,-120.20102774275259,-180.74761248200838
243251.0,10876.0,243251.0,6013.0,243251.0,18881.0,-332.6171408243596,-122.2223255782657,-184.4384897101398
243251.0,10851.0,243251.0,6006.0,243251.0,18867.0,-339.31558355307436,-124.24690142732692,-188.14234640287515
243251.0,10836.0,243251.0,5994.0,243251.0,18854.0,-346.0044066210386,-126.27483269955744,-191.85926942321248
243251.0,10825.0,243251.0,5988.0,243251.0,18849.0,-352.68306748916564,-128.3062659246986,-195.5891549003387
243251.0,10828.0,243251.0,6000.0,243251.0,18860.0,-359.3510640029298,-130.34163443515232,-199.33190655686045
243251.0,10818.0,243251.0,6026.0,243251.0,18859.0,-366.0080041788085,-132.38165542722123,-203.08746984478464
243261.0,10819.0,243261.0,6010.0,243261.0,18844.0,-372.65353686731476,-134.4270416290506,-206.85573022552958
243261.0,10793.0,243261.0,5994.0,243261.0,18847.0,-379.28728496765916,-136.47822504154774,-210.63648808712702
243261.0,10778.0,243261.0,5990.0,243261.0,18831.0,-385.90891882046867,-138.53541652667278,-214.42956089622982
243261.0,10781.0,243261.0,5980.0,243261.0,18832.0,-392.51836979155905,-140.59889194863646,-218.23492354762814
243261.0,10776.0,243261.0,6011.0,243261.0,18837.0,-399.1159776383158,-142.66918308812896,-222.0528160862015
243261.0,10789.0,243261.0,6012.0,243261.0,18850.0,-405.70241381166636,-144.74697297140085,-225.88371356864243
243272.0,10774.0,243272.0,6001.0,243272.0,18843.0,-412.2784454443404,-146.83278464202832,-229.7281236555666
243272.0,10768.0,243272.0,5983.0,243272.0,18832.0,-418.84471809541003,-148.9268256016143,-233.586390008628
243272.0,10748.0,243272.0,5982.0,243272.0,18816.0,-425.40170496203336,-151.02915992020073,-237.45870789794645
243272.0,10737.0,243272.0,5984.0,243272.0,18827.0,-431.94983265881046,-153.13997932882262,-241.34531963001592
243272.0,10744.0,243272.0,6004.0,243272.0,18830.0,-438.48965200853536,-155.2596879459779,-245.24664087192963
243272.0,10738.0,243272.0,5994.0,243272.0,18830.0,-445.02187574380366,-157.38874194342662,-249.1631782272761
243282.0,10724.0,243282.0,5982.0,243282.0,18819.0,-451.5472750080419,-159.5274586537902,-253.0953817352806
243282.0,10711.0,243282.0,5967.0,243282.0,18818.0,-458.0666329593755,-161.6760602137482,-257.0436123895681
243282.0,10708.0,243282.0,5986.0,243282.0,18817.0,-464.5808364030163,-163.8349031633777,-261.0082024024665
243282.0,10705.0,243282.0,5962.0,243282.0,18815.0,-471.0909657916277,-166.00463293334118,-264.98949082824265
243282.0,10706.0,243282.0,5997.0,243282.0,18817.0,-477.5982641667705,-168.18618225810917,-268.98780013155385
243282.0,10697.0,243282.0,5985.0,243282.0,18813.0,-484.10401131684546,-170.38063980283118,-273.00338404690933
243292.0,10695.0,243292.0,5993.0,243292.0,18797.0,-490.6093962053925,-172.58902135537775,-277.03640743129336
243292.0,10671.0,243292.0,5964.0,243292.0,18792.0,-497.1154665564984,-174.81213378044347,-281.08704309828477
243292.0,10670.0,243292.0,5955.0,243292.0,18800.0,-503.62319805912296,-177.05071586234195,-285.15563908226795
243292.0,10656.0,243292.0,5996.0,243292.0,18811.0,-510.1336345880188,-179.30569815956164,-289.242749907403
243292.0,10664.0,243292.0,5987.0,243292.0,18790.0,-516.6479739394487,-181.57817507886207,-293.3489853049627
243292.0,10653.0,243292.0,5988.0,243292.0,18804.0,-523.1675302421845,-183.86906687882046,-297.4748827819738
243303.0,10641.0,243303.0,5972.0,243303.0,18789.0,-529.693643836829,-186.17889655083104,-301.620893067009
243303.0,10638.0,243303.0,5964.0,243303.0,18782.0,-536.2276600060941,-188.50786975605843,-305.7874116344093
243303.0,10622.0,243303.0,5960.0,243303.0,18788.0,-542.7709825856474,-190.85610804634004,-309.9748522449112
243303.0,10632.0,243303.0,5964.0,243303.0,18786.0,-549.3251174170338,-193.2238532255808,-314.1836977308544
243303.0,10617.0,243303.0,5967.0,243303.0,18777.0,-555.8916428632351,-195.61152951722434,-318.41446527747337
243303.0,10617.0,243303.0,5976.0,243303.0,18780.0,-562.4721235295912,-198.01965543444544,-322.667679276039
243313.0,10589.0,243313.0,5949.0,243313.0,18773.0,-569.0680784455219,-200.44871866831588,-326.94389018356446
243313.0,10592.0,243313.0,5946.0,243313.0,18758.0,-575.6810805590349,-202.89921230236982,-331.24371711139815
243313.0,10589.0,243313.0,5971.0,243313.0,18770.0,-582.3128863093664,-205.37181007664014,-335.5679384092875
243313.0,10581.0,243313.0,5962.0,243313.0,18766.0,-588.9654434483758,-207.86737105597055,-339.91754927562545
243313.0,10583.0,243313.0,5970.0,243313.0,18758.0,-595.6407972920031,-210.3867230883137,-344.2937135149547
243313.0,10577.0,243313.0,5962.0,243313.0,18766.0,-602.3409783133407,-212.9304779918085,-348.6977065494977
243323.0,10562.0,243323.0,5954.0,243323.0,18761.0,-609.0679033934666,-215.49898772695965,-353.13087798014413
243323.0,10548.0,243323.0,5941.0,243323.0,18750.0,-615.8233736388747,-218.09243546388566,-357.594601277478
243323.0,10550.0,243323.0,5958.0,243323.0,18748.0,-622.6091848943679,-220.71100082079835,-362.0902894846907
243323.0,10541.0,243323.0,5957.0,243323.0,18767.0,-629.4272072094342,-223.3549110608522,-366.619440461428
243323.0,10546.0,243323.0,5946.0,243323.0,18752.0,-636.2793401095483,-226.02433371936465,-371.1835456787201
243323.0,10533.0,243323.0,5948.0,243323.0,18745.0,-643.1673921824544,-228.7193089788414,-375.78394144278536
243334.0,10530.0,243334.0,5939.0,243334.0,18750.0,-650.0929719402686,-231.43980475940856,-380.42179475395477
243334.0,10507.0,243334.0,5926.0,243334.0,18740.0,-657.0574647785879,-234.1858277403457,-385.0981569757208
243334.0,10505.0,243334.0,5936.0,243334.0,18736.0,-664.0621243137841,-236.95756805131558,-389.81398409045846
243334.0,10500.0,243334.0,5955.0,243334.0,18743.0,-671.1081971049891,-239.75545013748294,-394.5701538631962
243334.0,10488.0,243334.0,5945.0,243334.0,18735.0,-678.1969714390835,-242.57994408498868,-399.3674475031975
243334.0,10484.0,243334.0,5936.0,243334.0,18729.0,-685.3297723992165,-245.43132155310585,-404.20649579553685
243344.0,10468.0,243344.0,5924.0,243344.0,18725.0,-692.5079821004917,-248.30964164404762,-409.08778479238447
243344.0,10469.0,243344.0,5913.0,243344.0,18706.0,-699.7330870741426,-251.21496265444645,-414.0117493756548
243344.0,10464.0,243344.0,5933.0,243344.0,18723.0,-707.0066940680879,-254.1475692380527,-418.97890408123374
243344.0,10464.0,243344.0,5942.0,243344.0,18729.0,-714.3304575525406,-257.10798022449507,-423.98986546218515
243344.0,10453.0,243344.0,5929.0,243344.0,18709.0,-721.7059472123859,-260.0967107765968,-429.04519514432496
243344.0,10436.0,243344.0,5925.0,243344.0,18708.0,-729.1345687030295,-263.1140742154567,-434.1452861643419
243354.0,10418.0,243354.0,5905.0,243354.0,18707.0,-736.6176388059431,-266.1602359886184,-439.2904261385263
243354.0,10413.0,243354.0,5923.0,243354.0,18695.0,-744.1565926771187,-269.2354104902844,-444.4808834469746
243354.0,10428.0,243354.0,5932.0,243354.0,18718.0,-751.7531268437658,-272.3399335961276,-449.71690916638255
243354.0,10415.0,243354.0,5940.0,243354.0,18685.0,-759.4090977914545,-275.47405912675936,-454.99866283748497
243354.0,10401.0,243354.0,5925.0,243354.0,18689.0,-767.1263015585057,-278.6376431521583,-460.3261794350564
243354.0,10404.0,243354.0,5903.0,243354.0,18684.0,-774.9063771259897,-281.8300358789546,-465.69947264981744
243365.0,10385.0,243365.0,5888.0,243365.0,18676.0,-782.7508133101292,-285.0503207624099,-471.1186490098493
243365.0,10391.0,243365.0,5921.0,243365.0,18705.0,-790.6609397058302,-288.29767218163965,-476.5838932035636
243365.0,10382.0,243365.0,5921.0,243365.0,18692.0,-798.6378753255092,-291.5714087478391,-482.0952719846921
243365.0,10370.0,243365.0,5922.0,243365.0,18684.0,-806.6824429861465,-294.87068560753346,-487.65245986523087
243365.0,10376.0,243365.0,5903.0,243365.0,18680.0,-814.7950939314138,-298.19421634245396,-493.25463146655886
243365.0,10357.0,243365.0,5897.0,243365.0,18688.0,-822.9758426638067,-301.5402875791352,-498.90050030380905
243375.0,10350.0,243375.0,5905.0,243375.0,18673.0,-831.2242139970174,-304.90694087986947,-504.5883016591416
243375.0,10344.0,243375.0,5908.0,243375.0,18676.0,-839.5392529217801,-308.29205281475606,-510.3157357751778
243375.0,10325.0,243375.0,5902.0,243375.0,18683.0,-847.9195709923188,-311.6932383997532,-516.0799301138609
243375.0,10340.0,243375.0,5925.0,243375.0,18666.0,-856.3633685526285,-315.1076892744485,-521.8773600444702
243375.0,10330.0,243375.0,5897.0,243375.0,18662.0,-864.8683559464275,-318.53200133914464,-527.7037887658885
243375.0,10297.0,243375.0,5889.0,243375.0,18659.0,-873.4316122207565,-321.96210527208086,-533.5543216919303
243385.0,10291.0,243385.0,5889.0,243385.0,18655.0,-882.0496282913741,-325.39342146004844,-539.4234823454167
243385.0,10295.0,243385.0,5885.0,243385.0,18642.0,-890.7185225215394,-328.82106948028695,-545.3052451593437
243385.0,10296.0,243385.0,5892.0,243385.0,18655.0,-899.4340888420236,-332.239931931573,-551.1930658356081
243385.0,10303.0,243385.0,5882.0,243385.0,18646.0,-908.1915621860081,-335.6446071741462,-557.0798608866619
243385.0,10281.0,243385.0,5887.0,243385.0,18632.0,-916.9852936304399,-339.0293523297231,-562.9579345481434
243385.0,10257.0,243385.0,5869.0,243385.0,18635.0,-925.8085944371774,-342.3880774281687,-568.8189868569648
243396.0,10249.0,243396.0,5880.0,243396.0,18643.0,-934.6538726249477,-345.71440100500286,-574.6541606457463
243396.0,10241.0,243396.0,5889.0,243396.0,18630.0,-943.5128862239533,-349.00166818414993,-580.4539698720661
243396.0,10255.0,243396.0,5890.0,243396.0,18623.0,-952.3768321596953,-352.24280598226744,-586.2081986129972
243396.0,10242.0,243396.0,5882.0,243396.0,18638.0,-961.2361860354749,-355.4300990238594,-591.9058884078454
243396.0,10218.0,243396.0,5870.0,243396.0,18611.0,-970.0804833288131,-358.55510243563515,-597.5353211892264
243396.0,10211.0,243396.0,5858.0,243396.0,18609.0,-978.898305394655,-361.6087670478877,-603.0840204175418
243406.0,10208.0,243406.0,5858.0,243406.0,18602.0,-987.6774281160531,-364.5816800360775,-608.5388821014733
243406.0,10204.0,243406.0,5867.0,243406.0,18601.0,-996.4048785823876,-367.46424320531327,-613.8863288492162
243406.0,10202.0,243406.0,5871.0,243406.0,18616.0,-1005.0668334072092,-370.2466536310038,-619.1123295228018
243406.0,10174.0,243406.0,5870.0,243406.0,18589.0,-1013.648500765824,-372.9187314877087,-624.2022950525145
243406.0,10162.0,243406.0,5832.0,243406.0,18599.0,-1022.1341586162082,-375.4698301353992,-629.1410107392546
243406.0,10164.0,243406.0,5855.0,243406.0,18585.0,-1030.507339462196,-377.8890089032492,-633.912690513032
243416.0,10159.0,243416.0,5864.0,243416.0,18587.0,-1038.750931462013,-380.1652442812039,-638.5010565007165
243416.0,10152.0,243416.0,5869.0,243416.0,18591.0,-1046.847097251336,-382.28733584000486,-642.8893675113852
243416.0,10151.0,243416.0,5856.0,243416.0,18567.0,-1054.7771405522894,-384.2436367545031,-647.060419225666
243416.0,10144.0,243416.0,5844.0,243416.0,18582.0,-1062.5213940004237,-386.0219715395232,-650.9965935309523
243416.0,10128.0,243416.0,5833.0,243416.0,18570.0,-1070.0591368905984,-387.60982839532744,-654.6799454155538
243416.0,10104.0,243416.0,5840.0,243416.0,18565.0,-1077.3686365691483,-388.9946545382978,-658.0922510891326
243427.0,10108.0,243427.0,5851.0,243427.0,18570.0,-1084.4273505680694,-390.1640201669236,-661.215056359041
243427.0,10120.0,243427.0,5849.0,243427.0,18569.0,-1091.212075667892,-391.1055543283909,-664.0297197796866
243427.0,10097.0,243427.0,5851.0,243427.0,18574.0,-1097.6988543872944,-391.8067886766582,-666.5173783173345
243427.0,10085.0,243427.0,5830.0,243427.0,18538.0,-1103.862844045046,-392.25511189469614,-668.6589352948216
243427.0,10078.0,243427.0,5819.0,243427.0,18550.0,-1109.6784001098958,-392.43794648822177,-670.4352493119559
243427.0,10063.0,243427.0,5813.0,243427.0,18547.0,-1115.1192795259885,-392.3431159763827,-671.827437736385
243437.0,10068.0,243437.0,5824.0,243437.0,18554.0,-1120.158800919396,-391.95920253321924,-672.8170302734419
243437.0,10071.0,243437.0,5840.0,243437.0,18546.0,-1124.7698937254343,-391.27567083650086,-673.3859610804716
243437.0,10049.0,243437.0,5850.0,243437.0,18535.0,-1128.9250391220262,-390.28270587446235,-673.5166044165333
243437.0,10027.0,243437.0,5814.0,243437.0,18533.0,-1132.5963060152226,-388.9709937317944,-673.1919616667743
243437.0,10020.0,243437.0,5817.0,243437.0,18532.0,-1135.7556509330439,-387.331803870823,-672.3959254308444
243437.0,10033.0,243437.0,5829.0,243437.0,18546.0,-1138.3752783313507,-385.35734487533193,-671.1134653948889
243448.0,10028.0,243448.0,5847.0,243448.0,18552.0,-1140.4277606803007,-383.0409568131318,-669.3306454375678
243448.0,10021.0,243448.0,5850.0,243448.0,18552.0,-1141.8859617253838,-380.3769644033596,-667.0345250713466
243448.0,10013.0,243448.0,5835.0,243448.0,18544.0,-1142.7230228444027,-377.3604745240144,-664.213115661433
243448.0,10007.0,243448.0,5850.0,243448.0,18539.0,-1142.9125024202303,-373.98738537460497,-660.8555193339339
243448.0,9993.0,243448.0,5846.0,243448.0,18543.0,-1142.428600288787,-370.2545305504304,-656.9522044122789
243448.0,10003.0,243448.0,5854.0,243448.0,18543.0,-1141.2464074015434,-366.15977602462937,-652.4952740459028
243458.0,10001.0,243458.0,5867.0,243458.0,18556.0,-1139.342090465074,-361.7020458534565,-647.4786413144811
243458.0,10012.0,243458.0,5861.0,243458.0,18573.0,-1136.692939505674,-356.8813050042056,-641.8980786797722
243458.0,9995.0,243458.0,5873.0,243458.0,18571.0,-1133.2773580520852,-351.6985519560837,-635.7511480506139
243458.0,9988.0,243458.0,5856.0,243458.0,18575.0,-1129.0749747553878,-346.1559020222913,-629.0371451618234
243458.0,10003.0,243458.0,5873.0,243458.0,18584.0,-1124.0669135677626,-340.2567735006919,-621.7571757198923
243458.0,9995.0,243458.0,5877.0,243458.0,18614.0,-1118.2360369521853,-334.0060814663481,-613.9142398892593
243468.0,10005.0,243468.0,5902.0,243468.0,18620.0,-1111.5670736848538,-327.4102913605667,-605.513142946846
243468.0,10014.0,243468.0,5911.0,243468.0,18625.0,-1104.046710724979,-320.4772876937568,-596.5603129554518
243468.0,10021.0,243468.0,5912.0,243468.0,18630.0,-1095.6636476186377,-313.21618109956194,-587.0637560035669
243468.0,10012.0,243468.0,5905.0,243468.0,18638.0,-1086.40864017222,-305.63725788086055,-577.0331872526218
243468.0,10033.0,243468.0,5938.0,243468.0,18668.0,-1076.2746369668675,-297.75210817888143,-566.480167537261
243468.0,10055.0,243468.0,5968.0,243468.0,18679.0,-1065.2569118703486,-289.5736410156996,-555.418083303545
243479.0,10063.0,243479.0,5977.0,243479.0,18693.0,-1053.3530146837993,-281.1157713207591,-543.8619998645977
243479.0,10077.0,243479.0,5971.0,243479.0,18720.0,-1040.5626291171711,-272.3930456560182,-531.8285271760627
243479.0,10084.0,243479.0,5996.0,243479.0,18730.0,-1026.8875263764226,-263.4205340338112,-519.3357037147008
243479.0,10091.0,243479.0,5983.0,243479.0,18737.0,-1012.3316427022136,-254.2139145035147,-506.4028958983977
243479.0,10115.0,243479.0,6022.0,243479.0,18776.0,-996.9012160399141,-244.78955574079578,-493.0507671028905
243479.0,10135.0,243479.0,6034.0,243479.0,18791.0,-980.6048663569827,-235.16448177799828,-479.3011982716939
243489.0,10155.0,243489.0,6056.0,243489.0,18817.0,-963.453544524191,-225.35615561003044,-465.17706433509125
243489.0,10169.0,243489.0,6061.0,243489.0,18828.0,-945.4604324509694,-215.38220659623124,-450.7020033429759
243489.0,10173.0,243489.0,6058.0,243489.0,18844.0,-926.6409378015095,-205.26030953720414,-435.9003050655124
243489.0,10202.0,243489.0,6071.0,243489.0,18868.0,-907.0128273829939,-195.00828163851537,-420.79689603512935
243489.0,10245.0,243489.0,6096.0,243489.0,18887.0,-886.596326686645,-184.64424500822483,-405.4173190559155
243489.0,10259.0,243489.0,6127.0,243489.0,18919.0,-865.4139806072378,-174.18658900208078,-389.7876294707662
243499.0,10304.0,243499.0,6130.0,243499.0,18942.0,-843.4903596803952,-163.6536852835996,-373.9341992635152
243499.0,10310.0,243499.0,6138.0,243499.0,18954.0,-820.8518074080813,-153.06362011183273,-357.8834908880873
243499.0,10329.0,243499.0,6144.0,243499.0,18963.0,-797.5263310860519,-142.43415980108813,-341.6619477022947
243499.0,10358.0,243499.0,6147.0,243499.0,18985.0,-773.5436717050208,-131.78289412603584,-325.2960689546883
243499.0,10390.0,243499.0,6174.0,243499.0,19011.0,-748.9354042834584,-121.12739722057202,-308.812520734229
243499.0,10433.0,243499.0,6191.0,243499.0,19035.0,-723.7348652933446,-110.48525766642499,-292.23811202935553
243510.0,10449.0,243510.0,6193.0,243510.0,19066.0,-697.9769223434492,-99.87395696342847,-275.5996289598699
243510.0,10485.0,243510.0,6209.0,243510.0,19077.0,-671.69776312652,-89.31077389830008,-258.9236214277331
243510.0,10521.0,243510.0,6218.0,243510.0,19102.0,-644.9347733305021,-78.81280328883668,-242.23624857669827
243510.0,10546.0,243510.0,6237.0,243510.0,19113.0,-617.72640722606,-68.39698128594833,-225.5632307699139
243510.0,10590.0,243510.0,6257.0,243510.0,19153.0,-590.1120173387449,-58.080027635106205,-208.9298343834057
243510.0,10620.0,243510.0,6284.0,243510.0,19170.0,-562.1316662438715,-47.8782699452656,-192.36076513437365
243520.0,10654.0,243520.0,6305.0,243520.0,19195.0,-533.8259151615158,-37.80734133037387,-175.87996305424178
243520.0,10678.0,243520.0,6291.0,243520.0,19205.0,-505.23565078855637,-27.88188041512609,-159.51043389537512
243520.0,10706.0,243520.0,6296.0,243520.0,19227.0,-476.4020219064517,-18.115486165032337,-143.27420523931244
243520.0,10754.0,243520.0,6332.0,243520.0,19253.0,-447.36642979777935,-8.520910876314133,-127.19233775386351
243520.0,10805.0,243520.0,6340.0,243520.0,19285.0,-418.17038293075154,0.8898814807479312,-111.28484720002155
243520.0,10818.0,243520.0,6362.0,243520.0,19276.0,-388.85515588192266,10.105923521157536,-95.57054055285278
243530.0,10857.0,243530.0,6351.0,243530.0,19304.0,-359.4615020936225,19.117454587663076,-80.06697402970423
243530.0,10894.0,243530.0,6354.0,243530.0,19321.0,-330.0295607892866,27.91590445113883,-64.79056884148957
243530.0,10914.0,243530.0,6353.0,243530.0,19334.0,-300.5988029229537,36.49364481562344,-49.756687794846755
243530.0,10952.0,243530.0,6377.0,243530.0,19358.0,-271.20797033836544,44.84369711550039,-34.97963173548641
243530.0,10998.0,243530.0,6419.0,243530.0,19374.0,-241.89502304593486,52.959684223964814,-20.472618067560063
243530.0,11026.0,243530.0,6398.0,243530.0,19397.0,-212.69698003235067,60.836107249201916,-6.2477226703335305
243541.0,11049.0,243541.0,6416.0,243541.0,19404.0,-183.6497049882105,68.46861168706499,7.684194980488314
243541.0,11080.0,243541.0,6406.0,243541.0,19414.0,-154.78783002971045,75.85395169226445,21.313494836284747
243541.0,11110.0,243541.0,6417.0,243541.0,19415.0,-126.14480208410805,82.98977808077237,34.63162101588125
243541.0,11138.0,243541.0,6422.0,243541.0,19452.0,-97.75291522439034,89.87444040162893,47.6308973856477
243541.0,11181.0,243541.0,6450.0,243541.0,19463.0,-69.64327929637,96.50690232038758,60.3044546089933
243541.0,11214.0,243541.0,6454.0,243541.0,19493.0,-41.845695456889075,102.88684322385737,72.64636581826142
243551.0,11244.0,243551.0,6455.0,243551.0,19497.0,-14.388445708227437,109.0148408469941,84.65185149647624
243551.0,11257.0,243551.0,6445.0,243551.0,19495.0,12.701864901607564,114.89239815758873,96.31736555567079
243551.0,11286.0,243551.0,6448.0,243551.0,19512.0,39.40028481330751,120.5217315092782,107.64046765378635
243551.0,11327.0,243551.0,6480.0,243551.0,19530.0,65.68340720565402,125.90552441316527,118.61961745775244
243551.0,11352.0,243551.0,6498.0,243551.0,19559.0,91.52938926275749,131.04695851207106,129.2541398532524
243551.0,11383.0,243551.0,6479.0,243551.0,19546.0,116.91810831589362,135.94999941078964,139.54435913048462
243561.0,11397.0,243561.0,6467.0,243561.0,19557.0,141.83128153061182,140.61949608883526,149.4916330157276
243561.0,11422.0,243561.0,6471.0,243561.0,19569.0,166.25245265523233,145.06087318347772,159.09817523649383
243561.0,11443.0,243561.0,6483.0,243561.0,19585.0,190.1668848777282,149.27973371393256,168.36687907071746
243561.0,11478.0,243561.0,6505.0,243561.0,19583.0,213.5614736572395,153.28173027442392,177.30126930698674
243561.0,11498.0,243561.0,6507.0,243561.0,19603.0,236.42476500872317,157.0727247552528,185.90546919811294
243561.0,11517.0,243561.0,6501.0,243561.0,19603.0,258.7470270527209,160.6589955870266,194.18413170442125
243572.0,11533.0,243572.0,6495.0,243572.0,19603.0,280.5202477110299,164.0472413770866,202.14234906289715
243572.0,11544.0,243572.0,6498.0,243572.0,19628.0,301.7380102987787,167.24437061769584,209.78552232213656
243572.0,11575.0,243572.0,6506.0,243572.0,19640.0,322.3953120371897,170.25727557683894,217.11929996288535
243572.0,11596.0,243572.0,6509.0,243572.0,19657.0,342.4884552189794,173.0927358596432,224.14969471280227
243572.0,11615.0,243572.0,6511.0,243572.0,19659.0,362.0150678580634,175.75741904095543,230.88326504574792
243572.0,11632.0,243572.0,6519.0,243572.0,19658.0,380.97415276209426,178.25788910799054,237.32718510831768
243582.0,11644.0,243582.0,6531.0,243582.0,19656.0,399.3660639228109,180.6006346406213,243.48913000930526
243582.0,11651.0,243582.0,6516.0,243582.0,19674.0,417.19239002409415,182.79213473102345,249.37705516854692
243582.0,11676.0,243582.0,6533.0,243582.0,19674.0,434.4557713704271,184.8388713662202,254.99904352118472
243582.0,11704.0,243582.0,6536.0,243582.0,19695.0,451.1597817321748,186.74729413600716,260.36328710685996
243582.0,11704.0,243582.0,6535.0,243582.0,19694.0,467.30896407116586,188.52384633825858,265.47814409754255
243582.0,11709.0,243582.0,6525.0,243582.0,19707.0,482.9088399248142,190.17497942038915,270.35220421790484
243592.0,11727.0,243592.0,6520.0,243592.0,19700.0,497.96572433820575,191.70701186648967,274.9943015780508
243592.0,11737.0,243592.0,6535.0,243592.0,19709.0,512.4864878316994,193.1259031544668,279.41344023951126
243592.0,11760.0,243592.0,6540.0,243592.0,19712.0,526.4784392459123,194.4371530487054,283.6186706826081
243592.0,11778.0,243592.0,6561.0,243592.0,19717.0,539.9493393660575,195.6459211522706,287.61898974119356
243592.0,11782.0,243592.0,6555.0,243592.0,19730.0,552.9074823579285,196.75727547329086,291.4232960950452
243592.0,11795.0,243592.0,6543.0,243592.0,19731.0,565.3617273921116,197.77636746536047,295.0404010316172
243603.0,11791.0,243603.0,6543.0,243603.0,19723.0,577.3214012668464,198.70836743265147,298.47903145642476
243603.0,11811.0,243603.0,6550.0,243603.0,19725.0,588.7961142459267,199.5582552492748,301.7477095178788
243603.0,11838.0,243603.0,6567.0,243603.0,19752.0,599.7956385705447,200.3307333589721,304.85457939795435
243603.0,11849.0,243603.0,6570.0,243603.0,19760.0,610.3299990937776,201.030365105398,307.80742788953694
243603.0,11836.0,243603.0,6557.0,243603.0,19738.0,620.4096462066195,201.6617722960694,310.61386207216185
243603.0,11854.0,243603.0,6552.0,243603.0,19752.0,630.0454233660737,202.22964698211757,313.28131396965125
243613.0,11864.0,243613.0,6534.0,243613.0,19757.0,639.2483774601083,202.7385165941496,315.8168557559304
243613.0,11866.0,243613.0,6573.0,243613.0,19767.0,648.0296524858582,203.192460610186,318.22711263946894
243613.0,11887.0,243613.0,6569.0,243613.0,19772.0,656.4004763072696,203.59507812297647,320.5183318883895
243613.0,11881.0,243613.0,6566.0,243613.0,19777.0,664.3721612108748,203.94971427109743,322.69647624206084
243613.0,11893.0,243613.0,6573.0,243613.0,19776.0,671.9560855204336,204.25962971710823,324.7672706779766
243613.0,11887.0,243613.0,6559.0,243613.0,19774.0,679.1636073392222,204.52798961695237,326.7361719867198
243623.0,11896.0,243623.0,6567.0,243623.0,19774.0,686.0059141038985,204.75777113782937,328.608254901141
243623.0,11901.0,243623.0,6564.0,243623.0,19787.0,692.493870322935,204.95165620689136,330.38808341301365
243623.0,11919.0,243623.0,6573.0,243623.0,19788.0,698.6379440914866,205.1119782031563,332.07967032589215
243623.0,11929.0,243623.0,6580.0,243623.0,19789.0,704.4482707229267,205.24076500553116,333.6865147806161
243623.0,11918.0,243623.0,6573.0,243623.0,19805.0,709.9347762598036,205.33983987148332,335.21163667694066
243623.0,11927.0,243623.0,6570.0,243623.0,19804.0,715.1071824515295,205.4108687764449,336.65763014022025
243634.0,11921.0,243634.0,6570.0,243634.0,19794.0,719.9748605014265,205.4552853493526,338.026721770588
243634.0,11946.0,243634.0,6580.0,243634.0,19805.0,724.5466931465994,205.4741925141335,339.3207162170378
243634.0,11951.0,243634.0,6590.0,243634.0,19818.0,728.8310945267842,205.46838650001087,340.54090186045426
243634.0,11957.0,243634.0,6587.0,243634.0,19822.0,732.8361754152188,205.43850925671939,341.6881047551483
243634.0,11941.0,243634.0,6577.0,243634.0,19827.0,736.5698592641845,205.38516937484803,342.7628503142173
243634.0,11943.0,243634.0,6569.0,243634.0,19828.0,740.0397788127457,205.30887364077807,343.76547688622657
243644.0,11951.0,243644.0,6580.0,243644.0,19825.0,743.253040024256,205.20982384861423,344.6961546610794
243644.0,11969.0,243644.0,6596.0,243644.0,19836.0,746.216106076289,205.08781967772438,345.5548442987679
243644.0,11963.0,243644.0,6592.0,243644.0,19845.0,748.934896291933,204.94239512522904,346.34128836842467
243644.0,11989.0,243644.0,6589.0,243644.0,19837.0,751.4149702875748,204.7730144602582,347.0550841699112
243644.0,11970.0,243644.0,6591.0,243644.0,19853.0,753.6616898892901,204.5791233188108,347.6957509276434
243644.0,11974.0,243644.0,6595.0,243644.0,19848.0,755.6802857847972,204.36010554936246,348.2627569676815
243655.0,11974.0,243655.0,6590.0,243655.0,19859.0,757.4757740992402,204.11526725096508,348.75556153494733
243655.0,11980.0,243655.0,6606.0,243655.0,19865.0,759.0528401044842,203.84385814359212,349.17368341118004
243655.0,11990.0,243655.0,6616.0,243655.0,19867.0,760.4158325871092,203.54516874411723,349.5167963519049
243655.0,11984.0,243655.0,6603.0,243655.0,19874.0,761.568852536732,203.21871956124397,349.78483112118806
243655.0,11984.0,243655.0,6595.0,243655.0,19861.0,762.5158206640742,202.8643541258018,349.97802342375826
243655.0,11991.0,243655.0,6599.0,243655.0,19874.0,763.2604649302211,202.48211242545148,350.0968733348336
243665.0,12001.0,243665.0,6618.0,243665.0,19883.0,763.8063291481785,202.0720952169754,350.142099194204
243665.0,12018.0,243665.0,6621.0,243665.0,19880.0,764.1569280081847,201.63455801492847,350.11470130198836
243665.0,11998.0,243665.0,6618.0,243665.0,19887.0,764.31599579582,201.17015380463437,350.01607265866994
243665.0,12008.0,243665.0,6603.0,243665.0,19859.0,764.2876263173338,200.68005531565052,349.84799684438076
243665.0,11994.0,243665.0,6595.0,243665.0,19875.0,764.0762270108524,200.16582326904563,349.612470259201
243665.0,12001.0,243665.0,6609.0,243665.0,19880.0,763.6864065126164,199.6291500804889,349.31149235430763
243675.0,12007.0,243675.0,6597.0,243675.0,19902.0,763.1229129146556,199.07170562841793,348.9470747333633
243675.0,12009.0,243675.0,6630.0,243675.0,19898.0,762.3906832791835,198.4951639602155,348.5214892982108
243675.0,11999.0,243675.0,6614.0,243675.0,19903.0,761.4949516412559,197.90137243237365,348.037532763665
243675.0,11999.0,243675.0,6599.0,243675.0,19879.0,760.4412716575171,197.29250740334754,347.4986071187715
243675.0,11985.0,243675.0,6600.0,243675.0,19889.0,759.2354173068536,196.67098773911295,346.9085693989014
243675.0,11993.0,243675.0,6592.0,243675.0,19885.0,757.8832363440015,196.0392067742348,346.2714983929345
243686.0,12000.0,243686.0,6620.0,243686.0,19908.0,756.3905716748485,195.39936799741088,345.59160077330085
243686.0,12008.0,243686.0,6622.0,243686.0,19898.0,754.7633557001575,194.75358223632173,344.87331723093604
243686.0,11994.0,243686.0,6612.0,243686.0,19894.0,753.0078106569011,194.1041271081158,344.1214584876544
243686.0,11983.0,243686.0,6608.0,243686.0,19883.0,751.1305301329324,193.45357927421574,343.34116664740634
243686.0,11986.0,243686.0,6607.0,243686.0,19868.0,749.1383565587563,192.8047182390974,342.5376734009162
243686.0,11981.0,243686.0,6600.0,243686.0,19893.0,747.0382204105894,192.1603655318843,341.716004676518
243696.0,11987.0,243696.0,6622.0,243696.0,19891.0,744.8370906617974,191.52329477221713,340.88086227628054
243696.0,11980.0,243696.0,6607.0,243696.0,19909.0,742.5420140003351,190.8962651474785,340.0367673335449
243696.0,11985.0,243696.0,6607.0,243696.0,19890.0,740.160173781945,190.2820952398977,339.188279257887
243696.0,11976.0,243696.0,6594.0,243696.0,19891.0,737.6989361125705,189.68360509892497,338.3400613406273
243696.0,11969.0,243696.0,6599.0,243696.0,19899.0,735.1658524730053,189.10343051661687,337.4967807312193
243696.0,11976.0,243696.0,6608.0,243696.0,19899.0,732.5686105541804,188.5438794095122,336.66303286464273
243706.0,11964.0,243706.0,6622.0,243706.0,19896.0,729.9149978196808,188.00697390754,335.84336709200113
243706.0,11971.0,243706.0,6619.0,243706.0,19902.0,727.2129099281311,187.4946659330318,335.0423061100229
243706.0,11964.0,243706.0,6612.0,243706.0,19906.0,724.4703734093262,187.0090359733738,334.264346901062
243706.0,11943.0,243706.0,6605.0,243706.0,19905.0,721.6955337708388,186.55230094303982,333.5140037494151
243706.0,11949.0,243706.0,6610.0,243706.0,19893.0,718.8965318763471,186.1266695185198,332.7958304541291
243706.0,11954.0,243706.0,6629.0,243706.0,19910.0,716.0813533310247,185.73425534245706,332.1143527871259
243717.0,11939.0,243717.0,6626.0,243717.0,19904.0,713.2578165580678,185.37719575782833,331.4740102129554
243717.0,11933.0,243717.0,6620.0,243717.0,19903.0,710.4335961006499,185.05785255651432,330.8791735079743
243717.0,11943.0,243717.0,6614.0,243717.0,19899.0,707.6161554276187,184.77885789710123,330.33412885618924
243717.0,11938.0,243717.0,6592.0,243717.0,19896.0,704.8127245851155,184.5429405567834,329.84297161791585
243717.0,11930.0,243717.0,6609.0,243717.0,19917.0,702.0303770942011,184.3526315969749,329.4095128442494
243717.0,11944.0,243717.0,6616.0,243717.0,19921.0,699.2760925331224,184.2100638721441,329.0373420903413
243727.0,11932.0,243727.0,6622.0,243727.0,19910.0,696.5568187414469,184.11703124742067,328.73001402488734
243727.0,11932.0,243727.0,6616.0,243727.0,19908.0,693.8795597284883,184.07517591474763,328.49111992079503
243727.0,11909.0,243727.0,6617.0,243727.0,19917.0,691.2513696624248,184.08607709223904,328.3241811769293
243727.0,11909.0,243727.0,6603.0,243727.0,19894.0,688.6791859324233,184.1511904600959,328.23251855903715
243727.0,11911.0,243727.0,6619.0,243727.0,19920.0,686.1696164103693,184.2717111367295,328.21913549927416
243727.0,11915.0,243727.0,6627.0,243727.0,19919.0,683.728862825443,184.4485119284621,328.2866598712661
243737.0,11910.0,243737.0,6628.0,243737.0,19918.0,681.3628043244452,184.6822580007565,328.43742306980965
243737.0,11914.0,243737.0,6630.0,243737.0,19923.0,679.0771114997322,184.97358056656412,328.67355286402926
243737.0,11894.0,243737.0,6617.0,243737.0,19903.0,676.8772935558766,185.3231375531234,328.9969423360665
243737.0,11890.0,243737.0,6609.0,243737.0,19918.0,674.7686217680407,185.73150051519434,329.4091029327659
243737.0,11896.0,243737.0,6633.0,243737.0,19919.0,672.755963458787,186.19895681863392,329.9110148997996
243737.0,11895.0,243737.0,6639.0,243737.0,19931.0,670.8436983411708,186.72547397126945,330.50311873551027
243748.0,11896.0,243748.0,6625.0,243748.0,19930.0,669.0357818311984,187.31087466169166,331.185429420589
243748.0,11884.0,243748.0,6626.0,243748.0,19912.0,667.3358236470579,187.9549290676117,331.957599369814
243748.0,11885.0,243748.0,6609.0,243748.0,19924.0,665.747072286619,188.6572065896104,332.8188046356511
243748.0,11882.0,243748.0,6616.0,243748.0,19936.0,664.2723376466528,189.41681249014252,333.76758187105713
243748.0,11879.0,243748.0,6650.0,243748.0,19948.0,662.9139346524742,190.23223408748132,334.8018629733813
243748.0,11892.0,243748.0,6647.0,243748.0,19943.0,661.673686259052,191.10150497789695,335.919181149031
243758.0,11882.0,243758.0,6643.0,243758.0,19949.0,660.5529999152143,192.02255174466205,337.11681978473433
243758.0,11875.0,243758.0,6647.0,243758.0,19949.0,659.5529466017811,192.99336501684,338.3918293267662
243758.0,11873.0,243758.0,6633.0,243758.0,19946.0,658.6742209752174,194.01194030260316,339.74098308619904
243758.0,11859.0,243758.0,6630.0,243758.0,19946.0,657.9169967493353,195.07610806195143,341.1606943279429
243758.0,11876.0,243758.0,6635.0,243758.0,19966.0,657.2807825280249,196.1833117742513,342.6469332004752
243758.0,11879.0,243758.0,6666.0,243758.0,19978.0,656.7643974848206,197.33050608954645,344.19528730753194
243768.0,11875.0,243768.0,6647.0,243768.0,19968.0,656.3661053564754,198.51431276023547,345.8011721230025
243768.0,11882.0,243768.0,6650.0,243768.0,19963.0,656.0837671515674,199.73121791325562,347.45994247371294
243768.0,11865.0,243768.0,6652.0,243768.0,19973.0,655.9148952535718,200.97756387749882,349.1667817916341
243768.0,11869.0,243768.0,6659.0,243768.0,19982.0,655.8566008923913,202.24945710285138,350.91657570603223
243768.0,11877.0,243768.0,6658.0,243768.0,19996.0,655.9054998246377,203.54276430587143,352.70396440978755
243768.0,11883.0,243768.0,6685.0,243768.0,20001.0,656.0577260721566,204.85319696851573,354.5235355149098
243779.0,11879.0,243779.0,6662.0,243779.0,19997.0,656.3090760891995,206.17646206192245,356.3700078143182
243779.0,11871.0,243779.0,6672.0,243779.0,19992.0,656.655111466619,207.50835973344687,358.23826851087676
243779.0,11867.0,243779.0,6666.0,243779.0,20003.0,657.091104956705,208.8447188146388,360.12326206098584
243779.0,11885.0,243779.0,6680.0,243779.0,20016.0,657.6119271012631,210.18129575705805,362.01990888661794
243779.0,11888.0,243779.0,6692.0,243779.0,20009.0,658.2120739646136,211.51380307652093,363.92316744868083
243779.0,11885.0,243779.0,6690.0,243779.0,20018.0,658.8858503032927,212.8380735140545,365.82811842352413
243789.0,11877.0,243789.0,6697.0,243789.0,20007.0,659.6274958589881,214.15023458035014,367.7299436517682
243789.0,11868.0,243789.0,6681.0,243789.0,20013.0,660.4311173453109,215.4467640989971,369.6238141853747
243789.0,11889.0,243789.0,6685.0,243789.0,20023.0,661.2905315487175,216.72439247022697,371.5047705632607
243789.0,11878.0,243789.0,6703.0,243789.0,20031.0,662.1992200835631,217.97996105097064,373.3677088014467
243789.0,11889.0,243789.0,6690.0,243789.0,20048.0,663.1504142155779,219.21040675060937,375.20751475689667
243789.0,11890.0,243789.0,6703.0,243789.0,20045.0,664.1371885412285,220.4128344947702,377.0192741751659
243799.0,11888.0,243799.0,6706.0,243799.0,20040.0,665.1525354087237,221.58455825680204,378.7984189489958
243799.0,11899.0,243799.0,6697.0,243799.0,20039.0,666.1894324457753,222.72313098719044,380.54069237020946
243799.0,11889.0,243799.0,6692.0,243799.0,20037.0,667.240899372443,223.82631293494399,382.2419780451341
243799.0,11898.0,243799.0,6719.0,243799.0,20068.0,668.3000362305261,224.89196427486684,383.8981808190442
243799.0,11896.0,243799.0,6708.0,243799.0,20060.0,669.3600371835923,225.918052343229,385.505313646535
243799.0,11891.0,243799.0,6710.0,243799.0,20056.0,670.4141963002371,226.9027755747603,387.059679235715
243810.0,11882.0,243810.0,6710.0,243810.0,20053.0,671.4558589954156,227.84459576343926,388.5578794637984
243810.0,11887.0,243810.0,6687.0,243810.0,20056.0,672.4782829207888,228.74212406495775,389.99664661280144
243810.0,11882.0,243810.0,6704.0,243810.0,20068.0,673.4744975644755,229.59390733774654,391.37270902728756
243810.0,11915.0,243810.0,6718.0,243810.0,20086.0,674.4372922973703,230.39826462508017,392.6828329615445
243810.0,11909.0,243810.0,6727.0,243810.0,20083.0,675.359418087133,231.15338631684358,393.9240326269139
243810.0,11904.0,243810.0,6719.0,243810.0,20082.0,676.2338857347793,231.85760092974402,395.0937745021881
243820.0,11884.0,243820.0,6705.0,243820.0,20065.0,677.0540573078475,232.50948981513068,396.18997970155533
243820.0,11889.0,243820.0,6718.0,243820.0,20068.0,677.8134419514818,233.107756756338,397.2108062687845
243820.0,11896.0,243820.0,6710.0,243820.0,20090.0,678.50544723438,233.65105487392105,398.154413839031
243820.0,11899.0,243820.0,6727.0,243820.0,20088.0,679.1233250402041,234.13794087458393,399.0189535761783
243820.0,11900.0,243820.0,6740.0,243820.0,20090.0,679.6602798389378,234.56697692517696,399.80273487672923
243820.0,11908.0,243820.0,6732.0,243820.0,20082.0,680.1095958713738,234.93694781753476,400.5043098634558
243830.0,11901.0,243830.0,6717.0,243830.0,20081.0,680.4647409662413,235.24700728641662,401.1223866792827
243830.0,11907.0,243830.0,6724.0,243830.0,20088.0,680.7194391102557,235.49657745530146,401.65568090968884
243830.0,11908.0,243830.0,6721.0,243830.0,20087.0,680.8677119806771,235.68514512186823,402.10283064752
243830.0,11906.0,243830.0,6729.0,243830.0,20096.0,680.9039280924906,235.81216941767633,402.46240357499363
243830.0,11914.0,243830.0,6725.0,243830.0,20106.0,680.8228658233113,235.87709883630265,402.7329718224106
243830.0,11895.0,243830.0,6733.0,243830.0,20103.0,680.6197560935145,235.87941467524126,402.91324453021633
243841.0,11898.0,243841.0,6730.0,243841.0,20095.0,680.2902421343063,235.81867460043833,403.0021650680288
243841.0,11892.0,243841.0,6728.0,243841.0,20100.0,679.8302504267873,235.69454218347602,402.99886771821593
243841.0,11903.0,243841.0,6737.0,243841.0,20116.0,679.2358964000882,235.50678825918095,402.902601115171
243841.0,11898.0,243841.0,6741.0,243841.0,20123.0,678.5035140640256,235.25532077804593,402.7128167922235
243841.0,11896.0,243841.0,6731.0,243841.0,20108.0,677.6297449419776,234.94026744466095,402.42937226649326
243841.0,11895.0,243841.0,6724.0,243841.0,20098.0,676.6115832113882,234.56198365029314,402.05257547590827
243851.0,11888.0,243851.0,6718.0,243851.0,20101.0,675.4463629928615,234.12090069961235,401.58298152930047
243851.0,11883.0,243851.0,6731.0,243851.0,20105.0,674.1317101450019,233.61733574449352,401.0211643698869
