c_ts,c_val,d_ts,d_val,e_ts,e_val,c_val_filtered,d_val_filtered,e_val_filtered
207193.0,13002.0,207193.0,27093.0,207193.0,28400.0,-103.23498828280044,-115.48374132565365,-171.5119141164233
207193.0,12956.0,207193.0,27004.0,207193.0,28381.0,-115.15614160738815,-130.153984745507,-187.09667376966252
207193.0,12916.0,207193.0,26937.0,207193.0,28308.0,-127.3983989486303,-145.08828325044033,-203.09381033816356
207193.0,12900.0,207193.0,26902.0,207193.0,28285.0,-139.9417142347352,-160.24722784896036,-219.4779731561882
207193.0,12883.0,207193.0,26871.0,207193.0,28256.0,-152.7671916383782,-175.5945896895782,-236.22451609839192
207193.0,12867.0,207193.0,26864.0,207193.0,28234.0,-165.857466853891,-191.09825161396944,-253.31017505156666
207203.0,12890.0,207203.0,26902.0,207203.0,28239.0,-179.19679798666283,-206.73049618381305,-270.71339986122877
207203.0,12869.0,207203.0,26895.0,207203.0,28239.0,-192.77086863959588,-222.4676269327829,-288.41432935921773
207203.0,12867.0,207203.0,26901.0,207203.0,28215.0,-206.56642108467526,-238.28917468700138,-306.3944729056958
207203.0,12858.0,207203.0,26893.0,207203.0,28219.0,-220.57095878643136,-254.1771572101652,-324.6363480097373
207203.0,12871.0,207203.0,26927.0,207203.0,28229.0,-234.77250049838813,-270.11547986780914,-343.1231474868531
207203.0,12866.0,207203.0,26965.0,207203.0,28215.0,-249.15920623179386,-286.0891419685234,-361.8382626867843
207213.0,12819.0,207213.0,26900.0,207213.0,28179.0,-263.7189786998483,-302.0831946765203,-380.76478678976105
207213.0,12807.0,207213.0,26828.0,207213.0,28112.0,-278.43938263333206,-318.0821856030267,-399.88543786107584
207213.0,12757.0,207213.0,26784.0,207213.0,28081.0,-293.30796330908095,-334.0707361312646,-419.1831025595524
207213.0,12752.0,207213.0,26779.0,207213.0,28094.0,-308.312727915768,-350.03472377998946,-438.64159631039337
207213.0,12720.0,207213.0,26736.0,207213.0,28052.0,-323.4425756401506,-365.962151323475,-458.24603134984324
207213.0,12716.0,207213.0,26755.0,207213.0,28045.0,-338.6875756702313,-381.8435128835293,-477.98279113625824
207224.0,12713.0,207224.0,26759.0,207224.0,28057.0,-354.03905299637427,-397.6717787986271,-497.8394171896211
207224.0,12710.0,207224.0,26791.0,207224.0,28022.0,-369.48944995153073,-413.441922677865,-517.8043642809089
207224.0,12697.0,207224.0,26751.0,207224.0,28022.0,-385.0320204375504,-429.1501264635612,-537.8666587818612
207224.0,12696.0,207224.0,26771.0,207224.0,28009.0,-400.6605129125547,-444.79310484572187,-558.0156426880533
207224.0,12710.0,207224.0,26826.0,207224.0,28033.0,-416.3688423631076,-460.3675532106562,-578.24066201556
207224.0,12701.0,207224.0,26810.0,207224.0,27998.0,-432.1506199282783,-475.8692558113956,-598.5305420727316
207234.0,12658.0,207234.0,26727.0,207234.0,27965.0,-447.9986759684991,-491.2921416473598,-618.873119113133
207234.0,12606.0,207234.0,26662.0,207234.0,27917.0,-463.9050078426829,-506.6283061282207,-639.2552274087216
207234.0,12590.0,207234.0,26636.0,207234.0,27898.0,-479.8612942858856,-521.8691282353102,-659.6631259477329
207234.0,12598.0,207234.0,26625.0,207234.0,27881.0,-495.8594990443612,-537.0065120411736,-680.0829705545572
207234.0,12565.0,207234.0,26593.0,207234.0,27860.0,-511.8920661966929,-552.0335688346927,-700.5010424793093
207234.0,12570.0,207234.0,26623.0,207234.0,27828.0,-527.9518045557868,-566.9448129564246,-720.9038027074802
207244.0,12543.0,207244.0,26640.0,207244.0,27845.0,-544.0317588826263,-581.7359403700216,-741.2779100448663
207244.0,12545.0,207244.0,26600.0,207244.0,27821.0,-560.1251025496043,-596.4032184829696,-761.6100880645268
207244.0,12518.0,207244.0,26609.0,207244.0,27803.0,-576.2250174773471,-610.9429406754448,-781.8868150417303
207244.0,12540.0,207244.0,26656.0,207244.0,27828.0,-592.32453930718,-625.3510832788581,-802.0940032552321
207244.0,12545.0,207244.0,26662.0,207244.0,27811.0,-608.4162223257135,-639.6226349194758,-822.2165770310304
207244.0,12507.0,207244.0,26622.0,207244.0,27790.0,-624.4916102064104,-653.7506125340719,-842.2379135647167
207255.0,12485.0,207255.0,26565.0,207255.0,27733.0,-640.5408912500967,-667.7255797882827,-862.1395416414123
207255.0,12459.0,207255.0,26508.0,207255.0,27691.0,-656.5529933902179,-681.5361214409966,-881.9014063990021
207255.0,12433.0,207255.0,26493.0,207255.0,27666.0,-672.5159007187975,-695.1698995674521,-901.5025368081529
207255.0,12405.0,207255.0,26472.0,207255.0,27662.0,-688.416981421033,-708.614618100232,-920.9216551028511
207255.0,12370.0,207255.0,26486.0,207255.0,27629.0,-704.2433477390412,-721.8584953785902,-940.1374252747542
207255.0,12392.0,207255.0,26470.0,207255.0,27643.0,-719.9821917038755,-734.8902531912524,-959.128424287539
207265.0,12383.0,207265.0,26521.0,207265.0,27641.0,-735.6208258710599,-747.6987582822521,-977.8729196739359
207265.0,12370.0,207265.0,26486.0,207265.0,27628.0,-751.146354596297,-760.2723956148783,-996.3484279039361
207265.0,12371.0,207265.0,26506.0,207265.0,27605.0,-766.5452818461728,-772.5983923241344,-1014.5312626758719
207265.0,12388.0,207265.0,26544.0,207265.0,27633.0,-781.8031611999244,-784.6622303561011,-1032.3962377848482
207265.0,12361.0,207265.0,26516.0,207265.0,27612.0,-796.9041346828859,-796.4469478704103,-1049.916308803443
207265.0,12348.0,207265.0,26464.0,207265.0,27569.0,-811.8305045892832,-807.9325423755674,-1067.0621503477546
207275.0,12296.0,207275.0,26362.0,207275.0,27540.0,-826.5626524881752,-819.0962229021301,-1083.8020968118344
207275.0,12290.0,207275.0,26380.0,207275.0,27503.0,-841.0793403892202,-829.913623160475,-1100.1025588239042
207275.0,12265.0,207275.0,26342.0,207275.0,27471.0,-855.3581336402431,-840.3601021612046,-1115.9286149101454
207275.0,12232.0,207275.0,26323.0,207275.0,27453.0,-869.3757297004688,-850.4114672670705,-1131.2445770728068
207275.0,12228.0,207275.0,26382.0,207275.0,27466.0,-883.108238031225,-860.0442074812521,-1146.0143715306278
207275.0,12219.0,207275.0,26369.0,207275.0,27440.0,-896.5314017348397,-869.23523370351,-1160.2015698261785
207286.0,12218.0,207286.0,26351.0,207286.0,27422.0,-909.620603861982,-877.9612380226879,-1173.769237410218
207286.0,12221.0,207286.0,26333.0,207286.0,27420.0,-922.3506531008211,-886.198312293044,-1186.6798983682527
207286.0,12236.0,207286.0,26393.0,207286.0,27441.0,-934.6954083349974,-893.9219097263943,-1198.8955001097293
207286.0,12231.0,207286.0,26417.0,207286.0,27460.0,-946.6272550334639,-901.1064500726036,-1210.3770372266997
207286.0,12194.0,207286.0,26330.0,207286.0,27401.0,-958.1166265778807,-907.7245206199404,-1221.0839470624965
207286.0,12161.0,207286.0,26312.0,207286.0,27353.0,-969.1319276002038,-913.7466593990742,-1230.9739440601334
207296.0,12144.0,207296.0,26252.0,207296.0,27317.0,-979.6399331412982,-919.1421646719588,-1240.0036827560755
207296.0,12110.0,207296.0,26245.0,207296.0,27315.0,-989.606359066775,-923.8802901314879,-1248.1297833007716
207296.0,12098.0,207296.0,26212.0,207296.0,27287.0,-998.9963801744125,-927.9312601487339,-1255.3095854484488
207296.0,12080.0,207296.0,26224.0,207296.0,27306.0,-1007.7750687617784,-931.266982599904,-1261.5015150320758
207296.0,12096.0,207296.0,26260.0,207296.0,27292.0,-1015.9076697777185,-933.8613428496594,-1266.6651836957178
207296.0,12106.0,207296.0,26281.0,207296.0,27278.0,-1023.3595619051849,-935.6899138508201,-1270.7613588150066
207306.0,12073.0,207306.0,26265.0,207306.0,27268.0,-1030.0959664110246,-936.729283556149,-1273.7520315670445
207306.0,12065.0,207306.0,26289.0,207306.0,27288.0,-1036.081785343301,-936.9565225581232,-1275.6005985828124
207306.0,12088.0,207306.0,26356.0,207306.0,27325.0,-1041.2816997204086,-936.3487886748087,-1276.2718204494938
207306.0,12095.0,207306.0,26320.0,207306.0,27297.0,-1045.6601301757078,-934.8826624648166,-1275.7314145635748
207306.0,12055.0,207306.0,26250.0,207306.0,27260.0,-1049.1809559678386,-932.5336414217347,-1273.9457732163762
207306.0,12024.0,207306.0,26214.0,207306.0,27231.0,-1051.807515627043,-929.2766901137096,-1270.882368590341
207317.0,11994.0,207317.0,26164.0,207317.0,27194.0,-1053.5031980083277,-925.0877316999057,-1266.5107506313457
207317.0,11987.0,207317.0,26192.0,207317.0,27198.0,-1054.2323112531772,-919.9451952269067,-1260.8036754037278
207317.0,11979.0,207317.0,26172.0,207317.0,27200.0,-1053.9608078754372,-913.8310224653144,-1253.7379986030946
207317.0,11979.0,207317.0,26219.0,207317.0,27225.0,-1052.6567274779147,-906.7310560428375,-1245.2951327217559
207317.0,11992.0,207317.0,26236.0,207317.0,27254.0,-1050.2904047382453,-898.6349571807378,-1235.4610625351077
207317.0,11990.0,207317.0,26237.0,207317.0,27250.0,-1046.8345003572304,-889.5358477673024,-1224.2260935465772
207327.0,11999.0,207327.0,26247.0,207327.0,27277.0,-1042.2639449706753,-879.430015065416,-1211.5846191883686
207327.0,12038.0,207327.0,26310.0,207327.0,27300.0,-1036.5558292879505,-868.3167703466086,-1197.5350123256057
207327.0,12050.0,207327.0,26364.0,207327.0,27344.0,-1029.689103656936,-856.1980102862659,-1182.0794348266313
207327.0,12032.0,207327.0,26343.0,207327.0,27339.0,-1021.6441707715795,-843.0773516305085,-1165.2234863278748
207327.0,11997.0,207327.0,26292.0,207327.0,27322.0,-1012.4028558731067,-828.9596283295449,-1146.9760341319459
207327.0,11980.0,207327.0,26284.0,207327.0,27349.0,-1001.9490383960899,-813.8514532516012,-1127.349529636605
207337.0,12007.0,207337.0,26287.0,207337.0,27353.0,-990.269591487221,-797.7624314741734,-1106.3605600600254
207337.0,12021.0,207337.0,26306.0,207337.0,27390.0,-977.3550106478951,-780.7061567480516,-1084.030226259155
207337.0,12025.0,207337.0,26312.0,207337.0,27411.0,-963.1995619219941,-762.7007155810834,-1060.3842772887688
207337.0,12041.0,207337.0,26376.0,207337.0,27435.0,-947.8012919374869,-743.7688401503638,-1035.453108268875
207337.0,12067.0,207337.0,26425.0,207337.0,27483.0,-931.1620983077694,-723.9376588599348,-1009.2717016716168
207337.0,12089.0,207337.0,26466.0,207337.0,27516.0,-913.2877289114849,-703.2379830984443,-981.8794725905852
207348.0,12124.0,207348.0,26498.0,207348.0,27567.0,-894.1876290385821,-681.7034450254266,-953.3199561479639
207348.0,12176.0,207348.0,26582.0,207348.0,27619.0,-873.8746321688366,-659.3697322916931,-923.6403681439588
207348.0,12186.0,207348.0,26601.0,207348.0,27692.0,-852.3644920555362,-636.273764813535,-892.8910071868929
207348.0,12200.0,207348.0,26613.0,207348.0,27711.0,-829.6754823582767,-612.4528954276775,-861.1245048761375
207348.0,12196.0,207348.0,26565.0,207348.0,27696.0,-805.8283850872267,-587.9446998790413,-828.3953170397199
207348.0,12229.0,207348.0,26556.0,207348.0,27721.0,-780.8468450036592,-562.7877030095306,-794.7599258499345
207358.0,12234.0,207358.0,26615.0,207358.0,27773.0,-754.7577897870594,-537.0225906547885,-760.2775021311174
207358.0,12272.0,207358.0,26625.0,207358.0,27798.0,-727.5917350837922,-510.69301757340753,-725.0103318859826
207358.0,12331.0,207358.0,26691.0,207358.0,27891.0,-699.382892609239,-483.84569842526577,-689.0237683405772
207358.0,12352.0,207358.0,26779.0,207358.0,27953.0,-670.1689710305668,-456.52998477523386,-652.38574998568
207358.0,12382.0,207358.0,26824.0,207358.0,27987.0,-639.9908344660156,-428.7969468509137,-615.1659877350301
207358.0,12426.0,207358.0,26858.0,207358.0,28072.0,-608.8923168902419,-400.6982195262384,-577.4351772052103
207369.0,12498.0,207369.0,26930.0,207369.0,28116.0,-576.9200535104007,-372.28510467679564,-539.2643532672435
207369.0,12553.0,207369.0,27024.0,207369.0,28182.0,-544.1229836636495,-343.6077703979015,-500.72421864356943
207369.0,12582.0,207369.0,26997.0,207369.0,28200.0,-510.551600631428,-314.71424187886623,-461.884547465926
207369.0,12578.0,207369.0,26940.0,207369.0,28213.0,-476.25745676795833,-285.6498885950585,-422.8139610185514
207369.0,12622.0,207369.0,26970.0,207369.0,28268.0,-441.2932602711244,-256.4581995598719,-383.5801563786992
207369.0,12652.0,207369.0,26976.0,207369.0,28303.0,-405.7132806267429,-227.1822076855418,-344.25024776632694
207379.0,12701.0,207379.0,26978.0,207379.0,28349.0,-369.57358746298723,-197.86555199083227,-304.890880442744
207379.0,12724.0,207379.0,27072.0,207379.0,28415.0,-332.93205629194887,-168.55303660652658,-265.56813116873894
207379.0,12798.0,207379.0,27134.0,207379.0,28441.0,-295.84828502586737,-139.2905778975374,-226.34727198598227
207379.0,12853.0,207379.0,27161.0,207379.0,28537.0,-258.3833424912056,-110.12444515843299,-187.29242351374648
207379.0,12884.0,207379.0,27220.0,207379.0,28577.0,-220.59928630021727,-81.10037016047795,-148.46605315092756
207379.0,12950.0,207379.0,27272.0,207379.0,28618.0,-182.55868690396068,-52.2629065433718,-109.92835253781811
207389.0,13035.0,207389.0,27363.0,207389.0,28719.0,-144.32418212956435,-23.654721880630632,-71.73667237028064
207389.0,13071.0,207389.0,27382.0,207389.0,28736.0,-105.9577930506552,4.684389480605091,-33.94493167418375
207389.0,13095.0,207389.0,27349.0,207389.0,28747.0,-67.52020154048108,32.718294556253284,3.396915316108675
207389.0,13103.0,207389.0,27352.0,207389.0,28750.0,-29.07053188390455,60.41439774982837,40.242828230177
207389.0,13134.0,207389.0,27347.0,207389.0,28813.0,9.333278497454558,87.74266665093467,76.55006946815558
207389.0,13183.0,207389.0,27369.0,207389.0,28818.0,47.63394003749204,114.67452912019542,112.27866179456305
207400.0,13219.0,207400.0,27381.0,207400.0,28852.0,85.77451845913117,141.18206965523115,147.3911042205483
207400.0,13295.0,207400.0,27449.0,207400.0,28927.0,123.6984937212585,167.23760692696146,181.8521896290721
207400.0,13340.0,207400.0,27514.0,207400.0,28955.0,161.35011970894868,192.81381327243543,215.62908321328302
207400.0,13387.0,207400.0,27539.0,207400.0,28993.0,198.67496102526513,217.88439727846958,248.6916770370259
207400.0,13423.0,207400.0,27558.0,207400.0,29038.0,235.62035369792272,242.42486262041984,281.012881796986
207400.0,13492.0,207400.0,27639.0,207400.0,29115.0,272.13570858770595,266.41296354168855,312.5688871163726
207410.0,13542.0,207410.0,27708.0,207410.0,29142.0,308.1728757387824,289.82925238483824,343.3396745657667
207410.0,13565.0,207410.0,27697.0,207410.0,29167.0,343.6866299940533,312.6580092782681,373.3096121631761
207410.0,13571.0,207410.0,27623.0,207410.0,29158.0,378.63493337696946,334.8877592804695,402.4676554258016
207410.0,13599.0,207410.0,27645.0,207410.0,29150.0,412.97870655098427,356.5105497907632,430.8069369205384
207410.0,13626.0,207410.0,27667.0,207410.0,29159.0,446.68133130863987,377.5205876287073,458.3238944356941
207410.0,13650.0,207410.0,27658.0,207410.0,29195.0,479.7082334441923,397.913326840717,485.0173508499654
207420.0,13704.0,207420.0,27653.0,207420.0,29216.0,512.0266544619279,417.68498315450563,510.88795462107305
207420.0,13726.0,207420.0,27723.0,207420.0,29241.0,543.605623365346,436.83207049856264,535.9380011822739
207420.0,13786.0,207420.0,27755.0,207420.0,29289.0,574.416107331022,455.35128553564437,560.1714308386936
207420.0,13810.0,207420.0,27773.0,207420.0,29327.0,604.4312694176235,473.2399568640391,583.5940010694446
207420.0,13851.0,207420.0,27819.0,207420.0,29350.0,633.6267573486052,490.4966117505536,606.2136553698847
207420.0,13887.0,207420.0,27925.0,207420.0,29416.0,661.9809513829116,507.1215855981958,628.0409569048234
207431.0,13932.0,207431.0,27901.0,207431.0,29418.0,689.4752084880938,523.118024289717,649.0895502857716
207431.0,13935.0,207431.0,27879.0,207431.0,29373.0,716.0941257759878,538.4927855988988,669.376416376907
207431.0,13914.0,207431.0,27809.0,207431.0,29393.0,741.8255465561731,553.2562438937944,688.9214441175009
207431.0,13945.0,207431.0,27834.0,207431.0,29380.0,766.6600585698509,567.4210120814583,707.7464847653512
207431.0,13967.0,207431.0,27815.0,207431.0,29384.0,790.5903106252786,581.0005336457233,725.8744768339054
207431.0,13980.0,207431.0,27806.0,207431.0,29388.0,813.6106194765691,594.0081272215823,743.3287624558029
207441.0,14014.0,207441.0,27856.0,207441.0,29447.0,835.7168388614773,606.4563881746724,760.1326086106078
207441.0,14046.0,207441.0,27889.0,207441.0,29453.0,856.9063472044197,618.3570095015864,776.309159127248
207441.0,14066.0,207441.0,27875.0,207441.0,29465.0,877.1781885250978,629.7210965255425,791.8816932662153
207441.0,14085.0,207441.0,27911.0,207441.0,29492.0,896.5332715242625,640.5595115780636,806.8737853909095
207441.0,14130.0,207441.0,27977.0,207441.0,29532.0,914.9745236683673,650.8831127156777,821.3093872360607
207441.0,14151.0,207441.0,28045.0,207441.0,29552.0,932.5071236899239,660.7034487079632,835.2131173542484
207451.0,14140.0,207451.0,28026.0,207451.0,29530.0,949.1387881234357,670.0339848134363,848.6106132808118
207451.0,14125.0,207451.0,27918.0,207451.0,29504.0,964.8797373221792,678.8908288867468,861.5284457630426
207451.0,14116.0,207451.0,27891.0,207451.0,29498.0,979.7421403626354,687.2919374252177,873.9934120949827
207451.0,14127.0,207451.0,27911.0,207451.0,29492.0,993.7393218357756,695.2553069740517,886.0315780499923
207451.0,14122.0,207451.0,27863.0,207451.0,29509.0,1006.8851025079923,702.7975102688149,897.6675067058306
207451.0,14132.0,207451.0,27922.0,207451.0,29524.0,1019.1933523579266,709.9329590382754,908.9238372539864
207462.0,14177.0,207462.0,27961.0,207462.0,29559.0,1030.6777434092166,716.6737249775912,919.8212211026926
207462.0,14188.0,207462.0,27975.0,207462.0,29580.0,1041.3518375046278,723.0300054494548,930.3785659759997
207462.0,14202.0,207462.0,27989.0,207462.0,29577.0,1051.229445845073,729.0108854397946,940.6134031823549
207462.0,14218.0,207462.0,28023.0,207462.0,29630.0,1060.324944153218,734.6249036676235,950.542173043558
207462.0,14250.0,207462.0,28103.0,207462.0,29643.0,1068.6534944428004,739.8806431313549,960.1805291000692
207462.0,14246.0,207462.0,28107.0,207462.0,29642.0,1076.231328751987,744.7877444769541,969.5437576961515
207472.0,14242.0,207472.0,28034.0,207472.0,29645.0,1083.0759830437912,749.3578804912196,978.647021020875
207472.0,14198.0,207472.0,27972.0,207472.0,29611.0,1089.20617111968,753.6046309734901,987.5051863356571
207472.0,14189.0,207472.0,27964.0,207472.0,29612.0,1094.6411704893983,757.5421098814112,996.132289472019
207472.0,14218.0,207472.0,27968.0,207472.0,29594.0,1099.4000332770843,761.1834209451287,1004.5408061679634
207472.0,14189.0,207472.0,27979.0,207472.0,29622.0,1103.5011112903937,764.5398236543351,1012.7410040031775
207472.0,14212.0,207472.0,28003.0,207472.0,29644.0,1106.9619027401914,767.6205970668398,1020.740639647307
207482.0,14228.0,207482.0,28021.0,207482.0,29675.0,1109.7990014609686,770.4332975224384,1028.545108352784
207482.0,14221.0,207482.0,28009.0,207482.0,29676.0,1112.0282027080302,772.9841549724886,1036.1578734263715
207482.0,14250.0,207482.0,28033.0,207482.0,29698.0,1113.664734638676,775.2783547128014,1043.5808557552984
207482.0,14262.0,207482.0,28121.0,207482.0,29739.0,1114.7235360394004,777.3203621638644,1050.8147347031277
207482.0,14264.0,207482.0,28133.0,207482.0,29772.0,1115.2196324195531,779.1148025239021,1057.859423392215
207482.0,14266.0,207482.0,28114.0,207482.0,29767.0,1115.1684885609939,780.6676786008837,1064.7147487010664
207493.0,14235.0,207493.0,28040.0,207493.0,29730.0,1114.5861265679484,781.9869026618438,1071.38086444777
207493.0,14205.0,207493.0,27990.0,207493.0,29717.0,1113.488881422551,783.0815774844966,1077.8579727831996
207493.0,14202.0,207493.0,27991.0,207493.0,29726.0,1111.8928157934586,783.9605100331555,1084.145578426728
207493.0,14219.0,207493.0,27972.0,207493.0,29700.0,1109.8131558222958,784.6308883930427,1090.2418120336392
207493.0,14200.0,207493.0,28017.0,207493.0,29734.0,1107.2641015263807,785.0976357212238,1096.1429947380923
207493.0,14203.0,207493.0,28046.0,207493.0,29757.0,1104.2588696698424,785.3634753960065,1101.8434742969077
207503.0,14209.0,207503.0,28025.0,207503.0,29778.0,1100.8097156808712,785.4294906693254,1107.335864498767
207503.0,14202.0,207503.0,28039.0,207503.0,29796.0,1096.9279847805908,785.2956404209366,1112.611550407993
207503.0,14218.0,207503.0,28090.0,207503.0,29815.0,1092.6242607328586,784.9610326492267,1117.6611864760516
207503.0,14248.0,207503.0,28148.0,207503.0,29822.0,1087.9086543440733,784.4245061438608,1122.4751108926887
207503.0,14225.0,207503.0,28143.0,207503.0,29867.0,1082.7912920776998,783.6857793949005,1127.0437311145067
207503.0,14199.0,207503.0,28101.0,207503.0,29839.0,1077.2827130358407,782.7464766754769,1131.3579334956153
207513.0,14182.0,207513.0,28030.0,207513.0,29823.0,1071.3937894708392,781.6101691939477,1135.4093007897904
207513.0,14158.0,207513.0,28010.0,207513.0,29814.0,1065.1352817913992,780.2813462676484,1139.1898464041308
207513.0,14167.0,207513.0,28018.0,207513.0,29819.0,1058.5173940094874,778.7640834036692,1142.6914741240423
207513.0,14147.0,207513.0,27983.0,207513.0,29790.0,1051.5495316578179,777.0611660524938,1145.905525821448
207513.0,14160.0,207513.0,28029.0,207513.0,29832.0,1044.2402658995147,775.1737296285818,1148.8224578911293
207513.0,14177.0,207513.0,28075.0,207513.0,29871.0,1036.5974853132484,773.1013691691522,1151.4318106223172
207524.0,14150.0,207524.0,28058.0,207524.0,29859.0,1028.6287350744365,770.8428197785222,1153.7226752103434
207524.0,14148.0,207524.0,28048.0,207524.0,29857.0,1020.3415186409773,768.3967161008627,1155.6842479290938
207524.0,14166.0,207524.0,28116.0,207524.0,29906.0,1011.7434180118884,765.7619714700689,1157.3060792112974
207524.0,14190.0,207524.0,28135.0,207524.0,29913.0,1002.8423540831276,762.9382705590077,1158.5783640369532
207524.0,14149.0,207524.0,28111.0,207524.0,29908.0,993.6471305341705,759.9269608981299,1159.4924763349593
207524.0,14109.0,207524.0,28040.0,207524.0,29892.0,984.1677489834221,756.731558062826,1160.041318682848
207534.0,14097.0,207534.0,28005.0,207534.0,29851.0,974.4150984766848,753.3571885613607,1160.2191617629805
207534.0,14085.0,207534.0,27966.0,207534.0,29862.0,964.4003792092554,749.8093042300437,1160.0210830886165
207534.0,14042.0,207534.0,27974.0,207534.0,29837.0,954.1346891636006,746.0924349744174,1159.4423492248918
207534.0,14054.0,207534.0,27956.0,207534.0,29860.0,943.6287085482869,742.2094228915589,1158.47802296976
207534.0,14066.0,207534.0,28006.0,207534.0,29877.0,932.8925181105304,738.1612003743313,1157.1228927929885
207534.0,14045.0,207534.0,28007.0,207534.0,29877.0,921.9357756106748,733.9470817539203,1155.3717287424163
207544.0,14054.0,207544.0,28021.0,207544.0,29862.0,910.7680760906306,729.5654004786554,1153.219626185759
207544.0,14040.0,207544.0,28060.0,207544.0,29873.0,899.3992264652353,725.0142105463938,1150.6621360205268
207544.0,14050.0,207544.0,28092.0,207544.0,29917.0,887.8394867374219,720.2920805652501,1147.6953535241119
207544.0,14043.0,207544.0,28097.0,207544.0,29933.0,876.0998746533899,715.399091796542,1144.3163909648592
207544.0,14008.0,207544.0,28039.0,207544.0,29883.0,864.192448464781,710.3376395170947,1140.5240843393099
207544.0,13962.0,207544.0,27967.0,207544.0,29863.0,852.1302881652438,705.1123678395023,1136.319219950742
207555.0,13939.0,207555.0,27945.0,207555.0,29849.0,839.9270108908844,699.7291003021834,1131.7040683745834
207555.0,13935.0,207555.0,27954.0,207555.0,29829.0,827.5961216003991,694.1935087951616,1126.6817418372566
207555.0,13921.0,207555.0,27919.0,207555.0,29830.0,815.150635723905,688.5103159700323,1121.255741236028
207555.0,13902.0,207555.0,27972.0,207555.0,29821.0,802.6030097755344,682.6830775083978,1115.4297028248498
207555.0,13910.0,207555.0,27966.0,207555.0,29844.0,789.9651690438003,676.714380179402,1109.207360646832
207555.0,13893.0,207555.0,27937.0,207555.0,29839.0,777.2486036235626,670.6062956952204,1102.5927610228346
207565.0,13895.0,207565.0,27956.0,207565.0,29856.0,764.4645708516475,664.3606572008557,1095.5906581421154
207565.0,13906.0,207565.0,28028.0,207565.0,29872.0,751.6243774620566,657.9792574877958,1088.2069975272584
207565.0,13900.0,207565.0,28057.0,207565.0,29883.0,738.7397856124719,651.4646710938987,1080.449499353582
207565.0,13874.0,207565.0,27988.0,207565.0,29850.0,725.8234553894066,644.8215201082603,1072.3282341646955
207565.0,13844.0,207565.0,27941.0,207565.0,29789.0,712.8891238951821,638.0569997103587,1063.8557738417117
207565.0,13800.0,207565.0,27895.0,207565.0,29780.0,699.9513626542063,631.1801573593395,1055.046656439572
207576.0,13774.0,207576.0,27868.0,207576.0,29754.0,687.0250140820615,624.2006094232618,1045.9165429241693
207576.0,13751.0,207576.0,27866.0,207576.0,29745.0,674.1245372559697,617.1274579120434,1036.4815975868387
207576.0,13767.0,207576.0,27832.0,207576.0,29735.0,661.2635539290666,609.9686316507903,1026.758172586643
207576.0,13751.0,207576.0,27891.0,207576.0,29724.0,648.454798720684,602.7306192297501,1016.7626665847772
207576.0,13733.0,207576.0,27920.0,207576.0,29708.0,635.7103394770536,595.4187493031811,1006.5114658765292
207576.0,13725.0,207576.0,27874.0,207576.0,29716.0,623.0417334744247,588.0379998085591,996.0209168976219
207586.0,13730.0,207586.0,27879.0,207586.0,29715.0,610.4600846673593,580.5936296475293,985.307412545908
207586.0,13758.0,207586.0,27978.0,207586.0,29746.0,597.9762909955249,573.0914505232308,974.3877273751215
207586.0,13714.0,207586.0,27968.0,207586.0,29708.0,585.6015643562149,565.5385927616112,963.2795545784709
207586.0,13692.0,207586.0,27881.0,207586.0,29696.0,573.3478140920674,557.9446374220162,952.0019082746296
207586.0,13637.0,207586.0,27815.0,207586.0,29619.0,561.2274767407228,550.3217099971951,940.5750141070257
207586.0,13637.0,207586.0,27782.0,207586.0,29604.0,549.2529171319546,542.6831852895757,929.019626830428
207596.0,13617.0,207596.0,27755.0,207596.0,29582.0,537.4358618423993,535.0420837489081,917.3561223170191
207596.0,13595.0,207596.0,27766.0,207596.0,29572.0,525.7871074598731,527.4100088188244,905.6038409174721
207596.0,13606.0,207596.0,27771.0,207596.0,29580.0,514.3164101905998,519.7967624989845,893.7808535417018
207596.0,13603.0,207596.0,27767.0,207596.0,29576.0,503.03253419958077,512.210470785004,881.9040668637105
207596.0,13568.0,207596.0,27762.0,207596.0,29554.0,491.94346038972475,504.65788070757094,869.989499095266
207596.0,13578.0,207596.0,27789.0,207596.0,29575.0,481.0565145105661,497.1446324025858,858.0525234049356
207607.0,13581.0,207607.0,27847.0,207607.0,29552.0,470.37840421616175,489.67575490419074,846.1080926244413
207607.0,13606.0,207607.0,27868.0,207607.0,29576.0,459.9154967203083,482.2566991430341,834.1710560433687
207607.0,13565.0,207607.0,27840.0,207607.0,29539.0,449.6743489681667,474.8946044137663,822.256511137823
207607.0,13516.0,207607.0,27723.0,207607.0,29480.0,439.6619821585725,467.598853044357,810.3799185689332
207607.0,13500.0,207607.0,27695.0,207607.0,29456.0,429.88551387144037,460.38025127509707,798.5566602138715
207607.0,13488.0,207607.0,27677.0,207607.0,29444.0,420.3514713699371,453.24939662154566,786.8012380573539
207617.0,13465.0,207617.0,27623.0,207617.0,29395.0,411.0653099956602,446.21531205440306,775.1266173592106
207617.0,13465.0,207617.0,27643.0,207617.0,29413.0,402.03118097324733,439.28459761350103,763.543788514451
207617.0,13457.0,207617.0,27709.0,207617.0,29428.0,393.2518270277221,432.4610951288725,752.0615815944788
207617.0,13445.0,207617.0,27697.0,207617.0,29432.0,384.72859556176013,425.7463916558281,740.6869699882785
207617.0,13472.0,207617.0,27654.0,207617.0,29407.0,376.46155716005,419.14071020442213,729.4256544095535
207617.0,13455.0,207617.0,27712.0,207617.0,29420.0,368.44977591870355,412.64332559878994,718.2824636048299
207627.0,13473.0,207627.0,27789.0,207627.0,29421.0,360.6917113544446,406.2529182866731,707.2615877593103
207627.0,13470.0,207627.0,27739.0,207627.0,29436.0,353.1856264460288,399.9686391703683,696.3669439466365
207627.0,13427.0,207627.0,27678.0,207627.0,29364.0,345.92988447476284,393.79110635751715,685.602578365079
207627.0,13397.0,207627.0,27676.0,207627.0,29324.0,338.92287972719316,387.72224508956384,674.9725750146961
207627.0,13383.0,207627.0,27604.0,207627.0,29319.0,332.16251306946344,381.76433711942536,664.4803229536574
207627.0,13378.0,207627.0,27606.0,207627.0,29315.0,325.6455989793931,375.91902016559675,654.1277774543249
207638.0,13376.0,207638.0,27548.0,207638.0,29296.0,319.3675623075761,370.1863669006173,643.9152026716887
207638.0,13383.0,207638.0,27614.0,207638.0,29303.0,313.32243499233687,364.56417699900874,633.841201487715
207638.0,13378.0,207638.0,27619.0,207638.0,29297.0,307.5030355001302,359.04787485078106,623.9028220551852
207638.0,13381.0,207638.0,27621.0,207638.0,29300.0,301.90121178144125,353.6310737231896,614.095769414474
207638.0,13374.0,207638.0,27638.0,207638.0,29297.0,296.50805487861953,348.3062843929249,604.4146959650606
207638.0,13407.0,207638.0,27672.0,207638.0,29317.0,291.3141239184,343.06549726643397,594.8535425922726
207648.0,13408.0,207648.0,27732.0,207648.0,29335.0,286.3098426446655,337.90098629698826,585.4060317998369
207648.0,13388.0,207648.0,27662.0,207648.0,29324.0,281.4860091014027,332.8063794649165,576.0663312475917
207648.0,13362.0,207648.0,27639.0,207648.0,29272.0,276.8340322385815,327.7772533531953,566.8295458788471
207648.0,13346.0,207648.0,27566.0,207648.0,29220.0,272.3457014575799,322.81067121088563,557.6915531271692
207648.0,13338.0,207648.0,27530.0,207648.0,29217.0,268.012740315443,317.903960114235,548.6481975511784
207648.0,13309.0,207648.0,27536.0,207648.0,29188.0,263.8264077405018,313.05338099504996,539.6944359628804
207658.0,13324.0,207658.0,27541.0,207658.0,29212.0,259.7771794111844,308.2532744694455,530.8238885288765
207658.0,13336.0,207658.0,27582.0,207658.0,29230.0,255.8546046982885,303.4959780609767,522.0288850555784
207658.0,13337.0,207658.0,27573.0,207658.0,29212.0,252.04749328091228,298.77233489167287,513.3009196426216
207658.0,13338.0,207658.0,27596.0,207658.0,29219.0,248.34428606284413,294.0723751726256,504.63116586608595
207658.0,13336.0,207658.0,27593.0,207658.0,29223.0,244.7333476622792,289.38588543593505,496.01080788810316
207658.0,13370.0,207658.0,27645.0,207658.0,29235.0,241.20320917432147,284.7029346258133,487.4313618092366
207669.0,13361.0,207669.0,27655.0,207669.0,29238.0,237.74295382883457,280.01460223769527,478.88513527176633
207669.0,13350.0,207669.0,27607.0,207669.0,29190.0,234.34266091124664,275.31377120153894,470.36563332682357
207669.0,13297.0,207669.0,27571.0,207669.0,29166.0,230.9935096210118,270.5953584357428,461.86754856243437
207669.0,13281.0,207669.0,27525.0,207669.0,29108.0,227.68731653043096,265.8556898597483,453.3862001122103
207669.0,13292.0,207669.0,27501.0,207669.0,29124.0,224.41581251411742,261.0914308501132,444.9167070652496
207669.0,13289.0,207669.0,27501.0,207669.0,29106.0,221.17021391840603,256.29860248495623,436.4533699860888
207679.0,13288.0,207679.0,27536.0,207679.0,29111.0,217.94122585512815,251.47207427369466,427.9894954597562
207679.0,13303.0,207679.0,27508.0,207679.0,29126.0,214.71921684433056,246.60566302440262,419.5175444481021
207679.0,13282.0,207679.0,27525.0,207679.0,29105.0,211.49441534789116,241.69247779245327,411.0294427728364
207679.0,13309.0,207679.0,27544.0,207679.0,29105.0,208.25709409765142,236.72520147670335,402.51688194679366
207679.0,13309.0,207679.0,27609.0,207679.0,29148.0,204.9977850271365,231.69659057474328,393.97156810960746
207679.0,13320.0,207679.0,27634.0,207679.0,29147.0,201.70762225396163,226.60052925919499,385.38571479057
207689.0,13289.0,207689.0,27602.0,207689.0,29101.0,198.37867782367425,221.4333121743237,376.7527089270222
207689.0,13280.0,207689.0,27521.0,207689.0,29086.0,195.00401527087104,216.19425962803282,368.0673331471979
207689.0,13261.0,207689.0,27449.0,207689.0,29059.0,191.57742684827355,210.8850338919409,359.3254008423782
207689.0,13245.0,207689.0,27453.0,207689.0,29022.0,188.09304690229777,205.50804721565143,350.5231988224508
207689.0,13231.0,207689.0,27414.0,207689.0,29005.0,184.54496706975516,200.06499766125756,341.65690566402054
207689.0,13233.0,207689.0,27414.0,207689.0,29035.0,180.92690205853063,194.55603458042765,332.7221133711532
207700.0,13250.0,207700.0,27453.0,207700.0,29013.0,177.23204584228353,188.97943226848832,323.7137641276523
207700.0,13264.0,207700.0,27489.0,207700.0,29018.0,173.4532621557181,183.33185476588804,314.6264354994408
207700.0,13245.0,207700.0,27485.0,207700.0,29004.0,169.5835022492132,177.60921995166282,305.4545978345689
207700.0,13257.0,207700.0,27488.0,207700.0,29024.0,165.61613847458625,171.80761459737997,296.19279141296084
207700.0,13273.0,207700.0,27534.0,207700.0,29054.0,161.54516535367492,165.92392456238,286.8359845768368
207700.0,13268.0,207700.0,27522.0,207700.0,29036.0,157.3654970173082,159.9564534447909,277.38023240838356
207710.0,13241.0,207710.0,27483.0,207710.0,28984.0,153.07328632503288,153.9055176350652,267.82323945802176
207710.0,13198.0,207710.0,27402.0,207710.0,28947.0,148.66587727176238,147.7733985621988,258.16424785979086
207710.0,13186.0,207710.0,27363.0,207710.0,28929.0,144.14126533484875,141.5633323761182,248.4033075706417
207710.0,13180.0,207710.0,27398.0,207710.0,28901.0,139.49740988352107,135.2781461414608,238.54049338019155
207710.0,13180.0,207710.0,27351.0,207710.0,28906.0,134.73181358366082,128.91944505352177,228.575394515148
207710.0,13207.0,207710.0,27394.0,207710.0,28889.0,129.8415004091746,122.48747404191334,218.50689303085028
207720.0,13186.0,207720.0,27417.0,207720.0,28901.0,124.82330329590746,115.98135824954511,208.33318445850932
207720.0,13184.0,207720.0,27380.0,207720.0,28883.0,119.67419439868371,109.39964142507307,198.0519557454416
207720.0,13188.0,207720.0,27405.0,207720.0,28880.0,114.39143341524112,102.74078631164446,187.6605950710868
207720.0,13202.0,207720.0,27423.0,207720.0,28907.0,108.9726858481248,96.00345695947328,177.15641337022407
207720.0,13194.0,207720.0,27460.0,207720.0,28923.0,103.41631163563062,89.18701203057526,166.5370881063111
207720.0,13177.0,207720.0,27414.0,207720.0,28869.0,97.72167041894573,82.29228198219357,155.80130508735647
207731.0,13139.0,207731.0,27343.0,207731.0,28851.0,91.88914195944619,75.32192588650594,144.9490499623368
207731.0,13129.0,207731.0,27296.0,207731.0,28809.0,85.91977065758283,68.27976883561956,133.98126813809415
207731.0,13117.0,207731.0,27283.0,207731.0,28812.0,79.81476486663519,61.16946793156694,122.89927357578154
207731.0,13096.0,207731.0,27290.0,207731.0,28763.0,73.5751181020064,53.99341742345388,111.70427880399689
207731.0,13097.0,207731.0,27298.0,207731.0,28774.0,67.20136627672377,46.75237655416174,100.39705420535302
207731.0,13112.0,207731.0,27295.0,207731.0,28771.0,60.693487003524126,39.44565207580706,88.97773272919244
207741.0,13104.0,207741.0,27316.0,207741.0,28763.0,54.051060343973404,32.07148530355323,77.4458935698342
207741.0,13083.0,207741.0,27292.0,207741.0,28767.0,47.273551364809066,24.627459565151526,65.80084385341456
207741.0,13106.0,207741.0,27318.0,207741.0,28763.0,40.36045952150528,17.110851193628775,54.041932395520575
207741.0,13093.0,207741.0,27376.0,207741.0,28776.0,33.311440114163645,9.519077935268001,42.16891375705643
207741.0,13096.0,207741.0,27372.0,207741.0,28783.0,26.12655365267358,1.850574715372204,30.182431416272607
207741.0,13085.0,207741.0,27297.0,207741.0,28720.0,18.80651361894121,-5.894271484805529,18.084480418386306
207751.0,13046.0,207751.0,27229.0,207751.0,28699.0,11.35276060293495,-13.713137434324096,5.878440683062649
207751.0,13017.0,207751.0,27218.0,207751.0,28642.0,3.7672211266689715,-21.60290419483738,-6.431483018418703
207751.0,13017.0,207751.0,27225.0,207751.0,28650.0,-3.9482104386759715,-29.560912629745417,-18.841046206045576
207751.0,12998.0,207751.0,27203.0,207751.0,28624.0,-11.792122889348548,-37.585524481539835,-31.346527842107434
207751.0,13003.0,207751.0,27194.0,207751.0,28599.0,-19.76376375435342,-45.67619551413236,-43.944980555349275
207751.0,12992.0,207751.0,27202.0,207751.0,28594.0,-27.863024450257456,-53.833497894006484,-56.63438864152238
207762.0,12992.0,207762.0,27183.0,207762.0,28609.0,-36.09033219031306,-62.05909790053289,-69.41375214983225
207762.0,12996.0,207762.0,27206.0,207762.0,28616.0,-44.44647901109772,-70.35561204860659,-82.28284011194296
207762.0,13006.0,207762.0,27257.0,207762.0,28626.0,-52.93234945762623,-78.72622824659595,-95.24159271627184
207762.0,13037.0,207762.0,27297.0,207762.0,28594.0,-61.54844774668186,-87.17379442863302,-108.2894760032774
207762.0,12993.0,207762.0,27242.0,207762.0,28575.0,-70.29427498233827,-95.69956075550084,-121.42513515071118
207762.0,12961.0,207762.0,27203.0,207762.0,28534.0,-79.16797330270543,-104.30247788596915,-134.64648601039664
207772.0,12923.0,207772.0,27123.0,207772.0,28520.0,-88.16660934366826,-112.97963209423403,-147.95110328292446
207772.0,12909.0,207772.0,27096.0,207772.0,28496.0,-97.28687244645056,-121.72749954105143,-161.33665445542704
207772.0,12890.0,207772.0,27081.0,207772.0,28461.0,-106.5257121248676,-130.5433054073153,-174.80125815496717
207772.0,12874.0,207772.0,27093.0,207772.0,28458.0,-115.88073882928137,-139.4258849205114,-188.34381151185823
207772.0,12880.0,207772.0,27081.0,207772.0,28481.0,-125.35043059976698,-148.37588040840376,-201.9641631458545
207772.0,12889.0,207772.0,27103.0,207772.0,28463.0,-134.9341072344784,-157.39552940293896,-215.66287682463724
207782.0,12874.0,207782.0,27149.0,207782.0,28442.0,-144.6316436934784,-166.48817531973282,-229.44077805832342
207782.0,12878.0,207782.0,27109.0,207782.0,28425.0,-154.4431150188712,-175.65748243732014,-243.29873693177694
207782.0,12902.0,207782.0,27175.0,207782.0,28475.0,-164.3684658737489,-184.90661209272423,-257.23759608789237
207782.0,12880.0,207782.0,27176.0,207782.0,28444.0,-174.40706506967058,-194.237451056785,-271.25777636266525
207782.0,12852.0,207782.0,27123.0,207782.0,28398.0,-184.55729282442314,-203.64983331383507,-285.3587259978017
207782.0,12801.0,207782.0,27018.0,207782.0,28351.0,-194.81657766236475,-213.1414068316189,-299.5389237491644
207793.0,12780.0,207793.0,26982.0,207793.0,28330.0,-205.18195991226986,-222.7087463708417,-313.79653709715524
207793.0,12774.0,207793.0,27021.0,207793.0,28321.0,-215.6507993992043,-232.34895350558804,-328.13014063186813
207793.0,12767.0,207793.0,26981.0,207793.0,28301.0,-226.2211943446556,-242.06049936406612,-342.53907980464214
207793.0,12742.0,207793.0,26995.0,207793.0,28284.0,-236.89206298698775,-251.84323124727746,-357.02356103749116
207793.0,12772.0,207793.0,27014.0,207793.0,28285.0,-247.66308630776098,-261.6981421931373,-371.58466248860645
207793.0,12740.0,207793.0,27023.0,207793.0,28294.0,-258.5345240443263,-271.62695004165334,-386.22420880647655
207803.0,12746.0,207803.0,26998.0,207803.0,28251.0,-269.50693233614516,-281.6314859778148,-400.9444632974762
207803.0,12748.0,207803.0,27042.0,207803.0,28284.0,-280.5809226387853,-291.7131879688866,-415.74783577884455
207803.0,12765.0,207803.0,27056.0,207803.0,28276.0,-291.75684856631847,-301.87257762470256,-430.6365858142558
207803.0,12736.0,207803.0,26995.0,207803.0,28257.0,-303.0343275593084,-312.10858688019243,-445.6123593655867
207803.0,12689.0,207803.0,26948.0,207803.0,28211.0,-314.4119414064396,-322.41833553595893,-460.67585425871505
207803.0,12670.0,207803.0,26907.0,207803.0,28158.0,-325.8874677636255,-332.7977947929504,-475.82702725388174
207814.0,12637.0,207814.0,26877.0,207814.0,28155.0,-337.45847070014463,-343.2428754612507,-491.0657536545863
207814.0,12634.0,207814.0,26854.0,207814.0,28138.0,-349.1228395246651,-353.7503763443216,-506.39243352274457
207814.0,12605.0,207814.0,26837.0,207814.0,28117.0,-360.8791140671417,-364.31865125830575,-521.808220704684
207814.0,12614.0,207814.0,26870.0,207814.0,28133.0,-372.7266329085089,-374.9479381171948,-537.3149859577255
207814.0,12615.0,207814.0,26902.0,207814.0,28125.0,-384.66548841554015,-385.6401315736773,-552.9150869967754
207814.0,12592.0,207814.0,26834.0,207814.0,28123.0,-396.69628051031407,-396.3980943273218,-568.6109292171016
207824.0,12596.0,207824.0,26884.0,207824.0,28092.0,-408.8198492869677,-407.2251323758977,-584.4045335631183
207824.0,12625.0,207824.0,26939.0,207824.0,28122.0,-421.0370147945547,-418.12462400881407,-600.2972592053487
207824.0,12596.0,207824.0,26944.0,207824.0,28097.0,-433.34811147622315,-429.0990860522073,-616.289492762722
207824.0,12569.0,207824.0,26874.0,207824.0,28085.0,-445.75251152324824,-440.14898082856405,-632.3802352282272
207824.0,12541.0,207824.0,26798.0,207824.0,28013.0,-458.2485783101441,-451.2724678737802,-648.5669346714187
207824.0,12492.0,207824.0,26780.0,207824.0,27988.0,-470.8340620761412,-462.4663897917517,-664.845870334753
207834.0,12478.0,207834.0,26769.0,207834.0,27966.0,-483.5067051756931,-473.72755329347194,-681.2128817849343
207834.0,12479.0,207834.0,26741.0,207834.0,27931.0,-496.2647898342151,-485.05348185626553,-697.6639858736098
207834.0,12473.0,207834.0,26767.0,207834.0,27936.0,-509.10732289595353,-496.4426522382429,-714.195719738188
207834.0,12468.0,207834.0,26764.0,207834.0,27946.0,-522.0338495237484,-507.89438289308123,-730.8051856844577
207834.0,12446.0,207834.0,26743.0,207834.0,27928.0,-535.0441832536042,-519.4084593332859,-747.4897231875739
207834.0,12448.0,207834.0,26759.0,207834.0,27920.0,-548.1382365819716,-530.9847777663111,-764.2464266730547
207845.0,12457.0,207845.0,26817.0,207845.0,27921.0,-561.3158529349649,-542.6229463064707,-781.0717803503135
207845.0,12464.0,207845.0,26807.0,207845.0,27927.0,-574.5764275379255,-554.3214370095207,-797.9613029446659
207845.0,12422.0,207845.0,26749.0,207845.0,27890.0,-587.9183961228257,-566.0766105265183,-814.9091032883691
207845.0,12392.0,207845.0,26738.0,207845.0,27836.0,-601.3390124333371,-577.8824431618607,-831.9076626228009
207845.0,12368.0,207845.0,26668.0,207845.0,27816.0,-614.8346108827772,-589.7310394309718,-848.9481473638868
207845.0,12340.0,207845.0,26624.0,207845.0,27786.0,-628.4010812513792,-601.6135235412462,-866.0210097268314
207855.0,12303.0,207855.0,26620.0,207855.0,27751.0,-642.0343207858994,-613.5210712417211,-883.116489961332
207855.0,12313.0,207855.0,26583.0,207855.0,27740.0,-655.7306375208738,-625.4457504260743,-900.2249901447597
207855.0,12327.0,207855.0,26601.0,207855.0,27759.0,-669.4868924605693,-637.3809400600944,-917.3372652054043
207855.0,12323.0,207855.0,26660.0,207855.0,27744.0,-683.3001540856571,-649.3212447129469,-934.4442088780183
207855.0,12298.0,207855.0,26623.0,207855.0,27731.0,-697.1671283748378,-661.2617895581383,-951.5363623898288
207855.0,12296.0,207855.0,26636.0,207855.0,27733.0,-711.0838015669284,-673.1973149378442,-968.6034983060124
207865.0,12310.0,207865.0,26713.0,207865.0,27761.0,-725.0452553033343,-685.1214592153788,-985.6342211622302
207865.0,12285.0,207865.0,26651.0,207865.0,27720.0,-739.0453568008187,-697.0258921401197,-1002.6153686872906
207865.0,12259.0,207865.0,26620.0,207865.0,27685.0,-753.0764274291937,-708.8995235771096,-1019.5315195756496
207865.0,12211.0,207865.0,26550.0,207865.0,27638.0,-767.1292602368763,-720.7286095083075,-1036.3650757211115
207865.0,12197.0,207865.0,26516.0,207865.0,27618.0,-781.193541314031,-732.4977212609014,-1053.096822273581
207865.0,12190.0,207865.0,26510.0,207865.0,27597.0,-795.2583353036906,-744.1908721204147,-1069.7065107480862
207876.0,12164.0,207876.0,26465.0,207876.0,27572.0,-809.3123196905204,-755.7923140983708,-1086.1732189084871
207876.0,12169.0,207876.0,26508.0,207876.0,27559.0,-823.3437945268812,-767.2869223882021,-1102.4755406935876
207876.0,12177.0,207876.0,26507.0,207876.0,27572.0,-837.3405408171309,-778.6601336109866,-1118.5916331695653
207876.0,12136.0,207876.0,26510.0,207876.0,27551.0,-851.2895178239473,-789.8974262002242,-1134.4990159699953
207876.0,12132.0,207876.0,26503.0,207876.0,27537.0,-865.1766344478881,-800.9836935071028,-1150.1742332152573
207876.0,12133.0,207876.0,26550.0,207876.0,27562.0,-878.9867205768192,-811.9027225960366,-1165.5925648267996
207886.0,12156.0,207886.0,26576.0,207886.0,27541.0,-892.7033568570732,-822.6364615073645,-1180.7276605083212
207886.0,12103.0,207886.0,26519.0,207886.0,27530.0,-906.308421722092,-833.1640471927589,-1195.5510729169907
207886.0,12076.0,207886.0,26463.0,207886.0,27475.0,-919.7818216701967,-843.4613475418246,-1210.0320369399033
207886.0,12059.0,207886.0,26415.0,207886.0,27419.0,-933.101729176043,-853.5015544646994,-1224.13778943851
207886.0,12026.0,207886.0,26362.0,207886.0,27426.0,-946.2450313990304,-863.2564321571296,-1237.8343272441996
207886.0,12006.0,207886.0,26358.0,207886.0,27405.0,-959.1877090941667,-872.6975778586456,-1251.0870722205984
207896.0,11988.0,207896.0,26354.0,207896.0,27388.0,-971.9051727765894,-881.7972892336885,-1263.8611004541756
207896.0,12004.0,207896.0,26399.0,207896.0,27409.0,-984.3724719171695,-890.5287721529099,-1276.1211087047157
207896.0,11987.0,207896.0,26367.0,207896.0,27376.0,-996.5642059479386,-898.865732266326,-1287.831248764862
207896.0,11981.0,207896.0,26375.0,207896.0,27372.0,-1008.454233001306,-906.7818268130926,-1298.9549199181176
207896.0,11968.0,207896.0,26400.0,207896.0,27383.0,-1020.0154342211663,-914.2503094157488,-1309.4546542245644
207896.0,11984.0,207896.0,26438.0,207896.0,27390.0,-1031.2195506863134,-921.2435631386512,-1319.2919157122442
207907.0,11971.0,207907.0,26417.0,207907.0,27383.0,-1042.0369177651785,-927.7322879347348,-1328.426673031984
207907.0,11943.0,207907.0,26390.0,207907.0,27325.0,-1052.436158532742,-933.6848169346619,-1336.8170787181805
207907.0,11906.0,207907.0,26291.0,207907.0,27267.0,-1062.3841610080178,-939.0672202418218,-1344.4197562119934
207907.0,11877.0,207907.0,26253.0,207907.0,27267.0,-1071.8464839117196,-943.8444097456513,-1351.1907344481733
207907.0,11875.0,207907.0,26277.0,207907.0,27261.0,-1080.7879471418305,-947.9816854682508,-1357.0863919047408
207907.0,11825.0,207907.0,26241.0,207907.0,27242.0,-1089.1731227308046,-951.4457754383885,-1362.0639015511351
207917.0,11844.0,207917.0,26256.0,207917.0,27240.0,-1096.9667172972377,-954.205177947805,-1366.081378446786
207917.0,11837.0,207917.0,26262.0,207917.0,27246.0,-1104.1338147537567,-956.2302342626901,-1369.0979924322523
207917.0,11818.0,207917.0,26273.0,207917.0,27219.0,-1110.639869106448,-957.4930279231397,-1371.0740250065876
207917.0,11815.0,207917.0,26275.0,207917.0,27223.0,-1116.4506366808569,-957.967103497344,-1371.9709546838635
207917.0,11846.0,207917.0,26330.0,207917.0,27218.0,-1121.5321480557027,-957.6270846231984,-1371.7516449667046
207917.0,11856.0,207917.0,26356.0,207917.0,27265.0,-1125.8504253527312,-956.4480343508511,-1370.3804095261441
207927.0,11834.0,207927.0,26301.0,207927.0,27232.0,-1129.3709399159748,-954.4046598029325,-1367.8227797267493
207927.0,11793.0,207927.0,26267.0,207927.0,27220.0,-1132.058339675692,-951.4710986004328,-1364.045293377329
207927.0,11775.0,207927.0,26234.0,207927.0,27182.0,-1133.8767994435577,-947.6216723795962,-1359.0157733018464
207927.0,11747.0,207927.0,26191.0,207927.0,27148.0,-1134.7907645756052,-942.8321407491903,-1352.7041352593217
207927.0,11745.0,207927.0,26184.0,207927.0,27149.0,-1134.7656904809241,-937.080974857161,-1345.0834408988148
207927.0,11719.0,207927.0,26191.0,207927.0,27136.0,-1133.7686232898436,-930.3504125334009,-1336.1308567238243
207938.0,11745.0,207938.0,26231.0,207938.0,27181.0,-1131.7686187427717,-922.6270062982594,-1325.8282467221418
207938.0,11753.0,207938.0,26229.0,207938.0,27200.0,-1128.7369092927734,-913.9015798067891,-1314.1622698731217
207938.0,11759.0,207938.0,26257.0,207938.0,27200.0,-1124.6467637568219,-904.1689088617775,-1301.1241085868035
207938.0,11755.0,207938.0,26299.0,207938.0,27246.0,-1119.473263056154,-893.4273782361182,-1286.709176587257
207938.0,11760.0,207938.0,26374.0,207938.0,27269.0,-1113.19323778227,-881.6783999658711,-1270.9168692642975
207938.0,11775.0,207938.0,26379.0,207938.0,27317.0,-1105.785321850506,-868.9254110413127,-1253.750142132394
207948.0,11760.0,207948.0,26349.0,207948.0,27278.0,-1097.2299975200083,-855.172966509916,-1235.2150530102463
207948.0,11738.0,207948.0,26269.0,207948.0,27256.0,-1087.509759963676,-840.4268041570597,-1215.3208081602384
207948.0,11734.0,207948.0,26314.0,207948.0,27301.0,-1076.6096043866796,-824.6950182266893,-1194.0804801570678
207948.0,11747.0,207948.0,26328.0,207948.0,27302.0,-1064.5176784025953,-807.9893483375532,-1171.5117637552867
207948.0,11746.0,207948.0,26318.0,207948.0,27329.0,-1051.2257621829217,-790.32575764002,-1147.6373038670972
207948.0,11774.0,207948.0,26368.0,207948.0,27371.0,-1036.7295039014928,-771.724581117382,-1122.4847832750997
207958.0,11800.0,207958.0,26413.0,207958.0,27418.0,-1021.0284593037637,-752.2105187347834,-1096.0868260074217
207958.0,11826.0,207958.0,26433.0,207958.0,27457.0,-1004.1259132793418,-731.8122785005778,-1068.4806142937641
207958.0,11849.0,207958.0,26512.0,207958.0,27483.0,-986.0285644017346,-710.5619556639131,-1039.7074022074648
207958.0,11854.0,207958.0,26549.0,207958.0,27558.0,-966.7462666082408,-688.49427057357,-1009.8121008579911
207958.0,11919.0,207958.0,26627.0,207958.0,27609.0,-946.2918743510414,-665.6455872689012,-978.8427658356733
207958.0,11930.0,207958.0,26623.0,207958.0,27611.0,-924.6809925784476,-642.0528756130011,-946.8499409393534
207969.0,11922.0,207969.0,26571.0,207969.0,27645.0,-901.9316635119013,-617.7531824428562,-913.8862897122686
207969.0,11921.0,207969.0,26579.0,207969.0,27668.0,-878.064436955324,-592.7841427802645,-880.0067135001107
207969.0,11949.0,207969.0,26605.0,207969.0,27692.0,-853.1029085453645,-567.1851555090343,-845.2686446956084
207969.0,11970.0,207969.0,26630.0,207969.0,27718.0,-827.0742517201859,-540.9982630437488,-809.7323312517544
207969.0,12002.0,207969.0,26658.0,207969.0,27771.0,-800.0094491954185,-514.2684463325713,-773.4610903603835
207969.0,12051.0,207969.0,26728.0,207969.0,27860.0,-771.9432716307595,-487.0435746469775,-736.5212864945107
207979.0,12087.0,207979.0,26810.0,207979.0,27894.0,-742.9140429565865,-459.3739439424604,-698.9818071314997
207979.0,12114.0,207979.0,26795.0,207979.0,27950.0,-712.9632802795738,-431.31139819859897,-660.9133011430608
207979.0,12168.0,207979.0,26901.0,207979.0,28012.0,-682.1353811687595,-402.90851376357114,-622.3875682065645
207979.0,12249.0,207979.0,26993.0,207979.0,28090.0,-650.4772477009315,-374.2178409885309,-583.4769897011386
207979.0,12275.0,207979.0,27001.0,207979.0,28136.0,-618.0376029873528,-345.2907319605748,-544.2537700922471
207979.0,12288.0,207979.0,27007.0,207979.0,28143.0,-584.8662779432642,-316.17624845718973,-504.7892414574488
207989.0,12292.0,207989.0,26949.0,207989.0,28193.0,-551.0140414637137,-286.921111757992,-465.15365380199717
207989.0,12336.0,207989.0,26981.0,207989.0,28224.0,-516.5329946535903,-257.57072712693036,-425.41636385991757
207989.0,12364.0,207989.0,26997.0,207989.0,28276.0,-481.4770215335722,-228.17048004715818,-385.64599917008934
207989.0,12406.0,207989.0,27026.0,207989.0,28313.0,-445.90197478040676,-198.76656811112346,-345.9104474460742
207989.0,12463.0,207989.0,27095.0,207989.0,28379.0,-409.865625107094,-169.4062436349054,-306.2767216314721
207989.0,12520.0,207989.0,27154.0,207989.0,28420.0,-373.4273846152589,-140.13754239590003,-266.8106903474967
208000.0,12567.0,208000.0,27235.0,208000.0,28477.0,-336.6478022513533,-111.00848887123828,-227.57670192015792
208000.0,12606.0,208000.0,27242.0,208000.0,28524.0,-299.58801967690806,-82.06604153770928,-188.63719294823738
208000.0,12656.0,208000.0,27307.0,208000.0,28592.0,-262.3093717794727,-53.35524821602007,-150.0522773084083
208000.0,12739.0,208000.0,27383.0,208000.0,28667.0,-224.87301854499054,-24.9186443535566,-111.87918406289714
208000.0,12773.0,208000.0,27386.0,208000.0,28671.0,-187.33936751213986,3.2044471874885403,-74.17156459043963
208000.0,12812.0,208000.0,27381.0,208000.0,28703.0,-149.76741435239137,30.97847133641693,-36.97906981304635
208009.0,12797.0,208009.0,27354.0,208009.0,28693.0,-112.21446103238492,58.37141683827224,-0.34753374397143943
208009.0,12828.0,208009.0,27363.0,208009.0,28740.0,-74.73644844755034,85.35383246616959,35.6804143184919
208009.0,12881.0,208009.0,27368.0,208009.0,28743.0,-37.388585966064625,111.89765920808333,71.06470102285033
208009.0,12913.0,208009.0,27400.0,208009.0,28829.0,-0.22571144595451642,137.97534080677218,105.76740023892143
208009.0,12986.0,208009.0,27482.0,208009.0,28860.0,36.69779613268531,163.55946654087523,139.7527478151231
208009.0,13026.0,208009.0,27520.0,208009.0,28892.0,73.32839130082328,188.6231130907733,172.9875021245934
208020.0,13070.0,208020.0,27553.0,208020.0,28941.0,109.61385778860478,213.14065364742993,205.4412852645346
208020.0,13119.0,208020.0,27586.0,208020.0,28961.0,145.50374486341548,237.0884684879071,237.08676229935486
208020.0,13174.0,208020.0,27694.0,208020.0,29030.0,180.9497318379896,260.44550926893885,267.8998133324285
208020.0,13221.0,208020.0,27698.0,208020.0,29072.0,215.90606403794584,283.19414884498394,297.85986118746507
208020.0,13238.0,208020.0,27645.0,208020.0,29082.0,250.32999905380348,305.32099348797794,326.9503372646036
208020.0,13237.0,208020.0,27629.0,208020.0,29061.0,284.18195108025714,326.81667252480304,355.1588632783861
208030.0,13248.0,208030.0,27614.0,208030.0,29066.0,317.42511414295507,347.67456738115084,382.47675479163695
208030.0,13299.0,208030.0,27640.0,208030.0,29104.0,350.0248043001077,367.88942947451005,408.8981403935303
208030.0,13324.0,208030.0,27632.0,208030.0,29123.0,381.9480319968367,387.4564781161697,434.4193383337762
208030.0,13347.0,208030.0,27701.0,208030.0,29161.0,413.16342712682024,406.3709806324373,459.0386952096277
208030.0,13403.0,208030.0,27759.0,208030.0,29189.0,443.6412689574222,424.62837557954174,482.7566763648341
208030.0,13438.0,208030.0,27743.0,208030.0,29214.0,473.3536097936259,442.22492099198473,505.5760421113788
208040.0,13474.0,208040.0,27792.0,208040.0,29227.0,502.27458643376883,459.1583173560964,527.5019984548107
208040.0,13503.0,208040.0,27834.0,208040.0,29272.0,530.3807584229302,475.428032221605,548.5422655700206
208040.0,13559.0,208040.0,27881.0,208040.0,29288.0,557.651378824099,491.035767689616,568.7071852823261
208040.0,13577.0,208040.0,27858.0,208040.0,29313.0,584.0687136150348,505.9861395942737,588.0099259919061
208040.0,13568.0,208040.0,27827.0,208040.0,29283.0,609.6182990758972,520.2869308471519,606.4665600745826
208040.0,13582.0,208040.0,27797.0,208040.0,29266.0,634.2887977576688,533.948479648905,624.0956895410723
208051.0,13589.0,208051.0,27763.0,208051.0,29264.0,658.0714737411857,546.9824350536006,640.9175809921754
208051.0,13601.0,208051.0,27765.0,208051.0,29282.0,680.9596336176986,559.4003794274722,656.9532200956106
208051.0,13610.0,208051.0,27823.0,208051.0,29307.0,702.9481771678857,571.2128193272821,672.2237443263521
208051.0,13673.0,208051.0,27865.0,208051.0,29334.0,724.0333126052298,582.4290240587146,686.7503524637282
208051.0,13672.0,208051.0,27821.0,208051.0,29337.0,744.2125984518514,593.0575436115972,700.5544837467353
208051.0,13690.0,208051.0,27887.0,208051.0,29375.0,763.4851765826256,603.1066042782057,713.6580191084652
208061.0,13703.0,208061.0,27916.0,208061.0,29366.0,781.8518322482037,612.5842784642261,726.0834329646434
208061.0,13762.0,208061.0,27998.0,208061.0,29409.0,799.314958006308,621.4990881518657,737.8539272265482
208061.0,13789.0,208061.0,27991.0,208061.0,29408.0,815.8788181841476,629.8611429306278,748.9935832371084
208061.0,13769.0,208061.0,27965.0,208061.0,29388.0,831.550044986041,637.6831040066004,759.5274620723358
208061.0,13737.0,208061.0,27890.0,208061.0,29375.0,846.337732682766,644.9801866281133,769.481377205135
208061.0,13736.0,208061.0,27896.0,208061.0,29357.0,860.2527896858603,651.7691033813202,778.8812517061369
208071.0,13744.0,208071.0,27879.0,208071.0,29369.0,873.3069974867221,658.0667047464775,787.7523566424484
208071.0,13750.0,208071.0,27854.0,208071.0,29371.0,885.5123508558249,663.8889821954737,796.1187475703841
208071.0,13791.0,208071.0,27862.0,208071.0,29378.0,896.8808165446715,669.2503665201114,804.0029853340993
208071.0,13793.0,208071.0,27919.0,208071.0,29383.0,907.4244352304934,674.163288506686,811.426020998796
208071.0,13802.0,208071.0,27940.0,208071.0,29429.0,917.1555760879155,678.6383677881938,818.4072037175667
208071.0,13826.0,208071.0,27935.0,208071.0,29412.0,926.087110869159,682.6851181660174,824.9645039453146
208082.0,13823.0,208082.0,28019.0,208082.0,29449.0,934.2325212567237,686.3126631211277,831.114842091145
208082.0,13861.0,208082.0,28050.0,208082.0,29490.0,941.6060564461916,689.5305704762121,836.8744390518168
208082.0,13863.0,208082.0,28022.0,208082.0,29477.0,948.2229830191084,692.3499495837466,842.2593317570918
208082.0,13827.0,208082.0,27926.0,208082.0,29421.0,954.0998011721704,694.7839708766562,847.2857354734597
208082.0,13813.0,208082.0,27919.0,208082.0,29423.0,959.2540625394251,696.8470626914772,851.9696735634
208082.0,13790.0,208082.0,27888.0,208082.0,29407.0,963.7037020581492,698.553381944076,856.3261008372149
208092.0,13805.0,208092.0,27870.0,208092.0,29426.0,967.4662840152102,699.9155397124531,860.3682100770307
208092.0,13803.0,208092.0,27918.0,208092.0,29444.0,970.5585360915245,700.9438686555965,864.1071944611652
208092.0,13823.0,208092.0,27938.0,208092.0,29465.0,972.9962457215097,701.6463229394445,867.5524148741625
208092.0,13813.0,208092.0,27930.0,208092.0,29467.0,974.7943785929547,702.0289637925094,870.7117977002006
208092.0,13833.0,208092.0,27944.0,208092.0,29469.0,975.9672427129178,702.096494145278,873.592187567675
208092.0,13850.0,208092.0,27981.0,208092.0,29498.0,976.5286894584651,701.8525952572513,876.1995556224182
208102.0,13858.0,208102.0,28053.0,208102.0,29516.0,976.4924584027713,701.3005144368818,878.5392654758848
208102.0,13846.0,208102.0,28047.0,208102.0,29501.0,975.8725743966193,700.4441890683909,880.6164816272446
208102.0,13856.0,208102.0,28027.0,208102.0,29482.0,974.6835738473466,699.2893766125258,882.4363963875861
208102.0,13811.0,208102.0,27941.0,208102.0,29451.0,972.9404949795498,697.8439303622023,884.003973604494
208102.0,13788.0,208102.0,27923.0,208102.0,29453.0,970.658572920312,696.116957681201,885.3233324698199
208102.0,13787.0,208102.0,27927.0,208102.0,29475.0,967.8526451985687,694.1175100945813,886.3972023095716
208113.0,13798.0,208113.0,27891.0,208113.0,29467.0,964.536643584276,691.8536427707361,887.2267821432697
208113.0,13785.0,208113.0,27909.0,208113.0,29498.0,960.7234854696452,689.3319523976787,887.8119300503156
208113.0,13791.0,208113.0,27938.0,208113.0,29505.0,956.4251943524436,686.5574130910525,888.1514920743107
208113.0,13803.0,208113.0,27936.0,208113.0,29505.0,951.6530527022685,683.533623450643,888.2437018591472
208113.0,13788.0,208113.0,27976.0,208113.0,29499.0,946.417825268721,680.2633856762725,888.0864830812075
208113.0,13808.0,208113.0,28008.0,208113.0,29542.0,940.730028178329,676.7494385315587,887.6776102090521
208123.0,13836.0,208123.0,28041.0,208123.0,29568.0,934.6002717994194,672.995416906663,887.0150615667826
208123.0,13817.0,208123.0,28008.0,208123.0,29541.0,928.0398065460186,669.0068739558604,886.0976679768661
208123.0,13788.0,208123.0,27968.0,208123.0,29533.0,921.0610081871148,664.7917949917954,884.9255571831458
208123.0,13751.0,208123.0,27921.0,208123.0,29500.0,913.6773449322753,660.3602386817051,883.5000277947828
208123.0,13732.0,208123.0,27869.0,208123.0,29497.0,905.9028441067587,655.7233015922776,881.8230571434541
208123.0,13715.0,208123.0,27849.0,208123.0,29483.0,897.7514485634183,650.8918388468468,879.8967809785595
208133.0,13702.0,208133.0,27847.0,208133.0,29499.0,889.2365436822702,645.8753554154938,877.7231533864784
208133.0,13715.0,208133.0,27876.0,208133.0,29488.0,880.370735461994,640.6814461371522,875.3038617475905
208133.0,13720.0,208133.0,27920.0,208133.0,29496.0,871.1659359370196,635.3159905926873,872.640405602662
208133.0,13705.0,208133.0,27890.0,208133.0,29525.0,861.6337069416222,629.7839123517712,869.7342725905993
208133.0,13710.0,208133.0,27913.0,208133.0,29516.0,851.7856149376543,624.0899215879834,866.5872883070889
208133.0,13720.0,208133.0,28012.0,208133.0,29534.0,841.633513553721,618.2391316105471,863.2020752717733
208144.0,13723.0,208144.0,27989.0,208144.0,29527.0,831.1899274948097,612.2381238818834,859.5824347567715
208144.0,13711.0,208144.0,27918.0,208144.0,29510.0,820.468541479441,606.096135521795,855.7335765084075
208144.0,13655.0,208144.0,27834.0,208144.0,29485.0,809.4844841637569,599.8250779429579,851.6620970737898
208144.0,13619.0,208144.0,27820.0,208144.0,29437.0,798.2540767408499,593.438179900474,847.3755851416108
208144.0,13616.0,208144.0,27822.0,208144.0,29467.0,786.7941489378242,586.9484404815789,842.8819771356991
208144.0,13593.0,208144.0,27810.0,208144.0,29437.0,775.1214460318208,580.3678346776139,838.1890655427967
208154.0,13580.0,208154.0,27821.0,208154.0,29450.0,763.2523752646031,573.7071901819248,833.3043600719311
208154.0,13581.0,208154.0,27818.0,208154.0,29457.0,751.2029332680704,566.9763262393125,828.2351475935404
208154.0,13574.0,208154.0,27821.0,208154.0,29458.0,738.9887633774032,560.1842922977336,822.988691926555
208154.0,13572.0,208154.0,27806.0,208154.0,29444.0,726.6253746914679,553.3396090021116,817.5725145464112
208154.0,13551.0,208154.0,27858.0,208154.0,29469.0,714.1284049948686,546.4505071856588,811.9946041961762
208154.0,13566.0,208154.0,27893.0,208154.0,29492.0,701.5138319203666,539.5254782523405,806.26370085991
208164.0,13545.0,208164.0,27872.0,208164.0,29447.0,688.798200647017,532.5742550732036,800.3897712094484
208164.0,13514.0,208164.0,27819.0,208164.0,29403.0,675.9988372565506,525.6085755200525,794.3842016866207
208164.0,13461.0,208164.0,27761.0,208164.0,29380.0,663.133755794659,518.6419957278689,788.2592839169432
208164.0,13445.0,208164.0,27738.0,208164.0,29351.0,650.2211249123108,511.6888579409221,782.0273199336207
208164.0,13430.0,208164.0,27686.0,208164.0,29333.0,637.278617304037,504.76304998628365,775.699830492831
208164.0,13423.0,208164.0,27709.0,208164.0,29338.0,624.3230359865249,497.8770011444694,769.287001682149
208175.0,13432.0,208175.0,27695.0,208175.0,29367.0,611.3703058932906,491.04113051949,762.797496950671
208175.0,13412.0,208175.0,27725.0,208175.0,29338.0,598.4357169129923,484.2638304857834,756.2387050627808
208175.0,13385.0,208175.0,27708.0,208175.0,29386.0,585.534179053752,477.55180881217797,749.6171767984753
208175.0,13396.0,208175.0,27751.0,208175.0,29357.0,572.6802909102125,470.9105564589418,742.9390680198
208175.0,13392.0,208175.0,27760.0,208175.0,29388.0,559.8883970104507,464.34494082234835,736.2105969779217
208175.0,13398.0,208175.0,27775.0,208175.0,29346.0,547.1728885545838,457.8599707838242,729.4384124444168
208185.0,13349.0,208185.0,27736.0,208185.0,29336.0,534.54858315449,451.4614763825637,722.629698419971
208185.0,13298.0,208185.0,27669.0,208185.0,29293.0,522.0307297917848,445.1562111776468,715.791916041007
208185.0,13283.0,208185.0,27634.0,208185.0,29287.0,509.63445030844895,438.95111402702344,708.93227352146
208185.0,13278.0,208185.0,27630.0,208185.0,29278.0,497.3740398981192,432.85212469779754,702.0572011429347
208185.0,13246.0,208185.0,27620.0,208185.0,29240.0,485.26259966494274,426.8632877058567,695.1719909397825
208185.0,13247.0,208185.0,27646.0,208185.0,29281.0,473.31192186730493,420.9864558563378,688.2805583778245
208195.0,13247.0,208195.0,27641.0,208195.0,29277.0,461.5324614790025,415.2214618171047,681.3854513275724
208195.0,13230.0,208195.0,27663.0,208195.0,29267.0,449.93346249103206,409.5665411253117,674.4882013179463
208195.0,13214.0,208195.0,27691.0,208195.0,29262.0,438.52314349792164,404.01888520241056,667.5896709277214
208195.0,13231.0,208195.0,27701.0,208195.0,29292.0,427.30880465299066,398.57535275666754,660.690235361908
208195.0,13247.0,208195.0,27722.0,208195.0,29318.0,416.2970661884208,393.2332829878544,653.7901604238568
208195.0,13213.0,208195.0,27695.0,208195.0,29278.0,405.49436575162497,387.9911820032129,646.8902679299903
208206.0,13203.0,208206.0,27623.0,208206.0,29258.0,394.9073500674849,382.84892634685696,639.9923522651331
208206.0,13149.0,208206.0,27616.0,208206.0,29224.0,384.5428166805058,377.8072003681822,633.098967587353
208206.0,13135.0,208206.0,27575.0,208206.0,29212.0,374.4072581773618,372.8664750441379,626.2128466839445
208206.0,13119.0,208206.0,27566.0,208206.0,29190.0,364.5062778280744,368.0261009567418,619.3363359074023
208206.0,13110.0,208206.0,27533.0,208206.0,29170.0,354.84417392783524,363.28363077513734,612.4709472957206
208206.0,13120.0,208206.0,27611.0,208206.0,29190.0,345.4238221801811,358.63441377084996,605.6170359014711
208216.0,13119.0,208216.0,27609.0,208216.0,29213.0,336.2468316981553,354.0718226700915,598.7737945362398
208216.0,13113.0,208216.0,27600.0,208216.0,29181.0,327.3138773884235,349.58803406432787,591.9396428180354
208216.0,13111.0,208216.0,27626.0,208216.0,29196.0,318.6250265258886,345.17469880528694,585.1126300837252
208216.0,13113.0,208216.0,27685.0,208216.0,29229.0,310.17998663665736,340.8234520329539,578.290692336823
208216.0,13123.0,208216.0,27681.0,208216.0,29222.0,301.97837991405686,336.526766999636,571.4721052938338
208216.0,13090.0,208216.0,27650.0,208216.0,29194.0,294.02005833689316,332.2789121250738,564.6560587098878
208227.0,13050.0,208227.0,27578.0,208227.0,29149.0,286.3051862954719,328.0761777438513,557.8427813441034
208227.0,13042.0,208227.0,27565.0,208227.0,29140.0,278.8338741907758,323.9161177390837,551.0330587381956
208227.0,13021.0,208227.0,27557.0,208227.0,29117.0,271.6056200159882,319.7964335415082,544.227556642408
208227.0,13009.0,208227.0,27517.0,208227.0,29100.0,264.61890092991877,315.71416234087735,537.4263001731508
208227.0,13003.0,208227.0,27542.0,208227.0,29103.0,257.8709290093063,311.66519185659996,530.6283289242403
208227.0,13018.0,208227.0,27561.0,208227.0,29119.0,251.35755908926853,307.6440592723743,523.8315725562313
208237.0,13031.0,208237.0,27545.0,208237.0,29120.0,245.0734742514124,303.644170057843,517.0330642696783
208237.0,13001.0,208237.0,27582.0,208237.0,29101.0,239.0125823068276,299.6582284078869,510.2293242566304
208237.0,13015.0,208237.0,27610.0,208237.0,29132.0,233.16830369270087,295.6787358217211,503.41664608939493
208237.0,13049.0,208237.0,27646.0,208237.0,29160.0,227.53375299703606,291.6987806558595,496.59144400142685
208237.0,13026.0,208237.0,27668.0,208237.0,29143.0,222.1021421596305,287.71311280857697,489.75089996968853
208237.0,12999.0,208237.0,27596.0,208237.0,29079.0,216.86721938316498,283.7190463836386,482.89347965325686
208247.0,12972.0,208247.0,27495.0,208247.0,29055.0,211.82322792085458,279.7164194564319,476.01867980239984
208247.0,12950.0,208247.0,27481.0,208247.0,29046.0,206.9643991077931,275.7062568804837,469.1261893231027
208247.0,12938.0,208247.0,27458.0,208247.0,29041.0,202.28435219008634,271.6889780203385,462.21519458168393
208247.0,12936.0,208247.0,27481.0,208247.0,29024.0,197.77564196705595,267.66325637078427,455.2841041922362
208247.0,12954.0,208247.0,27535.0,208247.0,29042.0,193.42958397552275,263.6258508109554,448.3304990400616
208247.0,12976.0,208247.0,27528.0,208247.0,29015.0,189.2364566195896,259.5722264041511,441.35119224009395
208258.0,12955.0,208258.0,27538.0,208258.0,29039.0,185.18598743156127,255.49744676860252,434.3423647024464
208258.0,12955.0,208258.0,27541.0,208258.0,29015.0,181.26775950233983,251.39679377387978,427.29972985870575
208258.0,12993.0,208258.0,27536.0,208258.0,29065.0,177.47141091206342,247.26609042669529,420.2187863550372
208258.0,12983.0,208258.0,27579.0,208258.0,29064.0,173.7869553330158,243.10198612609332,413.09530657486755
208258.0,12963.0,208258.0,27570.0,208258.0,29013.0,170.2052342516531,238.90240678737823,405.925925538482
208258.0,12922.0,208258.0,27473.0,208258.0,28996.0,166.71800936390085,234.66691090027663,398.7082778336721
208268.0,12921.0,208268.0,27443.0,208268.0,28971.0,163.31752949307926,230.39621090582423,391.44052483276573
208268.0,12901.0,208268.0,27428.0,208268.0,28963.0,159.99594668730296,226.0908761018357,384.1207579668201
208268.0,12907.0,208268.0,27401.0,208268.0,28932.0,156.74492376066027,221.75012976352275,376.74657156074295
208268.0,12899.0,208268.0,27446.0,208268.0,28977.0,153.5554719869364,217.3712423570213,369.3148154140234
208268.0,12912.0,208268.0,27467.0,208268.0,28949.0,150.4179585053314,212.94957147168515,361.82165874737086
208268.0,12905.0,208268.0,27504.0,208268.0,28939.0,147.32224325301542,208.47924855717582,354.2628725233
208278.0,12917.0,208278.0,27470.0,208278.0,28931.0,144.2578850210099,203.95412000448502,346.6339457540914
208278.0,12906.0,208278.0,27501.0,208278.0,28963.0,141.2143521978645,199.36839229652594,338.9300824748038
208278.0,12949.0,208278.0,27557.0,208278.0,28968.0,138.18126686553967,194.71707450586283,331.1464923604081
208278.0,12929.0,208278.0,27508.0,208278.0,28944.0,135.14879186249158,189.99665948550995,323.27894477955823
208278.0,12904.0,208278.0,27464.0,208278.0,28933.0,132.10800531645614,185.20565332693278,315.3241169293698
208278.0,12882.0,208278.0,27401.0,208278.0,28880.0,129.05086631147307,180.34416799155687,307.27947512230213
208289.0,12866.0,208289.0,27401.0,208289.0,28865.0,125.96975578682898,175.41275120753411,299.14276420903457
208289.0,12849.0,208289.0,27365.0,208289.0,28857.0,122.85693291582069,170.41125300803486,290.91135818797613
208289.0,12848.0,208289.0,27367.0,208289.0,28857.0,119.70410351687917,165.33810127135848,282.5818343252203
208289.0,12874.0,208289.0,27434.0,208289.0,28873.0,116.50221610370815,160.1900530598353,274.1499550311573
208289.0,12873.0,208289.0,27403.0,208289.0,28873.0,113.24162143227261,154.96257358837698,265.61098070154975
208289.0,12873.0,208289.0,27427.0,208289.0,28857.0,109.91247238710301,149.65055960130942,256.9600971162955
208299.0,12886.0,208299.0,27437.0,208299.0,28857.0,106.505083215969,144.24889529380027,248.19270052932757
208299.0,12898.0,208299.0,27474.0,208299.0,28863.0,103.01024235273664,138.75295830716098,239.30453655094522
208299.0,12908.0,208299.0,27501.0,208299.0,28876.0,99.41962686512252,133.1594037934784,230.29193783466158
208299.0,12894.0,208299.0,27450.0,208299.0,28874.0,95.7262500108285,127.4670384804231,221.15226188500284
208299.0,12864.0,208299.0,27360.0,208299.0,28785.0,91.92467908074806,121.67705629522047,211.88420125518886
208299.0,12842.0,208299.0,27357.0,208299.0,28797.0,88.01083352163425,115.79216405798834,202.48748457109932
208309.0,12819.0,208309.0,27337.0,208309.0,28774.0,83.98145660559027,109.81525492156598,192.96216472521095
208309.0,12798.0,208309.0,27310.0,208309.0,28749.0,79.83350565298511,103.74851587186487,183.30811553485458
208309.0,12808.0,208309.0,27298.0,208309.0,28783.0,75.56364507892087,97.59293075724486,173.52485221963533
208309.0,12833.0,208309.0,27364.0,208309.0,28763.0,71.16805688036169,91.34801890974333,163.6116210621525
208309.0,12831.0,208309.0,27373.0,208309.0,28749.0,66.64271235570607,85.01218371369444,153.5676975523731
208309.0,12812.0,208309.0,27316.0,208309.0,28728.0,61.98383197389603,78.58352339944958,143.39254090803541
208320.0,12817.0,208320.0,27365.0,208320.0,28747.0,57.18811663098637,72.06029461752976,133.0857321359142
208320.0,12842.0,208320.0,27425.0,208320.0,28752.0,52.25282326390874,65.44115431502192,122.64706598732732
208320.0,12821.0,208320.0,27380.0,208320.0,28739.0,47.17601276476023,58.72591861646376,112.07693847631947
208320.0,12786.0,208320.0,27325.0,208320.0,28710.0,41.95680433453708,51.916312575762674,101.37670009445822
208320.0,12758.0,208320.0,27295.0,208320.0,28670.0,36.59518707061545,45.01572120000924,90.54861043420101
208320.0,12764.0,208320.0,27280.0,208320.0,28652.0,31.091459646981832,38.028227033680594,79.59538405646856
208330.0,12726.0,208330.0,27242.0,208330.0,28635.0,25.44573926167061,30.957735593772355,68.51962097075199
208330.0,12752.0,208330.0,27193.0,208330.0,28624.0,19.657689601558445,23.8072593654598,57.32340698831314
208330.0,12749.0,208330.0,27258.0,208330.0,28643.0,13.726467822863356,16.578238819390094,46.0081951716262
208330.0,12756.0,208330.0,27273.0,208330.0,28631.0,7.650951267985761,9.270398193011374,34.5749966433242
208330.0,12737.0,208330.0,27257.0,208330.0,28600.0,1.4300739489756893,1.882384905286699,23.024700592098895
208330.0,12744.0,208330.0,27287.0,208330.0,28618.0,-4.936974065477727,-5.587452959919176,11.358221902930495
208340.0,12741.0,208340.0,27325.0,208340.0,28612.0,-11.450645880155719,-13.140448556979152,-0.4234204135879054
208340.0,12761.0,208340.0,27321.0,208340.0,28621.0,-18.110841322582417,-20.77680944954625,-12.318806660712141
208340.0,12740.0,208340.0,27285.0,208340.0,28598.0,-24.91656623339742,-28.49480617838458,-24.32569287115831
208340.0,12689.0,208340.0,27210.0,208340.0,28563.0,-31.86572880352361,-36.29064834089752,-36.440779999701704
208340.0,12674.0,208340.0,27192.0,208340.0,28516.0,-38.95543321507648,-44.15927084959242,-48.65991679275646
208340.0,12655.0,208340.0,27177.0,208340.0,28488.0,-46.182635063087105,-52.09546789199024,-60.9787323939363
208351.0,12650.0,208351.0,27121.0,208351.0,28471.0,-53.54468509687814,-60.09477167587144,-73.39339728092023
208351.0,12641.0,208351.0,27155.0,208351.0,28484.0,-61.039581263484706,-68.1540599266308,-85.90112209096964
208351.0,12658.0,208351.0,27177.0,208351.0,28486.0,-68.66598580075055,-76.27181537266992,-98.50016982283313
208351.0,12644.0,208351.0,27151.0,208351.0,28456.0,-76.42303375503212,-84.4478106629451,-111.18952721468378
208351.0,12648.0,208351.0,27149.0,208351.0,28480.0,-84.31004022841205,-92.68263160828485,-123.96859153436924
208351.0,12635.0,208351.0,27168.0,208351.0,28477.0,-92.32626626295888,-100.97745969378431,-136.83688901227515
208361.0,12668.0,208361.0,27255.0,208361.0,28500.0,-100.47070493986405,-109.33366661026827,-149.7935820994365
208361.0,12640.0,208361.0,27201.0,208361.0,28446.0,-108.74173796899339,-117.75178972628069,-162.83687485700455
208361.0,12612.0,208361.0,27137.0,208361.0,28439.0,-117.13682470552732,-126.23062307898755,-175.96373744698167
208361.0,12601.0,208361.0,27102.0,208361.0,28368.0,-125.65255554061957,-134.7674478770047,-189.170156207474
208361.0,12547.0,208361.0,27039.0,208361.0,28340.0,-134.28505153642118,-143.35920827698544,-202.45181227151573
208361.0,12545.0,208361.0,27053.0,208361.0,28336.0,-143.0305201833977,-152.00377040711976,-215.80491362773034
208371.0,12530.0,208371.0,27048.0,208371.0,28333.0,-151.88579740775992,-160.70072034185205,-229.22672946612272
208371.0,12535.0,208371.0,27095.0,208371.0,28321.0,-160.84863310071893,-169.45144205192923,-242.71562253196572
208371.0,12535.0,208371.0,27091.0,208371.0,28331.0,-169.9176453926246,-178.25854010214096,-256.27081432807836
208371.0,12524.0,208371.0,27075.0,208371.0,28327.0,-179.09209147806257,-187.12506442023152,-269.8920511924333
208371.0,12526.0,208371.0,27072.0,208371.0,28314.0,-188.371623009906,-196.05404096910235,-283.5792036638409
208371.0,12563.0,208371.0,27138.0,208371.0,28343.0,-197.75599573694865,-205.04820907153527,-297.33186188790023
208382.0,12553.0,208382.0,27149.0,208382.0,28326.0,-207.24452900920488,-214.1093521135134,-311.14886029453874
208382.0,12509.0,208382.0,27071.0,208382.0,28259.0,-216.83550337404625,-223.2373328536338,-325.0278651353084
208382.0,12473.0,208382.0,27023.0,208382.0,28223.0,-226.52607507629955,-232.42986943456327,-338.9655389482142
208382.0,12442.0,208382.0,26963.0,208382.0,28198.0,-236.31283501474883,-241.6834770840125,-352.9583245233972
208382.0,12437.0,208382.0,26963.0,208382.0,28175.0,-246.1925447647149,-250.99485107988005,-367.003255522828
208382.0,12409.0,208382.0,26951.0,208382.0,28174.0,-256.1626490740378,-260.3618694483213,-381.09842149721044
208392.0,12426.0,208392.0,26943.0,208392.0,28158.0,-266.22150826741546,-269.7839908561503,-395.24310762838866
208392.0,12409.0,208392.0,26951.0,208392.0,28156.0,-276.3683911142069,-279.2622703690331,-409.43772056322234
208392.0,12435.0,208392.0,26974.0,208392.0,28143.0,-286.60324035720294,-288.79914082477944,-423.6836217880142
208392.0,12396.0,208392.0,26947.0,208392.0,28151.0,-296.9263141407063,-298.39796991140963,-437.98291305717976
208392.0,12398.0,208392.0,26979.0,208392.0,28150.0,-307.33793000244003,-308.06258108446957,-452.33811919817083
208392.0,12417.0,208392.0,27043.0,208392.0,28161.0,-317.83834987742495,-317.7966835841032,-466.7517237107295
208402.0,12419.0,208402.0,27003.0,208402.0,28160.0,-328.4275005282053,-327.6029099071059,-481.2255914918427
208402.0,12373.0,208402.0,26963.0,208402.0,28075.0,-339.1045192809298,-337.48192810664824,-495.76054169928386
208402.0,12339.0,208402.0,26918.0,208402.0,28059.0,-349.86764719446967,-347.43244642653934,-510.35652603589847
208402.0,12315.0,208402.0,26864.0,208402.0,28029.0,-360.7146882541168,-357.4520515626727,-525.0133679064583
208402.0,12288.0,208402.0,26828.0,208402.0,28005.0,-371.64366835106523,-367.5383523948355,-539.7314674700866
208402.0,12273.0,208402.0,26833.0,208402.0,28003.0,-382.65337031746014,-377.69004272294114,-554.5121933142021
208413.0,12290.0,208413.0,26840.0,208413.0,27997.0,-393.7436357942272,-387.9074904709339,-569.3580032306523
208413.0,12292.0,208413.0,26863.0,208413.0,27998.0,-404.9152943325837,-398.19265102243526,-584.2722940503353
208413.0,12279.0,208413.0,26859.0,208413.0,27980.0,-416.1697622351079,-408.5485110969215,-599.2590897412605
208413.0,12264.0,208413.0,26863.0,208413.0,27996.0,-427.5086632422499,-418.97843952243693,-614.3227153980237
208413.0,12279.0,208413.0,26905.0,208413.0,28010.0,-438.9336410174533,-429.4855885031219,-629.4673800990594
208413.0,12271.0,208413.0,26937.0,208413.0,27999.0,-450.44614887063847,-440.07209434445576,-644.6965511259389
208423.0,12245.0,208423.0,26854.0,208423.0,27952.0,-462.0471417949301,-450.73811802263117,-660.0123885733082
208423.0,12214.0,208423.0,26782.0,208423.0,27908.0,-473.73696218966575,-461.481589667153,-675.4157137951303
208423.0,12194.0,208423.0,26738.0,208423.0,27890.0,-485.5155851859719,-472.2992053806904,-690.9065419755133
208423.0,12175.0,208423.0,26719.0,208423.0,27859.0,-497.3830232149927,-483.1879620811279,-706.4847335763521
208423.0,12157.0,208423.0,26723.0,208423.0,27834.0,-509.3396611362016,-494.1462449059127,-722.1504691921124
208423.0,12152.0,208423.0,26731.0,208423.0,27839.0,-521.3864632342758,-505.1741657278528,-737.9045538818294
208433.0,12151.0,208433.0,26739.0,208433.0,27825.0,-533.5250217148172,-516.2733288927325,-753.7484943059055
208433.0,12153.0,208433.0,26756.0,208433.0,27829.0,-545.7573960759337,-527.446291309064,-769.6843041208216
208433.0,12142.0,208433.0,26716.0,208433.0,27822.0,-558.0857959246226,-538.6959839769145,-785.7141590104201
208433.0,12115.0,208433.0,26768.0,208433.0,27817.0,-570.5123034771948,-550.0252891591468,-801.840008552264
208433.0,12155.0,208433.0,26824.0,208433.0,27821.0,-583.0387125789725,-561.4364816949948,-818.0631772360674
208433.0,12124.0,208433.0,26765.0,208433.0,27814.0,-595.6662595488327,-572.9301943907329,-834.383940413503
208444.0,12095.0,208444.0,26700.0,208444.0,27757.0,-608.3952640097763,-584.5046460834391,-850.8011844250913
208444.0,12042.0,208444.0,26662.0,208444.0,27706.0,-621.2251511955468,-596.1560389901211,-867.312513145483
208444.0,12028.0,208444.0,26613.0,208444.0,27691.0,-634.1550014307212,-607.8797530331232,-883.914908239404
208444.0,12018.0,208444.0,26605.0,208444.0,27675.0,-647.1841916991563,-619.6714974097539,-900.6054514370727
208444.0,12018.0,208444.0,26569.0,208444.0,27669.0,-660.3126982727387,-631.5281119351679,-917.3816475122608
208444.0,12026.0,208444.0,26575.0,208444.0,27664.0,-673.5409835163351,-643.4480445937926,-934.241370314805
208454.0,11995.0,208454.0,26623.0,208454.0,27645.0,-686.8696611483736,-655.4314325414337,-951.1826403820124
208454.0,11999.0,208454.0,26622.0,208454.0,27641.0,-700.2992171961223,-667.4795741192796,-968.2033920519949
208454.0,11998.0,208454.0,26660.0,208454.0,27640.0,-713.8298432952421,-679.5939234255135,-985.3012524088489
208454.0,12002.0,208454.0,26644.0,208454.0,27663.0,-727.4611718566667,-691.7750465632765,-1002.4731742827897
208454.0,11984.0,208454.0,26693.0,208454.0,27640.0,-741.1918685785264,-704.0217196453494,-1019.7148363701144
208454.0,11980.0,208454.0,26630.0,208454.0,27611.0,-755.0192806457535,-716.3301645052364,-1037.0200797352659
208465.0,11925.0,208465.0,26533.0,208465.0,27568.0,-768.9393086346987,-728.693826908108,-1054.3807774911525
208465.0,11885.0,208465.0,26521.0,208465.0,27521.0,-782.9466560132561,-741.1041992667779,-1071.7872208323142
208465.0,11879.0,208465.0,26479.0,208465.0,27502.0,-797.0354361292054,-753.5522023735978,-1089.2287909768852
208465.0,11856.0,208465.0,26468.0,208465.0,27487.0,-811.1997381798844,-766.0292157355017,-1106.694569244941
208465.0,11845.0,208465.0,26473.0,208465.0,27488.0,-825.4338730745092,-778.5275685859269,-1124.1736022898158
208465.0,11848.0,208465.0,26529.0,208465.0,27498.0,-839.7323924678707,-791.0404918453038,-1141.6547520030883
208475.0,11849.0,208475.0,26503.0,208475.0,27463.0,-854.0899196005059,-803.5614381896021,-1159.1262802052975
208475.0,11834.0,208475.0,26493.0,208475.0,27474.0,-868.5007941490529,-816.0832217435038,-1176.5754578803103
208475.0,11824.0,208475.0,26477.0,208475.0,27451.0,-882.9587214955567,-828.597590806781,-1193.9883126678735
208475.0,11841.0,208475.0,26532.0,208475.0,27463.0,-897.4565075535338,-841.0950719576547,-1211.3493693249106
208475.0,11824.0,208475.0,26498.0,208475.0,27433.0,-911.9857154396761,-853.5645292849543,-1228.6413249254374
208475.0,11776.0,208475.0,26438.0,208475.0,27377.0,-926.5363231547847,-865.9926515521221,-1245.8448758423697
208485.0,11749.0,208485.0,26424.0,208485.0,27336.0,-941.0967731280073,-878.3640759585969,-1262.9390228912587
208485.0,11737.0,208485.0,26382.0,208485.0,27330.0,-955.6544179960965,-890.6620902404018,-1279.9017722846172
208485.0,11707.0,208485.0,26361.0,208485.0,27294.0,-970.1959461023257,-902.8693530305592,-1296.7107311877428
208485.0,11694.0,208485.0,26325.0,208485.0,27294.0,-984.7076292693465,-914.9684974208999,-1313.343384066206
208485.0,11687.0,208485.0,26349.0,208485.0,27320.0,-999.175476245291,-926.9426162535302,-1329.7770809017436
208485.0,11677.0,208485.0,26398.0,208485.0,27270.0,-1013.585253815134,-938.7752836432684,-1345.9887096741638
208496.0,11671.0,208496.0,26368.0,208496.0,27291.0,-1027.9223517459725,-950.4498886473256,-1361.9543007400082
208496.0,11670.0,208496.0,26382.0,208496.0,27266.0,-1042.1715608354307,-961.9487652898617,-1377.6487965888684
208496.0,11694.0,208496.0,26400.0,208496.0,27308.0,-1056.3167260898003,-973.2525991112001,-1393.0457671736522
208496.0,11685.0,208496.0,26436.0,208496.0,27286.0,-1070.340180416073,-984.3398254811135,-1408.1168591419414
208496.0,11647.0,208496.0,26372.0,208496.0,27236.0,-1084.2221556595723,-995.1858462726789,-1422.8312449383259
208496.0,11601.0,208496.0,26312.0,208496.0,27172.0,-1097.940637020556,-1005.7627152164093,-1437.1556656496741
208506.0,11581.0,208506.0,26240.0,208506.0,27162.0,-1111.471803151564,-1016.0398836573319,-1451.055212273609
208506.0,11547.0,208506.0,26256.0,208506.0,27151.0,-1124.7906883745886,-1025.9855988195918,-1464.4942110314105
208506.0,11541.0,208506.0,26210.0,208506.0,27138.0,-1137.8717156542405,-1035.5680408309568,-1477.436649227888
208506.0,11525.0,208506.0,26183.0,208506.0,27140.0,-1150.6890060125074,-1044.7559546485593,-1489.8462055407822
208506.0,11532.0,208506.0,26239.0,208506.0,27144.0,-1163.2164510421596,-1053.5190369395675,-1501.6860943464096
208506.0,11535.0,208506.0,26240.0,208506.0,27134.0,-1175.427539236842,-1061.827868457076,-1512.9187758521552
208516.0,11509.0,208516.0,26242.0,208516.0,27109.0,-1187.295028052437,-1069.6532674233938,-1523.5056870324997
208516.0,11522.0,208516.0,26254.0,208516.0,27126.0,-1198.790664933385,-1076.9655869987512,-1533.4071524366939
208516.0,11525.0,208516.0,26307.0,208516.0,27145.0,-1209.8849622376492,-1083.7341298059036,-1542.5822636285834
208516.0,11515.0,208516.0,26264.0,208516.0,27111.0,-1220.546861034607,-1089.9264234690927,-1550.9885120081728
208516.0,11477.0,208516.0,26204.0,208516.0,27086.0,-1230.743434489651,-1095.5077446997968,-1558.5815223978668
208516.0,11446.0,208516.0,26152.0,208516.0,27026.0,-1240.4399778986835,-1100.4415972363315,-1565.3153522012383
208527.0,11416.0,208527.0,26131.0,208527.0,27004.0,-1249.6005208395131,-1104.6909828569628,-1571.143339351952
208527.0,11411.0,208527.0,26063.0,208527.0,26997.0,-1258.1884650705433,-1108.219772496519,-1576.0190998323671
208527.0,11384.0,208527.0,26081.0,208527.0,27007.0,-1266.1670700592688,-1110.9938993704304,-1579.8972027088234
208527.0,11392.0,208527.0,26124.0,208527.0,26984.0,-1273.4997387481326,-1112.9821324113275,-1582.733386561518
208527.0,11388.0,208527.0,26145.0,208527.0,26975.0,-1280.1501270025617,-1114.1559899404765,-1584.4846425676412
208527.0,11367.0,208527.0,26145.0,208527.0,26975.0,-1286.0821082790644,-1114.4889949322005,-1585.1094327971045
208537.0,11390.0,208537.0,26151.0,208537.0,26991.0,-1291.259716111936,-1113.9560053851342,-1584.5679014253656
208537.0,11404.0,208537.0,26207.0,208537.0,27004.0,-1295.647004877119,-1112.5328048241572,-1582.8218434301898
208537.0,11396.0,208537.0,26224.0,208537.0,27007.0,-1299.207680244859,-1110.1955368698118,-1579.8344603934802
208537.0,11368.0,208537.0,26181.0,208537.0,26986.0,-1301.9047615476015,-1106.919992761777,-1575.5701737999411
208537.0,11336.0,208537.0,26122.0,208537.0,26959.0,-1303.700692101666,-1102.6815034131187,-1569.9947985572157
208537.0,11314.0,208537.0,26092.0,208537.0,26931.0,-1304.5579290325895,-1097.4558759231377,-1563.0761871646541
208547.0,11296.0,208547.0,26093.0,208547.0,26922.0,-1304.439728467104,-1091.2208228598324,-1554.7851736104622
208547.0,11292.0,208547.0,26059.0,208547.0,26924.0,-1303.310852069524,-1083.95714237177,-1545.0964942282994
208547.0,11297.0,208547.0,26087.0,208547.0,26957.0,-1301.1380524164206,-1075.6495101946366,-1533.989390979893
208547.0,11318.0,208547.0,26102.0,208547.0,26981.0,-1297.8902634641177,-1066.2869448709405,-1521.4477421446354
208547.0,11313.0,208547.0,26164.0,208547.0,26996.0,-1293.5385174178136,-1055.8627847735697,-1507.4598263163175
208547.0,11319.0,208547.0,26167.0,208547.0,26995.0,-1288.055789354516,-1044.3741651451546,-1492.0180743786327
208558.0,11315.0,208558.0,26169.0,208558.0,27030.0,-1281.4169769561895,-1031.8214183295963,-1475.1190445899847
208558.0,11343.0,208558.0,26278.0,208558.0,27073.0,-1273.5989777762575,-1018.20766240148,-1456.7634226977084
208558.0,11360.0,208558.0,26257.0,208558.0,27088.0,-1264.5806523602814,-1003.5382159444514,-1436.955771966716
208558.0,11335.0,208558.0,26266.0,208558.0,27053.0,-1254.3426699200222,-987.8198672169913,-1415.7043022543558
208558.0,11307.0,208558.0,26230.0,208558.0,27060.0,-1242.867633891658,-971.0607402421349,-1393.0212084318628
208558.0,11317.0,208558.0,26207.0,208558.0,27089.0,-1230.14072882061,-953.2710044934233,-1368.923488835269
208568.0,11316.0,208568.0,26186.0,208568.0,27126.0,-1216.1505208096105,-934.4640757758341,-1343.4335674178615
208568.0,11333.0,208568.0,26234.0,208568.0,27151.0,-1200.8894991590118,-914.6578404754157,-1316.5794154850623
208568.0,11365.0,208568.0,26288.0,208568.0,27220.0,-1184.3543150370053,-893.8753037049278,-1288.3943665561892
208568.0,11382.0,208568.0,26336.0,208568.0,27250.0,-1166.5457639618587,-872.1443531506428,-1258.9167347508032
208568.0,11407.0,208568.0,26383.0,208568.0,27286.0,-1147.4686093401697,-849.4969697642723,-1228.1893266899342
208568.0,11440.0,208568.0,26414.0,208568.0,27367.0,-1127.1313907186527,-825.9683943805101,-1196.2589974538669
208578.0,11483.0,208578.0,26514.0,208578.0,27425.0,-1105.5461821927718,-801.596362563261,-1163.1760832705272
208578.0,11517.0,208578.0,26546.0,208578.0,27439.0,-1082.728197488088,-776.4201616810495,-1128.9936325223407
208578.0,11514.0,208578.0,26530.0,208578.0,27491.0,-1058.695380962603,-750.4796567329644,-1093.7668564045555
208578.0,11522.0,208578.0,26535.0,208578.0,27503.0,-1033.4683280708352,-723.8149879148765,-1057.5530181062984
208578.0,11538.0,208578.0,26516.0,208578.0,27500.0,-1007.0706419633766,-696.4671652921743,-1020.4116514685026
208578.0,11565.0,208578.0,26530.0,208578.0,27580.0,-979.5294260382518,-668.4790857203753,-982.4050323802262
208589.0,11584.0,208589.0,26573.0,208589.0,27626.0,-950.8756303741723,-639.8964647408103,-943.5985063522106
208589.0,11637.0,208589.0,26644.0,208589.0,27683.0,-921.1442106853632,-610.7682489719322,-904.0602918093983
208589.0,11697.0,208589.0,26706.0,208589.0,27732.0,-890.3740259368783,-581.1462687096126,-863.8610079251762
208589.0,11742.0,208589.0,26777.0,208589.0,27770.0,-858.6073743256251,-551.0843214061344,-823.0732870349455
208589.0,11768.0,208589.0,26785.0,208589.0,27871.0,-825.889378862032,-520.637149813436,-781.7714470840335
208589.0,11816.0,208589.0,26865.0,208589.0,27919.0,-792.2675712901961,-489.8597056605882,-740.0309566541566
208599.0,11896.0,208599.0,26955.0,208599.0,28005.0,-757.79160205923,-458.8065331822242,-697.9276092185405
208599.0,11938.0,208599.0,26964.0,208599.0,28063.0,-722.5127145890182,-427.5308639610049,-655.5366166801414
208599.0,11956.0,208599.0,26982.0,208599.0,28089.0,-686.4830753181486,-396.0837815490893,-612.9318464040382
208599.0,11960.0,208599.0,26951.0,208599.0,28107.0,-649.7555103532716,-364.5141766173998,-570.1854826352933
208599.0,11993.0,208599.0,26979.0,208599.0,28151.0,-612.3838554730157,-332.8695112135217,-527.3682454997977
208599.0,12045.0,208599.0,26954.0,208599.0,28198.0,-574.4234968364935,-301.196902817116,-484.54981109496686
208609.0,12075.0,208609.0,27034.0,208609.0,28244.0,-535.9316331655534,-269.54408951559,-441.79902562856273
208609.0,12137.0,208609.0,27128.0,208609.0,28322.0,-496.96723331510077,-237.95978299577644,-399.183832417369
208609.0,12197.0,208609.0,27191.0,208609.0,28370.0,-457.5908108224354,-206.49300508006536,-356.7709337977226
208609.0,12265.0,208609.0,27188.0,208609.0,28417.0,-417.86396495741343,-175.19189394985517,-314.62530717125924
208609.0,12304.0,208609.0,27264.0,208609.0,28498.0,-377.8487389340244,-144.10293164951116,-272.8097612338786
208609.0,12372.0,208609.0,27354.0,208609.0,28544.0,-337.60701995040495,-113.27052251553562,-231.38446957565225
208620.0,12443.0,208620.0,27399.0,208620.0,28630.0,-297.19999929133604,-82.73618035417473,-190.4063521277717
208620.0,12464.0,208620.0,27366.0,208620.0,28624.0,-256.6875832381209,-52.53755364187873,-149.9284583388644
208620.0,12485.0,208620.0,27349.0,208620.0,28645.0,-216.12800172580933,-22.708313434523347,-109.99975498376352
208620.0,12508.0,208620.0,27343.0,208620.0,28706.0,-175.57794065054782,6.720838200856633,-70.66546259269921
208620.0,12541.0,208620.0,27375.0,208620.0,28713.0,-135.09303808682512,35.7208093489279,-31.967495714341112
208620.0,12585.0,208620.0,27417.0,208620.0,28744.0,-94.72835401630823,64.26320533811213,6.055245402215746
208630.0,12647.0,208630.0,27445.0,208630.0,28803.0,-54.53857498205309,92.3200650921375,43.366577247887676
208630.0,12690.0,208630.0,27489.0,208630.0,28861.0,-14.577889143385846,119.86398256272071,79.93291706594323
208630.0,12737.0,208630.0,27547.0,208630.0,28873.0,25.100326358146503,146.86838951900506,115.72351353418503
208630.0,12795.0,208630.0,27606.0,208630.0,28942.0,64.44381724695904,173.30807140918478,150.71070748373813
208630.0,12863.0,208630.0,27636.0,208630.0,28991.0,103.40181347170255,199.1599211968463,184.87012853632132
208630.0,12923.0,208630.0,27737.0,208630.0,29045.0,141.92559354131322,224.4037781779865,218.18108354345281
208640.0,12948.0,208640.0,27758.0,208640.0,29060.0,179.9691441974121,249.02338287195687,250.6270586905066
208640.0,12979.0,208640.0,27713.0,208640.0,29049.0,217.48956891682678,273.00719971126193,282.1958947645687
208640.0,12985.0,208640.0,27660.0,208640.0,29081.0,254.44704031349852,296.34825404371713,312.8793932780479
208640.0,13017.0,208640.0,27663.0,208640.0,29097.0,290.8043929474045,319.04273288696413,342.6726452657598
208640.0,13043.0,208640.0,27678.0,208640.0,29107.0,326.52660675589993,341.08829070893523,371.5734796820823
208640.0,13070.0,208640.0,27690.0,208640.0,29114.0,361.5803887407934,362.4829487940169,399.5819870490227
208651.0,13126.0,208651.0,27731.0,208651.0,29179.0,395.933928932522,383.2246328130657,426.70004963152337
208651.0,13187.0,208651.0,27777.0,208651.0,29199.0,429.5569389734877,403.3111503490684,452.9311614675571
208651.0,13200.0,208651.0,27820.0,208651.0,29247.0,462.4210047091027,422.74057606960525,478.28063736076274
208651.0,13247.0,208651.0,27859.0,208651.0,29278.0,494.4999400912261,441.51191509687465,502.75595978413844
208651.0,13301.0,208651.0,27929.0,208651.0,29311.0,525.7699712972246,459.62588070993297,526.3671137673418
208651.0,13354.0,208651.0,27988.0,208651.0,29351.0,556.2100352315865,477.0858592549158,549.1269095241064
208661.0,13356.0,208661.0,27925.0,208661.0,29328.0,585.8022559135181,493.89889830753384,571.0512054762419
208661.0,13361.0,208661.0,27881.0,208661.0,29332.0,614.5321542136501,510.07587610456017,592.1587702022562
208661.0,13383.0,208661.0,27843.0,208661.0,29333.0,642.388330461054,525.6303501377026,612.4706795946586
208661.0,13396.0,208661.0,27872.0,208661.0,29335.0,669.3619158588062,540.5768313256831,632.0095501638345
208661.0,13400.0,208661.0,27860.0,208661.0,29342.0,695.4460885501826,554.929517468697,650.7988709041042
208661.0,13429.0,208661.0,27919.0,208661.0,29362.0,720.6356303495625,568.7017587385292,668.8624694310852
208672.0,13472.0,208672.0,27947.0,208672.0,29430.0,744.9265951990774,581.9061110732473,686.2242674676766
208672.0,13490.0,208672.0,27961.0,208672.0,29432.0,768.3162817805701,594.5547949125521,702.9085151432453
208672.0,13520.0,208672.0,27960.0,208672.0,29440.0,790.8034112529065,606.6601440035129,718.940224060409
208672.0,13557.0,208672.0,28017.0,208672.0,29467.0,812.3883058085601,618.2347909133723,734.3453227710133
208672.0,13600.0,208672.0,28071.0,208672.0,29495.0,833.0731368971003,629.2919753770702,749.1506249193603
208672.0,13607.0,208672.0,28045.0,208672.0,29495.0,852.8623098865871,639.8462381494408,763.383914796726
208682.0,13596.0,208682.0,28037.0,208682.0,29478.0,871.7627037947768,649.913923169415,777.0739693318158
208682.0,13595.0,208682.0,27971.0,208682.0,29467.0,889.7834401304713,659.5128460457233,790.2501796861784
208682.0,13580.0,208682.0,27988.0,208682.0,29461.0,906.9352352691076,668.6612416702756,802.9418180778048
208682.0,13602.0,208682.0,27981.0,208682.0,29477.0,923.2296457074103,677.3766298920139,815.1772848316275
208682.0,13604.0,208682.0,27962.0,208682.0,29471.0,938.6784750178169,685.6750519912525,826.9835795929823
208682.0,13657.0,208682.0,28036.0,208682.0,29496.0,953.2935060610284,693.570675378217,838.3859917492991
208692.0,13671.0,208692.0,28026.0,208692.0,29570.0,967.0866228402529,701.0758226688608,849.4080759764961
208692.0,13666.0,208692.0,28061.0,208692.0,29532.0,980.0701374594678,708.201408491522,860.0720537544821
208692.0,13689.0,208692.0,28076.0,208692.0,29577.0,992.2569453896485,714.9574213776989,870.3992899853922
208692.0,13724.0,208692.0,28151.0,208692.0,29599.0,1003.6605147156247,721.3534321647451,880.410506032257
208692.0,13759.0,208692.0,28189.0,208692.0,29609.0,1014.2951055947672,727.3994766580095,890.1259935915277
208692.0,13738.0,208692.0,28119.0,208692.0,29603.0,1024.176235680167,733.107089623097,899.565875273594
208703.0,13718.0,208703.0,28069.0,208703.0,29573.0,1033.3208729735675,738.4895123200445,908.7500328007463
208703.0,13696.0,208703.0,28043.0,208703.0,29574.0,1041.7470014569647,743.5606320373727,917.6975746823457
208703.0,13697.0,208703.0,28053.0,208703.0,29586.0,1049.472799783725,748.3334930533613,926.4261402195234
208703.0,13691.0,208703.0,28044.0,208703.0,29576.0,1056.515885772146,752.8193054572491,934.9514055256261
208703.0,13721.0,208703.0,28075.0,208703.0,29613.0,1062.8928649245079,757.027062729707,943.286849689646
208703.0,13731.0,208703.0,28121.0,208703.0,29610.0,1068.6192491930283,760.9636321396533,951.4437117761347
208713.0,13748.0,208713.0,28126.0,208713.0,29647.0,1073.7096766527045,764.6342974296717,959.431126086728
208713.0,13759.0,208713.0,28145.0,208713.0,29644.0,1078.1782312308821,768.0434742898015,967.2563563956801
208713.0,13753.0,208713.0,28155.0,208713.0,29679.0,1082.0386960728945,771.1952341722332,974.9250458911129
208713.0,13800.0,208713.0,28249.0,208713.0,29744.0,1085.3047400857863,774.0938022410338,982.441597936662
208713.0,13804.0,208713.0,28215.0,208713.0,29730.0,1087.9902254173144,776.7444057275951,989.809863529769
208713.0,13776.0,208713.0,28163.0,208713.0,29709.0,1090.1096151876354,779.154033399482,997.0337710391223
208723.0,13760.0,208723.0,28125.0,208723.0,29681.0,1091.678037829205,781.3311932725388,1004.1172505042
208723.0,13748.0,208723.0,28102.0,208723.0,29709.0,1092.7108456711737,783.2847371516227,1011.0635555823828
208723.0,13743.0,208723.0,28090.0,208723.0,29693.0,1093.2230376251582,785.0226017004517,1017.8746528760018
208723.0,13741.0,208723.0,28060.0,208723.0,29685.0,1093.2288429708453,786.5508684929397,1024.550884964177
208723.0,13756.0,208723.0,28142.0,208723.0,29708.0,1092.7415224279268,787.8731954220938,1031.0906703105534
208723.0,13754.0,208723.0,28153.0,208723.0,29744.0,1091.7733901059778,788.9909187883873,1037.4903392047047
208734.0,13756.0,208734.0,28161.0,208734.0,29769.0,1090.3359668612666,789.903817854221,1043.7444093490676
208734.0,13760.0,208734.0,28187.0,208734.0,29788.0,1088.4401230015915,790.6109063673655,1049.8461899045467
208734.0,13776.0,208734.0,28232.0,208734.0,29817.0,1086.0962221076536,791.111030465584,1055.7883964435052
208734.0,13810.0,208734.0,28254.0,208734.0,29837.0,1083.3144356091198,791.4036311814748,1061.5636980947345
208734.0,13779.0,208734.0,28213.0,208734.0,29819.0,1080.1052561080621,791.4895703888052,1067.1651708015963
208734.0,13746.0,208734.0,28194.0,208734.0,29805.0,1076.479814491328,791.3714090378351,1072.586416104909
208744.0,13750.0,208744.0,28183.0,208744.0,29820.0,1072.4496503876221,791.0529737286827,1077.8212627031837
208744.0,13715.0,208744.0,28135.0,208744.0,29816.0,1068.0262027426738,790.5386304544896,1082.8633930103001
208744.0,13724.0,208744.0,28117.0,208744.0,29789.0,1063.2203884623523,789.8324738449554,1087.7060831228775
208744.0,13712.0,208744.0,28162.0,208744.0,29813.0,1058.0423294723857,788.9375532052122,1092.3418783223221
208744.0,13733.0,208744.0,28153.0,208744.0,29843.0,1052.5012824867215,787.855586517087,1096.7623257586831
208744.0,13737.0,208744.0,28175.0,208744.0,29870.0,1046.6058359174845,786.5872392102981,1100.9581510912476
208754.0,13719.0,208754.0,28188.0,208754.0,29864.0,1040.3642562498208,785.1325568327367,1104.9197903156996
208754.0,13727.0,208754.0,28201.0,208754.0,29887.0,1033.784738730769,783.4913977908196,1108.6378359039666
208754.0,13752.0,208754.0,28250.0,208754.0,29907.0,1026.8755762672718,781.66397745605,1112.1033064943385
208754.0,13747.0,208754.0,28260.0,208754.0,29898.0,1019.6455194659918,779.6516207722252,1115.3079205434203
208754.0,13707.0,208754.0,28210.0,208754.0,29897.0,1012.1042061192086,777.4575027613379,1118.2442912561046
208754.0,13683.0,208754.0,28142.0,208754.0,29883.0,1004.2621761821138,775.0866908386505,1120.905850808315
208765.0,13663.0,208765.0,28126.0,208765.0,29878.0,996.1304011002889,772.545181231387,1123.286552673378
208765.0,13645.0,208765.0,28114.0,208765.0,29865.0,987.719709634244,769.8385870568261,1125.3804878590595
208765.0,13651.0,208765.0,28104.0,208765.0,29865.0,979.0403951778083,766.9712327289351,1127.1814921594844
208765.0,13645.0,208765.0,28146.0,208765.0,29894.0,970.1020912459019,763.9458083285662,1128.6828761615939
208765.0,13656.0,208765.0,28151.0,208765.0,29919.0,960.9139087297191,760.7635372582147,1129.877502842611
208765.0,13650.0,208765.0,28140.0,208765.0,29902.0,951.4847374678936,757.4246729351389,1130.758198809048
208775.0,13646.0,208775.0,28173.0,208775.0,29924.0,941.8235802934101,753.9289359246715,1131.3181270416019
208775.0,13653.0,208775.0,28207.0,208775.0,29976.0,931.9398403388961,750.2759259019244,1131.5510626858209
208775.0,13672.0,208775.0,28272.0,208775.0,29982.0,921.8436503473637,746.4659394935375,1131.4519545865394
208775.0,13642.0,208775.0,28216.0,208775.0,29941.0,911.5463226032929,742.5011353122185,1131.017625029153
208775.0,13580.0,208775.0,28138.0,208775.0,29938.0,901.0605832140731,738.3861537028831,1130.2469400188995
208775.0,13554.0,208775.0,28120.0,208775.0,29887.0,890.4001512282726,734.1274686586692,1129.1403186584082
208785.0,13551.0,208785.0,28092.0,208785.0,29875.0,879.5789009825622,729.7320262621897,1127.6989317697348
208785.0,13523.0,208785.0,28078.0,208785.0,29869.0,868.6102447132108,725.206140842211,1125.9238690321408
208785.0,13524.0,208785.0,28097.0,208785.0,29883.0,857.5068827232597,720.55489553081,1123.8155680488476
208785.0,13526.0,208785.0,28087.0,208785.0,29885.0,846.280750683986,715.7819660783352,1121.3736834033382
208785.0,13523.0,208785.0,28128.0,208785.0,29920.0,834.943165683912,710.889811100841,1118.5973066507888
208785.0,13508.0,208785.0,28107.0,208785.0,29909.0,823.5051079016027,705.8800970974306,1115.485399641
208796.0,13508.0,208796.0,28163.0,208796.0,29926.0,811.9774452792126,700.7542326813817,1112.037267157279
208796.0,13511.0,208796.0,28201.0,208796.0,29967.0,800.3711048848407,695.5140949344382,1108.2530000917
208796.0,13509.0,208796.0,28175.0,208796.0,29934.0,788.6973363153778,690.1630206801835,1104.1340085709935
208796.0,13472.0,208796.0,28128.0,208796.0,29897.0,776.9679999992578,684.7065202472063,1099.683383964154
208796.0,13444.0,208796.0,28073.0,208796.0,29891.0,765.195586592877,679.1520417328948,1094.905654624207
208796.0,13420.0,208796.0,28032.0,208796.0,29856.0,753.3928598296568,673.507892849432,1089.806145733441
208806.0,13409.0,208806.0,28027.0,208806.0,29844.0,741.5723753855935,667.7819555710344,1084.3903559513858
208806.0,13378.0,208806.0,27999.0,208806.0,29852.0,729.7461161760145,661.9807114021161,1078.66346200711
208806.0,13385.0,208806.0,28070.0,208806.0,29857.0,717.9252517772114,656.1088178474159,1072.630096772349
208806.0,13390.0,208806.0,28051.0,208806.0,29891.0,706.1200721809059,650.1693471845892,1066.294542310822
208806.0,13382.0,208806.0,28049.0,208806.0,29869.0,694.3402048003381,644.1644222791633,1059.6612264467012
208806.0,13358.0,208806.0,28079.0,208806.0,29861.0,682.5949363047549,638.0957191215159,1052.7351726048983
208816.0,13373.0,208816.0,28103.0,208816.0,29894.0,670.893386001851,631.9648967198655,1045.522204449288
208816.0,13391.0,208816.0,28121.0,208816.0,29899.0,659.2446964075916,625.7743124830363,1038.0292107319729
208816.0,13351.0,208816.0,28112.0,208816.0,29860.0,647.6584471220976,619.5278570838187,1030.2646017011439
208816.0,13338.0,208816.0,28047.0,208816.0,29843.0,636.1449719629895,613.2314027866879,1022.2384832901313
208816.0,13304.0,208816.0,27981.0,208816.0,29801.0,624.7152491764273,606.8924097730255,1013.9622897782032
208816.0,13270.0,208816.0,27973.0,208816.0,29790.0,613.3804837907143,600.5187327773192,1005.4481397063953
208827.0,13235.0,208827.0,27968.0,208827.0,29766.0,602.1515315169224,594.1173846766824,996.7082101488348
208827.0,13268.0,208827.0,27985.0,208827.0,29789.0,591.0383338332813,587.6939529526577,987.7543272796814
208827.0,13249.0,208827.0,27983.0,208827.0,29775.0,580.049740318826,581.2526607124632,978.5979124828746
208827.0,13248.0,208827.0,27973.0,208827.0,29777.0,569.1937604141319,574.7966673463127,969.2501966028141
208827.0,13228.0,208827.0,28016.0,208827.0,29770.0,558.4778355294537,568.3283658342609,959.722457093871
208827.0,13233.0,208827.0,28006.0,208827.0,29777.0,547.9089389837244,561.8497959933404,950.0262068708442
208837.0,13248.0,208837.0,28065.0,208837.0,29785.0,537.493703877413,555.3633091681352,940.1734498424713
208837.0,13237.0,208837.0,28031.0,208837.0,29765.0,527.2387608036155,548.8723729836636,930.1770229872213
208837.0,13187.0,208837.0,27975.0,208837.0,29750.0,517.1510666161108,542.3820951403065,920.0508343481897
208837.0,13161.0,208837.0,27956.0,208837.0,29698.0,507.2377767947822,535.8989662745962,909.8097678481158
208837.0,13150.0,208837.0,27912.0,208837.0,29653.0,497.5056733263267,529.4299714778037,899.4691431710831
208837.0,13154.0,208837.0,27884.0,208837.0,29633.0,487.9606618972384,522.9816146519365,889.0438213033228
208847.0,13122.0,208847.0,27873.0,208847.0,29627.0,478.6076093627024,516.5590578622293,878.547339754068
208847.0,13118.0,208847.0,27903.0,208847.0,29661.0,469.4502926230863,510.1655475033543,867.991530297681
208847.0,13108.0,208847.0,27920.0,208847.0,29627.0,460.4912705456221,503.8024306760525,857.3867118941138
208847.0,13120.0,208847.0,27904.0,208847.0,29630.0,451.73182451642066,497.46966655385506,846.742059730612
208847.0,13108.0,208847.0,27915.0,208847.0,29630.0,443.17210312776984,491.166332832261,836.0657958953474
208847.0,13135.0,208847.0,27987.0,208847.0,29658.0,434.81142036297325,484.8910503517998,825.3653936331793
208858.0,13144.0,208858.0,28001.0,208858.0,29659.0,426.6487011966461,478.6428176768612,814.6480802549171
208858.0,13129.0,208858.0,27924.0,208858.0,29617.0,418.6830503396859,472.42208364561446,803.9214259596905
208858.0,13075.0,208858.0,27869.0,208858.0,29579.0,410.9140900050323,466.23097117633915,793.1934860914569
208858.0,13045.0,208858.0,27856.0,208858.0,29544.0,403.3416660230982,460.07231232876325,782.4722982578758
208858.0,13031.0,208858.0,27831.0,208858.0,29534.0,395.96507005277863,453.9484113037279,771.765100347612
208858.0,13034.0,208858.0,27805.0,208858.0,29502.0,388.7823465647964,447.8602112253865,761.0776881034717
208868.0,13025.0,208868.0,27829.0,208868.0,29506.0,381.7900165174351,441.8067917901924,750.4140030925491
208868.0,13061.0,208868.0,27873.0,208868.0,29540.0,374.98317326947614,435.7852868021365,739.7760136254657
208868.0,13049.0,208868.0,27854.0,208868.0,29539.0,368.3558638207054,429.7914098285047,729.1640767018156
208868.0,13039.0,208868.0,27846.0,208868.0,29530.0,361.9015632793578,423.8201367734404,718.5776109194088
208868.0,13030.0,208868.0,27883.0,208868.0,29530.0,355.61341894749216,417.86606587806943,708.0156128476194
208868.0,13083.0,208868.0,27934.0,208868.0,29563.0,349.4843492256102,411.92383373533835,697.4769925891765
208878.0,13063.0,208878.0,27914.0,208878.0,29530.0,343.5074225329391,405.9890084166904,686.9610159214171
208878.0,13041.0,208878.0,27892.0,208878.0,29495.0,337.6764011138185,400.058960013778,676.4676648389269
208878.0,13007.0,208878.0,27795.0,208878.0,29454.0,331.98585699921097,394.13290531306603,665.9974530855319
208878.0,13000.0,208878.0,27782.0,208878.0,29442.0,326.43075104177535,388.2109445531411,655.5507594121236
208878.0,12968.0,208878.0,27771.0,208878.0,29426.0,321.00586578016333,382.2927115811333,645.1271642412952
208878.0,12961.0,208878.0,27751.0,208878.0,29421.0,315.7053088395434,376.37643071725205,634.7250750774189
208889.0,12980.0,208889.0,27782.0,208889.0,29428.0,310.5221578731655,370.4585564152836,624.3416386561291
208889.0,12971.0,208889.0,27818.0,208889.0,29424.0,305.4484111598587,364.5339128090793,613.9728872678241
208889.0,12985.0,208889.0,27804.0,208889.0,29426.0,300.47522181992105,358.5963231376713,603.6140343475842
208889.0,12971.0,208889.0,27821.0,208889.0,29426.0,295.59317912967964,352.6393527960805,593.2598000546102
208889.0,13009.0,208889.0,27852.0,208889.0,29440.0,290.79257043270286,346.65686871391756,582.9047568701576
208889.0,13028.0,208889.0,27868.0,208889.0,29460.0,286.0638121507809,340.64366417511235,572.5438026335255
208899.0,12987.0,208899.0,27861.0,208899.0,29409.0,281.398054247788,334.59623628489913,562.1727045181874
208899.0,12965.0,208899.0,27785.0,208899.0,29370.0,276.78746870902523,328.5132325734694,551.7882749586987
208899.0,12943.0,208899.0,27723.0,208899.0,29350.0,272.2249126894854,322.3949961565576,541.3878983654566
208899.0,12938.0,208899.0,27726.0,208899.0,29339.0,267.703330854742,316.24230259289857,530.9688134766495
208899.0,12924.0,208899.0,27678.0,208899.0,29330.0,263.2153079653812,310.05508578541173,520.5276573671099
208899.0,12919.0,208899.0,27737.0,208899.0,29311.0,258.7528103891675,303.83173169911953,510.0602934693358
208910.0,12923.0,208910.0,27765.0,208910.0,29332.0,254.3070459537593,297.56911192256496,499.56177598552995
208910.0,12927.0,208910.0,27733.0,208910.0,29319.0,249.8684666849315,291.26326403239136,489.0264832021258
208910.0,12931.0,208910.0,27736.0,208910.0,29323.0,245.4269349501111,284.91004495654335,478.4484198622375
208910.0,12951.0,208910.0,27747.0,208910.0,29317.0,240.97201283771562,278.50532235592414,467.8215288982486
208910.0,12972.0,208910.0,27801.0,208910.0,29352.0,236.4934014020987,272.04519591372207,457.1400187821873
208910.0,12965.0,208910.0,27795.0,208910.0,29334.0,231.98152605564874,265.52670601795325,446.398864531034
208920.0,12939.0,208920.0,27727.0,208920.0,29291.0,227.42799927755203,258.94859080660643,435.59428219728204
208920.0,12927.0,208920.0,27675.0,208920.0,29243.0,222.82565940801172,252.31121134635777,424.7236609528626
208920.0,12880.0,208920.0,27689.0,208920.0,29236.0,218.16819793914843,245.615590345132,413.78489015261994
208920.0,12900.0,208920.0,27653.0,208920.0,29195.0,213.449600169593,238.86245685381328,402.77558132493823
208920.0,12871.0,208920.0,27630.0,208920.0,29208.0,208.6636807288644,232.05171989165825,391.69253324475994
208920.0,12885.0,208920.0,27635.0,208920.0,29237.0,203.8038699969785,225.18206539932243,380.53157778418864
208930.0,12890.0,208930.0,27639.0,208930.0,29204.0,198.86320912323214,218.25066640863216,369.28789568710147
208930.0,12897.0,208930.0,27671.0,208930.0,29203.0,193.83453968901446,211.25328776931178,357.9564603890674
208930.0,12883.0,208930.0,27681.0,208930.0,29209.0,188.7108093104836,204.1848158762548,346.5322437384083
208930.0,12909.0,208930.0,27734.0,208930.0,29220.0,183.48532948588104,197.04008805441217,335.0104104299014
208930.0,12926.0,208930.0,27757.0,208930.0,29225.0,178.1520850711344,189.81496913528755,323.38676236576396
208930.0,12881.0,208930.0,27696.0,208930.0,29186.0,172.70616844651764,182.50741836269918,311.6582307201669
208941.0,12869.0,208941.0,27602.0,208941.0,29168.0,167.1439540564459,175.11775142704346,299.8230394236929
208941.0,12838.0,208941.0,27642.0,208941.0,29138.0,161.46276051346916,167.64773342152935,287.88044504752213
208941.0,12846.0,208941.0,27586.0,208941.0,29111.0,155.66032215607223,160.0994235078643,275.83027575375
208941.0,12806.0,208941.0,27512.0,208941.0,29090.0,149.73439394609886,152.4743985991329,263.6724454025315
208941.0,12821.0,208941.0,27550.0,208941.0,29083.0,143.6824695463978,144.7729128127858,251.40652984609636
208941.0,12846.0,208941.0,27618.0,208941.0,29096.0,137.50166324641788,136.9933022810091,239.03157338359364
208951.0,12826.0,208951.0,27590.0,208951.0,29080.0,131.18894402109768,129.13246098884898,226.54622657603494
208951.0,12826.0,208951.0,27583.0,208951.0,29072.0,124.74151944025445,121.18681902377139,213.9490373612428
208951.0,12817.0,208951.0,27617.0,208951.0,29061.0,118.15701334645681,113.15288027364977,201.23864254194552
208951.0,12859.0,208951.0,27701.0,208951.0,29090.0,111.43357702230568,105.02773453732996,188.41392242287196
208951.0,12831.0,208951.0,27636.0,208951.0,29098.0,104.57023747562297,96.81014923803514,175.47441004871638
208951.0,12807.0,208951.0,27612.0,208951.0,29024.0,97.56727850053315,88.50152239949128,162.4208457898801
208961.0,12769.0,208961.0,27537.0,208961.0,29017.0,90.42617491998917,80.10574576675191,149.25527016796366
208961.0,12745.0,208961.0,27488.0,208961.0,28974.0,83.14903143048411,71.62810349635697,135.98050513871743
208961.0,12749.0,208961.0,27469.0,208961.0,28963.0,75.73791658291532,63.07385591429545,122.59951957899926
208961.0,12723.0,208961.0,27453.0,208961.0,28933.0,68.19443182213757,54.44706066280628,109.11495816474502
208961.0,12729.0,208961.0,27491.0,208961.0,28934.0,60.51953171267456,45.75000142024675,95.52881533519064
208961.0,12735.0,208961.0,27450.0,208961.0,28943.0,52.71349816168373,36.98322811755867,81.84233520800927
208972.0,12739.0,208972.0,27468.0,208972.0,28925.0,44.776117175363595,28.14582002349067,68.05621225654704
208972.0,12728.0,208972.0,27493.0,208972.0,28944.0,36.70701158941995,19.23562680657733,54.17096116183393
208972.0,12746.0,208972.0,27549.0,208972.0,28951.0,28.50595573448163,10.249817461314308,40.18736474125319
208972.0,12745.0,208972.0,27583.0,208972.0,28921.0,20.173192278376348,1.186040712826241,26.106999926953108
208972.0,12716.0,208972.0,27514.0,208972.0,28890.0,11.70976945858041,-7.956246220117066,11.93256450972973
208972.0,12687.0,208972.0,27480.0,208972.0,28851.0,3.1176295367604325,-17.1752113546886,-2.332288847902589
208982.0,12679.0,208982.0,27422.0,208982.0,28819.0,-5.600691197665924,-26.467210449983043,-16.683502137218056
208982.0,12654.0,208982.0,27390.0,208982.0,28809.0,-14.442487853844625,-35.827942060364876,-31.11723757684149
208982.0,12628.0,208982.0,27388.0,208982.0,28772.0,-23.405249668631313,-45.25354562862037,-45.63035877501659
208982.0,12634.0,208982.0,27389.0,208982.0,28819.0,-32.48699857293394,-54.74125621511865,-60.220650225273175
208982.0,12632.0,208982.0,27389.0,208982.0,28785.0,-41.686488322157004,-64.28950872316204,-74.88665381430803
208982.0,12638.0,208982.0,27390.0,208982.0,28766.0,-51.00310235753108,-73.89771431763,-89.6272822921033
208992.0,12622.0,208992.0,27372.0,208992.0,28764.0,-60.436567817327386,-83.56599241180345,-104.44163271469125
208992.0,12641.0,208992.0,27403.0,208992.0,28748.0,-69.98667595291681,-93.29494526690468,-119.3289918060376
208992.0,12648.0,208992.0,27452.0,208992.0,28765.0,-79.65295837260578,-103.08522224324554,-134.288721620881
208992.0,12642.0,208992.0,27427.0,208992.0,28775.0,-89.4342199660158,-112.93664299037897,-149.31989197210459
208992.0,12595.0,208992.0,27386.0,208992.0,28740.0,-99.32816328353573,-122.8473733549535,-164.4207365528618
208992.0,12558.0,208992.0,27306.0,208992.0,28685.0,-109.33150511106356,-132.81396148510822,-179.58835777322975
209002.0,12547.0,209002.0,27302.0,209002.0,28646.0,-119.44058329102825,-142.83229085581706,-194.8190952353903
209002.0,12546.0,209002.0,27283.0,209002.0,28625.0,-129.65196617591488,-152.89869951965608,-210.1093474731225
209002.0,12499.0,209002.0,27266.0,209002.0,28603.0,-139.9627572222206,-163.01064037571155,-225.45630673498022
209002.0,12521.0,209002.0,27259.0,209002.0,28621.0,-150.37077696657684,-173.16694934870839,-240.8583114581295
209002.0,12541.0,209002.0,27274.0,209002.0,28613.0,-160.87461235849736,-183.36792999992213,-256.3147598574036
209002.0,12505.0,209002.0,27300.0,209002.0,28595.0,-171.4733068669479,-193.61512913849094,-271.82573848909
209012.0,12504.0,209012.0,27294.0,209012.0,28582.0,-182.16598889803782,-203.91073462294293,-287.39171389487274
209012.0,12515.0,209012.0,27312.0,209012.0,28603.0,-192.95174616588332,-214.25685030117455,-303.01336423180317
209012.0,12533.0,209012.0,27371.0,209012.0,28613.0,-203.82941820911986,-224.65474719314324,-318.69122910990586
209012.0,12514.0,209012.0,27283.0,209012.0,28564.0,-214.7970885281273,-235.10402407990085,-334.4251331026693
209012.0,12466.0,209012.0,27236.0,209012.0,28533.0,-225.85167910785464,-245.60224613403165,-350.21389694567404
209012.0,12428.0,209012.0,27189.0,209012.0,28496.0,-236.98912499097173,-256.1456545571946,-366.0556501107237
209022.0,12400.0,209022.0,27171.0,209022.0,28451.0,-248.20508245510138,-266.73042517861415,-381.9484877810023
209022.0,12400.0,209022.0,27141.0,209022.0,28435.0,-259.4956852276388,-277.3536808022358,-397.8911788431068
209022.0,12390.0,209022.0,27142.0,209022.0,28442.0,-270.8579481753185,-288.01410158674616,-413.88370031793363
209022.0,12392.0,209022.0,27169.0,209022.0,28460.0,-282.2897841864134,-298.712141638347,-429.9272866140709
209022.0,12363.0,209022.0,27144.0,209022.0,28451.0,-293.7898589749468,-309.44980126475684,-446.0239450375419
209022.0,12365.0,209022.0,27152.0,209022.0,28404.0,-305.3575105338033,-320.23020986787014,-462.1758867907081
209033.0,12374.0,209033.0,27145.0,209033.0,28420.0,-316.9927009039144,-331.05732904539934,-478.38532874043904
209033.0,12391.0,209033.0,27199.0,209033.0,28435.0,-328.69574327350483,-341.9356199816805,-494.6544432825996
209033.0,12376.0,209033.0,27244.0,209033.0,28427.0,-340.466753822448,-352.86925407609954,-510.98495840348824
209033.0,12329.0,209033.0,27173.0,209033.0,28369.0,-352.30520876865546,-363.86094358007756,-527.3776223896087
209033.0,12307.0,209033.0,27125.0,209033.0,28330.0,-364.2100174336923,-374.91130886567043,-543.8321928683946
209033.0,12282.0,209033.0,27067.0,209033.0,28307.0,-376.1800283734817,-386.0194359061321,-560.3480331302873
209043.0,12280.0,209043.0,27057.0,209043.0,28280.0,-388.2145314832594,-397.184093730796,-576.9248057597308
209043.0,12248.0,209043.0,26995.0,209043.0,28266.0,-400.3135314767825,-408.4048367874012,-593.5629236048204
209043.0,12260.0,209043.0,27054.0,209043.0,28254.0,-412.4778676373022,-419.68273320149683,-610.263770234122
209043.0,12273.0,209043.0,27035.0,209043.0,28261.0,-424.70915757931994,-431.02053275660285,-627.0297060556586
209043.0,12238.0,209043.0,27058.0,209043.0,28251.0,-437.0094901197483,-442.42223408522636,-643.863831724011
209043.0,12242.0,209043.0,27054.0,209043.0,28255.0,-449.381118152059,-453.8924375177455,-660.7695856659287
209053.0,12253.0,209053.0,27104.0,209053.0,28258.0,-461.82630526412106,-465.43568179456895,-677.7502768182518
209053.0,12247.0,209053.0,27137.0,209053.0,28250.0,-474.34706092582644,-477.05552166056725,-694.8085747374823
209053.0,12223.0,209053.0,27071.0,209053.0,28215.0,-486.9447439423054,-488.7534190645481,-711.9460743592167
209053.0,12181.0,209053.0,26999.0,209053.0,28158.0,-499.61991659576836,-500.52826949170105,-729.1632348384812
209053.0,12160.0,209053.0,26964.0,209053.0,28155.0,-512.3726416878269,-512.3771300277143,-746.4598037262963
209053.0,12134.0,209053.0,26935.0,209053.0,28119.0,-525.2030160433218,-524.2965420690475,-763.8353763622965
209064.0,12132.0,209064.0,26911.0,209064.0,28089.0,-538.1116207214966,-536.2835927281869,-781.289784905529
209064.0,12121.0,209064.0,26900.0,209064.0,28078.0,-551.0997199583951,-548.3365470626134,-798.8234060553863
209064.0,12110.0,209064.0,26901.0,209064.0,28080.0,-564.1692371519428,-560.4551645405048,-816.4373712756278
209064.0,12119.0,209064.0,26933.0,209064.0,28080.0,-577.3226130832959,-572.6406431317795,-834.1334609480352
209064.0,12107.0,209064.0,26919.0,209064.0,28058.0,-590.5625665531531,-584.8951424656245,-851.9137330154429
209064.0,12092.0,209064.0,26921.0,209064.0,28057.0,-603.8918039045436,-597.2211450588351,-869.7801653354941
209074.0,12097.0,209074.0,26977.0,209074.0,28069.0,-617.3128028199021,-609.6208599506035,-887.7343562078977
209074.0,12101.0,209074.0,26987.0,209074.0,28064.0,-630.8275994801919,-622.0953954743851,-905.7770786237415
209074.0,12070.0,209074.0,26913.0,209074.0,28019.0,-644.4374758018685,-634.6437800343086,-923.9077671186947
209074.0,12033.0,209074.0,26812.0,209074.0,27976.0,-658.1427956077682,-647.2628042686214,-942.1243804063092
209074.0,12009.0,209074.0,26802.0,209074.0,27939.0,-671.9432527758952,-659.9481784188936,-960.4238300418176
209074.0,11991.0,209074.0,26800.0,209074.0,27919.0,-685.8383573131912,-672.6960356374049,-978.802657455901
209084.0,11976.0,209084.0,26768.0,209084.0,27893.0,-699.8278254466271,-685.5037128330875,-997.2575749456485
209084.0,11986.0,209084.0,26801.0,209084.0,27904.0,-713.9117260121272,-698.3698617858656,-1015.7857189498013
209084.0,11981.0,209084.0,26824.0,209084.0,27894.0,-728.0903406516558,-711.2941678622476,-1034.3845671433885
209084.0,11955.0,209084.0,26797.0,209084.0,27880.0,-742.3638450760002,-724.276686499875,-1053.051596348105
209084.0,11943.0,209084.0,26777.0,209084.0,27862.0,-756.73210280379,-737.3172244843363,-1071.7839464523026
209084.0,11959.0,209084.0,26861.0,209084.0,27887.0,-771.1946118496098,-750.4150088717198,-1090.5781713773927
209095.0,11975.0,209095.0,26856.0,209095.0,27892.0,-785.7502522432484,-763.5680324110876,-1109.4298039886792
209095.0,11934.0,209095.0,26797.0,209095.0,27847.0,-800.3967352400756,-776.7720087210984,-1128.3327006677464
209095.0,11890.0,209095.0,26692.0,209095.0,27770.0,-815.1302622182745,-790.0200806958686,-1147.2787566242594
209095.0,11875.0,209095.0,26721.0,209095.0,27762.0,-829.9457818946663,-803.3037942813074,-1166.2584211771814
209095.0,11840.0,209095.0,26658.0,209095.0,27739.0,-844.8375484944875,-816.614348238018,-1185.2615174532825
209095.0,11821.0,209095.0,26655.0,209095.0,27697.0,-859.7995945033246,-829.9433207821936,-1204.277743499517
209105.0,11804.0,209105.0,26663.0,209105.0,27718.0,-874.8260817537681,-843.2830130138315,-1223.2968875109796
209105.0,11816.0,209105.0,26663.0,209105.0,27703.0,-889.9114844900661,-856.626464040144,-1242.3088182167476
209105.0,11796.0,209105.0,26663.0,209105.0,27682.0,-905.0504872228317,-869.9670975696243,-1261.3031981389906
209105.0,11796.0,209105.0,26628.0,209105.0,27676.0,-920.2376987403435,-883.2983260246745,-1280.269181116816
209105.0,11788.0,209105.0,26658.0,209105.0,27660.0,-935.467368634615,-896.6133491659856,-1299.1952462129307
209105.0,11810.0,209105.0,26734.0,209105.0,27660.0,-950.7330640242852,-909.9047750841968,-1318.0690206275824
209116.0,11785.0,209116.0,26690.0,209116.0,27664.0,-966.0271973864238,-923.1636064286507,-1336.8769786689554
209116.0,11747.0,209116.0,26642.0,209116.0,27639.0,-981.3406202263483,-936.3781931693153,-1355.6040252809921
209116.0,11714.0,209116.0,26585.0,209116.0,27593.0,-996.6626551996358,-949.534190360168,-1374.233201347306
