c_ts,c_val,d_ts,d_val,e_ts,e_val,c_val_filtered,d_val_filtered,e_val_filtered
242301,3890,242301,18280,242301.0,50566.0,346.9801691870842,290.6153129628304,837.1875784890252
242301,3897,242301,18258,242301.0,50476.0,351.39034612497215,294.2737677434663,841.6137497270277
242301,3901,242301,18273,242301.0,50571.0,355.7536003476917,297.8165431134826,845.7917209318622
242301,3929,242301,18402,242301.0,50704.0,360.0573995346829,301.22773140226536,849.7001770486754
242311,3964,242311,18419,242311.0,50727.0,364.28955556968305,304.49239194074454,853.318514775035
242311,3946,242311,18370,242311.0,50607.0,368.43878811240586,307.59817599724187,856.6290249391858
242311,3879,242311,18237,242311.0,50540.0,372.4950356763301,310.53589003833247,859.6173806113766
242311,3877,242311,18179,242311.0,50466.0,376.4489661481669,313.29805870600654,862.2710004615766
242311,3891,242311,18266,242311.0,50514.0,380.29103920597845,315.87661300999923,864.5768764577234
242311,3940,242311,18348,242311.0,50600.0,384.0110579268295,318.2618450917238,866.5205318511659
242322,3956,242322,18391,242322.0,50627.0,387.598562023372,320.44344741299886,868.0867109240197
242322,3946,242322,18314,242322.0,50572.0,391.0435915091555,322.41226459509795,869.260872072331
242322,3896,242322,18276,242322.0,50483.0,394.3370784187086,324.1609389029986,870.0297989465503
242322,3885,242322,18229,242322.0,50500.0,397.47048644114693,325.6830772983123,870.3807675170672
242322,3924,242322,18318,242322.0,50565.0,400.4351095772994,326.9720513244215,870.3004857481418
242322,3959,242322,18427,242322.0,50649.0,403.2218699437809,328.02090937624143,869.7753200358438
242332,3980,242332,18377,242332.0,50640.0,405.8219023737693,328.82379416775643,868.7928735912848
242332,3929,242332,18322,242332.0,50502.0,408.2273210104233,329.37739638969504,867.3433994038203
242332,3895,242332,18227,242332.0,50447.0,410.4313424953263,329.6808014750507,865.419473717744
242332,3874,242332,18172,242332.0,50385.0,412.42758387069745,329.7337943392556,863.014061879897
242332,3928,242332,18286,242332.0,50476.0,414.20921943676433,329.53499017428317,860.1186281681541
242332,3934,242332,18333,242332.0,50552.0,415.7688042408828,329.0813576787965,856.722795490168
242342,3957,242342,18372,242342.0,50545.0,417.0988008475668,328.3694869000514,852.8157009368491
242342,3918,242342,18267,242342.0,50457.0,418.19217620142956,327.3971446973354,848.3875742446704
242342,3890,242342,18228,242342.0,50403.0,419.04249610797615,326.16350906672113,843.4299265971916
242342,3909,242342,18247,242342.0,50451.0,419.64349934368005,324.6681147734612,837.9345524451551
242342,3949,242342,18340,242342.0,50539.0,419.9887688386296,322.91004632510266,831.8930445429551
242342,3964,242342,18389,242342.0,50554.0,420.07206475153083,320.88859658145634,825.2978525354911
242353,3953,242353,18331,242353.0,50465.0,419.8880686987619,318.6048628322834,818.1439382531906
242353,3894,242353,18212,242353.0,50366.0,419.43279055571327,316.0625440009829,810.4292308798426
242353,3863,242353,18156,242353.0,50315.0,418.7031765901361,313.2668744562757,802.1533438396417
242353,3895,242353,18196,242353.0,50389.0,417.6962367828948,310.22257463891293,793.3158405619641
242353,3919,242353,18293,242353.0,50433.0,416.4085737821868,306.93275707329593,783.9157612131689
242353,3943,242353,18319,242353.0,50459.0,414.83675071395965,303.3997104360437,773.9527746790952
242363,3922,242363,18276,242363.0,50395.0,412.9780466651247,299.62657399929344,763.4287658685894
242363,3875,242363,18186,242363.0,50294.0,410.830867356349,295.61815993734035,752.3484295841167
242363,3854,242363,18148,242363.0,50248.0,408.39444479391915,291.38021103658537,740.7183953135376
242363,3902,242363,18232,242363.0,50322.0,405.6682165301908,286.9180609935129,728.5458440599195
242363,3951,242363,18344,242363.0,50418.0,402.65178916121374,282.23645775669866,715.8383452547154
242363,3949,242363,18318,242363.0,50376.0,399.34581189480735,277.3411487575688,702.6054376589648
242373,3880,242373,18206,242373.0,50241.0,395.75293451499067,272.24061495734463,688.860272279468
242373,3833,242373,18080,242373.0,50172.0,391.8778054735331,266.94588526947445,674.6193984889937
242373,3820,242373,18062,242373.0,50117.0,387.7261019262389,261.4683582310723,659.9009276726897
242373,3858,242373,18159,242373.0,50209.0,383.30356902602966,255.8175915682057,644.7228931989617
242373,3883,242373,18253,242373.0,50251.0,378.61591016327606,250.0010465967586,629.1032308371541
242373,3874,242373,18222,242373.0,50253.0,373.66945106653674,244.02580334135638,613.061320345936
242384,3831,242384,18158,242384.0,50118.0,368.47179236950507,237.90031548841768,596.6195516308205
242384,3798,242384,18067,242384.0,50021.0,363.0318008181021,231.634539405971,579.8032796606607
242384,3789,242384,18099,242384.0,50047.0,357.3590238653643,225.2386797971387,562.6392605041012
242384,3826,242384,18224,242384.0,50176.0,351.46317698331177,218.72227587865865,545.1545751987953
242384,3853,242384,18212,242384.0,50154.0,345.3542943103495,212.0949755533761,527.3776170641927
242384,3815,242384,18177,242384.0,50032.0,339.0434472011393,205.36822824627205,509.339988048985
242394,3758,242394,18037,242394.0,49912.0,332.54320466944654,198.55592092803312,491.076848405762
242394,3732,242394,17982,242394.0,49846.0,325.86723229241716,191.67313936707552,472.62517225873455
242394,3745,242394,18027,242394.0,49885.0,319.0294501040305,184.7340842436422,454.0215694094303
242394,3755,242394,18111,242394.0,49919.0,312.0435969785127,177.75101359496526,435.30142271656894
242394,3779,242394,18157,242394.0,49950.0,304.9234904475154,170.73511574227896,416.4997000922997
242394,3748,242394,18106,242394.0,49849.0,297.6836354466468,163.6983348380971,397.65237750656047
242404,3694,242404,18008,242404.0,49764.0,290.33957037357175,156.65437385225857,378.7969641796983
242404,3660,242404,17933,242404.0,49665.0,282.9075108366707,149.61795785424889,359.97149334195956
242404,3687,242404,18040,242404.0,49760.0,275.40358605542934,142.60321925578975,341.2129123068346
242404,3726,242404,18131,242404.0,49833.0,267.84354163754676,135.62322624071086,322.5566899568894
242404,3706,242404,18100,242404.0,49795.0,260.24327855082686,128.6914350796981,304.03829410265166
242404,3660,242404,18016,242404.0,49653.0,252.6195437574046,121.82337204174817,285.694831554781
242415,3610,242415,17873,242415.0,49534.0,244.98990786071772,115.03652275775346,267.5647551961291
242415,3572,242415,17848,242415.0,49510.0,237.37196648632624,108.34831722973695,249.68573803655465
242415,3612,242415,17933,242415.0,49567.0,229.78241849449904,101.77389771878111,232.09268614494863
242415,3635,242415,18003,242415.0,49614.0,222.23680161699582,95.32559149961082,214.8175082279306
242415,3626,242415,18010,242415.0,49577.0,214.75006104154426,89.01430251065096,197.8904241868728
242415,3587,242415,17923,242415.0,49496.0,207.33724618068624,82.8511458495799,181.34122096245312
242425,3553,242425,17858,242425.0,49385.0,200.0136045706198,76.84769767545214,165.19914330260815
242425,3532,242425,17858,242425.0,49398.0,192.79408252745412,71.01486824629285,149.4915459787344
242425,3588,242425,17933,242425.0,49492.0,185.69283716022568,65.36182646813802,134.2428101311948
242425,3582,242425,18011,242425.0,49498.0,178.72338053924693,59.89630923817765,119.47489696467721
242425,3553,242425,17934,242425.0,49438.0,171.89922199229574,54.626116955197006,105.20896730507718
242425,3490,242425,17833,242425.0,49309.0,165.23414800450507,49.560074772834525,91.46614982794824
242436,3457,242436,17740,242436.0,49236.0,158.74165763626314,44.70710344426584,78.26649801984229
242436,3461,242436,17817,242436.0,49296.0,152.43398609203115,40.07415230334789,65.627102529946
242436,3486,242436,17884,242436.0,49361.0,146.32150728442275,35.665070444334276,53.56126056854714
242436,3523,242436,17958,242436.0,49405.0,140.41294807720016,31.48148440685577,42.07955378598399
242436,3487,242436,17883,242436.0,49308.0,134.71616090251888,27.524694658132944,31.191702928158065
242436,3441,242436,17815,242436.0,49220.0,129.23866925810233,23.796720885156503,20.90733505962976
242446,3420,242446,17757,242446.0,49186.0,123.98742930044625,20.299644056759973,11.235041744491923
242446,3446,242446,17845,242446.0,49244.0,118.96819381925889,17.034210505343367,2.180966389396758
242446,3474,242446,17981,242446.0,49349.0,114.18532833119104,13.999584072965149,-6.25134519848973
242446,3482,242446,17959,242446.0,49281.0,109.64234825970027,11.195027449064298,-14.059511495812217
242446,3453,242446,17815,242446.0,49174.0,105.34266707536761,8.621835047753905,-21.24095674608361
242446,3395,242446,17727,242446.0,49113.0,101.2898469721452,6.283149682316036,-27.793329280802027
242456,3371,242456,17706,242456.0,49056.0,97.48706864409138,4.181697398968822,-33.716338565486694
242456,3408,242456,17787,242456.0,49175.0,93.9362996710849,2.31763612090009,-39.013331348807924
242456,3431,242456,17853,242456.0,49210.0,90.63802351918599,0.6882118867573581,-43.69129149727837
242456,3419,242456,17914,242456.0,49193.0,87.59173348792467,-0.7108299341203406,-47.75938281125764
242456,3408,242456,17800,242456.0,49128.0,84.79652982745125,-1.8834565274584065,-51.227617161335615
242456,3362,242456,17719,242456.0,49056.0,82.25123113219036,-2.832892543179298,-54.10690034791469
242467,3369,242467,17760,242467.0,49110.0,79.9540020595989,-3.5628540806559386,-56.41007288476487
242467,3412,242467,17867,242467.0,49190.0,77.90198715205639,-4.0786948161011765,-58.15247613355166
242467,3419,242467,17883,242467.0,49234.0,76.09151746173421,-4.386814817091363,-59.35102342368509
242467,3417,242467,17871,242467.0,49196.0,74.51879495104043,-4.493013870352627,-60.02242528996646
242467,3361,242467,17718,242467.0,49053.0,73.18034850146233,-4.4016873780163905,-60.18228036786786
242467,3333,242467,17675,242467.0,49018.0,72.07277393144,-4.116890667023654,-59.846049348316456
242477,3338,242477,17707,242477.0,49066.0,71.19195848404866,-3.6444904047272075,-59.03101497639591
242477,3366,242477,17840,242477.0,49156.0,70.53249617725555,-2.9933731820847242,-57.7572058872737
242477,3395,242477,17886,242477.0,49163.0,70.0878021064546,-2.174502905989584,-56.046494466441004
242477,3378,242477,17858,242477.0,49119.0,69.8507376655864,-1.1987819182209023,-53.921084351363106
242477,3343,242477,17718,242477.0,49044.0,69.81408513649257,-0.07583029262639229,-51.402987645885105
242477,3324,242477,17689,242477.0,49012.0,69.9703983209177,1.185149344046465,-48.51488576449276
242487,3346,242487,17795,242487.0,49114.0,70.31147026948844,2.5735388753505504,-45.28134109673272
242487,3397,242487,17913,242487.0,49215.0,70.82814081700974,4.076875748269799,-41.72877013621371
242487,3393,242487,17896,242487.0,49210.0,71.51081250443337,5.682554874654102,-37.883738141187564
242487,3345,242487,17827,242487.0,49123.0,72.35014293930192,7.37979185303243,-33.77112870877352
242487,3333,242487,17734,242487.0,49004.0,73.3370983392984,9.159844418963871,-29.414075552968825
242487,3308,242487,17686,242487.0,48989.0,74.46234629730026,11.014427708972846,-24.835807465070275
242498,3342,242498,17760,242498.0,49055.0,75.71562755803609,12.933752379481177,-20.0617624362568
242498,3374,242498,17861,242498.0,49163.0,77.08564137386799,14.905849362800382,-15.120130614945879
242498,3384,242498,17872,242498.0,49180.0,78.56055000380417,16.91772596230959,-10.040487313789527
242498,3367,242498,17819,242498.0,49103.0,80.12867368589775,18.957068602119875,-4.851982365945219
242498,3331,242498,17745,242498.0,49050.0,81.77876124675532,21.012756284937154,0.4171524464164804
242498,3331,242498,17736,242498.0,49075.0,83.4996667283707,23.073883614709928,5.73865132856406
242508,3356,242508,17862,242508.0,49190.0,85.27987154293402,25.12862737851259,11.0834194478997
242508,3404,242508,17931,242508.0,49236.0,87.1074818934568,27.1645800671738,16.422276034912898
242508,3399,242508,17894,242508.0,49200.0,88.9708596795536,29.170530473091645,21.727744775362794
242508,3327,242508,17750,242508.0,49079.0,90.85924169940296,31.137702435782614,26.975056904757935
242508,3295,242508,17711,242508.0,49040.0,92.76248946196392,33.058865492791455,32.14126090746879
242508,3327,242508,17753,242508.0,49084.0,94.6700954290639,34.9261879249313,37.20333006089663
242518,3364,242518,17875,242518.0,49141.0,96.57055299490213,36.730103057906746,42.13711218644062
242518,3391,242518,17895,242518.0,49224.0,98.45171182776642,38.46023534478985,46.91793994057457
242518,3382,242518,17853,242518.0,49161.0,100.30163932054558,40.10721682167136,51.52215566610823
242518,3349,242518,17777,242518.0,49087.0,102.10919118786171,41.66350814959861,55.92802569976732
242518,3322,242518,17718,242518.0,49066.0,103.86389291483965,43.12256480344473,60.11514231008084
242518,3361,242518,17836,242518.0,49146.0,105.55540157025865,44.477380752159604,64.06320237933028
242529,3397,242529,17932,242529.0,49251.0,107.17330317071662,45.7202291730664,67.75192007867236
242529,3406,242529,17913,242529.0,49252.0,108.70763448244566,46.84421361135276,71.16257202107647
242529,3363,242529,17827,242529.0,49120.0,110.14959330557411,47.844956205266215,74.27966785919239
242529,3341,242529,17725,242529.0,49025.0,111.49165437617228,48.72049862902355,77.09077176727965
242529,3311,242529,17707,242529.0,49013.0,112.7269859340451,49.469458392629434,79.58439435811817
242529,3333,242529,17794,242529.0,49112.0,113.84868932223378,50.0891121687541,81.74795286111498
242539,3390,242539,17889,242539.0,49196.0,114.84950133938895,50.575104107511265,83.56764760221756
242539,3381,242539,17899,242539.0,49218.0,115.72225907867528,50.92297350552346,85.03019650214048
242539,3364,242539,17771,242539.0,49143.0,116.46064786056792,51.129836435737275,86.12476654548789
242539,3327,242539,17722,242539.0,49020.0,117.05943513762685,51.19435964618157,86.843384489948
242539,3307,242539,17744,242539.0,49055.0,117.51402057822042,51.11517454968262,87.17958026226108
242539,3357,242539,17867,242539.0,49138.0,117.81982866613345,50.88974495622793,87.12692477581663
242549,3400,242549,17939,242549.0,49155.0,117.97228667130867,50.51517603046594,86.67916837936139
242549,3358,242549,17891,242549.0,49136.0,117.96752574941917,49.99033314593842,85.83154908830295
242549,3331,242549,17730,242549.0,49025.0,117.80294523040334,49.317107354525376,84.5815425315302
242549,3264,242549,17674,242549.0,48994.0,117.47687524959821,48.49931780272118,82.92816736807583
242549,3291,242549,17704,242549.0,49001.0,116.98759077136782,47.54019611863376,80.8704857511683
242549,3322,242549,17785,242549.0,49089.0,116.33256345464116,46.44079208571688,78.40674179065877
242560,3353,242560,17858,242560.0,49138.0,115.5085990106943,45.20044593843966,75.53501229211804
242560,3351,242560,17836,242560.0,49067.0,114.51264157017187,43.818535968258004,72.25476472614378
242560,3310,242560,17717,242560.0,48995.0,113.34245995017892,42.29575497485345,68.56771361497044
242560,3268,242560,17679,242560.0,48929.0,111.99662903261492,40.633654792931964,64.47708490475964
242560,3300,242560,17748,242560.0,49014.0,110.47391762727631,38.833104438789405,59.986184774767025
242560,3338,242560,17870,242560.0,49080.0,108.77289842549072,36.893732097827154,55.097986873110244
242570,3349,242570,17858,242570.0,49085.0,106.89236898541668,34.8152879063845,49.81633486556382
242570,3306,242570,17788,242570.0,48998.0,104.83212035761301,32.59948259172353,44.14748119556509
242570,3274,242570,17642,242570.0,48858.0,102.59316699259767,30.250225626783646,38.10019723086441
242570,3238,242570,17644,242570.0,48853.0,100.1772011574011,27.771870239884066,31.68409032035254
242570,3256,242570,17721,242570.0,48917.0,97.58577168908806,25.167148900407057,24.907653371020274
242570,3300,242570,17811,242570.0,48968.0,94.81988926602685,22.43681073176944,17.77788215856799
242580,3319,242580,17797,242580.0,48990.0,91.88044265402709,19.581112544875765,10.301563306124763
242580,3259,242580,17731,242580.0,48889.0,88.76900293112709,16.601431151487077,2.486763469268112
242580,3230,242580,17659,242580.0,48785.0,85.48807260072721,13.500440693141798,-5.6569902047524465
242580,3216,242580,17638,242580.0,48809.0,82.04051240655224,10.280901481309996,-14.120038960162788
242580,3256,242580,17774,242580.0,48938.0,78.42889049773254,6.94447889571623,-22.893753300744493
242580,3300,242580,17841,242580.0,48907.0,74.65555524564593,3.4921626622436293,-31.96987682439851
242591,3255,242591,17757,242591.0,48878.0,70.72340531724376,-0.07386735384432086,-41.33884661164586
242591,3208,242591,17629,242591.0,48776.0,66.63645636560511,-3.7491468824587457,-50.989069650035844
242591,3165,242591,17611,242591.0,48688.0,62.39946558017613,-7.528037383480637,-60.9078113015413
242591,3178,242591,17626,242591.0,48723.0,58.01697014173203,-11.405771848334041,-71.08290693538459
242591,3216,242591,17717,242591.0,48765.0,53.492686533939604,-15.37940259819743,-81.50387242934198
242591,3223,242591,17783,242591.0,48864.0,48.82976233142381,-19.44697935036359,-92.16137576148185
242601,3221,242601,17709,242601.0,48790.0,44.03152821274449,-23.60579750050732,-103.04548085781641
242601,3174,242601,17634,242601.0,48645.0,39.10202964300032,-27.851400435620235,-114.14443072524739
242601,3125,242601,17544,242601.0,48573.0,34.04588479724288,-32.178366048356224,-125.44547585192925
242601,3160,242601,17655,242601.0,48680.0,28.86761834725064,-36.582001322975884,-136.9368901981877
242601,3200,242601,17728,242601.0,48782.0,23.57128247510451,-41.0589578664395,-148.6085807759298
242601,3195,242601,17740,242601.0,48760.0,18.16094374953144,-45.60595904737602,-160.45036231234087
242611,3153,242611,17681,242611.0,48594.0,12.641471109862607,-50.21802713456913,-172.4499858201749
242611,3102,242611,17548,242611.0,48515.0,7.018673669808891,-54.88807440251398,-184.59333571993602
242611,3076,242611,17478,242611.0,48468.0,1.2986161635537314,-59.60839667907436,-196.86661580351506
242611,3100,242611,17604,242611.0,48534.0,-4.513258773952032,-64.37285532060994,-209.25840362560518
242611,3124,242611,17655,242611.0,48619.0,-10.412444812454964,-69.1776006815829,-221.75994668435152
242611,3133,242611,17657,242611.0,48622.0,-16.39492244495699,-74.01976051236684,-234.3636602881778
242622,3098,242622,17603,242622.0,48487.0,-22.456462019739774,-78.8958338179734,-247.06135531776874
242622,3068,242622,17503,242622.0,48445.0,-28.59235129961388,-83.80143556967658,-259.8440053541592
242622,3040,242622,17485,242622.0,48429.0,-34.797731849585716,-88.73247536079816,-272.7030069021323
242622,3065,242622,17623,242622.0,48516.0,-41.06813561483568,-93.68646686680452,-285.63117236458265
242622,3102,242622,17674,242622.0,48550.0,-47.39959044503479,-98.66223998031407,-298.6222053872268
242622,3092,242622,17662,242622.0,48523.0,-53.78805186638243,-103.65801928158851,-311.6690777271085
242632,3033,242632,17529,242632.0,48381.0,-60.22873395005354,-108.66988452406198,-324.76288839279096
242632,2987,242632,17446,242632.0,48288.0,-66.71617521112364,-113.69226253754806,-337.8935146439925
242632,2976,242632,17451,242632.0,48309.0,-73.24507814505876,-118.71999128947718,-351.05163217965867
242632,3019,242632,17561,242632.0,48361.0,-79.81108880206597,-123.74995885808045,-364.23020860528595
242632,3040,242632,17587,242632.0,48418.0,-86.41075160119095,-128.7808340856226,-377.4241874346741
242632,3012,242632,17563,242632.0,48369.0,-93.04077511679014,-133.81149005871333,-390.6289477147027
242642,2963,242642,17478,242642.0,48242.0,-99.6974953460184,-138.83994789042913,-403.8392373543379
242642,2931,242642,17409,242642.0,48226.0,-106.37713761527397,-143.86385675889142,-417.04969741438526
242642,2952,242642,17473,242642.0,48252.0,-113.07652916582964,-148.88189100741533,-430.2561983992615
242642,2991,242642,17570,242642.0,48354.0,-119.79340852933393,-153.8944049249572,-443.4561815409602
242642,2990,242642,17610,242642.0,48343.0,-126.52593110043011,-158.90231517625455,-456.6473636948325
242642,2952,242642,17528,242642.0,48246.0,-133.27189108226355,-163.90518226778767,-469.82604446282994
242653,2906,242653,17387,242653.0,48148.0,-140.02849162202358,-168.90055523029832,-482.98678436755245
242653,2880,242653,17375,242653.0,48072.0,-146.79287570329114,-173.88540926306604,-496.12385287681343
242653,2896,242653,17414,242653.0,48130.0,-153.56288766964525,-178.85825575818194,-509.2331654328358
242653,2919,242653,17504,242653.0,48194.0,-160.3373774033389,-183.81989499621562,-522.3130400900061
242653,2924,242653,17548,242653.0,48220.0,-167.1158286667175,-188.7723056253427,-535.3631809415594
242653,2910,242653,17450,242653.0,48156.0,-173.89770627451162,-193.71690132953574,-548.3829508553504
242663,2860,242663,17369,242663.0,48031.0,-180.68210697728472,-198.65394562937433,-561.3706395436174
242663,2851,242663,17359,242663.0,48008.0,-187.46798121056486,-203.583679275725,-574.3244089921124
242663,2894,242663,17500,242663.0,48141.0,-194.25454528182547,-208.50760398360688,-587.2436454082717
242663,2896,242663,17532,242663.0,48177.0,-201.04118787137884,-213.4280525776678,-600.1286839093123
242663,2885,242663,17502,242663.0,48122.0,-207.82684456863427,-218.34632478055056,-612.9789080033827
242663,2836,242663,17380,242663.0,47983.0,-214.60954877248582,-223.26146896766159,-625.7914661518971
242674,2794,242674,17311,242674.0,47891.0,-221.38666087865852,-228.1710313461149,-638.5621495445639
242674,2783,242674,17318,242674.0,47926.0,-228.15562808631063,-233.0730622584664,-651.2875872858418
242674,2804,242674,17413,242674.0,48000.0,-234.91467790724676,-237.9675563034706,-663.9666301626544
242674,2825,242674,17451,242674.0,48031.0,-241.66289702821638,-242.85613030672698,-676.5997554083018
242674,2826,242674,17455,242674.0,47991.0,-248.39969760875465,-247.74044102694262,-689.1873687777567
242674,2761,242674,17369,242674.0,47895.0,-255.1242579293675,-252.6208866584435,-701.7287463597701
242684,2742,242684,17295,242684.0,47854.0,-261.83558298210687,-257.49670918331327,-714.2224519242111
242684,2766,242684,17327,242684.0,47875.0,-268.5330696806839,-262.36726888197956,-726.6675276008583
242684,2792,242684,17463,242684.0,47961.0,-275.2167368788908,-267.23290240078006,-739.0639826421235
242684,2803,242684,17462,242684.0,47989.0,-281.886709403944,-272.0940145749511,-751.4117910530858
242684,2779,242684,17395,242684.0,47840.0,-288.54242966162275,-276.949268133981,-763.7093168707544
242684,2705,242684,17271,242684.0,47753.0,-295.18233345247563,-281.7950305985933,-775.9531017841124
242694,2670,242694,17206,242694.0,47705.0,-301.8043947655927,-286.62686362026807,-788.1395615555101
242694,2698,242694,17266,242694.0,47761.0,-308.4071490195496,-291.44178599653594,-800.2669561805657
242694,2752,242694,17384,242694.0,47831.0,-314.9901566422724,-296.2392867674414,-812.3358752768529
242694,2736,242694,17397,242694.0,47823.0,-321.55341931972987,-301.0202020930341,-824.3480667396792
242694,2692,242694,17334,242694.0,47766.0,-328.0965159231669,-305.7847612367963,-836.3049078868339
242694,2668,242694,17217,242694.0,47647.0,-334.6184376036662,-310.531910360147,-848.207024699994
242705,2645,242705,17230,242705.0,47675.0,-341.1181139779821,-315.26046660410145,-860.0553161392379
242705,2675,242705,17358,242705.0,47751.0,-347.59495046790516,-319.97047137036327,-871.8520013085694
242705,2708,242705,17422,242705.0,47802.0,-354.0488142320024,-324.662755543082,-883.6001473689995
242705,2685,242705,17349,242705.0,47761.0,-360.4794181190303,-329.3369615267256,-895.3019412204009
242705,2648,242705,17232,242705.0,47610.0,-366.88571988917545,-333.9903473418445,-906.9575484789403
242705,2599,242705,17184,242705.0,47552.0,-373.2660085940047,-338.6187570242733,-918.5658993932985
242715,2591,242715,17183,242715.0,47575.0,-379.61862350982443,-343.2187111477469,-930.1266913659994
242715,2604,242715,17230,242715.0,47654.0,-385.9426722513936,-347.7888164762763,-941.6415722405429
242715,2644,242715,17327,242715.0,47663.0,-392.23815314168274,-352.3296469059109,-953.1135005920984
242715,2632,242715,17315,242715.0,47658.0,-398.50540294242614,-356.84233858879077,-964.5451794834495
242715,2577,242715,17182,242715.0,47539.0,-404.74447302033843,-361.3272227471294,-975.9380692548109
242715,2570,242715,17147,242715.0,47492.0,-410.9551280806494,-365.78406251024705,-987.29280292713
242725,2550,242725,17198,242725.0,47516.0,-417.1373723544995,-370.21357401637886,-998.6105164562413
242725,2609,242725,17332,242725.0,47646.0,-423.2917929216312,-374.61809473310575,-1009.8934687658241
242725,2618,242725,17366,242725.0,47648.0,-429.4192223338523,-379.0001908127805,-1021.1438506214856
242725,2575,242725,17260,242725.0,47564.0,-435.51996134859155,-383.36045610368967,-1032.3617981948742
242725,2534,242725,17151,242725.0,47438.0,-441.59341373939077,-387.69681991097764,-1043.5447422422421
242725,2490,242725,17092,242725.0,47370.0,-447.63858851488766,-392.0061203658351,-1054.6888477484988
242736,2517,242736,17156,242736.0,47446.0,-453.654981847059,-396.2863973363666,-1065.79115988715
242736,2533,242736,17220,242736.0,47495.0,-459.64303329470226,-400.5378913620694,-1076.8504508990186
242736,2545,242736,17260,242736.0,47494.0,-465.60383861171135,-404.7622002367392,-1087.8662559782242
242736,2521,242736,17181,242736.0,47400.0,-471.5385339917854,-408.96077508980915,-1098.8375492194446
242736,2475,242736,17135,242736.0,47342.0,-477.4480114533377,-413.13435668917424,-1109.7626361311459
242736,2469,242736,17095,242736.0,47317.0,-483.33322436843645,-417.28377285921385,-1120.6402789425647
242746,2498,242746,17242,242746.0,47421.0,-489.19566622103105,-421.41092120666815,-1131.4707130291308
242746,2548,242746,17259,242746.0,47447.0,-495.0372899771763,-425.51840314572075,-1142.255275502568
242746,2531,242746,17266,242746.0,47432.0,-500.859689936235,-429.60784559459285,-1152.9948442899981
242746,2474,242746,17165,242746.0,47278.0,-506.6632887140627,-433.6785757955283,-1163.688728910624
242746,2422,242746,17058,242746.0,47251.0,-512.4474116562249,-437.7279788011632,-1174.3353000177021
242746,2413,242746,17032,242746.0,47251.0,-518.2112203363533,-441.75339598510953,-1184.9337162068841
242756,2440,242756,17138,242756.0,47315.0,-523.954624837254,-445.75406911500176,-1195.484971307298
242756,2453,242756,17186,242756.0,47383.0,-529.6784523668468,-449.7314179907323,-1205.991343407009
242756,2453,242756,17193,242756.0,47318.0,-535.383961253837,-453.68762536076565,-1216.4548304425957
242756,2427,242756,17094,242756.0,47242.0,-541.0723053932279,-457.6242411474809,-1226.8760658003362
242756,2380,242756,17006,242756.0,47135.0,-546.7444509897296,-461.54232371192325,-1237.2548410869242
242756,2385,242756,17093,242756.0,47198.0,-552.4016082995345,-465.44387526207976,-1247.591740236339
242767,2444,242767,17209,242767.0,47296.0,-558.0456258628503,-469.3326103795857,-1257.8890636024144
242767,2454,242767,17239,242767.0,47318.0,-563.6786388870739,-473.2126652805763,-1268.149833855031
242767,2405,242767,17160,242767.0,47219.0,-569.3022004065344,-477.0864336024344,-1278.375925830924
242767,2368,242767,17058,242767.0,47116.0,-574.9169191591773,-480.95378707118186,-1288.5674815891982
242767,2340,242767,16990,242767.0,47053.0,-580.5229866172322,-484.81337511581137,-1298.724292610347
242767,2351,242767,17052,242767.0,47129.0,-586.1209840104495,-488.6647224091903,-1308.8477608536787
242777,2380,242777,17134,242777.0,47200.0,-591.7122509094586,-492.509228136211,-1318.941538392874
242777,2423,242777,17223,242777.0,47188.0,-597.2985097667057,-496.34918263072166,-1329.0103740530058
242777,2365,242777,17097,242777.0,47133.0,-602.8810296975951,-500.18579903844704,-1339.0585754490453
242777,2315,242777,16985,242777.0,47074.0,-608.4601976296926,-504.0184475874882,-1349.0895959815903
242777,2310,242777,16980,242777.0,46995.0,-614.0360108078733,-507.8460739363915,-1359.1069004602496
242777,2327,242777,17104,242777.0,47099.0,-619.6088531696963,-511.6690470470792,-1369.1151884457372
242787,2372,242787,17157,242787.0,47175.0,-625.1796307474415,-515.4891295658047,-1379.120556564301
242787,2363,242787,17129,242787.0,47129.0,-630.749142637545,-519.3077265263248,-1389.1290835970867
242787,2304,242787,17025,242787.0,47033.0,-636.3173816497842,-523.1245453306094,-1399.14540451786
242787,2263,242787,16960,242787.0,46939.0,-641.8835882701096,-526.9380896470984,-1409.1730238101904
242787,2257,242787,16956,242787.0,46977.0,-647.4470761510113,-530.7474367814135,-1419.2159975727316
242787,2293,242787,17012,242787.0,47038.0,-653.0079852575137,-534.5537058850709,-1429.2801285373487
242798,2305,242798,17073,242798.0,47085.0,-658.5672746208429,-538.3601282565016,-1439.3724859368683
242798,2286,242798,17087,242798.0,47058.0,-664.1261429008352,-542.1708714751734,-1449.4998369174962
242798,2258,242798,17025,242798.0,46966.0,-669.6855991985683,-545.9897282967819,-1459.667525284412
242798,2222,242798,16920,242798.0,46858.0,-675.2466090660579,-549.8199167974608,-1469.8798739909116
242798,2242,242798,16989,242798.0,46929.0,-680.8106011664311,-553.6651697336749,-1480.141771210228
242798,2274,242798,17115,242798.0,47052.0,-686.3797294587731,-557.5305324840467,-1490.4595719473318
242808,2285,242808,17142,242808.0,47055.0,-691.9564840937023,-561.4212889273772,-1500.8399085448928
242808,2261,242808,17017,242808.0,46945.0,-697.5429605837281,-565.3409824413646,-1511.2876524514124
242808,2214,242808,16944,242808.0,46846.0,-703.1405035714126,-569.2909502086534,-1521.8054413487503
242808,2194,242808,16900,242808.0,46766.0,-708.7500529740042,-573.2719090284011,-1532.395315865535
242808,2190,242808,16945,242808.0,46808.0,-714.3728443792334,-577.2859250330446,-1543.060978343513
242808,2234,242808,17045,242808.0,46950.0,-720.0108120187615,-581.3370855578839,-1553.8087692496256
242818,2240,242818,17091,242818.0,46930.0,-725.6663138172587,-585.4304137052857,-1564.6465030484635
242818,2199,242818,17015,242818.0,46879.0,-731.341492133613,-589.5700191270928,-1575.5814362583503
242818,2170,242818,16914,242818.0,46769.0,-737.038031041368,-593.7583163442107,-1586.6195146204327
242818,2141,242818,16894,242818.0,46744.0,-742.7575974494168,-597.9970875849949,-1597.76640913135
242818,2179,242818,16994,242818.0,46878.0,-748.5024580523259,-602.2890463082091,-1609.0288350951482
242818,2224,242818,17065,242818.0,46910.0,-754.2755374425572,-606.6379525011595,-1620.4142962297124
242829,2190,242829,17068,242829.0,46872.0,-760.0797412485533,-611.0470368189141,-1631.9292940885314
242829,2155,242829,16950,242829.0,46759.0,-765.9172929856397,-615.5174354028027,-1643.5780323581316
242829,2133,242829,16894,242829.0,46648.0,-771.7898191411068,-620.048294735526,-1655.3630749314284
242829,2095,242829,16858,242829.0,46682.0,-777.698998263485,-624.6384109062169,-1667.2873747833962
242829,2132,242829,16930,242829.0,46742.0,-783.6471972377377,-629.2878511059026,-1679.3557975599465
242829,2156,242829,16956,242829.0,46833.0,-789.6376170880412,-633.99829255143,-1691.5747434038726
242839,2144,242839,16968,242839.0,46805.0,-795.6738085938938,-638.7721618017781,-1703.9502614881137
242839,2138,242839,16910,242839.0,46694.0,-801.7590493838759,-643.611671273376,-1716.4864116297454
242839,2073,242839,16832,242839.0,46613.0,-807.8961814185409,-648.5187849798332,-1729.1853744025084
242839,2095,242839,16900,242839.0,46644.0,-814.0879937546166,-653.4961053299454,-1742.0489959398506
242839,2137,242839,17000,242839.0,46728.0,-820.3376000451148,-658.5473493088657,-1755.0798630271322
242839,2141,242839,17023,242839.0,46738.0,-826.6481388094846,-663.6762503207143,-1768.2806597799186
242849,2117,242849,16991,242849.0,46687.0,-833.0220088667313,-668.8846626917419,-1781.6526315049064
242849,2059,242849,16828,242849.0,46575.0,-839.460522176859,-674.1717548348809,-1795.1949041600778
242849,2029,242849,16796,242849.0,46521.0,-845.9643807829179,-679.5352219317766,-1808.9054081535194
242849,2035,242849,16851,242849.0,46572.0,-852.5345690152631,-684.9734516474354,-1822.7824998741644
242849,2088,242849,16920,242849.0,46619.0,-859.1728494157026,-690.4865362414182,-1836.8256498886817
242849,2092,242849,16971,242849.0,46646.0,-865.8813807000554,-696.075354008747,-1851.0345785920777
242860,2058,242860,16923,242860.0,46600.0,-872.6618887568113,-701.7398553593748,-1865.4077783397731
242860,2026,242860,16802,242860.0,46454.0,-879.5152810546074,-707.4782251138199,-1879.941887253759
242860,2009,242860,16768,242860.0,46443.0,-886.4419755848153,-713.2877770560234,-1894.6326513878494
242860,2037,242860,16892,242860.0,46543.0,-893.4423979042734,-719.1665466745178,-1909.4764108757408
242860,2066,242860,16969,242860.0,46617.0,-900.5169885526175,-725.1134329795782,-1924.4700540908893
242860,2052,242860,16945,242860.0,46611.0,-907.6656155972909,-731.1264482895024,-1939.6091019769647
242870,2019,242870,16852,242870.0,46441.0,-914.8869650090373,-737.2010390414409,-1954.8859119788785
242870,1964,242870,16744,242870.0,46380.0,-922.1785503954266,-743.3302808371072,-1970.2899424777315
242870,1955,242870,16740,242870.0,46370.0,-929.5373826083012,-749.5067333542581,-1985.809719775091
242870,1968,242870,16816,242870.0,46442.0,-936.9607286098565,-755.7242351693756,-2001.434389116201
242870,1996,242870,16888,242870.0,46478.0,-944.4463181672398,-761.9780561664718,-2017.1535023096371
242870,1992,242870,16892,242870.0,46465.0,-951.9918972749425,-768.2634360599545,-2032.955564411148
242880,1948,242880,16787,242880.0,46354.0,-959.5946666900419,-774.5740836484604,-2048.826843442405
242880,1949,242880,16700,242880.0,46286.0,-967.2511743221919,-780.902217489391,-2064.7516051388934
242880,1920,242880,16758,242880.0,46327.0,-974.957617048417,-787.2400490345505,-2080.713437230228
242880,1973,242880,16888,242880.0,46416.0,-982.710060298791,-793.5807474852634,-2096.6959638270273
242880,1968,242880,16903,242880.0,46450.0,-990.5041910280178,-799.9173688248408,-2112.6818090624383
242880,1968,242880,16819,242880.0,46362.0,-998.334685151443,-806.2408319470134,-2128.6507009615852
242891,1893,242891,16698,242891.0,46246.0,-1006.194786586826,-812.539291656172,-2144.578679121103
242891,1872,242891,16677,242891.0,46188.0,-1014.0766262665422,-818.7995969014888,-2160.439242654055
242891,1890,242891,16722,242891.0,46226.0,-1021.9720121801341,-825.0092905178465,-2176.205275524451
242891,1915,242891,16803,242891.0,46340.0,-1029.8728306141115,-831.1572890587086,-2191.8498134107062
242891,1934,242891,16850,242891.0,46327.0,-1037.7706439873477,-837.2328059918362,-2207.3448778813045
242891,1901,242891,16765,242891.0,46237.0,-1045.6559327884297,-843.2236458355412,-2222.659682035995
242901,1851,242901,16688,242901.0,46154.0,-1053.5177306693236,-849.1155411897682,-2237.7601836776503
242901,1822,242901,16638,242901.0,46129.0,-1061.3440213221097,-854.8931786274218,-2252.610280452055
242901,1873,242901,16770,242901.0,46256.0,-1069.1224441764568,-860.5416814544512,-2267.173031095256
242901,1897,242901,16868,242901.0,46285.0,-1076.8403966038086,-866.0465665796502,-2281.410248544119
242901,1892,242901,16815,242901.0,46253.0,-1084.484308394232,-871.3918420638488,-2295.280690739528
242901,1848,242901,16706,242901.0,46139.0,-1092.038870073626,-876.5583302609919,-2308.73876480678
242911,1794,242911,16615,242911.0,46035.0,-1099.4870088032142,-881.5241537783758,-2321.7351139883513
242911,1777,242911,16605,242911.0,46035.0,-1106.810636640158,-886.2668890600266,-2334.218615244492
242911,1816,242911,16710,242911.0,46118.0,-1113.991485662808,-890.7653787275485,-2346.138048697886
242911,1828,242911,16753,242911.0,46160.0,-1121.0112594999778,-894.999730117264,-2357.442017882037
242911,1821,242911,16751,242911.0,46109.0,-1127.8510876854975,-898.9498265130893,-2368.0775393313056
242911,1780,242911,16656,242911.0,46042.0,-1134.4910079231695,-902.5940577232524,-2377.9890536974044
242922,1750,242922,16605,242922.0,45995.0,-1140.9100435164733,-905.9095395327688,-2387.1188416151144
242922,1774,242922,16645,242922.0,46049.0,-1147.0867106624257,-908.8734220325455,-2395.4081276890784
242922,1786,242922,16761,242922.0,46108.0,-1152.9993005986403,-911.4636281061087,-2402.797457855016
242922,1821,242922,16797,242922.0,46151.0,-1158.6255446940543,-913.6578773836287,-2409.2257408482556
242922,1792,242922,16715,242922.0,46061.0,-1163.9419181760925,-915.4318605130773,-2414.628799598754
242922,1742,242922,16593,242922.0,45967.0,-1168.923222714553,-916.7586347456955,-2418.938988752308
242932,1712,242932,16558,242932.0,45865.0,-1173.542924198669,-917.6101077754878,-2422.086629166433
242932,1719,242932,16595,242932.0,45943.0,-1177.7739915287823,-917.9592892004739,-2424.0023367095005
242932,1752,242932,16708,242932.0,45993.0,-1181.589452068906,-917.7813272473326,-2424.6183877919234
242932,1778,242932,16777,242932.0,46063.0,-1184.9621951247727,-917.0525383223969,-2423.8681990152186
242932,1738,242932,16668,242932.0,46021.0,-1187.8643238294537,-915.7484886038302,-2421.6848135631035
242932,1714,242932,16575,242932.0,45865.0,-1190.2668233058175,-913.8432756196443,-2418.0001895096116
242943,1683,242943,16560,242943.0,45852.0,-1192.1399345628547,-911.3109050885852,-2412.746423467178
242943,1714,242943,16671,242943.0,45965.0,-1193.453830315921,-908.1271367802672,-2405.8578614491453
242943,1742,242943,16756,242943.0,46062.0,-1194.1789015742147,-904.2696672204572,-2397.2716868499583
242943,1749,242943,16728,242943.0,46038.0,-1194.2854009671844,-899.7165791911412,-2386.926479702549
242943,1699,242943,16635,242943.0,45900.0,-1193.7429395787744,-894.4449974776346,-2374.7609267679118
242943,1658,242943,16566,242943.0,45834.0,-1192.5206011940381,-888.4315725777462,-2360.714710186046
242953,1647,242953,16536,242953.0,45829.0,-1190.5878125490487,-881.6544713342475,-2344.7311456028856
242953,1695,242953,16632,242953.0,45932.0,-1187.915268342942,-874.09528458076,-2326.759462977181
242953,1712,242953,16708,242953.0,45988.0,-1184.4751429766557,-865.7394439766483,-2306.7552788390685
242953,1717,242953,16723,242953.0,46029.0,-1180.2406243635817,-856.5750555270507,-2284.6795935160626
242953,1670,242953,16648,242953.0,45971.0,-1175.1855134165041,-846.5915790100349,-2260.4977495774433
242953,1661,242953,16592,242953.0,45888.0,-1169.284470884986,-835.7798714918961,-2234.1796540100386
242963,1666,242963,16626,242963.0,45962.0,-1162.5137464404697,-824.1335487228299,-2205.7013724917065
242963,1714,242963,16770,242963.0,46100.0,-1154.8517189447984,-811.6500436975372,-2175.0465283329895
242963,1725,242963,16822,242963.0,46178.0,-1146.2788196338342,-798.3299237139804,-2142.205871678282
242963,1761,242963,16795,242963.0,46169.0,-1136.7770210472136,-784.1750367057014,-2107.1755841085815
242963,1682,242963,16686,242963.0,46108.0,-1126.329458979438,-769.1875348436612,-2069.956356833194
242963,1673,242963,16635,242963.0,46058.0,-1114.9207830072155,-753.3709531556477,-2030.5543515895695
242974,1696,242974,16706,242974.0,46161.0,-1102.5381754185826,-736.7324202639614,-1988.983291386713
242974,1746,242974,16839,242974.0,46277.0,-1089.172118235524,-719.283902507406,-1945.265821066469
242974,1783,242974,16897,242974.0,46371.0,-1074.8162773334059,-701.0413398244757,-1899.4330363124725
242974,1773,242974,16859,242974.0,46381.0,-1059.4668904906737,-682.0227516546498,-1851.5230121139907
242974,1748,242974,16790,242974.0,46371.0,-1043.1224731085622,-662.2473704750029,-1801.5799729393216
242974,1761,242974,16784,242974.0,46428.0,-1025.7842221795663,-641.7365714063933,-1749.6547287140102
242984,1809,242984,16926,242984.0,46631.0,-1007.4566632088508,-620.5153223147366,-1695.805306640143
242984,1869,242984,17051,242984.0,46742.0,-988.1477770990517,-598.6121745062682,-1640.0961703708917
242984,1892,242984,17049,242984.0,46784.0,-967.8684348308782,-576.0574269144614,-1582.596111683692
242984,1885,242984,16999,242984.0,46730.0,-946.6317184651201,-552.8813186161412,-1523.376755344037
242984,1867,242984,16930,242984.0,46742.0,-924.4528202272459,-529.1140498170028,-1462.5130530886913
242984,1878,242984,16935,242984.0,46806.0,-901.3496426941567,-504.78747247462337,-1400.0851046636776
242994,1944,242994,17060,242994.0,46969.0,-877.3435349637999,-479.93683463444023,-1336.1795266391
242994,1982,242994,17178,242994.0,47148.0,-852.4594680576168,-454.6009382157226,-1270.8890671571694
242994,2049,242994,17213,242994.0,47239.0,-826.7255274349736,-428.82052089528116,-1204.3105609426434
242994,2044,242994,17187,242994.0,47242.0,-800.1721811953005,-402.63641303529374,-1136.542719135439
242994,2039,242994,17163,242994.0,47218.0,-772.8319220819426,-376.0890205424697,-1067.6854669359336
242994,2090,242994,17189,242994.0,47338.0,-744.7395190755612,-349.2191303171966,-997.8409958577661
243004,2174,243004,17327,243004.0,47563.0,-715.9322987370576,-322.0687337024216,-927.1146918261718
243004,2217,243004,17433,243004.0,47697.0,-686.4497327027929,-294.6805188077691,-855.614078027641
243004,2229,243004,17385,243004.0,47692.0,-656.3325891593797,-267.09617403646405,-783.4464187135259
243004,2226,243004,17322,243004.0,47679.0,-625.6225050790651,-239.35535719212635,-710.7174534697092
243004,2245,243004,17294,243004.0,47731.0,-594.362297642793,-211.4966239983122,-637.5322986721637
243004,2303,243004,17382,243004.0,47874.0,-562.5965541121534,-183.55933727894387,-563.9970637077108
243014,2370,243014,17502,243014.0,48048.0,-530.3718228323874,-155.58458442913422,-490.2192398113673
243014,2436,243014,17576,243014.0,48180.0,-497.73612869100464,-127.6142701409176,-416.306319762303
243014,2466,243014,17577,243014.0,48188.0,-464.7381150831078,-99.68933218080247,-342.36377217197264
243014,2456,243014,17530,243014.0,48210.0,-431.42643211414963,-71.84870999205248,-268.494070863758
243014,2489,243014,17511,243014.0,48251.0,-397.84980051869275,-44.129837863250714,-194.79735673673645
243014,2557,243014,17621,243014.0,48433.0,-364.0574461582636,-16.569914643775064,-121.37257728652503
243024,2644,243024,17762,243024.0,48612.0,-330.0990960509631,10.793741022962763,-48.317392505557564
243024,2692,243024,17785,243024.0,48671.0,-296.0242145886898,37.92504850194291,24.273554720158245
243024,2683,243024,17746,243024.0,48665.0,-261.88107533151947,64.79092583543229,96.31042027964622
243024,2690,243024,17659,243024.0,48638.0,-227.71651471911866,91.361537975219,167.70819047439454
243024,2720,243024,17672,243024.0,48734.0,-193.57648148597525,117.60872199920016,238.38504344490002
243024,2788,243024,17783,243024.0,48884.0,-159.50666992993126,143.50410606172136,308.2608118934668
243035,2858,243035,17888,243035.0,49053.0,-125.552547471602,169.01872007277166,377.2571363718271
243035,2909,243035,17942,243035.0,49091.0,-91.75872240313743,194.12436818758306,445.29914174694204
243035,2901,243035,17877,243035.0,49106.0,-58.16820283010634,218.79528267583032,512.3169515975296
243035,2924,243035,17837,243035.0,49095.0,-24.822203072397542,243.00840871878893,578.2456668340178
243035,2960,243035,17874,243035.0,49197.0,8.239467443899343,266.74219145126426,643.0240941342586
243035,3030,243035,18049,243035.0,49398.0,40.97805745033702,289.97551736046114,706.5938574328586
243045,3096,243045,18086,243045.0,49451.0,73.35609267101438,312.6884054391277,768.9001633327841
243045,3112,243045,18086,243045.0,49465.0,105.33805220504837,334.86387201405785,829.8933926097416
243045,3106,243045,17991,243045.0,49449.0,136.89086012667315,356.4889178356003,889.5295889553449
243045,3124,243045,17919,243045.0,49460.0,167.98368954830767,377.55352290567475,947.769330524676
243045,3166,243045,18011,243045.0,49561.0,198.5873433074296,398.04844480079805,1004.5760663978276
243045,3222,243045,18115,243045.0,49708.0,228.67388416019423,417.96382229690005,1059.9153257434482
243055,3283,243055,18221,243055.0,49837.0,258.2168453020531,437.28988383913384,1113.7555597801606
243055,3320,243055,18158,243055.0,49827.0,287.19186224923465,456.018868715455,1166.0699457792175
243055,3288,243055,18092,243055.0,49808.0,315.57721088871085,474.14604645312113,1216.8374319400964
243055,3316,243055,18092,243055.0,49795.0,343.35370405846186,491.6688531807537,1266.0420303625838
243055,3349,243055,18175,243055.0,49959.0,370.5040809327313,508.58534923043703,1313.6712957936265
243055,3433,243055,18295,243055.0,50110.0,397.0126811166017,524.893878112119,1359.715980001969
243066,3464,243066,18351,243066.0,50110.0,422.86585125764225,540.5944510715633,1404.171505737199
243066,3456,243066,18246,243066.0,50073.0,448.0526455366406,555.69056209676,1447.0394817237225
243066,3427,243066,18165,243066.0,49998.0,472.5649684941842,570.1894582124908,1488.3273120210192
243066,3445,243066,18114,243066.0,50025.0,496.39686508960926,584.100286170001,1528.0460575633665
243066,3500,243066,18235,243066.0,50153.0,519.5436099034646,597.4317079854502,1566.2083123295447
243066,3551,243066,18319,243066.0,50248.0,542.0014314855607,610.1910856772206,1602.8277370757091
243076,3588,243076,18337,243076.0,50248.0,563.7679853384807,622.3856315843811,1637.9201591745796
243076,3584,243076,18294,243076.0,50253.0,584.8429989005433,634.0239232635854,1671.5045867685044
243076,3556,243076,18228,243076.0,50193.0,605.2284308950912,645.1161435102347,1703.6029649931857
243076,3585,243076,18251,243076.0,50262.0,624.9279548291488,655.6729824910649,1734.2389407988553
243076,3641,243076,18397,243076.0,50392.0,643.9463291808281,665.7046202958129,1763.436902526274
243076,3689,243076,18437,243076.0,50485.0,662.289406989207,675.2212790273445,1791.2225360505363
243086,3679,243086,18391,243086.0,50425.0,679.9647260099027,684.2349272123467,1817.6244717258605
243086,3660,243086,18298,243086.0,50347.0,696.9818697607373,692.7600983080986,1842.675007697399
243086,3631,243086,18251,243086.0,50332.0,713.352042693944,700.8127847482581,1866.4088259691944
243086,3668,243086,18298,243086.0,50375.0,729.0871243013344,708.4084290484432,1888.8608476522454
243086,3720,243086,18373,243086.0,50473.0,744.1989971250559,715.5607518744382,1910.0650213381214
243086,3764,243086,18451,243086.0,50604.0,758.6997027995203,722.2822463137393,1930.0548428588668
243097,3755,243097,18425,243097.0,50550.0,772.6021424233886,728.5856943636486,1948.8650731002804
243097,3729,243097,18334,243097.0,50473.0,785.9204911465986,734.4851773141565,1966.5329144037796
243097,3710,243097,18304,243097.0,50413.0,798.669830745233,739.995515130574,1983.097205567853
243097,3770,243097,18366,243097.0,50553.0,810.8653660259904,745.130773882476,1998.596486245076
243097,3810,243097,18516,243097.0,50648.0,822.5220988289043,749.9037126918652,2013.0682709417856
243097,3840,243097,18499,243097.0,50661.0,833.6553193648767,754.3270966133477,2026.5503469446917
243107,3799,243107,18449,243107.0,50604.0,844.2813012166102,758.4155393706885,2039.0824071787224
243107,3781,243107,18307,243107.0,50468.0,854.4173616877656,762.185774905601,2050.706033524796
243107,3763,243107,18299,243107.0,50488.0,864.0811412701012,765.6548918123906,2061.4627824288086
243107,3796,243107,18389,243107.0,50575.0,873.2896865340567,768.8381389921963,2071.3920066466217
243107,3854,243107,18467,243107.0,50636.0,882.0590543053252,771.7483257153363,2080.5303080325693
243107,3891,243107,18505,243107.0,50697.0,890.4047563311517,774.3971414266562,2088.912723322699
243117,3845,243117,18417,243117.0,50611.0,898.3425966749649,776.7968244669169,2096.5741806021233
243117,3807,243117,18340,243117.0,50541.0,905.8889178077795,778.9604571359114,2103.549748002678
243117,3825,243117,18354,243117.0,50562.0,913.0599108551617,780.9006640915916,2109.8733820898647
243117,3889,243117,18480,243117.0,50678.0,919.8708677729778,782.6283144347385,2115.5766318976252
243117,3905,243117,18545,243117.0,50720.0,926.3362977524439,784.152953313057,2120.6889205496473
243117,3895,243117,18517,243117.0,50687.0,932.470642256219,785.484677346019,2125.239018944554
243128,3854,243128,18387,243128.0,50575.0,938.2886309963619,786.6354075697441,2129.255826467686
243128,3844,243128,18324,243128.0,50548.0,943.8048493594986,787.6180822534543,2132.7673852291823
243128,3858,243128,18331,243128.0,50575.0,949.0329316722061,788.4444248968812,2135.7989930606145
243128,3889,243128,18440,243128.0,50681.0,953.985065886553,789.1232904946633,2138.3721709736265
243128,3925,243128,18513,243128.0,50739.0,958.6721350722564,789.6609557169629,2140.505372690655
243128,3920,243128,18478,243128.0,50707.0,963.1042889044088,790.0628447678043,2142.2157070125877
243138,3898,243138,18392,243138.0,50608.0,967.2914044599472,790.3348126955589,2143.5199765408943
243138,3878,243138,18349,243138.0,50577.0,971.2429988703759,790.4827110285007,2144.434004148548
243138,3903,243138,18418,243138.0,50663.0,974.9677291039536,790.5109661118775,2144.971120912375
243138,3968,243138,18555,243138.0,50779.0,978.4731484265317,790.4220965480304,2145.141775993678
243138,3952,243138,18519,243138.0,50812.0,981.766158411672,790.2180397984393,2144.955069434016
243138,3925,243138,18446,243138.0,50680.0,984.8536442545831,789.9018267331951,2144.420740324203
243148,3900,243148,18367,243148.0,50581.0,987.7424634410418,789.4776248582741,2143.5493697855673
243148,3884,243148,18307,243148.0,50553.0,990.4387673147742,788.9490631045567,2142.3503916862574
243148,3919,243148,18422,243148.0,50673.0,992.9472766123508,788.3173457318676,2140.8298859219854
243148,3947,243148,18502,243148.0,50721.0,995.2710652759943,787.5808227944672,2138.990230316616
243148,3990,243148,18543,243148.0,50742.0,997.4120203654334,786.7364684238422,2136.831564411289
243148,3934,243148,18445,243148.0,50669.0,999.3715752479136,785.7817957278606,2134.353322638169
243159,3928,243159,18368,243159.0,50612.0,1001.1509773446937,784.715289904386,2131.554438475574
243159,3915,243159,18379,243159.0,50620.0,1002.7508576603584,783.5351188240498,2128.4323147183695
243159,3983,243159,18508,243159.0,50753.0,1004.170749649481,782.2378493965125,2124.9819623462017
243159,3993,243159,18557,243159.0,50802.0,1005.4092717781293,780.818918281721,2121.196720637431
243159,3995,243159,18547,243159.0,50744.0,1006.4648584440877,779.2745271878015,2117.0701681081437
243159,3954,243159,18407,243159.0,50623.0,1007.3362824263927,777.6029634554625,2112.597174454551
243169,3914,243169,18354,243169.0,50586.0,1008.022434651482,775.8039233687506,2107.7728976850995
243169,3924,243169,18368,243169.0,50616.0,1008.5215151233483,773.8764615607987,2102.590807286733
243169,3979,243169,18414,243169.0,50693.0,1008.8303737210197,771.8174364609268,2097.0416500652764
243169,3998,243169,18519,243169.0,50759.0,1008.9446768517939,769.6215932092165,2091.1141521840277
243169,4017,243169,18507,243169.0,50715.0,1008.8597422131718,767.2829987981014,2084.7967048750534
243169,3964,243169,18400,243169.0,50635.0,1008.5712626669733,764.7964534711945,2078.078481984633
243179,3939,243179,18362,243179.0,50628.0,1008.0753102332419,762.1573992228491,2070.949097261064
243179,3966,243179,18439,243179.0,50647.0,1007.3677316493752,759.3606432910985,2063.3975687283423
243179,4021,243179,18557,243179.0,50771.0,1006.4437855891438,756.3999326590808,2055.4120920901732
243179,4027,243179,18559,243179.0,50770.0,1005.298626771495,753.269393616692,2046.9812589698877
243179,3992,243179,18479,243179.0,50678.0,1003.9281352286091,749.9654402074748,2038.0957267139165
243179,3940,243179,18335,243179.0,50574.0,1002.329123548642,746.4870511173123,2028.7485268661571
243190,3929,243190,18325,243190.0,50549.0,1000.4986591438699,742.8339537133942,2018.9335471623217
243190,3964,243190,18404,243190.0,50648.0,998.43318162478,739.0044030655355,2008.6437839993746
243190,3993,243190,18499,243190.0,50704.0,996.1282653467335,734.9946626709212,1997.8712051555217
243190,4029,243190,18531,243190.0,50730.0,993.5792114072874,730.8005289541243,1986.6083403674984
243190,3981,243190,18442,243190.0,50622.0,990.7819167587754,726.4192928192388,1974.8500154424805
243190,3957,243190,18365,243190.0,50553.0,987.7332495451251,721.8502967895188,1962.5936354428477
243200,3947,243200,18358,243200.0,50569.0,984.4306798522648,717.0937903297611,1949.838015085825
243200,3998,243200,18499,243200.0,50670.0,980.8717811870713,712.1496962836829,1936.58241387613
243200,4026,243200,18492,243200.0,50698.0,977.0543819023012,707.0179843024449,1922.8272047627124
243200,4020,243200,18468,243200.0,50648.0,972.9773727163929,701.7002060469084,1908.5756096980658
243200,3953,243200,18380,243200.0,50540.0,968.6413669767551,696.2003121201197,1893.8346766815662
243200,3919,243200,18315,243200.0,50460.0,964.0484669467974,690.5238986883111,1878.6144944120888
243211,3920,243211,18320,243211.0,50493.0,959.2013141880084,684.676573758129,1862.9263951301566
243211,3969,243211,18400,243211.0,50538.0,954.1023670315756,678.6627745529184,1846.7818250277228
243211,3979,243211,18467,243211.0,50587.0,948.7540647943772,672.4860780334112,1830.192816829605
243211,3973,243211,18443,243211.0,50519.0,943.1595852214598,666.1507514518238,1813.1733902767103
243211,3927,243211,18339,243211.0,50432.0,937.3233855837093,659.6630007371439,1795.7403562518232
243211,3892,243211,18269,243211.0,50380.0,931.2510375841357,653.0305869806676,1777.9126882929293
243221,3916,243221,18340,243221.0,50413.0,924.9485846107661,646.2612742555926,1759.7101935419496
243221,3962,243221,18454,243221.0,50510.0,918.4222063641839,639.3620917742634,1741.1530488835651
243221,3973,243221,18457,243221.0,50502.0,911.67872290454,632.3405494890428,1722.2629321985742
243221,3934,243221,18381,243221.0,50395.0,904.7264886486839,625.2065319567424,1703.06465121385
243221,3870,243221,18252,243221.0,50268.0,897.5757107766473,617.9727351863073,1683.5863568222007
243221,3830,243221,18202,243221.0,50225.0,890.2377748898888,610.6530673637282,1663.8578523535787
243231,3854,243231,18261,243231.0,50274.0,882.7241219788102,603.2604053772304,1643.9085217631944
243231,3886,243231,18336,243231.0,50316.0,875.0456537986255,595.8056393655372,1623.766654640798
243231,3886,243231,18347,243231.0,50340.0,867.2130649631252,588.2985755724942,1603.4604423249943
243231,3871,243231,18319,243231.0,50211.0,859.2375549988473,580.7494808951762,1583.0193550920221
243231,3815,243231,18210,243231.0,50128.0,851.131146947898,573.1697226738897,1562.4742906403058
243231,3812,243231,18192,243231.0,50107.0,842.9063612131076,565.5709792422637,1541.8562075721698
243242,3835,243242,18310,243242.0,50241.0,834.5756915005712,557.9640347576208,1521.1948618576403
243242,3873,243242,18367,243242.0,50237.0,826.1516069490247,550.3589226223748,1500.5193371143096
243242,3837,243242,18338,243242.0,50181.0,817.6471913457258,542.7666255864526,1479.8598314501457
243242,3784,243242,18182,243242.0,50053.0,809.0766520316909,535.2003671625099,1459.2485831050378
243242,3742,243242,18109,243242.0,49952.0,800.4549917924257,527.6747799006409,1438.718833003499
243242,3729,243242,18139,243242.0,49973.0,791.7970557686922,520.2035916218847,1418.3026771944697
243252,3778,243252,18213,243252.0,50056.0,783.1167866831096,512.7980390581288,1398.0296699433693
243252,3781,243252,18281,243252.0,50066.0,774.4272970490089,505.4672894836796,1377.927331994183
243252,3771,243252,18250,243252.0,50011.0,765.7415535151672,498.220147505729,1358.0227272466966
243252,3720,243252,18138,243252.0,49917.0,757.0728755719367,491.06628606716976,1338.3432916699358
243252,3698,243252,18105,243252.0,49881.0,748.4347564311522,484.0158174902129,1318.9162032417853
243252,3699,243252,18133,243252.0,49890.0,739.8402687330544,477.0778275549623,1299.7671581812986
243262,3741,243262,18266,243262.0,49981.0,731.3017325936931,470.259715902799,1280.9199267072681
243262,3748,243262,18275,243262.0,49996.0,722.8310746001173,463.56834826131706,1262.3973472250134
243262,3695,243262,18176,243262.0,49889.0,714.4405232006015,457.01191124296474,1244.2229264128027
243262,3659,243262,18069,243262.0,49739.0,706.1428043030446,450.6003405288669,1226.421186682151
243262,3611,243262,18027,243262.0,49701.0,697.9505189609948,444.34370898346253,1209.0159507630065
243262,3651,243262,18080,243262.0,49744.0,689.8752491451777,438.2501063473471,1192.0280217369661
243273,3667,243273,18190,243273.0,49831.0,681.9271946171104,432.3249044025216,1175.4743604111522
243273,3683,243273,18232,243273.0,49843.0,674.1156177829246,426.5720043521088,1159.3692572028997
243273,3635,243273,18122,243273.0,49774.0,666.4495518135693,420.99581354761085,1143.7261360133461
243273,3583,243273,18041,243273.0,49660.0,658.9379622385436,415.60187306176306,1128.558206714484
243273,3592,243273,18017,243273.0,49629.0,651.5891694660058,410.395549079695,1113.8774052373608
243273,3607,243273,18142,243273.0,49751.0,644.410205841276,405.3804655997533,1099.69294637532
243283,3649,243283,18196,243283.0,49838.0,637.4068496835497,400.55861295552677,1086.0115085938214
243283,3641,243283,18163,243283.0,49761.0,630.5843300011718,395.9320288305889,1072.8392266063302
243283,3581,243283,18046,243283.0,49634.0,623.9480156511652,391.5040583260656,1060.1832208712713
243283,3551,243283,17981,243283.0,49581.0,617.5033622527092,387.27870354844424,1048.0508910210676
243283,3546,243283,17990,243283.0,49561.0,611.2551652500476,383.25866973031975,1036.447853313535
243283,3570,243283,18090,243283.0,49636.0,605.2069102278208,379.4439635214613,1025.376482866503
243293,3586,243293,18154,243293.0,49699.0,599.3607768520119,375.8322980807893,1014.8360824857767
243293,3594,243293,18120,243293.0,49670.0,593.7181708534797,372.42081117827286,1004.8243218335208
243293,3547,243293,18058,243293.0,49570.0,588.2802618588953,369.20737620451627,995.338461536267
243293,3529,243293,17976,243293.0,49528.0,583.048025135897,366.1903425294954,986.3750812823839
243293,3531,243293,18009,243293.0,49557.0,578.0218034029414,363.36713430788194,977.9287734044284
243293,3575,243293,18155,243293.0,49649.0,573.2009998371548,360.7333348639488,969.9914655607552
243304,3592,243304,18198,243304.0,49688.0,568.5844162940493,358.2836490614018,962.55331776978
243304,3529,243304,18108,243304.0,49631.0,564.1709352204845,356.0140192990963,955.604437176924
243304,3504,243304,17976,243304.0,49496.0,559.9596771192109,353.92247087256294,949.1356522448114
243304,3465,243304,17945,243304.0,49479.0,555.9493259949973,352.00759604215307,943.1374117215773
243304,3502,243304,17994,243304.0,49519.0,552.1372481452952,350.2662169337851,937.5979075708151
243304,3528,243304,18104,243304.0,49622.0,548.5191733587981,348.6924311678023,932.5023791218471
243314,3556,243314,18120,243314.0,49653.0,545.0896713373913,347.27865958672146,927.834256535202
243314,3529,243314,18065,243314.0,49549.0,541.8429802801841,346.0173768005958,923.5768994630234
243314,3479,243314,17980,243314.0,49464.0,538.7734268787265,344.9017155758746,919.7140190109144
243314,3475,243314,17976,243314.0,49472.0,535.8750736356876,343.92448794378083,916.2283342685732
243314,3513,243314,18093,243314.0,49594.0,533.1410975976053,343.0769730756849,913.1001921988097
243314,3571,243314,18150,243314.0,49664.0,530.5638052984418,342.34915589806025,910.3080031527994
243324,3542,243324,18159,243324.0,49636.0,528.1354642432575,341.7314430328431,907.8302214622455
243324,3511,243324,18016,243324.0,49519.0,525.8490971638442,341.2160937131688,905.6468217615266
243324,3465,243324,17960,243324.0,49458.0,523.6984156355614,340.7967692590443,903.7387782177916
243324,3446,243324,17971,243324.0,49459.0,521.6769944664811,340.46656361295504,902.0861341974136
243324,3506,243324,18067,243324.0,49565.0,519.7774459634862,340.2164741162091,900.6665389862267
243324,3513,243324,18134,243324.0,49630.0,517.9913248525031,340.0357091288511,899.4555696617091
243335,3520,243335,18129,243335.0,49604.0,516.3097479028806,339.91336327933504,898.4284199262265
243335,3483,243335,18043,243335.0,49518.0,514.7239716531163,339.83981539457085,897.5612021112432
243335,3448,243335,17989,243335.0,49483.0,513.2253456884898,339.80659676737935,896.8306367675995
243335,3480,243335,18025,243335.0,49522.0,511.8047732939598,339.8050741035184,896.2127518944166
243335,3528,243335,18138,243335.0,49662.0,510.45241235052384,339.8256028321062,895.6823309396734
243335,3534,243335,18180,243335.0,49672.0,509.1581591256421,339.8583470801675,895.2141019692298
243345,3508,243345,18092,243345.0,49584.0,507.912466005155,339.8949895072161,894.7846023068984
243345,3474,243345,17978,243345.0,49487.0,506.7066374528076,339.9292792543409,894.3726188266484
243345,3442,243345,17954,243345.0,49448.0,505.5323677270882,339.95555414581327,893.9576339619344
243345,3472,243345,18023,243345.0,49532.0,504.3809780000212,339.9666681265923,893.517824250559
243345,3516,243345,18107,243345.0,49593.0,503.2430776435825,339.953321546603,893.0294415362074
243345,3514,243345,18172,243345.0,49666.0,502.1089980457883,339.9052802216797,892.4679782334834
243355,3511,243355,18085,243355.0,49571.0,500.9695277291877,339.8132511159015,891.8099254419093
243355,3468,243355,18000,243355.0,49503.0,499.8162387515884,339.66961182558333,891.0334369021415
243355,3440,243355,17982,243355.0,49519.0,498.6411638598099,339.46732430689985,890.117395639335
243355,3493,243355,18141,243355.0,49608.0,497.4361727500276,339.1985063663308,889.0403046523618
243355,3538,243355,18198,243355.0,49713.0,496.19284504034556,338.8547536728271,887.7807042818761
243355,3519,243355,18181,243355.0,49635.0,494.90317413037735,338.4291842086149,886.3189752834116
243366,3482,243366,18036,243366.0,49515.0,493.5603068920924,337.9179570619473,884.6385369438482
243366,3431,243366,17987,243366.0,49481.0,492.15843305553244,337.3195860849628,882.7249412893029
243366,3427,243366,17948,243366.0,49525.0,490.69190545957616,336.63269411216424,880.5638697127849
243366,3455,243366,18047,243366.0,49593.0,489.1543623994079,335.854110103698,878.1401513356209
243366,3510,243366,18143,243366.0,49638.0,487.53858687035705,334.9787198086694,875.4384956849217
243366,3499,243366,18130,243366.0,49609.0,485.8371939813025,334.001025530701,872.4449950932486
243376,3446,243376,18049,243376.0,49529.0,484.0433838222971,332.91679010088086,869.1480070031724
243376,3442,243376,17953,243376.0,49511.0,482.15093838802943,331.7230349417842,865.537722478756
243376,3455,243376,18026,243376.0,49501.0,480.1536631221795,330.41654818341317,861.6049980594606
243376,3487,243376,18151,243376.0,49642.0,478.045129317726,328.99291653507174,857.3407586011672
243376,3513,243376,18167,243376.0,49618.0,475.8190798189926,327.44755428727126,852.7367950534959
243376,3479,243376,18103,243376.0,49608.0,473.47013598225914,325.7776610531215,847.7872896281119
243386,3441,243386,18001,243386.0,49449.0,470.99413016730404,323.9828984803992,842.4893990397396
243386,3405,243386,17919,243386.0,49405.0,468.3876753756872,322.06405545563376,836.8420156838744
243386,3418,243386,17992,243386.0,49436.0,465.647308110493,320.0208634369054,830.8435932410414
243386,3460,243386,18085,243386.0,49536.0,462.76896144414576,317.85088444169276,824.4909491740088
243386,3490,243386,18138,243386.0,49566.0,459.74825612548034,315.55045118731107,817.7800357980187
243386,3471,243386,18075,243386.0,49491.0,456.58135284069687,313.11659093074627,810.7076216130498
243397,3407,243397,17987,243397.0,49415.0,453.2655097276639,310.54795391194546,803.2719928590581
243397,3402,243397,17932,243397.0,49400.0,449.79876647764655,307.84391878556784,795.4720804141157
243397,3458,243397,18048,243397.0,49535.0,446.1792671131958,305.0029921818906,787.3063922662036
243397,3465,243397,18168,243397.0,49592.0,442.4052353898893,302.02256864235414,778.7735344888999
243397,3472,243397,18131,243397.0,49556.0,438.4756858521146,298.9007026127272,769.8742377842996
243397,3423,243397,18017,243397.0,49421.0,434.3910449157826,295.6379578875351,760.6128335183819
243407,3373,243407,17889,243407.0,49338.0,430.15304857850754,292.2370821552609,750.9965885659426
243407,3360,243407,17929,243407.0,49348.0,425.76393293253244,288.7007150710832,741.0335484396028
243407,3398,243407,18040,243407.0,49430.0,421.2255670438034,285.0294934889764,730.7309324381938
243407,3420,243407,18099,243407.0,49479.0,416.53929916756135,281.2224014376862,720.0954061009995
243407,3408,243407,18076,243407.0,49442.0,411.70652635864326,277.2787313934783,709.1346559929917
243407,3376,243407,17987,243407.0,49311.0,406.7292467459162,273.1995360078441,697.8584594080517
243417,3346,243417,17940,243417.0,49253.0,401.61001968261525,268.98736213691404,686.2779859281356
243417,3354,243417,17962,243417.0,49322.0,396.3514733417121,264.6448985364446,674.4040529903677
243417,3405,243417,18050,243417.0,49423.0,390.9560052404162,260.17412981439134,662.2464357276616
243417,3402,243417,18129,243417.0,49407.0,385.4261633236764,255.5770549627671,649.8151515239124
243417,3381,243417,18041,243417.0,49315.0,379.76539182275934,250.8574442281202,637.122217353507
243417,3329,243417,17899,243417.0,49191.0,373.9783424291095,246.02170361256603,624.1818315596647
243428,3286,243428,17872,243428.0,49162.0,368.07038842158715,241.0775719344776,611.0086923085248
243428,3312,243428,17940,243428.0,49211.0,362.0467240817998,236.03191912234365,597.6160105329363
243428,3323,243428,18009,243428.0,49276.0,355.91181824289515,230.88994040471005,584.0149350412653
243428,3348,243428,18009,243428.0,49293.0,349.6696265506373,225.65619747054174,570.2156686385088
243428,3315,243428,17986,243428.0,49229.0,343.32419801950846,220.33607160736292,556.2290566061738
243428,3288,243428,17851,243428.0,49103.0,336.8800160161335,214.9361695540392,542.0671051176403
243438,3251,243438,17831,243438.0,49092.0,330.34174973830136,209.4632225045304,527.7418969903056
243438,3291,243438,17945,243438.0,49177.0,323.713715553964,203.9225040823012,513.2641327857879
243438,3331,243438,18036,243438.0,49243.0,316.9997745646443,198.31773210685108,498.6431465502295
243438,3310,243438,18017,243438.0,49235.0,310.2039758791439,192.6528951485815,483.88859416549917
243438,3252,243438,17910,243438.0,49090.0,303.33123716333523,186.9340508462895,469.01204930709366
243438,3206,243438,17814,243438.0,48995.0,296.3871678444183,181.16918545113145,454.0267379480466
243449,3188,243449,17740,243449.0,48957.0,289.37710564021677,175.36620320697665,438.94549602878067
243449,3246,243449,17872,243449.0,49059.0,282.30525869798083,169.53071084698485,423.7788238412488
243449,3246,243449,17951,243449.0,49115.0,275.17471004609166,163.6655417630566,408.53480343094634
243449,3256,243449,17956,243449.0,49087.0,267.9881486315248,157.77240417600797,393.22073903709804
243449,3218,243449,17831,243449.0,48954.0,260.7485537740172,151.8537367388,377.8445977589862
243449,3166,243449,17790,243449.0,48903.0,253.45927034655637,145.9127720666141,362.41465955252306
243459,3187,243459,17826,243459.0,48953.0,246.1235008898932,139.95215214123135,346.93798948103233
243459,3202,243459,17933,243459.0,49044.0,238.7438398825684,133.97312932717472,331.4197880541061
243459,3236,243459,17970,243459.0,49038.0,231.3224753918446,127.97655298098772,315.86455640510724
243459,3203,243459,17901,243459.0,48951.0,223.86190016663687,121.96473092851858,300.27779511052836
243459,3121,243459,17739,243459.0,48833.0,216.36531248743466,115.942125857505,284.66634430953184
243459,3115,243459,17720,243459.0,48817.0,208.83610361963503,109.91387873311868,269.0369945968174
243469,3135,243469,17775,243469.0,48825.0,201.27691543728395,103.8835109475151,253.39474460241956
243469,3172,243469,17883,243469.0,48901.0,193.689334611501,97.85210197526175,237.74221474373803
243469,3177,243469,17915,243469.0,48940.0,186.07449243268474,91.81961025390063,222.08059137689065
243469,3153,243469,17844,243469.0,48862.0,178.43391857010278,85.78690242549146,206.41126140473068
243469,3089,243469,17736,243469.0,48766.0,170.76988173200317,79.75652993700157,190.7366134221985
243469,3073,243469,17696,243469.0,48724.0,163.0849277787508,73.73158513458719,175.05922013887675
243480,3103,243480,17784,243480.0,48820.0,155.38111507484916,67.71392993201647,159.380496831924
243480,3140,243480,17921,243480.0,48903.0,147.65983743636588,61.7038773465747,143.70072387770915
243480,3138,243480,17858,243480.0,48840.0,139.9224916173909,55.70189450574259,128.02074496020816
243480,3078,243480,17758,243480.0,48724.0,132.1712668146135,49.710380282269455,112.34344470400765
243480,3030,243480,17663,243480.0,48647.0,124.40916569963537,43.73338048076221,96.67327743223439
243480,3010,243480,17642,243480.0,48613.0,116.63917393304604,37.77452381910979,81.01434681255523
243490,3038,243490,17736,243490.0,48669.0,108.86335112820512,31.835145644504223,65.36876451504259
243490,3060,243490,17797,243490.0,48735.0,101.08261825821461,25.91413933305614,49.73648782571638
243490,3058,243490,17790,243490.0,48700.0,93.29728191395662,20.00940783655392,34.11655317262853
243490,3019,243490,17742,243490.0,48615.0,85.50766195280721,14.119361182488603,18.508327397918492
243490,2978,243490,17634,243490.0,48545.0,77.71417290622321,8.243100040170475,2.9114208999642415
243490,2975,243490,17645,243490.0,48592.0,69.91681056270193,2.3792388539901594,-12.675445925029294
243500,3022,243500,17793,243500.0,48680.0,62.11467511346535,-3.475228983694251,-28.254973598754418
243500,3055,243500,17822,243500.0,48707.0,54.30624118562753,-9.32432192454064,-43.83016553485402
243500,3005,243500,17755,243500.0,48617.0,46.49025740985354,-15.17111358166386,-59.40246560316939
243500,2953,243500,17643,243500.0,48499.0,38.66628191603826,-21.01673954544765,-74.97107171733217
243500,2928,243500,17610,243500.0,48454.0,30.834236556375913,-26.861460416219415,-90.53416002017423
243500,2941,243500,17639,243500.0,48472.0,22.99353234537233,-32.70652428231,-106.09080140947458
243511,2955,243511,17703,243511.0,48546.0,15.142648465146806,-38.55505584293701,-121.64183207675046
243511,3000,243511,17759,243511.0,48570.0,7.279458295921984,-44.411377154568356,-137.18907299353293
243511,2958,243511,17718,243511.0,48471.0,-0.5979949717114437,-50.27950261187118,-152.733865666719
243511,2915,243511,17625,243511.0,48395.0,-8.490967219667539,-56.16221249992327,-168.27658357016503
243511,2889,243511,17590,243511.0,48366.0,-16.40025896256151,-62.06160150547987,-183.81764740933681
243511,2928,243511,17685,243511.0,48440.0,-24.32684494513046,-67.98032701219398,-199.35876926324227
243521,2950,243521,17775,243521.0,48533.0,-32.27198921948849,-73.92172766612816,-214.90281673138134
243521,2949,243521,17768,243521.0,48512.0,-40.23661901699364,-79.88823537033664,-230.45207645463324
243521,2908,243521,17660,243521.0,48358.0,-48.22061104308909,-85.87966721171284,-246.00655007968817
243521,2848,243521,17550,243521.0,48265.0,-56.22272478393796,-91.89329348111511,-261.56422538135826
243521,2819,243521,17512,243521.0,48261.0,-64.2413325869361,-97.92579714491546,-277.1231727900903
243521,2856,243521,17631,243521.0,48326.0,-72.27536574359692,-103.97537027600026,-292.68334854417014
243531,2887,243531,17680,243531.0,48362.0,-80.32459630422102,-110.0420270254316,-308.2465927993326
243531,2891,243531,17691,243531.0,48388.0,-88.38900776556449,-116.1260745029636,-323.81520113522845
243531,2836,243531,17610,243531.0,48291.0,-96.46797913784496,-122.22651030957837,-339.3904394753581
243531,2804,243531,17525,243531.0,48214.0,-104.56014248167514,-128.34088273102714,-354.9722307635303
243531,2788,243531,17541,243531.0,48232.0,-112.66396858031823,-134.46654482324664,-370.56012062286743
243531,2847,243531,17654,243531.0,48333.0,-120.77832391998152,-140.60176443646571,-386.1540790894826
243542,2859,243542,17729,243542.0,48362.0,-128.9022542987874,-146.74511783025036,-401.7537096935656
243542,2838,243542,17607,243542.0,48292.0,-137.0341286720036,-152.89360204387953,-417.35642444928453
243542,2785,243542,17519,243542.0,48131.0,-145.17104585289763,-159.04174479066802,-432.9566145759769
243542,2742,243542,17446,243542.0,48087.0,-153.30910922186848,-165.1829120460124,-448.5469381850195
243542,2736,243542,17491,243542.0,48101.0,-161.44429633632922,-171.31151426990033,-464.1205958721134
243542,2753,243542,17551,243542.0,48187.0,-169.57318692836049,-177.42416868975033,-479.67250798344
243552,2784,243552,17604,243552.0,48197.0,-177.6930111064317,-183.51913177253022,-495.19859642303095
243552,2752,243552,17581,243552.0,48162.0,-185.80111298812108,-189.5947750615158,-510.69419315321784
243552,2724,243552,17505,243552.0,48022.0,-193.89448554498563,-195.64850891109216,-526.1532491539281
243552,2678,243552,17435,243552.0,48025.0,-201.96991506107622,-201.67707295302705,-541.5691211123456
243552,2715,243552,17513,243552.0,48066.0,-210.02453698009657,-207.67775220814843,-556.935918108692
243552,2750,243552,17643,243552.0,48152.0,-218.05603827928292,-213.6488008072128,-572.248655969724
243562,2739,243562,17601,243562.0,48121.0,-226.06209969798635,-219.58805548129317,-587.5018795013923
243562,2692,243562,17505,243562.0,47967.0,-234.0396728765087,-225.49121013499183,-602.6883393730277
243562,2640,243562,17394,243562.0,47897.0,-241.9849667346707,-231.35192708353372,-617.7994763834665
243562,2623,243562,17376,243562.0,47871.0,-249.89421806888822,-237.163825567395,-632.8274887102798
243562,2651,243562,17453,243562.0,47927.0,-257.7645341372996,-242.92249400730992,-647.7670922519897
243562,2671,243562,17496,243562.0,47997.0,-265.59407678706793,-248.6259051892814,-662.6156265063089
243573,2664,243573,17534,243573.0,47982.0,-273.3815477432788,-254.27324261250715,-677.3717004343735
243573,2636,243573,17430,243573.0,47890.0,-281.12559843068834,-259.8635121813339,-692.0337626373109
243573,2601,243573,17366,243573.0,47851.0,-288.82472697220214,-265.395368026708,-706.5999437047776
243573,2590,243573,17400,243573.0,47828.0,-296.47767455440226,-270.868251655417,-721.069035205217
243573,2634,243573,17499,243573.0,47960.0,-304.0838274214723,-276.2832821553215,-735.4411806804017
243573,2657,243573,17556,243573.0,47984.0,-311.64302551832,-281.64248086977034,-749.7170664789542
243583,2617,243583,17495,243583.0,47899.0,-319.15482233005685,-286.94691334594415,-763.8960920598777
243583,2568,243583,17374,243583.0,47778.0,-326.6180357745743,-292.195695326282,-777.9755232447658
243583,2538,243583,17317,243583.0,47728.0,-334.031158833261,-297.3869980639071,-791.9516807823559
243583,2537,243583,17370,243583.0,47747.0,-341.3932211660814,-302.5200836224741,-805.8219561487631
243583,2555,243583,17423,243583.0,47823.0,-348.7043489308977,-307.596399101388,-819.5858070335662
243583,2603,243583,17466,243583.0,47867.0,-355.96562416246786,-312.6189607872466,-833.2440202412615
243593,2574,243593,17443,243593.0,47735.0,-363.17835501561274,-317.5909348154262,-846.7971992540522
243593,2533,243593,17346,243593.0,47701.0,-370.3434186029124,-322.5148025294294,-860.2452694606391
243593,2507,243593,17314,243593.0,47649.0,-377.46132600656347,-327.39287743425393,-873.5885110176087
243593,2518,243593,17402,243593.0,47746.0,-384.5328009960606,-332.2285078584624,-886.8287391677648
243593,2566,243593,17499,243593.0,47805.0,-391.55905687590166,-337.02623496601393,-899.9691405227018
243593,2558,243593,17487,243593.0,47799.0,-398.5413424128295,-341.79026651826155,-913.012690380883
243604,2505,243604,17385,243604.0,47683.0,-405.48025464418845,-346.52280428008567,-925.9606141455331
243604,2468,243604,17298,243604.0,47570.0,-412.3756907567089,-351.2240786749213,-938.8125319751873
243604,2450,243604,17253,243604.0,47540.0,-419.2275584181299,-355.8941351398305,-951.5683534114053
243604,2456,243604,17349,243604.0,47625.0,-426.03656863903063,-360.5347633019628,-964.2302564616975
243604,2496,243604,17438,243604.0,47681.0,-432.8044979753587,-365.14985082103976,-976.8029884674031
243604,2504,243604,17429,243604.0,47682.0,-439.53376422163535,-369.743910896731,-989.2924421401071
243614,2478,243614,17345,243614.0,47600.0,-446.2266858842804,-374.32041444528295,-1001.7041013183375
243614,2432,243614,17280,243614.0,47542.0,-452.8851235487559,-378.8816530467593,-1014.0427829938574
243614,2410,243614,17306,243614.0,47545.0,-459.51083900835636,-383.4299828002502,-1026.3135762769036
243614,2473,243614,17414,243614.0,47642.0,-466.10607223619695,-387.9687409887257,-1038.522591896229
243614,2502,243614,17446,243614.0,47653.0,-472.67343963573217,-392.5015463647949,-1050.6763604556888
243614,2452,243614,17391,243614.0,47611.0,-479.21508267159425,-397.03062042879833,-1062.7803528093464
243624,2404,243624,17268,243624.0,47485.0,-485.73212925629207,-401.55602582066524,-1074.8382615714736
243624,2368,243624,17204,243624.0,47429.0,-492.22517815425044,-406.07684171389326,-1086.8529724794648
243624,2393,243624,17259,243624.0,47464.0,-498.69524781891334,-410.5933048144328,-1098.8284099257128
243624,2424,243624,17353,243624.0,47551.0,-505.1442182527543,-415.10791856592084,-1110.770479727394
243624,2439,243624,17421,243624.0,47601.0,-511.5744157515476,-419.62451463798095,-1122.686165949738
243624,2409,243624,17318,243624.0,47529.0,-517.9878281933843,-424.1463149113746,-1134.5816659681357
243635,2376,243635,17263,243635.0,47443.0,-524.3857137480535,-428.6750398328147,-1146.4613869334112
243635,2336,243635,17225,243635.0,47402.0,-530.7689125774564,-433.2118017025268,-1158.3286412724724
243635,2360,243635,17304,243635.0,47439.0,-537.13851947745,-437.75847753712503,-1170.1870535066712
243635,2407,243635,17388,243635.0,47561.0,-543.4961929392846,-442.3178757059562,-1182.0409783503405
243635,2403,243635,17389,243635.0,47526.0,-549.8436675196683,-446.89237450995165,-1193.894266194194
243635,2354,243635,17278,243635.0,47421.0,-556.1819875436776,-451.4824168483822,-1205.748687215482
243645,2307,243645,17204,243645.0,47333.0,-562.5114051444426,-456.0865669039898,-1217.6039486793654
243645,2298,243645,17152,243645.0,47288.0,-568.8320984345255,-460.7032441835929,-1229.4594369176896
243645,2328,243645,17248,243645.0,47360.0,-575.1449468549391,-465.33260501401014,-1241.3160528649228
243645,2353,243645,17323,243645.0,47452.0,-581.4516149151395,-469.97692826817524,-1253.1765424185369
243645,2362,243645,17372,243645.0,47395.0,-587.7539240589527,-474.6391734238615,-1265.0441637435986
243645,2321,243645,17250,243645.0,47293.0,-594.0531237729232,-479.32110726106623,-1276.921375178362
243655,2280,243655,17184,243655.0,47270.0,-600.3497236426713,-484.02288724875996,-1288.8101383374806
243655,2264,243655,17183,243655.0,47249.0,-606.6440219093816,-488.7443889375428,-1300.713289931416
243655,2300,243655,17292,243655.0,47377.0,-612.9367638661662,-493.48654099520104,-1312.635302545167
243655,2323,243655,17358,243655.0,47395.0,-619.2292035661927,-498.2509598630304,-1324.5814892054289
243655,2323,243655,17324,243655.0,47356.0,-625.522483823561,-503.0381592334046,-1336.5562283623096
243655,2262,243655,17196,243655.0,47249.0,-631.8170124186015,-507.84625886810977,-1348.5619131028777
243666,2215,243666,17120,243666.0,47153.0,-638.1125832525144,-512.6716882793575,-1360.5997091794852
243666,2219,243666,17130,243666.0,47192.0,-644.4092343429376,-517.5113328529538,-1372.6714600141618
243666,2259,243666,17230,243666.0,47268.0,-650.707990675667,-522.3641331949724,-1384.7809557305632
243666,2274,243666,17284,243666.0,47293.0,-657.0107572964823,-527.2307738018415,-1396.9334146481344
243666,2265,243666,17243,243666.0,47248.0,-663.3195852204549,-532.1120418967694,-1409.1339542283597
243666,2216,243666,17160,243666.0,47169.0,-669.6361216153947,-537.0076959841755,-1421.3867431472004
243676,2199,243676,17091,243676.0,47112.0,-675.9617400106566,-541.9169895317482,-1433.6955709715444
243676,2204,243676,17167,243676.0,47174.0,-682.2980975143071,-546.8401596974068,-1446.0650804563725
243676,2256,243676,17277,243676.0,47251.0,-688.6474025955378,-551.7790354846479,-1458.50115466269
243676,2263,243676,17280,243676.0,47257.0,-695.0119481609013,-556.7357979792091,-1471.0097706824877
243676,2207,243676,17191,243676.0,47140.0,-701.3933226971691,-561.7111776802437,-1483.5954854537044
243676,2161,243676,17077,243676.0,47055.0,-707.7922323477989,-566.7041773470006,-1496.2613505462243
243686,2138,243686,17056,243686.0,47009.0,-714.2092293363482,-571.7137230594976,-1509.0105249270505
243686,2154,243686,17142,243686.0,47097.0,-720.645654596805,-576.7406103707277,-1521.848049590468
243686,2204,243686,17206,243686.0,47178.0,-727.1039628367683,-581.7878877946383,-1534.7810657994748
243686,2201,243686,17250,243686.0,47169.0,-733.5871992837212,-586.8594570148385,-1547.817262260555
243686,2164,243686,17123,243686.0,47078.0,-740.0981987287711,-591.9583933499778,-1560.963135586752
243686,2128,243686,17054,243686.0,47000.0,-746.639346620119,-597.0867368806064,-1574.2237637403798
243697,2132,243697,17056,243697.0,46989.0,-753.2130235415174,-602.2469524646324,-1587.604074036253
243697,2167,243697,17180,243697.0,47084.0,-759.8220327908914,-607.4432878117454,-1601.1100391754405
243697,2181,243697,17244,243697.0,47130.0,-766.469393746512,-612.6812790120655,-1614.7483582311015
243697,2169,243697,17218,243697.0,47091.0,-773.1576547356251,-617.9657494430936,-1628.5248470301267
243697,2106,243697,17106,243697.0,46966.0,-779.8884417107063,-623.2993073984509,-1642.4432882440517
243697,2062,243697,17018,243697.0,46893.0,-786.6628032247394,-628.6828216339502,-1656.5060827354303
243707,2065,243707,17066,243707.0,46934.0,-793.4821776095671,-634.1173202444073,-1670.71607670326
243707,2092,243707,17120,243707.0,46988.0,-800.3491647322835,-639.6053619626693,-1685.0776723578936
243707,2133,243707,17188,243707.0,47041.0,-807.267452662523,-645.1506575086523,-1699.5962000458042
243707,2127,243707,17139,243707.0,46984.0,-814.2410145193826,-650.7565905207382,-1714.276330817975
243707,2087,243707,17047,243707.0,46880.0,-821.2732938068258,-656.425277173111,-1729.1211462344047
243707,2056,243707,17015,243707.0,46824.0,-828.3670540395865,-662.1581458808912,-1744.1328042669752
243718,2072,243718,17070,243718.0,46915.0,-835.5248237450986,-667.9572943161905,-1759.313977543288
243718,2101,243718,17183,243718.0,47006.0,-842.7491940461418,-673.8258792346551,-1774.6681170356137
243718,2107,243718,17237,243718.0,47005.0,-850.0424810254476,-679.7666992014101,-1790.1978186421813
243718,2065,243718,17118,243718.0,46890.0,-857.4061130134131,-685.7800730553917,-1805.902873087743
243718,2022,243718,16982,243718.0,46770.0,-864.8404854333197,-691.8632219161651,-1821.7800632680905
243718,1996,243718,16947,243718.0,46734.0,-872.3455300522749,-698.0120431384698,-1837.8249559400817
243728,2015,243728,17046,243728.0,46792.0,-879.9215007851041,-704.2235197012445,-1854.0339879213739
243728,2043,243728,17118,243728.0,46888.0,-887.5692738158682,-710.4963589415969,-1870.40496081761
243728,2060,243728,17113,243728.0,46891.0,-895.2899131086018,-716.8295935919991,-1886.9356003543169
243728,2022,243728,17060,243728.0,46796.0,-903.0839262637595,-723.220940209913,-1903.6216698531498
243728,1983,243728,16987,243728.0,46708.0,-910.9509351838608,-729.6664672378457,-1920.4564896443896
243728,1987,243728,16949,243728.0,46716.0,-918.8900043816587,-736.161613247011,-1937.43206695397
243738,1998,243738,17073,243738.0,46825.0,-926.9000845852936,-742.7023797034349,-1954.540136551235
243738,2032,243738,17141,243738.0,46851.0,-934.9799483628749,-749.2851583463059,-1971.771523791448
243738,2018,243738,17089,243738.0,46792.0,-943.127603635497,-755.9050435564689,-1989.1143301845004
243738,1958,243738,16967,243738.0,46661.0,-951.3397639069534,-762.5545544005236,-2006.5529452814221
243738,1928,243738,16923,243738.0,46592.0,-959.6120107258777,-769.2243470420132,-2024.0690124814016
243738,1925,243738,16915,243738.0,46618.0,-967.9395574172338,-775.9051568373575,-2041.643428462834
243749,1946,243749,16984,243749.0,46648.0,-976.3178492537363,-782.5891551252823,-2059.257565584292
243749,1988,243749,17071,243749.0,46702.0,-984.7424477411524,-789.2697192540525,-2076.892902300487
243749,1963,243749,17043,243749.0,46682.0,-993.2083084464547,-795.9399054926457,-2094.529665263927
243749,1916,243749,16928,243749.0,46578.0,-1001.7091405829428,-802.5911145100678,-2112.1457242625606
243749,1877,243749,16888,243749.0,46524.0,-1010.2375224187786,-809.2134047111838,-2129.7167626198607
243749,1898,243749,16943,243749.0,46576.0,-1018.7855966480615,-815.7969578944201,-2147.217399976458
243759,1942,243759,17074,243759.0,46669.0,-1027.3454494523698,-822.332649541016,-2164.6215986653815
243759,1941,243759,17079,243759.0,46681.0,-1035.9086453138764,-828.8106757653125,-2181.9013831163165
243759,1911,243759,16994,243759.0,46573.0,-1044.4654035319509,-835.2185405079156,-2199.025004400405
243759,1863,243759,16876,243759.0,46444.0,-1053.0042848977232,-841.5405626122568,-2215.9565603864216
243759,1833,243759,16840,243759.0,46431.0,-1061.5126580001574,-847.7594455487,-2232.6575865603263
243759,1845,243759,16898,243759.0,46474.0,-1069.9774800739133,-853.8583803478969,-2249.088991585091
243769,1880,243769,16969,243769.0,46555.0,-1078.3856784172112,-859.8218184376378,-2265.2114749813636
243769,1891,243769,16998,243769.0,46549.0,-1086.7237766231613,-865.6344899361587,-2280.984246051783
243769,1861,243769,16933,243769.0,46504.0,-1094.9771444854355,-871.279872023679,-2296.363387054723
243769,1820,243769,16859,243769.0,46394.0,-1103.1296248433957,-876.7396560433093,-2311.3013109431645
243769,1794,243769,16843,243769.0,46370.0,-1111.1638677090145,-881.9946307565722,-2325.7476854340807
243769,1839,243769,16966,243769.0,46467.0,-1119.061916858947,-887.0257762037629,-2339.6507118941227
243780,1849,243780,17013,243780.0,46489.0,-1126.8052865067343,-891.8139518332501,-2352.9571538268683
243780,1836,243780,17003,243780.0,46442.0,-1134.3744112592667,-896.3381835666704,-2365.6110963977417
243780,1797,243780,16815,243780.0,46335.0,-1141.7481600465192,-900.5744608222027,-2377.553162932298
243780,1749,243780,16789,243780.0,46278.0,-1148.9040035622556,-904.4966813689778,-2388.7213376467894
243780,1769,243780,16787,243780.0,46279.0,-1155.8186962602817,-908.0790223113354,-2399.052728694661
243780,1774,243780,16902,243780.0,46345.0,-1162.4688118722474,-911.2974795553482,-2408.4847739400934
243790,1795,243790,16954,243790.0,46409.0,-1168.8306758325525,-914.1293562741782,-2416.9549646154637
243790,1792,243790,16936,243790.0,46367.0,-1174.8798754779987,-916.5514721871823,-2424.399469344923
243790,1734,243790,16844,243790.0,46275.0,-1180.5908749579246,-918.5388712265643,-2430.752129784649
243790,1717,243790,16734,243790.0,46228.0,-1185.9371950304912,-920.0653012707935,-2435.944975374372
243790,1722,243790,16837,243790.0,46296.0,-1190.8920573821317,-921.1050154574914,-2439.9096461476247
243790,1792,243790,16939,243790.0,46401.0,-1195.428727331766,-921.6338256464676,-2442.577920630215
243800,1777,243800,16977,243800.0,46357.0,-1199.5200275928746,-921.6280185635271,-2443.8806265415287
243800,1735,243800,16873,243800.0,46294.0,-1203.1375582227122,-921.0624184518558,-2443.746367278334
243800,1701,243800,16783,243800.0,46153.0,-1206.251595026884,-919.9099425003917,-2442.101881698483
243800,1679,243800,16740,243800.0,46101.0,-1208.8317988791791,-918.1432104354503,-2438.874264136266
243800,1700,243800,16799,243800.0,46192.0,-1210.848050870114,-915.7366953944008,-2433.993626340805
243800,1734,243800,16906,243800.0,46240.0,-1212.2707747606287,-912.6675753611444,-2427.394329700024
243811,1731,243811,16944,243811.0,46325.0,-1213.0706121206038,-908.9147092185176,-2419.014245611913
243811,1718,243811,16883,243811.0,46251.0,-1213.2179064460886,-904.4568896583585,-2408.7932785696335
243811,1674,243811,16784,243811.0,46150.0,-1212.6826083702654,-899.2722395142314,-2396.6728984228366
243811,1654,243811,16754,243811.0,46161.0,-1211.434799226753,-893.3394625309369,-2382.5974426513503
243811,1709,243811,16904,243811.0,46291.0,-1209.445423115534,-886.6395974228819,-2366.5158730883613
243811,1739,243811,16961,243811.0,46321.0,-1206.6864654897213,-879.1561975367972,-2348.3820157501787
243821,1718,243821,16916,243821.0,46334.0,-1203.130419325953,-870.8738274475368,-2328.1534129083675
243821,1685,243821,16828,243821.0,46225.0,-1198.7498614150313,-861.7770302618046,-2305.7906507183166
243821,1646,243821,16744,243821.0,46201.0,-1193.5178337978696,-851.8512879686643,-2281.2583456262905
243821,1646,243821,16796,243821.0,46218.0,-1187.408830879107,-841.085236667551,-2254.5272504797613
243821,1695,243821,16887,243821.0,46316.0,-1180.3996726340943,-829.4722348244769,-2225.5759252177704
243821,1725,243821,16981,243821.0,46406.0,-1172.4696474885595,-817.0100403187045,-2194.3909004918683
243831,1713,243831,16947,243831.0,46398.0,-1163.6000247777047,-803.6991671819985,-2160.965689050094
243831,1699,243831,16901,243831.0,46386.0,-1153.77369634897,-789.5417029857754,-2125.300029542089
243831,1694,243831,16857,243831.0,46371.0,-1142.97541134574,-774.5416978890722,-2087.4003323141733
243831,1686,243831,16904,243831.0,46475.0,-1131.1923780642164,-758.7065566100553,-2047.2808394758672
243831,1766,243831,17075,243831.0,46644.0,-1118.414735533315,-742.0478020596895,-2004.964029795256
243831,1784,243831,17095,243831.0,46704.0,-1104.6354378639235,-724.5800710375446,-1960.4793775185042
243842,1761,243842,17039,243842.0,46656.0,-1089.8496933445867,-706.3192664625224,-1913.8615369606443
243842,1755,243842,16974,243842.0,46632.0,-1074.0547801409944,-687.2820148643389,-1865.1499796856815
243842,1741,243842,16967,243842.0,46657.0,-1057.2505949257431,-667.4869993109935,-1814.3904696789912
243842,1781,243842,17046,243842.0,46786.0,-1039.4404407305042,-646.9567040717545,-1761.636802784628
243842,1837,243842,17179,243842.0,46979.0,-1020.6314205884859,-625.7179008242035,-1706.9510705281773
243842,1875,243842,17261,243842.0,47017.0,-1000.8341454369661,-603.8003292664102,-1650.4020762330688
243852,1890,243852,17184,243852.0,47059.0,-980.0620515116291,-581.2346661090427,-1592.063342313807
243852,1860,243852,17128,243852.0,47037.0,-958.3310068607537,-558.0517687909028,-1532.0124287136284
243852,1876,243852,17125,243852.0,47104.0,-935.6596133111337,-534.2838971822734,-1470.331724028345
243852,1955,243852,17317,243852.0,47327.0,-912.0698087410469,-509.96626698316356,-1407.1093144757426
243852,2026,243852,17422,243852.0,47428.0,-887.5868583778107,-485.13672790685075,-1342.4383191758657
243852,2042,243852,17397,243852.0,47497.0,-862.2385057273079,-459.83358777108185,-1276.41484269324
243862,2020,243862,17312,243862.0,47489.0,-836.0541687091838,-434.0939976050272,-1209.136427941864
243862,2035,243862,17299,243862.0,47489.0,-809.0650017319045,-407.9545802754901,-1140.7022205788721
243862,2057,243862,17338,243862.0,47601.0,-781.3045940715551,-381.4533421805744,-1071.214323649016
243862,2125,243862,17462,243862.0,47761.0,-752.8095142858614,-354.63087951392583,-1000.778776939395
243862,2196,243862,17542,243862.0,47917.0,-723.6191936370121,-327.52990444460573,-929.5049212308253
243862,2227,243862,17583,243862.0,47980.0,-693.7751999531247,-300.1936180890252,-857.5035082798064
243873,2244,243873,17498,243873.0,48006.0,-663.3204632486002,-272.66440419436924,-784.8850991214031
243873,2243,243873,17503,243873.0,48021.0,-632.2990406632937,-244.98402601887062,-711.7598723025103
243873,2313,243873,17573,243873.0,48178.0,-600.7563909980422,-217.1949040995026,-638.2384640741327
243873,2384,243873,17747,243873.0,48360.0,-568.739503755,-189.34066838728046,-564.4322463214519
243873,2452,243873,17821,243873.0,48515.0,-536.2963550414574,-161.4648116399228,-490.45190940864427
243873,2458,243873,17771,243873.0,48473.0,-503.4749782095697,-133.60843429200406,-416.4052408227733
243883,2461,243883,17671,243883.0,48449.0,-470.32294098079643,-105.80933585646369,-342.3963059429484
243883,2477,243883,17667,243883.0,48527.0,-436.8876079599131,-78.1034208916733,-268.5268389533792
243883,2528,243883,17762,243883.0,48684.0,-403.21678224891355,-50.526938956667095,-194.89807785305106
243883,2611,243883,17865,243883.0,48841.0,-369.35900012641423,-23.11739401329669,-121.61096998004564
243883,2665,243883,17962,243883.0,48969.0,-335.3631089213353,4.0874809803822245,-48.764607147728384
243883,2684,243883,17926,243883.0,48978.0,-301.27745839883926,31.051529952178385,23.545720552320518
243893,2692,243893,17858,243893.0,48998.0,-267.14942452368746,57.74103707426514,95.22935185570873
243893,2696,243893,17884,243893.0,49074.0,-233.02562830512602,84.12388177488197,166.19962139122117
243893,2805,243893,18013,243893.0,49220.0,-198.95245153521205,110.16819466309721,236.37295352915635
243893,2869,243893,18137,243893.0,49356.0,-164.97600198998782,135.84246021085653,305.6690538661974
243893,2915,243893,18153,243893.0,49427.0,-131.14125743500813,161.11731816545375,374.0122395095527
243893,2906,243893,18065,243893.0,49382.0,-97.49116810087799,185.9672554964743,441.3325953415101
243904,2906,243904,18030,243904.0,49365.0,-64.066551971727,210.37043322962938,507.5655502081447
243904,2943,243904,18045,243904.0,49476.0,-30.906741018800176,234.30691005764015,572.6500169718329
243904,3004,243904,18140,243904.0,49656.0,1.9497555382972678,257.7570301606645,636.5270129812695
243904,3085,243904,18245,243904.0,49766.0,34.46524207751793,280.70131965049086,699.1402807463833
243904,3107,243904,18228,243904.0,49809.0,66.60348885036649,303.12171621808204,760.4381761231293
243904,3114,243904,18169,243904.0,49777.0,98.33039931766086,325.00261279733184,820.3748709111769
243914,3128,243914,18160,243914.0,49808.0,129.61407648258546,346.3304408835328,878.9098778885148
243914,3173,243914,18216,243914.0,49881.0,160.42440265611003,367.09233030333803,936.006620222194
243914,3247,243914,18394,243914.0,50070.0,190.73278735529425,387.2755802146354,991.6316433006868
243914,3300,243914,18431,243914.0,50194.0,220.5125254857884,406.8689596877299,1045.7555488280327
243914,3306,243914,18376,243914.0,50102.0,249.7395238888016,425.86480819645533,1098.3548893211137
243914,3281,243914,18290,243914.0,50076.0,278.3926442925381,444.2597548002358,1149.4127310845747
243924,3291,243924,18262,243924.0,50097.0,306.45320204301584,462.05331153388954,1198.9169818272908
243924,3341,243924,18318,243924.0,50191.0,333.9040483128998,479.24571928255466,1246.858217818607
243924,3419,243924,18423,243924.0,50336.0,360.7291308897319,495.83685943381465,1293.22892341962
243924,3447,243924,18496,243924.0,50399.0,386.9139064719899,511.8269436638018,1338.0244286583147
243924,3458,243924,18417,243924.0,50391.0,412.4460687093168,527.2180489259251,1381.2443956217726
243924,3454,243924,18381,243924.0,50321.0,437.3158295144931,542.0147066364307,1422.8932206733307
243935,3449,243935,18355,243935.0,50368.0,461.5155435805167,556.2228741136807,1462.9788000364574
243935,3532,243935,18479,243935.0,50514.0,485.03910343176653,569.8485367692954,1501.5110003472878
243935,3607,243935,18582,243935.0,50604.0,507.8818843969093,582.8976630555142,1538.5016431440304
243935,3607,243935,18557,243935.0,50617.0,530.0415250488761,595.3777386336576,1573.9659544138576
243935,3570,243935,18471,243935.0,50529.0,551.5186609188686,607.2991391639091,1607.9235947316497
243935,3551,243935,18379,243935.0,50502.0,572.3166199388263,618.6745949988765,1640.3978569443511
243945,3567,243945,18409,243945.0,50542.0,592.4402839951631,629.5170530359112,1671.4135792093575
243945,3626,243945,18525,243945.0,50686.0,611.8951101471923,639.8378922748263,1700.9956263867366
243945,3664,243945,18587,243945.0,50773.0,630.6869751470592,649.6470529687681,1729.1692483500806
243945,3695,243945,18606,243945.0,50761.0,648.8226994084184,658.9546783075771,1755.9617518233672
243945,3669,243945,18512,243945.0,50683.0,666.3105844310137,667.7724833816774,1781.4035684602563
243945,3655,243945,18476,243945.0,50648.0,683.1603664634149,676.11355793252,1805.527467623513
243955,3691,243955,18515,243955.0,50738.0,699.3825982823457,683.9909769013091,1828.3666960729875
243955,3749,243955,18644,243955.0,50860.0,714.9881711311186,691.4169182883575,1849.9540247443865
243955,3776,243955,18668,243955.0,50911.0,729.9885613376753,698.4034636883871,1870.3226850851552
243955,3775,243955,18583,243955.0,50896.0,744.3964855619988,704.9641603122507,1889.5081253634735
243955,3735,243955,18509,243955.0,50747.0,758.2261730268208,711.1143426387714,1907.5486511928752
243955,3716,243955,18491,243955.0,50728.0,771.4928374366289,716.8696789978594,1924.4839716729734
243966,3751,243966,18562,243966.0,50829.0,784.2116840715923,722.2444037283378,1940.3527730921187
243966,3787,243966,18656,243966.0,50954.0,796.3972570177541,727.2508776814796,1955.1917089461936
243966,3840,243966,18677,243966.0,50974.0,808.0635935311557,731.9007558901822,1969.0366448812333
243966,3824,243966,18629,243966.0,50893.0,819.2248855582859,736.2065497887975,1981.9244088801056
243966,3792,243966,18557,243966.0,50835.0,829.8958910864617,740.1820739008799,1993.8929651434737
243966,3804,243966,18538,243966.0,50851.0,840.0916233389228,743.8414345790868,2004.9799275046898
243976,3864,243976,18624,243976.0,50964.0,849.8267908921864,747.1976734055891,2015.2211475175418
243976,3888,243976,18761,243976.0,51049.0,859.1158341503422,750.2626837831995,2024.6509403507998
243976,3895,243976,18712,243976.0,51032.0,867.9735577031506,753.0488293238391,2033.303728771878
243976,3860,243976,18611,243976.0,50924.0,876.4155951576611,755.5705374063618,2041.2152989445121
243976,3835,243976,18520,243976.0,50855.0,884.4581676550051,757.8438680611042,2048.422155205756
243976,3846,243976,18531,243976.0,50858.0,892.1172893751,759.8843450890517,2054.9593733730944
243987,3869,243987,18584,243987.0,50963.0,899.4080488921586,761.7050301385829,2060.858797058092
243987,3911,243987,18700,243987.0,51026.0,906.3444718034361,763.3162862181738,2066.149002596774
243987,3930,243987,18691,243987.0,51064.0,912.9399601009136,764.7271614224169,2070.8567947987117
243987,3888,243987,18622,243987.0,50938.0,919.2078342815057,765.9469577096871,2075.0086500350926
243987,3862,243987,18546,243987.0,50883.0,925.1613241002542,766.9853836659128,2078.6305576471905
243987,3889,243987,18585,243987.0,50954.0,930.8129184957181,767.8512767868984,2081.746430840653
243997,3948,243997,18713,243997.0,51072.0,936.1738736357913,768.5516191827128,2084.3771342430764
243997,3966,243997,18752,243997.0,51123.0,941.254556631364,769.0923176681888,2086.5415459877386
243997,3949,243997,18673,243997.0,51037.0,946.0652461184509,769.4800275644054,2088.258550717518
243997,3886,243997,18584,243997.0,50939.0,950.6164341753201,769.7228789140731,2089.547736796931
243997,3898,243997,18533,243997.0,50898.0,954.9182244993435,769.8292306456515,2090.428015965262
243997,3908,243997,18597,243997.0,50960.0,958.979417437989,769.8057132120473,2090.915536894357
244006,3962,244006,18669,244006.0,51037.0,962.807143662216,769.6563646100489,2091.022794358652
244006,3985,244006,18727,244006.0,51085.0,966.4072890506054,769.3834909769563,2090.7595021741904
244006,3961,244006,18668,244006.0,51023.0,969.7852511686967,768.9892863149254,2090.134152882385
244006,3944,244006,18583,244006.0,50952.0,972.9463127762992,768.476584186315,2089.154659046613
244006,3924,244006,18565,244006.0,50923.0,975.8953407714816,767.8480208601329,2087.8274788880494
244006,3976,244006,18657,244006.0,51059.0,978.636255622552,767.1046763244622,2086.1563694154697
244017,4016,244017,18761,244017.0,51147.0,981.1719915801102,766.2460002702634,2084.142604386852
244017,4017,244017,18751,244017.0,51122.0,983.5051519395797,765.2714338259026,2081.78691196833
244017,3978,244017,18632,244017.0,51013.0,985.6387055950311,764.1820635514399,2079.091177124442
244017,3932,244017,18535,244017.0,50929.0,987.5759274522075,762.9803770723321,2076.0580995016726
244017,3924,244017,18523,244017.0,50943.0,989.3195401103055,761.6681506784092,2072.6892317312772
244017,3976,244017,18666,244017.0,51013.0,990.8708034693727,760.2444965936904,2068.98333073607
244027,4006,244027,18692,244027.0,51067.0,992.2293758395629,758.7059215810785,2064.936363736409
244027,4020,244027,18698,244027.0,51078.0,993.3939930612319,757.0480164546949,2060.5428330643417
244027,3973,244027,18637,244027.0,51017.0,994.3631966310322,755.2668581162029,2055.797076159304
244027,3972,244027,18593,244027.0,50967.0,995.1354167351546,753.3590314364741,2050.6934784614396
244027,3973,244027,18607,244027.0,50981.0,995.7085235652339,751.3206981119671,2045.2256621203783
244027,4013,244027,18734,244027.0,51087.0,996.0795127755532,749.1469916029815,2039.3858548208882
244037,4037,244037,18732,244037.0,51114.0,996.2447541828308,746.8327764488108,2033.1655762664484
244037,4009,244037,18665,244037.0,51018.0,996.20059536247,744.3741123787782,2026.557106282665
244037,3963,244037,18593,244037.0,50952.0,995.9436402867686,741.7686526224353,2019.5539458404103
244037,3976,244037,18505,244037.0,50900.0,995.4703267119758,739.0143694299496,2012.1496155640289
244037,3987,244037,18599,244037.0,50962.0,994.7763124061748,736.107675415639,2004.3360203447596
244037,4023,244037,18711,244037.0,51073.0,993.8563685227782,733.0426933486427,1996.103013426894
244048,4066,244048,18742,244048.0,51071.0,992.7049138282002,729.8125831624023,1987.439700566864
244048,4031,244048,18692,244048.0,51015.0,991.3168621062102,726.41171415423,1978.3362804713947
244048,3977,244048,18565,244048.0,50945.0,989.6880908011485,722.8365617210619,1968.7846895498667
244048,3961,244048,18565,244048.0,50891.0,987.8150008485217,719.0846407408262,1958.777709283994
244048,4022,244048,18629,244048.0,51005.0,985.6937000691769,715.152847802286,1948.3077223823357
244048,4058,244048,18750,244048.0,51078.0,983.3199172240911,711.0371976443826,1937.3667328908166
244058,4052,244058,18750,244058.0,51035.0,980.6898411342424,706.7344315043752,1925.9479763231868
244058,4023,244058,18645,244058.0,50967.0,977.8009783726586,702.2439068475891,1914.0474504910117
244058,3976,244058,18508,244058.0,50823.0,974.6522403952953,697.5677003295299,1901.6637057683454
244058,3947,244058,18495,244058.0,50821.0,971.243260191445,692.7085698618673,1888.7959981344538
244058,3988,244058,18603,244058.0,50932.0,967.573515256744,687.6676881482091,1875.4424766517106
244058,4026,244058,18657,244058.0,51023.0,963.6420461604216,682.444286691879,1861.6003198566077
244068,4014,244068,18681,244068.0,50992.0,959.4480176212898,677.0372163149984,1847.2678474309243
244068,3991,244068,18615,244068.0,50875.0,954.991427985391,671.4466635670366,1832.4464458962234
244068,3951,244068,18547,244068.0,50824.0,950.2732143043618,665.6745841795318,1817.1405335678533
244068,3973,244068,18549,244068.0,50830.0,945.2948096776175,659.7238231986561,1801.356119219867
244068,3997,244068,18678,244068.0,50922.0,940.0578186346112,653.597251319913,1785.099870788919
244068,4006,244068,18668,244068.0,50984.0,934.5642800161538,647.2983056075624,1768.3798879231044
244079,3991,244079,18627,244079.0,50878.0,928.8172602891849,640.8324528558487,1751.2075467526765
244079,3949,244079,18543,244079.0,50794.0,922.8211660618637,634.207802693125,1733.598492049031
244079,3903,244079,18464,244079.0,50707.0,916.5814296421875,627.4341437326307,1715.5717078725463
244079,3937,244079,18500,244079.0,50740.0,910.1037799921723,620.5212039094681,1697.147667951292
244079,3970,244079,18607,244079.0,50773.0,903.3938517318633,613.4776403504438,1678.3472732115324
244079,3982,244079,18626,244079.0,50824.0,896.4576359168226,606.3117804481817,1659.1923164898958
244089,3959,244089,18563,244089.0,50720.0,889.3023251615521,599.0332922238322,1639.7067573519762
244089,3911,244089,18440,244089.0,50610.0,881.9367312782309,591.6538125945237,1619.9172035178433
244089,3865,244089,18429,244089.0,50601.0,874.3709149724684,584.1857561202467,1599.8518230326706
244089,3908,244089,18480,244089.0,50675.0,866.6153895601433,576.6405889241958,1579.5389612709741
244089,3923,244089,18590,244089.0,50717.0,858.6807463245877,569.0284352905296,1559.0072386963416
244089,3928,244089,18557,244089.0,50649.0,850.5780856838134,561.3594132203444,1538.2869888210828
244099,3898,244099,18482,244099.0,50557.0,842.3196871812833,553.6451747476808,1517.4112525327866
244099,3829,244099,18379,244099.0,50456.0,833.9191549941341,545.8989183727474,1496.4151398750982
244099,3797,244099,18375,244099.0,50409.0,825.3907653592146,538.133828713139,1475.3339872475976
244099,3844,244099,18450,244099.0,50502.0,816.7485011760231,530.3615093170915,1454.2017133671934
244099,3862,244099,18515,244099.0,50530.0,808.0057345991903,522.5919260143795,1433.050714587963
244099,3855,244099,18497,244099.0,50510.0,799.1758081122193,514.8348057897379,1411.9132580077317
244110,3804,244110,18402,244110.0,50394.0,790.2726899929669,507.10092651050064,1390.822746255487
244110,3777,244110,18326,244110.0,50314.0,781.3109468632387,499.4018927221117,1369.8134524902894
244110,3769,244110,18354,244110.0,50294.0,772.3051563165975,491.7486481049915,1348.918981543854
244110,3820,244110,18493,244110.0,50412.0,763.2694796005701,484.1504929573268,1328.17105686996
244110,3810,244110,18528,244110.0,50411.0,754.2179261220855,476.6160492653795,1307.6000063256865
244110,3779,244110,18447,244110.0,50368.0,745.1650017103062,469.15537570490426,1287.2364297035854
244120,3722,244120,18336,244120.0,50208.0,736.1259104542564,461.78092726178903,1267.1120779412095
244120,3688,244120,18245,244120.0,50124.0,727.1159635888423,454.50628454361004,1247.258738898024
244120,3705,244120,18286,244120.0,50158.0,718.1496684928902,447.34379579121753,1227.7059685249974
244120,3727,244120,18341,244120.0,50234.0,709.2402663251803,440.30307799085836,1208.479744776033
244120,3733,244120,18466,244120.0,50249.0,700.4000294862483,433.39147355777914,1189.6031401716368
244120,3718,244120,18377,244120.0,50182.0,691.6409056365835,426.615915872064,1171.0979436456907
244130,3676,244130,18277,244130.0,50143.0,682.9748845624581,419.9842667140616,1152.9855026576106
244130,3625,244130,18236,244130.0,50026.0,674.413751561428,413.5046763809024,1135.2862182120255
244130,3676,244130,18343,244130.0,50116.0,665.9684414754072,407.1839922569971,1118.018368017996
244130,3709,244130,18415,244130.0,50204.0,657.648808552128,401.02748417090777,1101.1977020683557
244130,3695,244130,18411,244130.0,50194.0,649.4642630699952,395.0403801042576,1084.8387490503528
244130,3640,244130,18307,244130.0,50079.0,641.4245296735966,389.2294716716077,1068.9565965717518
244141,3607,244141,18225,244141.0,49938.0,633.539604293621,383.60304271930005,1053.5669671960482
244141,3574,244141,18164,244141.0,49934.0,625.8189700475001,378.1691127288924,1038.6842740975026
244141,3595,244141,18267,244141.0,50014.0,618.270757844602,372.9334801828283,1024.3195763502995
244141,3628,244141,18310,244141.0,50062.0,610.9014585128268,367.89919676838565,1010.4803741476948
244141,3656,244141,18374,244141.0,50054.0,603.7164168894811,363.0677980560741,997.1720918161009
244141,3604,244141,18261,244141.0,49963.0,596.7207008931709,358.44098119678205,984.3994917806803
244151,3567,244151,18214,244151.0,49873.0,589.9194934097324,354.0210782180772,972.166633044484
244151,3554,244151,18201,244151.0,49911.0,583.3176607677168,349.81002534801775,960.4755541349265
244151,3613,244151,18320,244151.0,50028.0,576.9191796297893,345.80827930202673,949.3253621022898
244151,3608,244151,18358,244151.0,50009.0,570.7272619877837,342.01522052494107,938.7130631607912
244151,3585,244151,18298,244151.0,49967.0,564.7450182571915,338.4307074312405,928.6352263421214
244151,3532,244151,18160,244151.0,49848.0,558.9757618548882,335.0558267399725,919.0885354501113
244161,3490,244161,18144,244161.0,49807.0,553.4224957728595,331.89167424273904,910.0686384944405
244161,3521,244161,18185,244161.0,49869.0,548.0869898360721,328.93732759398836,901.5684239532522
244161,3543,244161,18232,244161.0,49932.0,542.9692782795562,326.1889376854427,893.5773935858441
244161,3571,244161,18313,244161.0,49970.0,538.0680045959191,323.6404526688953,886.0827027174101
244161,3547,244161,18268,244161.0,49939.0,533.3812068811851,321.2851369260515,879.0708463458817
244161,3507,244161,18175,244161.0,49837.0,528.9067908914836,319.1165434404033,872.5285404612356
244172,3486,244172,18164,244172.0,49800.0,524.642304338021,317.12801494002247,866.442106890887
244172,3529,244172,18269,244172.0,49920.0,520.5843848520958,315.31154374534736,860.7962161109662
244172,3572,244172,18352,244172.0,50007.0,516.7287154731122,313.657872598966,855.5738948122175
244172,3569,244172,18364,244172.0,49981.0,513.070779181297,312.15824349827955,850.7583127343439
244172,3516,244172,18255,244172.0,49863.0,509.60669013939696,310.8061596490341,846.3344571237709
244172,3463,244172,18140,244172.0,49769.0,506.33318503734966,309.59734553181136,842.288776858597
244182,3447,244182,18122,244182.0,49758.0,503.24670383501325,308.527761608324,838.6070780243781
244182,3475,244182,18188,244182.0,49844.0,500.3423553376384,307.5913737477367,835.2725939282578
244182,3521,244182,18289,244182.0,49905.0,497.61361769017975,306.7795535116186,832.2657943617833
244182,3537,244182,18302,244182.0,49925.0,495.0529520382437,306.0823725828782,829.5657970431573
244182,3492,244182,18203,244182.0,49849.0,492.6526941127226,305.49025560503867,827.1518923994541
244182,3466,244182,18173,244182.0,49778.0,490.4053557976944,304.9942472930646,825.0037880052529
244192,3454,244192,18181,244192.0,49774.0,488.3031568138816,304.5849103098611,823.1004721556742
244192,3524,244192,18323,244192.0,49957.0,486.33750720466253,304.2515521020091,821.4191907388258
244192,3531,244192,18341,244192.0,49979.0,484.49922203296876,303.9830761816329,819.936264319927
244192,3532,244192,18340,244192.0,49906.0,482.77935725858384,303.7698632168413,818.6292260653466
244192,3448,244192,18180,244192.0,49778.0,481.1697483169078,303.6048305696648,817.4777677954459
244192,3446,244192,18134,244192.0,49756.0,479.6626061172072,303.4824705183987,816.4623717194825
244203,3443,244203,18159,244203.0,49780.0,478.2495633281459,303.396618201882,815.5621260688977
244203,3483,244203,18243,244203.0,49898.0,476.9210920016839,303.3389711783467,814.7537489960384
244203,3509,244203,18326,244203.0,49957.0,475.6667177918037,303.29954671120817,814.0125560316271
244203,3490,244203,18258,244203.0,49868.0,474.4757072789634,303.2683464849398,813.3143761732566
244203,3469,244203,18184,244203.0,49798.0,473.3375609045708,303.2363955706373,812.6364442587685
244203,3443,244203,18151,244203.0,49764.0,472.2419050890092,303.19509350256396,811.9564345990361
244213,3477,244213,18261,244213.0,49881.0,471.17804695468624,303.13488961701563,811.2510046426542
244213,3535,244213,18362,244213.0,49983.0,470.13489422053124,303.04524189673,810.495822525656
244213,3526,244213,18352,244213.0,49956.0,469.1016170225622,302.9163351995844,809.6673767418722
244213,3482,244213,18256,244213.0,49865.0,468.0684631095327,302.7408592727639,808.7447271185525
244213,3425,244213,18157,244213.0,49797.0,467.02676549029377,302.5139546774128,807.7094048248213
244213,3415,244213,18107,244213.0,49741.0,465.9680214244944,302.23127424348917,806.5436745773555
244224,3459,244224,18201,244224.0,49833.0,464.88288491093186,301.8867771809395,805.2286976797734
244224,3501,244224,18286,244224.0,49945.0,463.76098767718946,301.47206926030304,803.7441405809377
244224,3516,244224,18332,244224.0,49922.0,462.59170027791436,300.97773245842916,802.0696181155316
244224,3472,244224,18263,244224.0,49850.0,461.3650646159463,300.39526415239254,800.1864158294583
244224,3445,244224,18149,244224.0,49750.0,460.07205028178925,299.7177420657475,798.077587713191
244224,3436,244224,18186,244224.0,49811.0,458.7040480085068,298.9387032330865,795.7265129149739
244234,3496,244234,18305,244234.0,49942.0,457.2523250264687,298.05085820999574,793.1158952304895
244234,3520,244234,18363,244234.0,49963.0,455.708205539669,297.04658553559636,790.228743933659
244234,3514,244234,18290,244234.0,49917.0,454.06391993775236,295.9197978860808,787.0504339162858
244234,3450,244234,18184,244234.0,49796.0,452.3132548401561,294.6669135863481,783.5696377886059
244234,3412,244234,18144,244234.0,49757.0,450.4512736544571,293.28578014855003,779.7772642494685
244234,3428,244234,18178,244234.0,49790.0,448.4733405784183,291.77370145644477,775.6645404268907
244244,3466,244244,18276,244244.0,49856.0,446.3744155494573,290.1264669291058,771.2220072260881
244244,3485,244244,18319,244244.0,49917.0,444.1492415778214,288.339157843723,766.4401686562433
244244,3472,244244,18271,244244.0,49866.0,441.7930745208026,286.4078384857429,761.3110345144441
244244,3420,244244,18194,244244.0,49757.0,439.30213585437554,284.3304566302151,755.8290025003223
244244,3414,244244,18175,244244.0,49729.0,436.6733494427079,282.1062107662451,749.9901126707525
244244,3427,244244,18227,244244.0,49846.0,433.90372264911525,279.73433528003187,743.7906417534268
244255,3480,244255,18339,244255.0,49894.0,430.99014495049295,277.2138720103137,737.2270308130712
244255,3490,244255,18311,244255.0,49889.0,427.9299522300802,274.5449219865551,730.2974580373091
244255,3428,244255,18208,244255.0,49770.0,424.72173472237694,271.7300376671165,723.0032637259112
244255,3387,244255,18119,244255.0,49707.0,421.36544968275757,268.7739707434194,715.3486692625328
244255,3366,244255,18102,244255.0,49654.0,417.8616081210601,265.68176126379717,707.3390288222106
244255,3394,244255,18175,244255.0,49739.0,414.21031271342633,262.4568759577751,698.9791031465337
244265,3431,244265,18250,244265.0,49785.0,410.4109826784916,259.1009194743459,690.2727273068676
244265,3428,244265,18256,244265.0,49800.0,406.4628748966127,255.61493056707917,681.2239815815082
244265,3409,244265,18181,244265.0,49709.0,402.3658002402087,252.0008587009473,671.8385721520988
244265,3365,244265,18123,244265.0,49610.0,398.12035111349564,248.2617841921853,662.1239360611377
244265,3355,244265,18108,244265.0,49641.0,393.7275005660537,244.40082919609708,652.0879386982415
244265,3407,244265,18258,244265.0,49708.0,389.18809305680486,240.42016593263475,641.7376894623045
244275,3423,244275,18259,244275.0,49751.0,384.5029472809843,236.32155889202997,631.0799101642967
244275,3395,244275,18228,244275.0,49687.0,379.6735609100607,232.10802608018116,620.122376311419
244275,3349,244275,18130,244275.0,49584.0,374.70256117762256,227.78472300775684,608.8746865939405
244275,3308,244275,18054,244275.0,49520.0,369.59332449743147,223.35807186026068,597.347384879997
244275,3323,244275,18059,244275.0,49528.0,364.34910703798903,218.83386220369871,585.5501649731366
244275,3351,244275,18188,244275.0,49636.0,358.97248551856114,214.21592177214296,573.4908111802295
244286,3368,244286,18214,244286.0,49685.0,353.46556953199945,209.5066118653373,561.1759489740863
244286,3340,244286,18172,244286.0,49632.0,347.8306594886011,204.70856034820557,548.6129963459658
244286,3317,244286,18095,244286.0,49513.0,342.07063977952333,199.8256934380488,535.8114031969111
244286,3264,244286,18029,244286.0,49449.0,336.18874685701223,194.86260086896343,522.7819622559093
244286,3292,244286,18101,244286.0,49530.0,330.1879367701717,189.8230883173807,509.535120104567
244286,3346,244286,18186,244286.0,49590.0,324.07055023664003,184.70958854028632,496.0803541812477
244296,3348,244296,18235,244296.0,49579.0,317.8388377466445,179.52430130284483,482.42731563205837
244296,3310,244296,18132,244296.0,49497.0,311.4958973739608,174.27103395463934,468.5872907299
244296,3236,244296,18027,244296.0,49327.0,305.04596275871063,168.95575729855273,454.5731773997185
244296,3228,244296,17966,244296.0,49329.0,298.4936829587446,163.58512582382258,440.3976243548034
244296,3256,244296,18029,244296.0,49386.0,291.843146859003,158.1642795626472,426.07089272594874
244296,3297,244296,18160,244296.0,49441.0,285.0976577818398,152.69599966040795,411.6003967238272
244306,3258,244306,18151,244306.0,49472.0,278.26035328076887,147.18199055934326,396.9920666866194
244306,3245,244306,18035,244306.0,49397.0,271.33481599499197,141.62473245468158,382.2520771786534
244306,3224,244306,17993,244306.0,49320.0,264.325088576403,136.0277203601035,367.38752129799434
244306,3180,244306,17989,244306.0,49304.0,257.2352747032238,130.39408564866932,352.40571123097993
244306,3228,244306,18112,244306.0,49384.0,250.06909436694593,124.72553261291449,337.3132401270183
244306,3246,244306,18145,244306.0,49421.0,242.82983447130425,119.02296607579711,322.1162479664347
244317,3238,244317,18117,244317.0,49355.0,235.52092127548565,113.28826763262771,306.82179001252575
244317,3176,244317,17968,244317.0,49241.0,228.14650947563143,107.52534651429431,291.4386562787081
244317,3140,244317,17931,244317.0,49166.0,220.71131677026784,101.73922648526332,275.97648015742027
244317,3148,244317,17952,244317.0,49178.0,213.21983329184422,95.93401254655424,260.44383815955587
244317,3181,244317,18042,244317.0,49237.0,205.67576583536152,90.11172458834687,244.84702824561032
244317,3181,244317,18072,244317.0,49275.0,198.0822550497876,84.27293485054344,229.19046345935783
244327,3165,244327,18042,244327.0,49273.0,190.44250727024138,78.41833284983011,213.4781706741062
244327,3123,244327,17952,244327.0,49134.0,182.76013662725364,72.54963114364216,197.7149918521285
244327,3103,244327,17903,244327.0,49077.0,175.03893197857872,66.66899431566196,181.90628355763386
244327,3103,244327,17972,244327.0,49139.0,167.28233186572135,60.77770347796405,166.05649299780998
244327,3150,244327,18069,244327.0,49264.0,159.4931821097117,54.87572377054386,150.16863211488453
244327,3141,244327,18069,244327.0,49197.0,151.67413008374479,48.962945852484665,134.2457059608456
244337,3101,244337,18019,244337.0,49095.0,143.82828117598086,43.040919520714795,118.29241150658504
244337,3061,244337,17872,244337.0,49028.0,135.9593463121385,37.11327428624304,102.31504460108533
244337,3029,244337,17828,244337.0,48956.0,128.0710719904257,31.18422783237918,86.31982943611399
244337,3042,244337,17901,244337.0,49035.0,120.16646268803981,25.25638636278586,70.31126703553537
244337,3079,244337,17983,244337.0,49056.0,112.24745120728329,19.329874605259988,54.29174109454607
244337,3094,244337,17991,244337.0,49106.0,104.31533054028279,13.403447031198198,38.26257732247427
244348,3043,244348,17962,244348.0,49006.0,96.37154648637284,7.476189982210258,22.22554231329468
244348,3000,244348,17856,244348.0,48891.0,88.4179908904461,1.5481795620474372,6.183286353568292
244348,3001,244348,17843,244348.0,48921.0,80.45651820022613,-4.380325619742109,-9.861745472903522
244348,3058,244348,17983,244348.0,49034.0,72.48845024578918,-10.310013451770203,-25.90839796755131
244348,3058,244348,17988,244348.0,49041.0,64.51488473859877,-16.242250940721704,-41.95609740042073
244348,3033,244348,17963,244348.0,49001.0,56.537544357720094,-22.177515545569236,-58.00294501869598
244358,2969,244358,17891,244358.0,48864.0,48.55919499319589,-28.114376898030798,-74.04470909246879
244358,2925,244358,17768,244358.0,48757.0,40.58313727359473,-34.050109570256325,-90.07580231049815
244358,2928,244358,17807,244358.0,48792.0,32.61216389170988,-39.98247754770216,-106.0915019542415
244358,2969,244358,17867,244358.0,48852.0,24.647850803994174,-45.91122530765915,-122.08948643594044
244358,2990,244358,17944,244358.0,48916.0,16.690769095599194,-51.83790550689565,-138.06939114103352
244358,2971,244358,17941,244358.0,48879.0,8.741336158652643,-57.76426792284269,-154.03102315380738
244368,2920,244368,17840,244368.0,48772.0,0.8004379796415151,-63.690790138603006,-169.9729975589123
244368,2893,244368,17749,244368.0,48719.0,-7.130729961832685,-69.61677260476785,-185.8929751720052
244368,2906,244368,17808,244368.0,48755.0,-15.051299656696642,-75.54185235660725,-201.78894320490645
244368,2947,244368,17968,244368.0,48848.0,-22.96103594266242,-81.46693192079505,-217.65977628071232
244368,2949,244368,17951,244368.0,48837.0,-30.859879270599322,-87.39294492207222,-233.50417124209162
244368,2921,244368,17852,244368.0,48736.0,-38.74715288058576,-93.31875962416495,-249.31908503906698
244379,2870,244379,17761,244379.0,48612.0,-46.62122567353913,-99.2407581348275,-265.09956995632206
244379,2824,244379,17703,244379.0,48581.0,-54.47997483850827,-105.15450820363736,-280.8404272174746
244379,2859,244379,17780,244379.0,48625.0,-62.32164556712905,-111.05681969935,-296.5381754945487
244379,2872,244379,17826,244379.0,48709.0,-70.14528628966582,-116.94647180248097,-312.1915718195655
244379,2881,244379,17897,244379.0,48705.0,-77.9503931952504,-122.82321840860669,-327.8003713345672
244379,2841,244379,17808,244379.0,48602.0,-85.73628821517798,-128.68613222064727,-343.36372027824314
244389,2822,244389,17681,244389.0,48511.0,-93.50191451048977,-134.53299557286812,-358.879920610294
244389,2778,244389,17689,244389.0,48532.0,-101.24618508037156,-140.36152929663928,-374.347705946416
244389,2811,244389,17775,244389.0,48624.0,-108.96852835127345,-146.1710774928087,-389.7673026255709
244389,2856,244389,17876,244389.0,48663.0,-116.66901961784242,-151.962623370852,-405.1397682803507
244389,2835,244389,17849,244389.0,48635.0,-124.34777456263271,-157.73698035301197,-420.46510372718717
244389,2782,244389,17725,244389.0,48513.0,-132.00422411829805,-163.49312952995604,-435.74094129823857
244399,2740,244399,17663,244399.0,48399.0,-139.63717527874337,-169.22849242453498,-450.9630785043162
244399,2728,244399,17657,244399.0,48416.0,-147.24562145311103,-174.94077280410727,-466.1274746227541
244399,2786,244399,17744,244399.0,48512.0,-154.8294281513854,-180.6294491265519,-481.23182827588573
244399,2785,244399,17832,244399.0,48545.0,-162.38918370632416,-186.29552738815272,-496.2751798835386
244399,2780,244399,17777,244399.0,48498.0,-169.9254214593068,-191.93986807044348,-511.2561522584399
