c_ts,c_val,d_ts,d_val,e_ts,e_val,c_val_filtered,d_val_filtered,e_val_filtered
69964,7400,69964.0,20001.0,69964.0,27492.0,191.63589597327976,76.04816577319829,112.75502862512025
69964,7385,69964.0,19994.0,69964.0,27473.0,191.23088259942205,73.37956869255655,112.20818496445418
69974,7382,69974.0,19949.0,69974.0,27480.0,190.80116336243137,70.73984163743347,111.63589597188917
69974,7380,69974.0,19959.0,69974.0,27486.0,190.34906269752145,68.13703947600402,111.03888552691127
69974,7383,69974.0,20000.0,69974.0,27493.0,189.87631727582223,65.57785813707211,110.41747797581992
69974,7400,69974.0,19983.0,69974.0,27486.0,189.38409798197432,63.06777134171361,109.77176491996065
69974,7387,69974.0,19998.0,69974.0,27499.0,188.87317825757754,60.61150590009236,109.1017565732505
69974,7369,69974.0,19944.0,69974.0,27459.0,188.3440625878867,58.21329279827738,108.40742459249608
69984,7358,69984.0,19941.0,69984.0,27463.0,187.79684844860267,55.876642978098005,107.68853721708834
69984,7377,69984.0,19916.0,69984.0,27474.0,187.2309309773605,53.60379338258735,106.94435552671472
69984,7388,69984.0,19975.0,69984.0,27488.0,186.64491868425415,51.39526837632001,106.1735389056638
69984,7384,69984.0,19996.0,69984.0,27489.0,186.0368654536437,49.2500482345033,105.37438318410989
69984,7383,69984.0,20015.0,69984.0,27477.0,185.4045477009894,47.16636896491522,104.5451102003506
69984,7384,69984.0,19958.0,69984.0,27471.0,184.74558437160337,45.142524110274216,103.68394575217336
69995,7370,69995.0,19956.0,69995.0,27477.0,184.05744234783913,43.17699872866298,102.78901432458541
69995,7371,69995.0,19974.0,69995.0,27496.0,183.3373698381484,41.26807119258266,101.85829956771823
69995,7382,69995.0,19994.0,69995.0,27497.0,182.58231246978283,39.41362758421588,100.88984260007408
69995,7395,69995.0,19997.0,69995.0,27506.0,181.78898014161587,37.61149027664352,99.88207903694911
69995,7390,69995.0,19981.0,69995.0,27481.0,180.95410723132315,35.859866141451064,98.83408409874956
69995,7365,69995.0,19951.0,69995.0,27466.0,180.07466341348598,34.15746113558224,97.74554168813128
70004,7365,70004.0,19948.0,70004.0,27466.0,179.14777234516603,32.503170256361145,96.61644151276442
70004,7372,70004.0,19935.0,70004.0,27481.0,178.17046378661217,30.89560599228112,95.44679163388541
70004,7384,70004.0,19976.0,70004.0,27478.0,177.1395992350332,29.33282957883759,94.236611549765
70004,7385,70004.0,19964.0,70004.0,27476.0,176.05206425773582,27.812479383536115,92.98610665158122
70004,7403,70004.0,19952.0,70004.0,27471.0,174.9050758440055,26.332098157057516,91.69577917917303
70004,7368,70004.0,19955.0,70004.0,27459.0,173.6964429739139,24.88926257521831,90.36639876652583
70015,7366,70015.0,19952.0,70015.0,27457.0,172.42459430780144,23.48150098252374,88.99887303441757
70015,7375,70015.0,19960.0,70015.0,27483.0,171.088369018105,22.10625845046681,87.59414974701637
70015,7389,70015.0,19987.0,70015.0,27488.0,169.68691484590065,20.761036723637915,86.15336299258064
70015,7365,70015.0,19952.0,70015.0,27476.0,168.2198451977058,19.443676754225336,84.6781828802111
70015,7348,70015.0,19916.0,70015.0,27420.0,166.6873213950611,18.152443918331755,83.17093158929369
70015,7336,70015.0,19916.0,70015.0,27421.0,165.0898051000165,16.885600284086422,81.63413989850676
70025,7343,70025.0,19937.0,70025.0,27416.0,163.42767923672628,15.640834331765447,80.06983958609928
70025,7355,70025.0,19908.0,70025.0,27442.0,161.70107535730935,14.41506221121611,78.47917243278306
70025,7361,70025.0,19967.0,70025.0,27437.0,159.91001672085235,13.204545973986342,76.86248778156883
70025,7350,70025.0,19970.0,70025.0,27455.0,158.05470506268423,12.005245905475022,75.21967969952857
70025,7348,70025.0,19960.0,70025.0,27434.0,156.135696060413,10.813398976951973,73.55049457110204
70025,7331,70025.0,19957.0,70025.0,27446.0,154.15387444284465,9.625937010798367,71.85468162717873
70035,7331,70035.0,19959.0,70035.0,27443.0,152.11030359972727,8.440538255493678,70.13203093614112
70035,7343,70035.0,19955.0,70035.0,27454.0,150.00609537117265,7.2555735259882255,68.38245064108625
70035,7341,70035.0,19950.0,70035.0,27409.0,147.84245378435205,6.070092691274297,66.60605106861296
70035,7338,70035.0,19975.0,70035.0,27441.0,145.62085829623487,4.883845490366909,64.80304750519792
70035,7323,70035.0,19876.0,70035.0,27412.0,143.34317805741102,3.697243615989379,62.973566633881056
70035,7305,70035.0,19899.0,70035.0,27413.0,141.01158358126577,2.5109099258797016,61.11753066465386
70046,7304,70046.0,19918.0,70046.0,27429.0,138.62828813706474,1.3249422682278578,59.23458475258015
70046,7314,70046.0,19966.0,70046.0,27453.0,136.19531509851154,0.1387418676432759,57.32418912831953
70046,7311,70046.0,19957.0,70046.0,27450.0,133.7144874774848,-1.0483508850549157,55.38602368044387
70046,7299,70046.0,19889.0,70046.0,27391.0,131.18756065159332,-2.236434854458608,53.42034073284353
70046,7308,70046.0,19939.0,70046.0,27447.0,128.6162918050104,-3.4251308658621014,51.42786532758136
70046,7296,70046.0,19924.0,70046.0,27418.0,126.00244602302642,-4.6139599023041455,49.40957286917093
70056,7312,70056.0,19954.0,70056.0,27435.0,123.34784623795382,-5.802316599042086,47.366760992351075
70056,7304,70056.0,19927.0,70056.0,27428.0,120.65449934606792,-6.989147332013843,45.301231462439816
70056,7297,70056.0,19895.0,70056.0,27410.0,117.92474379288244,-8.172840875372998,43.21535945498752
70056,7267,70056.0,19889.0,70056.0,27405.0,115.16125261406509,-9.351566414420589,41.11200968006375
70056,7263,70056.0,19898.0,70056.0,27391.0,112.36677852720976,-10.523801950882728,38.99430534576473
70056,7273,70056.0,19900.0,70056.0,27394.0,109.54381907625778,-11.68859579527026,36.86537938776962
70066,7274,70066.0,19893.0,70066.0,27399.0,106.69450934611345,-12.845520717824087,34.72824143131257
70066,7270,70066.0,19939.0,70066.0,27396.0,103.82076645108495,-13.994504947544911,32.58580490657563
70066,7274,70066.0,19923.0,70066.0,27397.0,100.92446716405266,-15.135495515010447,30.441001365352918
70066,7263,70066.0,19909.0,70066.0,27378.0,98.00755541086372,-16.26806322753508,28.296840242321537
70066,7256,70066.0,19901.0,70066.0,27376.0,95.07207551835577,-17.39132164689964,26.156328968635663
70066,7247,70066.0,19901.0,70066.0,27382.0,92.1201068664012,-18.50415199082363,24.022320122632763
70077,7261,70077.0,19935.0,70077.0,27395.0,89.15367273046067,-19.605331267028532,21.897489915843053
70077,7263,70077.0,19895.0,70077.0,27383.0,86.17478919076083,-20.69338558881094,19.784516726999087
70077,7245,70077.0,19895.0,70077.0,27355.0,83.18564796898463,-21.766472270437333,17.6862086543819
70077,7226,70077.0,19862.0,70077.0,27352.0,80.18867206479007,-22.822612521481048,15.605320962398338
70077,7210,70077.0,19870.0,70077.0,27348.0,77.18627615122051,-23.86015337459635,13.544190826850468
70077,7219,70077.0,19875.0,70077.0,27362.0,74.18050366747428,-24.878131064057385,11.504523205407878
70087,7218,70087.0,19902.0,70087.0,27368.0,71.17283397198216,-25.87630317765118,9.487463348222292
70087,7250,70087.0,19900.0,70087.0,27386.0,68.16430115028291,-26.854833423581226,7.493889108937253
70087,7220,70087.0,19909.0,70087.0,27347.0,65.15584145426553,-27.813863775807377,5.524730761421637
70087,7204,70087.0,19870.0,70087.0,27352.0,62.148537444629,-28.753275531835143,3.581034969072036
70087,7199,70087.0,19884.0,70087.0,27352.0,59.14349167172159,-29.67278903707762,1.6637627559450436
70087,7224,70087.0,19883.0,70087.0,27375.0,56.14158484658873,-30.57221792170847,-0.22631023803918993
70097,7204,70097.0,19905.0,70097.0,27338.0,53.143507019792764,-31.451521683909917,-2.0884495890965127
70097,7208,70097.0,19883.0,70097.0,27348.0,50.149954480927704,-32.310612103943456,-3.9218816402933783
70097,7187,70097.0,19866.0,70097.0,27326.0,47.161688796059394,-33.14924133412603,-5.725950835534647
70097,7190,70097.0,19868.0,70097.0,27313.0,44.17942962600705,-33.96719023009683,-7.5003873672363
70097,7173,70097.0,19859.0,70097.0,27333.0,41.20370069926037,-34.76457479574765,-9.245565757002566
70097,7185,70097.0,19883.0,70097.0,27333.0,38.234709865130554,-35.54199349729929,-10.962592478793468
70108,7187,70108.0,19885.0,70108.0,27350.0,35.27234415845885,-36.300422350798755,-12.65311333212722
70108,7206,70108.0,19871.0,70108.0,27349.0,32.316356768231344,-37.0409710934029,-14.31897814544483
70108,7175,70108.0,19860.0,70108.0,27341.0,29.366662937115535,-37.76478575369748,-15.961955014731473
70108,7167,70108.0,19866.0,70108.0,27330.0,26.423461474894395,-38.47319877256571,-17.583629611299173
70108,7174,70108.0,19858.0,70108.0,27347.0,23.48708272335,-39.16790807582905,-19.185469267167875
70108,7174,70108.0,19940.0,70108.0,27346.0,20.557852356439042,-39.8508895926134,-20.768827155668006
70118,7176,70118.0,19884.0,70118.0,27327.0,17.636169328398694,-40.52388734144333,-22.334827833347845
70118,7152,70118.0,19877.0,70118.0,27329.0,14.722629988856767,-41.18790803045363,-23.884354685968788
70118,7142,70118.0,19850.0,70118.0,27320.0,11.817967646049567,-41.84333532989098,-25.41819793090177
70118,7133,70118.0,19853.0,70118.0,27317.0,8.922793392146758,-42.490485697311755,-26.937207320733947
70118,7141,70118.0,19853.0,70118.0,27305.0,6.0373425633573845,-43.13005326372742,-28.442415118251958
70118,7138,70118.0,19878.0,70118.0,27333.0,3.1614089507022243,-43.763227227698096,-29.935125266903228
70128,7156,70128.0,19886.0,70128.0,27331.0,0.2944748478981296,-44.39147566254469,-31.416823016290664
70128,7132,70128.0,19867.0,70128.0,27315.0,-2.5640682933877486,-45.01618188311082,-32.88893127119934
70128,7132,70128.0,19867.0,70128.0,27311.0,-5.414790722828457,-45.638471289555596,-34.35271515286071
70128,7126,70128.0,19852.0,70128.0,27308.0,-8.25827579233902,-46.25932983203485,-35.809419724454415
70128,7148,70128.0,19875.0,70128.0,27323.0,-11.0951697478136,-46.87978942749726,-37.26039192333876
70128,7154,70128.0,19879.0,70128.0,27330.0,-13.926001215267462,-47.50092733150234,-38.70699238312888
70139,7124,70139.0,19885.0,70139.0,27312.0,-16.750863455517987,-48.12363693450915,-40.15037198165807
70139,7092,70139.0,19830.0,70139.0,27298.0,-19.569372212694248,-48.74845934172397,-41.59139234634989
70139,7107,70139.0,19868.0,70139.0,27287.0,-22.38105498114922,-49.375773195382095,-43.03084003626887
70139,7085,70139.0,19826.0,70139.0,27283.0,-25.185783147655826,-50.00615653887634,-44.46977247418866
70139,7098,70139.0,19865.0,70139.0,27327.0,-27.983951558286776,-50.64059286521497,-45.909692043162565
70139,7119,70139.0,19875.0,70139.0,27323.0,-30.77643182114079,-51.28042216713315,-47.352311538325
70149,7101,70149.0,19881.0,70149.0,27306.0,-33.56431957169366,-51.927010650163126,-48.79908901607027
70149,7102,70149.0,19862.0,70149.0,27299.0,-36.34865376430281,-52.58136167878388,-50.25102780089665
70149,7097,70149.0,19850.0,70149.0,27294.0,-39.13033259176888,-53.24403420858691,-51.70884076859619
70149,7097,70149.0,19853.0,70149.0,27299.0,-41.910136959476205,-53.9153686739691,-53.173159126470765
70149,7104,70149.0,19874.0,70149.0,27309.0,-44.68869756647456,-54.595680328096165,-54.64457115261389
70149,7097,70149.0,19866.0,70149.0,27291.0,-47.46638330974784,-55.28517717720982,-56.123519206119695
70159,7075,70159.0,19867.0,70159.0,27287.0,-50.243220274805736,-55.98374011295144,-57.61024926734511
70159,7061,70159.0,19844.0,70159.0,27278.0,-53.01901938961342,-56.69085462964607,-59.10493644166823
70159,7069,70159.0,19811.0,70159.0,27267.0,-55.79367631403309,-57.40584590998928,-60.607901422228124
70159,7070,70159.0,19831.0,70159.0,27263.0,-58.56736024935324,-58.12836467627389,-62.11983290800342
70159,7064,70159.0,19849.0,70159.0,27287.0,-61.34047227146212,-58.8587453893079,-63.64193299234958
70159,7081,70159.0,19876.0,70159.0,27303.0,-64.11350472534846,-59.59784825010841,-65.17579324663826
70170,7072,70170.0,19853.0,70170.0,27296.0,-66.88686440673513,-60.34654486934541,-66.722989320823
70170,7054,70170.0,19838.0,70170.0,27268.0,-69.66071618324114,-61.10539196171656,-68.28476030726912
70170,7047,70170.0,19841.0,70170.0,27278.0,-72.4350210846105,-61.87474195858927,-69.86206828375786
70170,7048,70170.0,19841.0,70170.0,27281.0,-75.20974254968297,-62.65500315372424,-71.45582145927224
70170,7051,70170.0,19862.0,70170.0,27286.0,-77.98497596164535,-63.44669926646503,-73.06690471709662
70170,7041,70170.0,19858.0,70170.0,27288.0,-80.76092052424224,-64.25028388736025,-74.69601954994663
70180,7026,70180.0,19826.0,70180.0,27272.0,-83.53785537431804,-65.06594656615037,-76.34353977989137
70180,7031,70180.0,19819.0,70180.0,27260.0,-86.31624134853007,-65.89373432366267,-78.00953886874674
70180,7020,70180.0,19839.0,70180.0,27258.0,-89.09685530492257,-66.73391572689565,-79.69400297339392
70180,7035,70180.0,19840.0,70180.0,27256.0,-91.88082544326616,-67.5871382582724,-81.39706582114354
70180,7044,70180.0,19866.0,70180.0,27283.0,-94.66951093644391,-68.45421504846814,-83.11906707990644
70180,7038,70180.0,19839.0,70180.0,27267.0,-97.46423393481746,-69.33577772920233,-84.86037350774143
70190,7022,70190.0,19840.0,70190.0,27261.0,-100.26604806261673,-70.23209691766807,-86.62115512645349
70190,7023,70190.0,19820.0,70190.0,27264.0,-103.07573157338211,-71.14319780890048,-88.40134913792821
70190,7018,70190.0,19818.0,70190.0,27247.0,-105.89391001808173,-72.0691474202628,-90.20075896281332
70190,7032,70190.0,19862.0,70190.0,27288.0,-108.72109388787143,-73.01023825935059,-92.0190941275672
70190,7014,70190.0,19863.0,70190.0,27262.0,-111.55758264341478,-73.96678104502925,-93.85582553688454
70190,6983,70190.0,19816.0,70190.0,27246.0,-114.40343748781936,-74.93868051445433,-95.71000185081519
70201,7003,70201.0,19832.0,70201.0,27229.0,-117.25870298515798,-75.92538523486006,-97.58037101723019
70201,6982,70201.0,19824.0,70201.0,27204.0,-120.12367717408799,-76.92621344830002,-99.46582925016992
70201,6992,70201.0,19801.0,70201.0,27254.0,-122.99900149390331,-77.94061379511201,-101.3658494112785
70201,6999,70201.0,19823.0,70201.0,27263.0,-125.8856170587618,-78.96833462646491,-103.28046991747453
70201,6998,70201.0,19853.0,70201.0,27258.0,-128.78461356980915,-80.00946144749237,-105.20979967163407
70201,6985,70201.0,19823.0,70201.0,27237.0,-131.69703559732602,-81.06413429477693,-107.15357530527072
70211,6980,70211.0,19829.0,70211.0,27237.0,-134.623828335664,-82.13224658234073,-109.11115524145774
70211,6982,70211.0,19824.0,70211.0,27226.0,-137.56592077597782,-83.21344718575787,-111.08175631201681
70211,7001,70211.0,19853.0,70211.0,27244.0,-140.52423377755352,-84.30719482927559,-113.06462332016366
70211,6987,70211.0,19836.0,70211.0,27223.0,-143.4994915869509,-85.41259361063021,-115.05903848187165
70211,6977,70211.0,19828.0,70211.0,27242.0,-146.49201284198912,-86.52818574650996,-117.06425981400372
70211,6959,70211.0,19793.0,70211.0,27221.0,-149.50173400501382,-87.65203143516872,-119.07947753734035
70222,6948,70222.0,19790.0,70222.0,27214.0,-152.528467240063,-88.78213659380268,-121.10383708902094
70222,6944,70222.0,19811.0,70222.0,27215.0,-155.5722186949016,-89.9169209240822,-123.1365732925365
70222,6944,70222.0,19795.0,70222.0,27231.0,-158.63341338899903,-91.05537828646693,-125.17712214727305
70222,6976,70222.0,19816.0,70222.0,27232.0,-161.71289718814762,-92.19696585904872,-127.22501193856138
70222,6954,70222.0,19820.0,70222.0,27207.0,-164.81166930835212,-93.34141841495858,-129.2796530875122
70222,6948,70222.0,19808.0,70222.0,27200.0,-167.9305841244445,-94.48853428466187,-131.34034650538973
70232,6945,70232.0,19793.0,70232.0,27218.0,-171.07030557592847,-95.63807872233434,-133.40650237744734
70232,6941,70232.0,19815.0,70232.0,27218.0,-174.23141700690076,-96.78989372779822,-135.47771524815687
70232,6957,70232.0,19816.0,70232.0,27220.0,-177.4144415502094,-97.94395124896401,-137.55358412278653
70232,6964,70232.0,19830.0,70232.0,27220.0,-180.6196738767016,-99.10015751769477,-139.63350020967366
70232,6934,70232.0,19777.0,70232.0,27183.0,-183.84691841088596,-100.25814934425284,-141.71659659580317
70232,6910,70232.0,19796.0,70232.0,27166.0,-187.0954638728928,-101.4174243831783,-143.80200153644265
70242,6902,70242.0,19788.0,70242.0,27191.0,-190.36445807491089,-102.57769407683656,-145.88930634053824
70242,6921,70242.0,19756.0,70242.0,27185.0,-193.65334300841724,-103.73914561380178,-147.9788168245741
70242,6920,70242.0,19829.0,70242.0,27218.0,-196.96194347985585,-104.90256636234699,-150.07137990342352
70242,6910,70242.0,19794.0,70242.0,27210.0,-200.29026597656608,-106.06920125448747,-152.1679735162853
70242,6893,70242.0,19820.0,70242.0,27189.0,-203.63837608735113,-107.24033500302592,-154.2693472335266
70242,6903,70242.0,19783.0,70242.0,27174.0,-207.0064941164416,-108.41701802496681,-156.37600088531843
70253,6910,70253.0,19794.0,70253.0,27183.0,-210.39507616273872,-109.6001262628732,-158.48847690439243
70253,6907,70253.0,19829.0,70253.0,27198.0,-213.80468638181594,-110.79047357468384,-160.60756162213252
70253,6913,70253.0,19799.0,70253.0,27190.0,-217.23576362824738,-111.9886650120507,-162.73417086684972
70253,6897,70253.0,19809.0,70253.0,27186.0,-220.68845043258435,-113.19484274133846,-164.86913435392756
70253,6875,70253.0,19791.0,70253.0,27176.0,-224.16258953548365,-114.40866255065481,-167.01314192383404
70253,6867,70253.0,19743.0,70253.0,27153.0,-227.65795475804504,-115.62954950803366,-169.16689005311804
70263,6868,70263.0,19772.0,70263.0,27174.0,-231.17458264666635,-116.85718825668597,-171.3313314765901
70263,6877,70263.0,19773.0,70263.0,27170.0,-234.71293776689387,-118.09195654508412,-173.5078174297489
70263,6871,70263.0,19816.0,70263.0,27163.0,-238.2738327193468,-119.33486487564687,-175.69803129372008
70263,6890,70263.0,19761.0,70263.0,27213.0,-241.85822024009514,-120.58713177806682,-177.90380466746677
70263,6876,70263.0,19788.0,70263.0,27156.0,-245.4669484305253,-121.84994715290476,-180.12683807713697
70263,6858,70263.0,19783.0,70263.0,27166.0,-249.1005924185197,-123.12454304864303,-182.36853470984715
70273,6863,70273.0,19806.0,70273.0,27167.0,-252.7595000393341,-124.41217923447485,-184.63015353796354
70273,6879,70273.0,19824.0,70273.0,27182.0,-256.4438936692633,-125.71383508808411,-186.91294382817696
70273,6854,70273.0,19794.0,70273.0,27177.0,-260.1537853560552,-127.02979192000498,-189.2179898168206
70273,6846,70273.0,19765.0,70273.0,27166.0,-263.88887725631156,-128.359500332052,-191.54599621629345
70273,6853,70273.0,19767.0,70273.0,27144.0,-267.64865582378343,-129.70194306839392,-193.89729176898257
70273,6834,70273.0,19771.0,70273.0,27140.0,-271.43251988537656,-131.05612910490598,-196.27209130045577
70284,6826,70284.0,19739.0,70284.0,27123.0,-275.2398596488193,-132.42135675922464,-198.67086043252297
70284,6827,70284.0,19757.0,70284.0,27148.0,-279.07018784654946,-133.79738953252865,-201.09458259724846
70284,6830,70284.0,19782.0,70284.0,27165.0,-282.92324006282956,-135.18457101144756,-203.54473608132145
70284,6823,70284.0,19783.0,70284.0,27142.0,-286.7989329557521,-136.5836117073148,-206.0229749987823
70284,6824,70284.0,19751.0,70284.0,27143.0,-290.6972674037745,-137.9952198402654,-208.53086829802817
70284,6816,70284.0,19766.0,70284.0,27141.0,-294.6182716963025,-139.42003745569346,-211.06991531430526
70294,6817,70294.0,19772.0,70294.0,27159.0,-298.56197869921596,-140.85879483232495,-213.64159294909464
70294,6815,70294.0,19737.0,70294.0,27127.0,-302.52840056930336,-142.3123654374494,-216.24726443649524
70294,6797,70294.0,19812.0,70294.0,27171.0,-306.5175070891444,-143.78172545236004,-218.88807107306084
70294,6787,70294.0,19762.0,70294.0,27129.0,-310.529298690187,-145.26775105867216,-221.56483317727017
70294,6776,70294.0,19747.0,70294.0,27136.0,-314.56401666264003,-146.77097083195994,-224.27798857573345
70294,6780,70294.0,19736.0,70294.0,27108.0,-318.62236912767577,-148.29173664692576,-227.02773453466241
70304,6793,70304.0,19776.0,70304.0,27129.0,-322.7055966993199,-149.8306228461912,-229.81430026735535
70304,6798,70304.0,19781.0,70304.0,27135.0,-326.81529079383427,-151.38840404637432,-232.6380545466501
70304,6811,70304.0,19757.0,70304.0,27155.0,-330.95303133262746,-152.96565203759354,-235.4992946121836
70304,6784,70304.0,19759.0,70304.0,27116.0,-335.12003402211315,-154.56251839489641,-238.39789647406457
70304,6764,70304.0,19748.0,70304.0,27104.0,-339.3170560816075,-156.17886468314808,-241.33323944480287
70304,6764,70304.0,19754.0,70304.0,27115.0,-343.5446413305026,-157.81445288270424,-244.30449799560762
70315,6774,70315.0,19758.0,70315.0,27122.0,-347.8034050991333,-159.46900783310247,-247.31087597509443
70315,6780,70315.0,19774.0,70315.0,27123.0,-352.094027054694,-161.1421172986171,-250.35150596643444
70315,6761,70315.0,19743.0,70315.0,27113.0,-356.41702882407037,-162.8330425198372,-253.42522629954135
70315,6754,70315.0,19735.0,70315.0,27083.0,-360.7726561411995,-164.54069830176226,-256.53054537703576
70315,6734,70315.0,19730.0,70315.0,27075.0,-365.16100514039914,-166.2639180140634,-259.6659127510569
70315,6745,70315.0,19719.0,70315.0,27085.0,-369.5822551747174,-168.00178295069958,-262.83011890921216
70325,6741,70325.0,19735.0,70325.0,27091.0,-374.0367916170268,-169.75381775874843,-266.0224737131816
70325,6743,70325.0,19748.0,70325.0,27114.0,-378.52514173618164,-171.5199750623066,-269.2426259146629
70325,6740,70325.0,19739.0,70325.0,27089.0,-383.0478288701806,-173.30040322621628,-272.4901998364936
70325,6716,70325.0,19710.0,70325.0,27086.0,-387.605294636486,-175.09526237016183,-275.7645649341983
70325,6723,70325.0,19724.0,70325.0,27061.0,-392.1979701127191,-176.90485171283245,-279.06492443487645
70325,6736,70325.0,19761.0,70325.0,27094.0,-396.8263664560324,-178.72976896805818,-282.390551057869
70335,6732,70335.0,19754.0,70335.0,27069.0,-401.4909542442971,-180.57065656587875,-285.74085616550616
70335,6726,70335.0,19760.0,70335.0,27081.0,-406.19190235486616,-182.42769050869686,-289.1152822480093
70335,6702,70335.0,19704.0,70335.0,27063.0,-410.9289637364631,-184.30035015506604,-292.5132352999443
70335,6678,70335.0,19700.0,70335.0,27050.0,-415.7016558016052,-186.18773605814658,-295.93415222155124
70335,6672,70335.0,19714.0,70335.0,27053.0,-420.5096727105118,-188.0891667179265,-299.37767695524144
70335,6677,70335.0,19707.0,70335.0,27072.0,-425.3532786168787,-190.00451596184195,-302.84378145279004
70346,6705,70346.0,19747.0,70346.0,27071.0,-430.23338237159203,-191.9341108606971,-306.3326230416176
70346,6689,70346.0,19708.0,70346.0,27075.0,-435.1512349878235,-193.8784127931171,-309.844219141592
70346,6692,70346.0,19718.0,70346.0,27045.0,-440.10803923313557,-195.8378013982563,-313.37823074603443
70346,6658,70346.0,19717.0,70346.0,27039.0,-445.1048052260122,-197.81260508824892,-316.9340408505935
70346,6665,70346.0,19700.0,70346.0,27042.0,-450.1425005696229,-199.80320204544927,-320.5110327258951
70346,6676,70346.0,19738.0,70346.0,27066.0,-455.2222440489951,-201.81003586709363,-324.10872604354444
70356,6674,70356.0,19747.0,70356.0,27057.0,-460.34525549174197,-203.83342846998426,-327.72657457425373
70356,6665,70356.0,19715.0,70356.0,27026.0,-465.5126184211088,-205.87319429136775,-331.3636986768041
70356,6649,70356.0,19680.0,70356.0,27031.0,-470.72515497420636,-207.92853135200704,-335.0189350799202
70356,6647,70356.0,19679.0,70356.0,27013.0,-475.98351019056594,-209.99848869726475,-338.691133155173
70356,6639,70356.0,19694.0,70356.0,27012.0,-481.28830196049535,-212.08255287771038,-342.3794103478606
70356,6643,70356.0,19709.0,70356.0,27031.0,-486.64019495107374,-214.18079899562684,-346.0832615664808
70366,6655,70366.0,19699.0,70366.0,27042.0,-492.03983373041666,-216.29362859241618,-349.8024294672124
70366,6646,70366.0,19715.0,70366.0,27023.0,-497.48762697532493,-218.4214586451339,-353.53656600738526
70366,6624,70366.0,19676.0,70366.0,27004.0,-502.9835446414587,-220.5645822478031,-357.28503740607226
70366,6620,70366.0,19680.0,70366.0,27020.0,-508.52714867008615,-222.72327381947082,-361.0470465647099
70366,6625,70366.0,19726.0,70366.0,27003.0,-514.1177702128625,-224.89796883664735,-364.8217977424241
70366,6616,70366.0,19720.0,70366.0,27027.0,-519.7545703047693,-227.08907893455674,-368.60848090189234
70377,6604,70377.0,19756.0,70377.0,26981.0,-525.4364900772075,-229.29639582078244,-372.40618300781534
70377,6591,70377.0,19653.0,70377.0,27016.0,-531.1622868386319,-231.5186405159589,-376.2139003440825
70377,6581,70377.0,19687.0,70377.0,26971.0,-536.9307026017361,-233.7536861219047,-380.03064176023827
70377,6572,70377.0,19665.0,70377.0,27012.0,-542.7406699807966,-235.9992376185637,-383.85550550322665
70377,6580,70377.0,19673.0,70377.0,26988.0,-548.5914522877998,-238.25328068838476,-387.6876487168221
70377,6600,70377.0,19695.0,70377.0,27008.0,-554.4825863190166,-240.51411143057726,-391.52613344872896
70387,6589,70387.0,19710.0,70387.0,27001.0,-560.4135691694503,-242.78007857040927,-395.3697260955107
70387,6566,70387.0,19678.0,70387.0,26982.0,-566.3835339633607,-245.04917785837273,-399.21675757503954
70387,6562,70387.0,19666.0,70387.0,26973.0,-572.3912281963969,-247.31889738843495,-403.06516366695007
70387,6570,70387.0,19689.0,70387.0,26976.0,-578.4351854377519,-249.5864292536786,-406.9126954556293
70387,6564,70387.0,19671.0,70387.0,26994.0,-584.5137565190088,-251.8488327578809,-410.75703281001245
70387,6562,70387.0,19695.0,70387.0,26985.0,-590.6249699010139,-254.10295297171155,-414.5956289561352
70397,6554,70397.0,19650.0,70397.0,26993.0,-596.7664054313329,-256.3453132898559,-418.4254400211057
70397,6539,70397.0,19661.0,70397.0,26959.0,-602.9351706009566,-258.5722047000301,-422.2427845031433
70397,6537,70397.0,19651.0,70397.0,26952.0,-609.1279753314282,-260.77994556652766,-426.0434703799044
70397,6527,70397.0,19639.0,70397.0,26958.0,-615.3412426498397,-262.96510967362934,-429.8231049763326
70397,6534,70397.0,19671.0,70397.0,26959.0,-621.5711602421375,-265.12462348252797,-433.57728821419795
70397,6502,70397.0,19671.0,70397.0,26967.0,-627.8136790705789,-267.25565378642807,-437.30154165168483
70408,6520,70408.0,19674.0,70408.0,26942.0,-634.064558339963,-269.355273722574,-440.9911495183426
70408,6504,70408.0,19653.0,70408.0,26961.0,-640.3194265871408,-271.42019055644744,-444.6411081916711
70408,6511,70408.0,19637.0,70408.0,26948.0,-646.5737457023986,-273.4467923472423,-448.2461397469956
70408,6521,70408.0,19664.0,70408.0,26944.0,-652.8226699296312,-275.43140027277883,-451.8006665328538
70408,6505,70408.0,19677.0,70408.0,26960.0,-659.0608283259621,-277.37033008036815,-455.2987732509289
70408,6500,70408.0,19654.0,70408.0,26950.0,-665.2821421444683,-279.2596271933337,-458.7341223181136
70418,6474,70418.0,19628.0,70418.0,26936.0,-671.4798412363518,-281.0949127161269,-462.0998388927257
70418,6470,70418.0,19631.0,70418.0,26921.0,-677.6466776449154,-282.87166021338146,-465.3885681415841
70418,6462,70418.0,19632.0,70418.0,26914.0,-683.7751888761957,-284.585599844205,-468.592745443021
70418,6469,70418.0,19631.0,70418.0,26923.0,-689.8578451324306,-286.2328897720504,-471.70486929391177
70418,6468,70418.0,19676.0,70418.0,26920.0,-695.8870058699783,-287.81000844004285,-474.7175909797087
70418,6457,70418.0,19660.0,70418.0,26938.0,-701.8547688973784,-289.31338200326013,-477.62360505865445
70428,6466,70428.0,19663.0,70428.0,26913.0,-707.7528458271471,-290.7389311945958,-480.4154602976606
70428,6443,70428.0,19628.0,70428.0,26923.0,-713.5724985414065,-292.08191617920266,-483.0854612897176
70428,6442,70428.0,19635.0,70428.0,26927.0,-719.3045470585475,-293.33717666930886,-485.6256792083126
70428,6457,70428.0,19662.0,70428.0,26929.0,-724.9394167036728,-294.4994254426124,-488.0278999321979
70428,6454,70428.0,19670.0,70428.0,26921.0,-730.4670467925973,-295.5631805668855,-490.2834895602737
70428,6429,70428.0,19622.0,70428.0,26895.0,-735.8766854244834,-296.5224619719863,-492.3833840015503
70439,6422,70439.0,19621.0,70439.0,26909.0,-741.156874266803,-297.37083335407937,-494.31829803315037
70439,6422,70439.0,19601.0,70439.0,26904.0,-746.2956580830424,-298.10189888427755,-496.0789578163045
70439,6404,70439.0,19621.0,70439.0,26888.0,-751.2807745017085,-298.70979756455966,-497.65619527002224
70439,6395,70439.0,19628.0,70439.0,26912.0,-756.0997900067016,-299.1893675894562,-499.04099971431475
70439,6415,70439.0,19652.0,70439.0,26907.0,-760.7402351591663,-299.5359586392148,-500.224516959492
70439,6401,70439.0,19672.0,70439.0,26914.0,-765.1896018383138,-299.7449914354182,-501.1979070893413
70449,6402,70449.0,19635.0,70449.0,26902.0,-769.4352029039032,-299.81148732344815,-501.9522008617127
70449,6394,70449.0,19625.0,70449.0,26899.0,-773.4640950331386,-299.72994646949724,-502.478306791718
70449,6414,70449.0,19690.0,70449.0,26934.0,-777.2630590717313,-299.49455055008923,-502.76706802164006
70449,6425,70449.0,19647.0,70449.0,26929.0,-780.8184359469906,-299.09912347137873,-502.8091203543854
70449,6383,70449.0,19642.0,70449.0,26916.0,-784.1158529753194,-298.53688066193644,-502.59460234074004
70449,6379,70449.0,19630.0,70449.0,26893.0,-787.14021134722,-297.80053985036096,-502.11311842037105
70460,6354,70460.0,19614.0,70460.0,26867.0,-789.8760769132768,-296.8827631893706,-501.3541416160685
70460,6364,70460.0,19613.0,70460.0,26887.0,-792.308165125706,-295.77660311415053,-500.307623384227
70460,6349,70460.0,19613.0,70460.0,26887.0,-794.4216575445078,-294.47585907425105,-498.9644143054005
70460,6376,70460.0,19592.0,70460.0,26883.0,-796.2023139698942,-292.9753392863046,-497.3163502256641
70460,6379,70460.0,19642.0,70460.0,26921.0,-797.6363665115562,-291.2710297268815,-495.35617210973726
70460,6362,70460.0,19646.0,70460.0,26903.0,-798.7102810515853,-289.3600045864388,-493.07734665229384
70470,6355,70470.0,19608.0,70470.0,26889.0,-799.4106739149886,-287.2401066466438,-490.4739052590661
70470,6363,70470.0,19625.0,70470.0,26895.0,-799.7244813235172,-284.9098894401235,-487.54056873918853
70470,6370,70470.0,19661.0,70470.0,26940.0,-799.6391108855058,-282.36882126238265,-484.2729615995181
70470,6369,70470.0,19669.0,70470.0,26901.0,-799.1424075732015,-279.6171642046901,-480.66752957961694
70470,6375,70470.0,19650.0,70470.0,26917.0,-798.2225539926148,-276.6555504868201,-476.7213932948505
70470,6355,70470.0,19645.0,70470.0,26914.0,-796.868055093342,-273.4848308188091,-472.4324699909299
70480,6347,70480.0,19635.0,70480.0,26879.0,-795.0679048371744,-270.1063425031759,-467.7997582671116
70480,6348,70480.0,19666.0,70480.0,26927.0,-792.8119270983317,-266.52224714397533,-462.8236805968209
70480,6361,70480.0,19694.0,70480.0,26948.0,-790.0910847265118,-262.7355513856219,-457.5062509450749
70480,6394,70480.0,19714.0,70480.0,26915.0,-786.8975122272143,-258.7496891879935,-451.8508711656166
70480,6363,70480.0,19618.0,70480.0,26973.0,-783.2242885390516,-254.56812492675778,-445.86211228597045
70480,6377,70480.0,19666.0,70480.0,26964.0,-779.0652941939513,-250.19464908275535,-439.5456121129433
70491,6379,70491.0,19702.0,70491.0,26957.0,-774.4153352178652,-245.63401832531963,-432.9079089009743
70491,6392,70491.0,19710.0,70491.0,27006.0,-769.2702890979444,-240.89196240677248,-425.9563424425193
70491,6413,70491.0,19739.0,70491.0,26970.0,-763.6270726331752,-235.97459616320788,-418.6990183212699
70491,6399,70491.0,19677.0,70491.0,26988.0,-757.4835046536288,-230.88799735693354,-411.1448006864785
70491,6399,70491.0,19711.0,70491.0,26983.0,-750.8382782206999,-225.63832860078767,-403.3034992279626
70491,6400,70491.0,19691.0,70491.0,27027.0,-743.6911718941191,-220.23228865193778,-395.18607197409773
70501,6412,70501.0,19716.0,70501.0,27028.0,-736.0433442771889,-214.67744360506077,-386.80454205832586
70501,6441,70501.0,19720.0,70501.0,27036.0,-727.8974669721881,-208.98230419697154,-378.17173940255344
70501,6447,70501.0,19765.0,70501.0,27086.0,-719.2576129320352,-203.1561914732622,-369.30108144311
70501,6474,70501.0,19769.0,70501.0,27083.0,-710.1290073773629,-197.2088581629743,-360.20629332401006
70501,6457,70501.0,19752.0,70501.0,27059.0,-700.517833400493,-191.15006985854853,-350.90112783687607
70501,6477,70501.0,19755.0,70501.0,27088.0,-690.4312317232958,-184.9895281708046,-341.3994448849489
70511,6482,70511.0,19742.0,70511.0,27116.0,-679.8774579795063,-178.73717196936138,-331.7154699130297
70511,6510,70511.0,19816.0,70511.0,27110.0,-668.8659949148406,-172.40344557664434,-321.8637694442341
70511,6520,70511.0,19831.0,70511.0,27141.0,-657.407501858357,-165.99906004140956,-311.85905861238007
70511,6518,70511.0,19768.0,70511.0,27117.0,-645.5137165072642,-159.53442524216666,-301.7161397276211
70511,6544,70511.0,19800.0,70511.0,27142.0,-633.1974746225901,-153.0195680341021,-291.4500199668489
70511,6533,70511.0,19819.0,70511.0,27174.0,-620.4728371341167,-146.46455836323156,-281.07605997515145
70522,6564,70522.0,19794.0,70522.0,27180.0,-607.355239238561,-139.8797286476859,-270.60989790155094
70522,6594,70522.0,19844.0,70522.0,27202.0,-593.8615618690715,-133.27564562121813,-260.06718479746746
70522,6630,70522.0,19874.0,70522.0,27190.0,-580.009944922668,-126.66296382054048,-249.46342228700672
70522,6618,70522.0,19850.0,70522.0,27222.0,-565.8194084813739,-120.05202276360382,-238.8139910458781
70522,6650,70522.0,19850.0,70522.0,27228.0,-551.3096355910361,-113.4525578168849,-228.13421375930682
70522,6656,70522.0,19865.0,70522.0,27255.0,-536.5009989543439,-106.87385226001712,-217.4392962327307
70532,6691,70532.0,19863.0,70532.0,27252.0,-521.4145921003812,-100.32498822315316,-206.74418865564442
70532,6710,70532.0,19903.0,70532.0,27284.0,-506.0721247320074,-93.81488251688458,-196.06348592500711
70532,6731,70532.0,19916.0,70532.0,27310.0,-490.4957220408221,-87.35207265596156,-185.41130380872357
70532,6744,70532.0,19912.0,70532.0,27314.0,-474.70774466175465,-80.9443519515919,-174.80102322032843
70532,6739,70532.0,19878.0,70532.0,27296.0,-458.7307641388476,-74.5986237382451,-164.24510654374302
70532,6762,70532.0,19919.0,70532.0,27298.0,-442.5877478154933,-68.32118494876477,-153.7552952023952
70542,6796,70542.0,19898.0,70542.0,27320.0,-426.3022803973562,-62.11808263660703,-143.34306057036065
70542,6857,70542.0,19931.0,70542.0,27325.0,-409.8984693132354,-55.99522753641918,-133.01990511910662
70542,6854,70542.0,19932.0,70542.0,27363.0,-393.40044204187046,-49.958339341114026,-122.79737176197773
70542,6869,70542.0,19945.0,70542.0,27377.0,-376.83185555938616,-44.01281861755575,-112.68683589875502
70542,6875,70542.0,19940.0,70542.0,27368.0,-360.2158178240747,-38.16363219570388,-102.69923156542268
70542,6905,70542.0,19927.0,70542.0,27397.0,-343.5750808950616,-32.415361610926425,-92.84494202530135
70553,6940,70553.0,19982.0,70553.0,27420.0,-326.9321244739935,-26.7723618201598,-83.13379778330079
70553,6944,70553.0,19973.0,70553.0,27429.0,-310.30900770625044,-21.238714342021524,-73.57492062725925
70553,6948,70553.0,19969.0,70553.0,27413.0,-293.72723540469667,-15.817960513319917,-64.17653884797261
70553,6971,70553.0,19965.0,70553.0,27436.0,-277.20787273014827,-10.513033639372338,-54.94606273289702
70553,7003,70553.0,19955.0,70553.0,27428.0,-260.77172751747406,-5.326519440191987,-45.890331020730855
70553,7017,70553.0,19990.0,70553.0,27475.0,-244.4393263590046,-0.26095934989723446,-37.0157487996716
70563,7047,70563.0,19997.0,70563.0,27460.0,-228.2307384085342,4.681094833957275,-28.32821139088327
70563,7069,70563.0,20008.0,70563.0,27480.0,-212.1653899236838,9.497309438595494,-19.83295769174913
70563,7092,70563.0,20028.0,70563.0,27496.0,-196.26187092013254,14.185864085834908,-11.534512660718292
70563,7098,70563.0,19998.0,70563.0,27490.0,-180.53776771139633,18.745635529639003,-3.4366661565498475
70563,7111,70563.0,20004.0,70563.0,27506.0,-165.00963405891207,23.176138678152483,4.457530229773226
70563,7154,70563.0,20050.0,70563.0,27520.0,-149.69305381486447,27.477317929139303,12.145718119833703
70573,7182,70573.0,20021.0,70573.0,27517.0,-134.60253548331275,31.649565248075874,19.626224166450243
70573,7178,70573.0,20030.0,70573.0,27558.0,-119.75119974291772,35.69388809107022,26.89811918069705
70573,7191,70573.0,20017.0,70573.0,27532.0,-105.15060956381183,39.611830512658,33.96132640916818
70573,7196,70573.0,20012.0,70573.0,27530.0,-90.81092057893716,43.405171712898834,40.8166353092455
70573,7213,70573.0,19989.0,70573.0,27532.0,-76.74114693556794,47.075545662966476,47.465432622418916
70573,7230,70573.0,20038.0,70573.0,27547.0,-62.94934599119074,50.62406068350634,53.90933690730952
70584,7251,70584.0,20063.0,70584.0,27583.0,-49.44267096285205,54.05125891251521,60.15009469118655
70584,7277,70584.0,20085.0,70584.0,27568.0,-36.2272912647594,57.35762407032283,66.1897887839877
70584,7278,70584.0,20057.0,70584.0,27587.0,-23.30824101146004,60.54422263795169,72.03107740235532
70584,7282,70584.0,20039.0,70584.0,27579.0,-10.689361429497012,63.612879408064316,77.67723737988598
70584,7297,70584.0,20062.0,70584.0,27607.0,1.6265577554290758,66.56584082721957,83.13211054039192
70584,7326,70584.0,20084.0,70584.0,27616.0,13.63760807698202,69.40548259556164,88.4001534778044
70594,7337,70594.0,20101.0,70594.0,27617.0,25.342785936326322,72.13448036374515,93.48661085677713
70594,7348,70594.0,20084.0,70594.0,27611.0,36.7421453662289,74.75621477039834,98.3976218608708
70594,7344,70594.0,20057.0,70594.0,27603.0,47.836847258741045,77.27489873119333,103.14009367534425
70594,7354,70594.0,20037.0,70594.0,27600.0,58.62900791960692,79.69518604861298,107.72138633148478
70594,7373,70594.0,20066.0,70594.0,27601.0,69.12147036362148,82.02153238993932,112.1489544026739
70594,7385,70594.0,20084.0,70594.0,27632.0,79.31769256509108,84.25786906020525,116.43011733664076
70604,7404,70604.0,20124.0,70604.0,27630.0,89.2217950743485,86.40786667971054,120.57209580027757
70604,7424,70604.0,20127.0,70604.0,27654.0,98.8386930140365,88.47558221819205,124.58224499559606
70604,7421,70604.0,20068.0,70604.0,27638.0,108.17424554081458,90.46596107098333,128.46827222261942
70604,7429,70604.0,20068.0,70604.0,27641.0,117.23530523956072,92.38466585234656,132.23828262442765
70604,7432,70604.0,20103.0,70604.0,27643.0,126.02959845709017,94.23744828621403,135.90063870036988
70604,7449,70604.0,20119.0,70604.0,27663.0,134.56555170992897,96.0299079067488,139.4638114152183
70615,7464,70615.0,20093.0,70615.0,27670.0,142.85221772367743,97.76779118892935,142.93641488986998
70615,7452,70615.0,20082.0,70615.0,27647.0,150.89929071717688,99.4571550075436,146.32732726313463
70615,7464,70615.0,20086.0,70615.0,27647.0,158.71703862676213,101.10409068156866,149.6456040087674
70615,7469,70615.0,20076.0,70615.0,27659.0,166.3161074397035,102.71434637195256,152.9001712816406
70615,7472,70615.0,20100.0,70615.0,27649.0,173.70734099387164,104.29312489032972,156.09958434908174
70615,7488,70615.0,20105.0,70615.0,27662.0,180.90167256888992,105.84510125849917,159.25192772498383
70625,7498,70625.0,20135.0,70625.0,27666.0,187.9100838753933,107.37466794599592,162.36476161940288
70625,7502,70625.0,20108.0,70625.0,27677.0,194.74363716350024,108.88628418567586,165.44513670550464
70625,7507,70625.0,20103.0,70625.0,27683.0,201.41349510223097,110.38462768898484,168.4996891030786
70625,7522,70625.0,20087.0,70625.0,27687.0,207.93087950579047,111.8743745766447,171.53475059243306
70625,7541,70625.0,20101.0,70625.0,27688.0,214.30707580559817,113.35980772485209,174.55641515656157
70625,7537,70625.0,20142.0,70625.0,27684.0,220.55354564272602,114.84465205259579,177.57052117350844
70635,7528,70635.0,20126.0,70635.0,27703.0,226.68197924946958,116.33233291449639,180.5825773957623
70635,7525,70635.0,20100.0,70635.0,27686.0,232.70409702325594,117.82630130386244,183.5977134790516
70635,7544,70635.0,20096.0,70635.0,27695.0,238.63130920087497,119.32990970656934,186.62062452931406
70635,7548,70635.0,20106.0,70635.0,27693.0,244.4745125333493,120.84596599055743,189.65544272256597
70635,7561,70635.0,20121.0,70635.0,27717.0,250.2440924044887,122.37648127513884,192.70564310593767
70635,7583,70635.0,20142.0,70635.0,27723.0,255.95002683464395,123.92279787517052,195.7741271325358
70646,7571,70646.0,20137.0,70646.0,27713.0,261.6020293001394,125.48593131040764,198.8634069175214
70646,7567,70646.0,20114.0,70646.0,27708.0,267.2095863633102,127.06680658701657,201.97563918121887
70646,7573,70646.0,20112.0,70646.0,27725.0,272.78176028421876,128.66613372919727,205.1124561831091
70646,7596,70646.0,20173.0,70646.0,27731.0,278.3269485650976,130.28416335472411,208.27484654433914
70646,7600,70646.0,20182.0,70646.0,27753.0,283.85286119892066,131.9209030794421,211.4632538773323
70646,7613,70646.0,20150.0,70646.0,27742.0,289.36666678485415,133.5767279579793,214.677792005524
70656,7607,70656.0,20135.0,70656.0,27766.0,294.8751008440347,135.25261392076897,217.9184128373434
70656,7594,70656.0,20125.0,70656.0,27728.0,300.38439646940753,136.94972706373113,221.18493784709165
70656,7616,70656.0,20119.0,70656.0,27749.0,305.9000330484307,138.66883017112588,224.47689650189557
70656,7616,70656.0,20134.0,70656.0,27755.0,311.42650321061694,140.40987880596072,227.79327485393424
70656,7631,70656.0,20154.0,70656.0,27777.0,316.96726174936805,142.1719202783387,231.13245966131797
70656,7649,70656.0,20182.0,70656.0,27780.0,322.5248037602871,143.9533460884274,234.49244283162614
70667,7655,70667.0,20172.0,70667.0,27765.0,328.1008172459274,145.75237037861916,237.8710272050352
70667,7654,70667.0,20146.0,70667.0,27772.0,333.69633725347785,147.5673479130412,241.2657989908833
70667,7669,70667.0,20151.0,70667.0,27767.0,339.3117841164948,149.39663820113338,244.673913476265
70667,7685,70667.0,20174.0,70667.0,27786.0,344.9469565992414,151.23827080844075,248.09191467387382
70667,7690,70667.0,20170.0,70667.0,27796.0,350.6011236160524,153.08987129496728,251.51572661768034
70667,7692,70667.0,20190.0,70667.0,27789.0,356.2731477515932,154.9488539181695,254.94077594623548
70677,7692,70677.0,20139.0,70677.0,27788.0,361.96148680523083,156.8125452407512,258.3620496062123
70677,7693,70677.0,20140.0,70677.0,27807.0,367.6640572096627,158.67794731262705,261.7740109243688
70677,7710,70677.0,20163.0,70677.0,27808.0,373.378066635191,160.54124372753472,265.1705583703757
70677,7713,70677.0,20204.0,70677.0,27832.0,379.0999372749702,162.39762541568302,268.54514254328694
70677,7723,70677.0,20229.0,70677.0,27860.0,384.825328000636,164.24177425838508,271.8910334843064
70677,7726,70677.0,20200.0,70677.0,27850.0,390.5491603926257,166.06861005144316,275.2017182882592
70687,7746,70687.0,20198.0,70687.0,27827.0,396.265626527531,167.8736513696066,278.4711641217902
70687,7743,70687.0,20182.0,70687.0,27846.0,401.9682313059225,169.6528184770097,281.69367972786205
70687,7764,70687.0,20214.0,70687.0,27861.0,407.6498614160962,171.40207912608497,284.8636528631813
70687,7797,70687.0,20238.0,70687.0,27859.0,413.30291757239024,173.11740688303416,287.9755503859786
70687,7792,70687.0,20238.0,70687.0,27853.0,418.91960739687056,174.79515127339255,291.02403951842393
70687,7797,70687.0,20206.0,70687.0,27874.0,424.4922453870347,176.4324131088482,294.0039795232871
70698,7799,70698.0,20209.0,70698.0,27851.0,430.0133133279768,178.0269738223758,296.9103507514312
70698,7803,70698.0,20180.0,70698.0,27871.0,435.47534008702166,179.57684569000622,299.7381778931479
70698,7818,70698.0,20200.0,70698.0,27876.0,440.8707892433881,181.0797809776846,302.4824496223162
70698,7830,70698.0,20231.0,70698.0,27911.0,446.1920519370549,182.53303149972828,305.13820074116177
70698,7862,70698.0,20249.0,70698.0,27888.0,451.43160184737656,183.93357925014885,307.7007994857874
70698,7835,70698.0,20236.0,70698.0,27907.0,456.58225183687864,185.27866617822588,310.16618313992313
70708,7836,70708.0,20217.0,70708.0,27896.0,461.6372332313624,186.56609298812504,312.53088425568995
70708,7844,70708.0,20221.0,70708.0,27890.0,466.58995833486256,187.79405836940708,314.7919285621602
70708,7872,70708.0,20250.0,70708.0,27926.0,471.4337861501821,188.9608868101701,316.9467200282798
70708,7881,70708.0,20249.0,70708.0,27915.0,476.16210722240953,190.06506801033782,318.99307709978234
70708,7891,70708.0,20247.0,70708.0,27922.0,480.7686365179527,191.10553104893552,320.92941817127365
70708,7881,70708.0,20223.0,70708.0,27908.0,485.2476231376037,192.0817526573286,322.7548332812406
70718,7872,70718.0,20241.0,70718.0,27931.0,489.5938030277821,192.99357011526632,324.4689874414508
70718,7897,70718.0,20243.0,70718.0,27915.0,493.80215963791693,193.84096794301814,326.0720438376276
70718,7898,70718.0,20238.0,70718.0,27916.0,497.8677679244016,194.62405291174235,327.56462512820383
70718,7928,70718.0,20275.0,70718.0,27930.0,501.7858878121905,195.34316071008243,328.94772581868574
70718,7932,70718.0,20255.0,70718.0,27949.0,505.5522303736776,195.99905985969957,330.222709258637
70718,7931,70718.0,20236.0,70718.0,27915.0,509.16323498013435,196.5931193018722,331.3914580365064
70729,7921,70729.0,20244.0,70729.0,27926.0,512.6161632869565,197.12717452332282,332.4563903610218
70729,7939,70729.0,20239.0,70729.0,27950.0,515.9089696947508,197.60322372052468,333.4202938005819
70729,7953,70729.0,20281.0,70729.0,27944.0,519.0401932474085,198.02333642866853,334.2863345016393
70729,7947,70729.0,20253.0,70729.0,27940.0,522.0090390048485,198.38986561952368,335.0582458444983
70729,7953,70729.0,20246.0,70729.0,27935.0,524.8154870423589,198.70565761925076,335.7403665685682
70729,7941,70729.0,20220.0,70729.0,27923.0,527.46024899318,198.97389954812155,336.3374675356749
70739,7952,70739.0,20221.0,70739.0,27914.0,529.9446065408193,199.19765276208722,336.8544742512845
70739,7949,70739.0,20257.0,70739.0,27940.0,532.2702512413229,199.37947491820444,337.2961983223585
70739,7961,70739.0,20259.0,70739.0,27935.0,534.439204563201,199.52147460116987,337.66726994953444
70739,7977,70739.0,20237.0,70739.0,27949.0,536.4538524965776,199.62564867393718,337.9722955847724
70739,7973,70739.0,20260.0,70739.0,27924.0,538.3170926439543,199.69404289866685,338.2160058533864
70739,7970,70739.0,20244.0,70739.0,27935.0,540.032468245384,199.72870338225187,338.4032134806025
70749,7969,70749.0,20243.0,70749.0,27926.0,541.6041392900834,199.7316272229735,338.5386417823509
70749,7974,70749.0,20273.0,70749.0,27937.0,543.0367452421832,199.70474062540274,338.6267935593873
70749,7972,70749.0,20281.0,70749.0,27958.0,544.3352988856972,199.65004203168934,338.6719735725156
70749,7978,70749.0,20250.0,70749.0,27932.0,545.5051354265365,199.56990818147315,338.6784523115097
70749,7957,70749.0,20249.0,70749.0,27933.0,546.5518438387386,199.4671603144238,338.6505483094721
70749,7969,70749.0,20234.0,70749.0,27922.0,547.4811033844036,199.34475687356476,338.5924568492673
70760,7960,70760.0,20228.0,70760.0,27938.0,548.2984716760895,199.2053959421025,338.5080050356387
70760,7980,70760.0,20248.0,70760.0,27939.0,549.0092637385479,199.05123779011126,338.4005739227688
70760,7991,70760.0,20277.0,70760.0,27948.0,549.6186089128818,198.88391339247576,338.27320174164356
70760,8007,70760.0,20256.0,70760.0,27959.0,550.1316975741076,198.70486539373164,338.1287689555212
70760,7993,70760.0,20250.0,70760.0,27942.0,550.55409404788,198.51565314807004,337.9701739765147
70760,7977,70760.0,20249.0,70760.0,27939.0,550.8918524735795,198.31790810934052,337.80036993104017
70770,7974,70770.0,20277.0,70770.0,27968.0,551.1513038926813,198.11318439001866,337.6222724992673
70770,7981,70770.0,20298.0,70770.0,27953.0,551.3387147181373,197.90311120351663,337.43878562696966
70770,8008,70770.0,20262.0,70770.0,27963.0,551.4601502979864,197.68979654509735,337.25296727681757
70770,7989,70770.0,20253.0,70770.0,27949.0,551.521632417072,197.47598422152768,337.06810239722046
70770,7983,70770.0,20222.0,70770.0,27944.0,551.529303173631,197.26469500668088,336.88761217988167
70770,7983,70770.0,20243.0,70770.0,27945.0,551.4893319532741,197.05864730119893,336.7148703315509
70780,7968,70780.0,20228.0,70780.0,27945.0,551.4076685133565,196.85986194893388,336.55303148570226
70780,7999,70780.0,20271.0,70780.0,27956.0,551.2898544723653,196.66960088308798,336.4049708098018
70780,8003,70780.0,20256.0,70780.0,27947.0,551.1410468176141,196.48859704028854,336.27332661314216
70780,7987,70780.0,20255.0,70780.0,27937.0,550.9662330158943,196.31736098589315,336.16051634503566
70780,7990,70780.0,20258.0,70780.0,27953.0,550.7703380499147,196.15630114090993,336.068640903132
70780,7987,70780.0,20254.0,70780.0,27955.0,550.5581058439357,196.00567985313157,335.9994188349398
70791,7983,70791.0,20288.0,70791.0,27959.0,550.3339451505174,195.86563397898138,335.95427785971196
70791,7986,70791.0,20286.0,70791.0,27950.0,550.1018227204568,195.73640567418963,335.9344741372422
70791,7995,70791.0,20263.0,70791.0,27966.0,549.8652036161891,195.61865184490458,335.94111983764975
70791,8003,70791.0,20248.0,70791.0,27935.0,549.6271033009888,195.5134558379407,335.97514730351566
70791,7998,70791.0,20245.0,70791.0,27955.0,549.3902331788479,195.42195837721283,336.0371976274439
70791,7990,70791.0,20250.0,70791.0,27956.0,549.1570856848236,195.34495579470263,336.1274882572259
70801,8001,70801.0,20278.0,70801.0,27980.0,548.9298799134633,195.28277717605178,336.24586198105635
70801,7999,70801.0,20302.0,70801.0,27954.0,548.7104911525508,195.23554967750243,336.3920071669602
70801,8010,70801.0,20247.0,70801.0,27963.0,548.5004816274135,195.20363951054443,336.5655720112778
70801,8007,70801.0,20277.0,70801.0,27964.0,548.301197992743,195.1877788472944,336.766085785764
70801,7991,70801.0,20244.0,70801.0,27956.0,548.1138201697573,195.18880780334277,336.99286315872837
70801,8001,70801.0,20268.0,70801.0,27954.0,547.9392663713442,195.2074058639566,337.24493208159697
70811,8018,70811.0,20300.0,70811.0,28000.0,547.7780777254493,195.24406367034908,337.5210034781574
70811,8011,70811.0,20269.0,70811.0,27976.0,547.6304929349957,195.2993457372928,337.81967097335263
70811,8033,70811.0,20262.0,70811.0,27974.0,547.4966562929214,195.37412231346823,338.13970106511266
70811,7987,70811.0,20240.0,70811.0,27947.0,547.3767404822186,195.46937978797783,338.48000094504795
70811,7999,70811.0,20241.0,70811.0,27948.0,547.2708080930634,195.58575330116366,338.8392377008101
70811,8007,70811.0,20211.0,70811.0,27972.0,547.1784948264416,195.72306687778945,339.21546309019277
70822,8025,70822.0,20291.0,70822.0,28001.0,547.0988928207503,195.88005106076702,339.6061162980708
70822,8032,70822.0,20307.0,70822.0,27984.0,547.0307757751425,196.05460029882073,340.00842902398693
70822,8014,70822.0,20292.0,70822.0,27997.0,546.9728906725522,196.2445802438123,340.41982216550304
70822,8025,70822.0,20266.0,70822.0,27980.0,546.9240449619228,196.4484119583838,340.83801288602444
70822,8015,70822.0,20267.0,70822.0,27985.0,546.8830135240148,196.66494942862064,341.260925239674
70822,8041,70822.0,20292.0,70822.0,27994.0,546.8484759267945,196.89310981580564,341.6865723963031
70832,8028,70832.0,20287.0,70832.0,27973.0,546.819095315484,197.1318130089053,342.1129955315299
70832,8028,70832.0,20292.0,70832.0,28005.0,546.7936337468637,197.3801859924689,342.5382331394549
70832,8009,70832.0,20286.0,70832.0,27970.0,546.7709097343819,197.63771029311698,342.96029654769995
70832,8033,70832.0,20224.0,70832.0,27991.0,546.7496041165953,197.90409397049856,343.3771253908762
70832,8017,70832.0,20247.0,70832.0,27964.0,546.7281288034687,198.17874877344192,343.786454301921
70832,8026,70832.0,20277.0,70832.0,27993.0,546.7046171333809,198.4602205561259,344.185649577856
70842,8031,70842.0,20306.0,70842.0,28001.0,546.6769326840515,198.74623068641546,344.5716919583216
70842,8044,70842.0,20282.0,70842.0,28009.0,546.642728977493,199.03426171058393,344.9413946456114
70842,8026,70842.0,20272.0,70842.0,27990.0,546.5995844321142,199.32195880567275,345.291668456281
70842,8028,70842.0,20273.0,70842.0,27988.0,546.5450426451579,199.60702937320093,345.61954683741584
70842,8037,70842.0,20271.0,70842.0,27996.0,546.4765095147966,199.8869646447012,345.92199917933004
70842,8061,70842.0,20314.0,70842.0,28036.0,546.39124608048,200.1589678815339,346.1958785770596
70853,8045,70853.0,20307.0,70853.0,28005.0,546.2865866830537,200.4202268632955,346.43819032050635
70853,8042,70853.0,20284.0,70853.0,27997.0,546.160139685742,200.66829397770599,346.64633718130824
70853,8033,70853.0,20280.0,70853.0,27997.0,546.0097320424255,200.90112675854368,346.81798541779176
70853,8022,70853.0,20267.0,70853.0,27992.0,545.8331665977291,201.11675657098866,346.9507559782677
70853,8032,70853.0,20254.0,70853.0,27998.0,545.6279581371892,201.31288502397024,347.04203846777074
70853,8051,70853.0,20300.0,70853.0,28019.0,545.3912121830974,201.4866125739381,347.08897652718014
70863,8042,70863.0,20335.0,70863.0,28014.0,545.1197478038773,201.63458878833325,347.08863280428545
70863,8047,70863.0,20311.0,70863.0,28008.0,544.810298585189,201.75365316623584,347.0382040896038
70863,8040,70863.0,20278.0,70863.0,28002.0,544.4595793738906,201.8413251002989,346.93505803014875
70863,8034,70863.0,20279.0,70863.0,28004.0,544.0642209233165,201.89560476923802,346.77659555860134
70863,8064,70863.0,20313.0,70863.0,28023.0,543.6206980170548,201.9145079984715,346.56015363789675
70863,8056,70863.0,20312.0,70863.0,28021.0,543.1254171252309,201.89601917280828,346.28310018464083
70874,8071,70874.0,20300.0,70874.0,28024.0,542.5749657297681,201.83839750764764,345.9430423315189
70874,8040,70874.0,20289.0,70874.0,28006.0,541.9662886813869,201.7403085523783,345.53793359788784
70874,8048,70874.0,20259.0,70874.0,28003.0,541.2966176575169,201.60057658613022,345.0659687405062
70874,8045,70874.0,20282.0,70874.0,28002.0,540.5632469114892,201.41774413367392,344.5253493240301
70874,8060,70874.0,20282.0,70874.0,28021.0,539.7634063454459,201.18977053398197,343.91413053857684
70874,8068,70874.0,20317.0,70874.0,28038.0,538.894357466155,200.9141084103414,343.23033145812803
70884,8060,70884.0,20325.0,70884.0,28026.0,537.9536111265695,200.58812168016658,342.4722622556186
70884,8063,70884.0,20291.0,70884.0,28016.0,536.9390789337709,200.20954769564298,341.63876487781476
70884,8050,70884.0,20293.0,70884.0,28006.0,535.8490693582945,199.77660289973335,340.7291446233082
70884,8059,70884.0,20298.0,70884.0,28018.0,534.6821913471485,199.28773004525925,339.7429343210403
70884,8072,70884.0,20328.0,70884.0,28025.0,533.4373091795701,198.7414646327327,338.67978659630114
70884,8068,70884.0,20329.0,70884.0,28036.0,532.1136578910197,198.13668977182016,337.5396075679779
70894,8048,70894.0,20304.0,70894.0,28012.0,530.710985735619,197.47300630977043,336.3227721134192
70894,8037,70894.0,20259.0,70894.0,28000.0,529.2294586040632,196.7507103071236,335.03013535795424
70894,8036,70894.0,20260.0,70894.0,27991.0,527.6693365248973,195.9702038353722,333.6627472859544
70894,8048,70894.0,20296.0,70894.0,28008.0,526.0307055671079,195.1313389510321,332.2215173420135
70894,8035,70894.0,20331.0,70894.0,28014.0,524.313429059558,194.2333889737826,330.70713254860533
70894,8062,70894.0,20333.0,70894.0,28016.0,522.5172371767085,193.27570373728773,329.12024530148244
70905,8025,70905.0,20318.0,70905.0,28015.0,520.6418354946651,192.2584295723556,327.4617082097045
70905,8021,70905.0,20277.0,70905.0,28004.0,518.6868746752231,191.18270311001612,325.732681916463
70905,8034,70905.0,20282.0,70905.0,27993.0,516.6517205763195,190.05025413806754,323.9345733731542
70905,8060,70905.0,20307.0,70905.0,28017.0,514.5353546670794,188.86290316911857,322.06889357263094
70905,8052,70905.0,20308.0,70905.0,28014.0,512.3366577319399,187.6224879296978,320.13725932895943
70905,8042,70905.0,20276.0,70905.0,27977.0,510.05477940730236,186.33109324279522,318.14151476978213
70915,8026,70915.0,20269.0,70915.0,27980.0,507.6892090767372,184.99102974560196,316.08361631471877
70915,8028,70915.0,20274.0,70915.0,27973.0,505.23956434014974,183.60448649794102,313.96526286809024
70915,8035,70915.0,20279.0,70915.0,27986.0,502.70538039464486,182.17327024735346,311.787643529477
70915,8038,70915.0,20231.0,70915.0,27998.0,500.08610068888265,180.69872032684538,309.5514808565341
70915,8038,70915.0,20337.0,70915.0,28001.0,497.3812263676175,179.1816554448752,307.2572927395629
70915,8054,70915.0,20337.0,70915.0,28000.0,494.59050512282613,177.62273480465373,304.9057048922276
70925,8027,70925.0,20297.0,70925.0,27992.0,491.71410684747514,176.0233225630054,302.4976419212645
70925,8025,70925.0,20269.0,70925.0,27998.0,488.75266669798987,174.3859064762587,300.03436861931783
70925,8024,70925.0,20275.0,70925.0,27983.0,485.7071368710194,172.71365177523688,297.5174684689305
70925,8023,70925.0,20265.0,70925.0,27976.0,482.57863730361703,171.00980658662615,294.94877550606066
70925,8027,70925.0,20265.0,70925.0,28009.0,479.36844692681694,169.2774283066371,292.3302979426533
70925,8008,70925.0,20263.0,70925.0,27972.0,476.0780504400492,167.51929321398234,289.66428121982506
70936,8012,70936.0,20270.0,70936.0,27975.0,472.7091110463227,165.73786982576902,286.9532950737504
70936,8004,70936.0,20243.0,70936.0,27960.0,469.2633690996156,163.93532150343054,284.20009967143733
70936,8001,70936.0,20249.0,70936.0,27953.0,465.74255970166803,162.11341478243887,281.40738382488
70936,8001,70936.0,20259.0,70936.0,27983.0,462.1483734766076,160.2733596649035,278.5776079236561
70936,8021,70936.0,20276.0,70936.0,27975.0,458.4824948698364,158.41584085408687,275.7131032784538
70936,8011,70936.0,20283.0,70936.0,27980.0,454.74679683922284,156.54133298101303,272.81636910605744
70946,7986,70946.0,20286.0,70946.0,27944.0,450.94354212579833,154.65051159103058,269.8902473296104
70946,7990,70946.0,20244.0,70946.0,27954.0,447.0753279575762,152.74448464426234,266.93778488152367
70946,7999,70946.0,20294.0,70946.0,27962.0,443.14489351151747,150.82473117635055,263.96199590722944
70946,7983,70946.0,20307.0,70946.0,27960.0,439.1550895596203,148.8931113508481,260.9658414955939
70946,7989,70946.0,20209.0,70946.0,27964.0,435.1089575935359,146.9520976086987,257.9524066008896
70946,7972,70946.0,20250.0,70946.0,27885.0,431.00973822334737,145.00459343123634,254.9249138374739
70956,7938,70956.0,20225.0,70956.0,27939.0,426.8607358973854,143.05328297532114,251.88632310707342
70956,7965,70956.0,20254.0,70956.0,27890.0,422.6650196021295,141.10027038548276,248.8388205153251
70956,7935,70956.0,20233.0,70956.0,27927.0,418.4251557379959,139.14715440796482,245.7836032535984
70956,7979,70956.0,20245.0,70956.0,27962.0,414.14318758730764,137.19516789921886,242.72101501780148
70956,7975,70956.0,20252.0,70956.0,27943.0,409.82088557481217,135.24527087055927,239.65103596977866
70956,7950,70956.0,20241.0,70956.0,27938.0,405.46012861373595,133.29827190407192,236.57382771314133
70967,7941,70967.0,20243.0,70967.0,27933.0,401.06305018226413,131.35493540837405,233.489894130893
70967,7930,70967.0,20259.0,70967.0,27925.0,396.6318175251782,129.41603016427842,230.3999653322602
70967,7962,70967.0,20258.0,70967.0,27930.0,392.16841020411033,127.48245876986255,227.3048880118606
70967,7956,70967.0,20241.0,70967.0,27927.0,387.67473386317954,125.55545581508217,224.20559707531757
70967,7928,70967.0,20232.0,70967.0,27910.0,383.15292141235545,123.63660583748971,221.10312802941786
70967,7932,70967.0,20164.0,70967.0,27906.0,378.6054046776444,121.7275029322906,217.998544635646
70977,7908,70977.0,20220.0,70977.0,27909.0,374.03470180648446,119.82911672884526,214.89277774637637
70977,7918,70977.0,20221.0,70977.0,27887.0,369.44318140928596,117.94136657013371,211.78649873673612
70977,7920,70977.0,20235.0,70977.0,27903.0,364.8329612068278,116.06332075293682,208.68002952678168
70977,7923,70977.0,20251.0,70977.0,27924.0,360.20599574690294,114.19372131944215,205.5733498836772
70977,7911,70977.0,20245.0,70977.0,27898.0,355.5642640757936,112.3314438465926,202.46632341457075
70977,7917,70977.0,20222.0,70977.0,27892.0,350.9098893293465,110.47576274886056,199.35890142534464
70987,7903,70987.0,20223.0,70987.0,27911.0,346.24517398644406,108.62630272741933,196.25108608535245
70987,7910,70987.0,20234.0,70987.0,27908.0,341.572615472496,106.78282411972971,193.14292407551858
70987,7889,70987.0,20250.0,70987.0,27916.0,336.8949081076786,104.94520845483264,190.0347148756272
70987,7893,70987.0,20232.0,70987.0,27896.0,332.21489893815914,103.11369683799217,186.92722726721968
70987,7872,70987.0,20216.0,70987.0,27883.0,327.5354852199448,101.28904725296269,183.82170952513678
70987,7862,70987.0,20214.0,70987.0,27873.0,322.85945143947436,99.47238411615933,180.71966696340536
70998,7857,70998.0,20166.0,70998.0,27860.0,318.18924780185563,97.6648270791155,177.62253833827793
70998,7866,70998.0,20200.0,70998.0,27858.0,313.52681937845597,95.86703058901168,174.53140665181894
70998,7872,70998.0,20245.0,70998.0,27885.0,308.87364166074406,94.07896808873923,171.44685966415437
70998,7865,70998.0,20227.0,70998.0,27878.0,304.23093817069264,92.30032915222598,168.36913162109326
70998,7873,70998.0,20218.0,70998.0,27866.0,299.5999100836515,90.53112885545472,165.29839463388376
70998,7841,70998.0,20190.0,70998.0,27855.0,294.98185234899256,88.7718413236119,162.23485566813244
71007,7859,71007.0,20205.0,71007.0,27856.0,290.3781178156705,87.02308780655247,159.1786085409034
71007,7862,71007.0,20226.0,71007.0,27881.0,285.7900649076737,85.28539936338301,156.12953435751402
71007,7843,71007.0,20212.0,71007.0,27875.0,281.2191527246181,83.55934352868512,153.08747704018808
71007,7844,71007.0,20177.0,71007.0,27842.0,276.6670398372322,81.84570733763071,150.05250372018813
71007,7831,71007.0,20166.0,71007.0,27852.0,272.13552887818423,80.14526921241995,147.02487560802697
71007,7817,71007.0,20181.0,71007.0,27831.0,267.62642972698836,78.45829122829848,144.00477386019526
71017,7818,71017.0,20184.0,71017.0,27854.0,263.1413918235392,76.78424778574163,140.99210422979203
71017,7770,71017.0,20200.0,71017.0,27871.0,258.68167317330557,75.12195055668494,137.98656263030898
71017,7820,71017.0,20212.0,71017.0,27842.0,254.24785611114237,73.46988353820691,134.98792923414806
71017,7807,71017.0,20200.0,71017.0,27840.0,249.83975263012624,71.82657016025625,131.9962652933865
71017,7805,71017.0,20185.0,71017.0,27828.0,245.45664496282166,70.19077214310536,129.0117900781487
71017,7809,71017.0,20181.0,71017.0,27848.0,241.09755583608305,68.56138860778591,126.034684823122
71028,7829,71028.0,20210.0,71028.0,27852.0,236.76142092300464,66.93727201665133,123.06512723248744
71028,7802,71028.0,20208.0,71028.0,27828.0,232.44732946265032,65.31730905900834,120.10350189555146
71028,7795,71028.0,20194.0,71028.0,27827.0,228.15468939321482,63.700709853169045,117.15047495239526
71028,7781,71028.0,20152.0,71028.0,27802.0,223.88311060577115,62.08705623347679,114.20680145376735
71028,7768,71028.0,20165.0,71028.0,27810.0,219.6321277598775,60.475904752270566,111.27302526810686
71028,7777,71028.0,20180.0,71028.0,27812.0,215.4009569517192,58.86633903815709,108.34927186135761
71038,7779,71038.0,20176.0,71038.0,27810.0,211.18841172139216,57.256916746238176,105.43523714294722
71038,7776,71038.0,20191.0,71038.0,27824.0,206.99301282703172,55.64591399220153,102.53032178006967
71038,7783,71038.0,20210.0,71038.0,27815.0,202.81317242193228,54.0316285153374,99.6338178963282
71038,7771,71038.0,20188.0,71038.0,27791.0,198.64734744495368,52.41271328880357,96.74502877125656
71038,7765,71038.0,20164.0,71038.0,27798.0,194.4941177496711,50.78833825569623,93.8631718063044
71038,7769,71038.0,20184.0,71038.0,27831.0,190.3521728292685,49.15799809791007,90.98724893715365
71048,7764,71048.0,20212.0,71048.0,27823.0,186.22030027169535,47.521344499540106,88.11625283240119
71048,7749,71048.0,20192.0,71048.0,27821.0,182.09741241229074,45.87842135557263,85.24958950770645
71048,7746,71048.0,20167.0,71048.0,27780.0,177.98249991694888,44.22995080828683,82.38724585704176
71048,7756,71048.0,20166.0,71048.0,27804.0,173.87453459045156,42.5771985815564,79.5295665280083
71048,7727,71048.0,20144.0,71048.0,27771.0,169.7724448880336,40.92155822670422,76.6769335809316
71048,7741,71048.0,20142.0,71048.0,27789.0,165.67509737955328,39.264159823959744,73.82957355538025
71059,7723,71059.0,20164.0,71059.0,27782.0,161.58121741694475,37.605618451177705,70.98748181507838
71059,7759,71059.0,20184.0,71059.0,27815.0,157.4893927237647,35.946094401124725,68.15051475615599
71059,7741,71059.0,20152.0,71059.0,27777.0,153.3982854155068,34.28564286503135,65.31865594729624
71059,7729,71059.0,20155.0,71059.0,27774.0,149.30690273680813,32.624424045648254,62.49216478729488
71059,7718,71059.0,20163.0,71059.0,27772.0,145.21463513907418,30.96260775010066,59.67142149621756
71059,7728,71059.0,20159.0,71059.0,27772.0,141.12109005973002,29.300294227003036,56.8567153245192
71069,7716,71069.0,20183.0,71069.0,27779.0,137.02600271812287,27.637633376045812,54.04821476698129
71069,7728,71069.0,20170.0,71069.0,27779.0,132.92929274599214,25.975061375995978,51.24608334439816
71069,7691,71069.0,20129.0,71069.0,27766.0,128.8311209513402,24.313434137969296,48.450615474773514
71069,7697,71069.0,20141.0,71069.0,27744.0,124.73179241374152,22.65379448539835,45.662224457709954
71069,7678,71069.0,20103.0,71069.0,27757.0,120.63151197639394,20.996884339700586,42.881227921244914
71069,7688,71069.0,20144.0,71069.0,27742.0,116.53017021267152,19.342754009327138,40.10763106644984
71079,7698,71079.0,20175.0,71079.0,27756.0,112.4273096158496,17.690755929506906,37.34106757419579
71079,7680,71079.0,20141.0,71079.0,27761.0,108.32227101389253,16.039987608960843,34.58088198376245
71079,7688,71079.0,20137.0,71079.0,27765.0,104.21435022845134,14.38968596541909,31.82633331545847
71079,7672,71079.0,20132.0,71079.0,27742.0,100.10283547764999,12.739152141870704,29.076804602599225
71079,7688,71079.0,20146.0,71079.0,27737.0,95.98700446703907,11.087524549878651,26.331803839477686
71079,7681,71079.0,20184.0,71079.0,27745.0,91.86619654069358,9.433853475145924,23.59078267208065
71090,7661,71090.0,20166.0,71090.0,27753.0,87.73991943835932,7.777540005953824,20.85305819106827
71090,7665,71090.0,20139.0,71090.0,27743.0,83.60783080350268,6.118746708862574,18.117947124638704
71090,7665,71090.0,20125.0,71090.0,27717.0,79.46962683551351,4.4583146118785635,15.384863534283852
71090,7644,71090.0,20121.0,71090.0,27734.0,75.32499594555873,2.797291722875741,12.653181709632577
71090,7651,71090.0,20100.0,71090.0,27718.0,71.17357873700797,1.1364798272634573,9.922040344259415
71090,7667,71090.0,20152.0,71090.0,27744.0,67.01493431891959,-0.523800115872973,7.19032074050989
71100,7649,71100.0,20163.0,71100.0,27754.0,62.848672835067475,-2.183533774086442,4.4568476387920555
71100,7644,71100.0,20133.0,71100.0,27744.0,58.67463279615947,-3.8424850922936855,1.7207499682985485
71100,7637,71100.0,20108.0,71100.0,27724.0,54.492876567967926,-5.499931033248259,-1.0182815316204596
71100,7626,71100.0,20123.0,71100.0,27716.0,50.303562705787385,-7.154956904992218,-3.7600806174736476
71100,7636,71100.0,20136.0,71100.0,27731.0,46.10684083963332,-8.806786131721537,-6.504263750306961
71100,7630,71100.0,20143.0,71100.0,27717.0,41.902846005183676,-10.454695231182058,-9.250336417132928
71111,7621,71111.0,20126.0,71111.0,27712.0,37.691776223807665,-12.097716396142516,-11.99765971944288
71111,7596,71111.0,20108.0,71111.0,27698.0,33.473881308974285,-13.734544591941017,-14.74550390159692
71111,7598,71111.0,20092.0,71111.0,27693.0,29.249253610556423,-15.363792886672456,-17.493235385478272
71111,7597,71111.0,20099.0,71111.0,27704.0,25.017580562577507,-16.984403801151814,-20.240493650604265
71111,7605,71111.0,20103.0,71111.0,27716.0,20.778083664213113,-18.59591316221818,-22.987181916421946
71111,7602,71111.0,20117.0,71111.0,27715.0,16.52965806876489,-20.198424830909147,-25.73322711874988
71121,7608,71121.0,20130.0,71121.0,27701.0,12.271081260555377,-21.792352985505204,-28.478311559029294
71121,7606,71121.0,20103.0,71121.0,27692.0,8.001211925407404,-23.37811004683482,-31.221817055276148
71121,7584,71121.0,20115.0,71121.0,27678.0,3.719122385080425,-24.95597701173432,-33.96299982068217
71121,7590,71121.0,20102.0,71121.0,27681.0,-0.5759203673480897,-26.526182492218965,-36.70124228694061
71121,7608,71121.0,20111.0,71121.0,27701.0,-4.884511675747262,-28.088992127945488,-39.436179523554074
71121,7601,71121.0,20120.0,71121.0,27698.0,-9.20695735866559,-29.644688965406033,-42.167558613106564
71131,7577,71131.0,20114.0,71131.0,27655.0,-13.543026289411841,-31.193440748988564,-44.89503134475552
71131,7566,71131.0,20085.0,71131.0,27671.0,-17.89196358665913,-32.73520791905429,-47.61825867137571
71131,7549,71131.0,20053.0,71131.0,27663.0,-22.252794780699446,-34.26998170361159,-50.33722373247926
71131,7546,71131.0,20120.0,71131.0,27660.0,-26.624680156481134,-35.798247069076126,-53.05238311261169
71131,7554,71131.0,20104.0,71131.0,27674.0,-31.00713514453105,-37.321065436568745,-55.76463812130015
71131,7573,71131.0,20112.0,71131.0,27685.0,-35.39999131609056,-38.83964965407321,-58.4751888164883
71142,7567,71142.0,20101.0,71142.0,27665.0,-39.80308383515512,-40.354995811024395,-61.185276817185866
71142,7543,71142.0,20077.0,71142.0,27655.0,-44.215926437962935,-41.86787541836017,-63.896047574205966
71142,7532,71142.0,20091.0,71142.0,27642.0,-48.6376977453408,-43.37906042929367,-66.60870407717647
71142,7541,71142.0,20109.0,71142.0,27686.0,-53.06748023879021,-44.88949573087808,-69.32470506783443
71142,7537,71142.0,20097.0,71142.0,27666.0,-57.50440182465002,-46.40018230602712,-72.04564952340871
71142,7524,71142.0,20110.0,71142.0,27674.0,-61.94758894939639,-47.911922815886356,-74.77293438531407
71152,7520,71152.0,20076.0,71152.0,27646.0,-66.39614378621036,-49.42521491712236,-77.50758011049132
71152,7494,71152.0,20056.0,71152.0,27638.0,-70.84926694595788,-50.94042787878823,-80.25036971095557
71152,7497,71152.0,20074.0,71152.0,27641.0,-75.30648931527236,-52.45821795920182,-83.00214339882126
71152,7503,71152.0,20092.0,71152.0,27638.0,-79.76787543435256,-53.97979599742024,-85.76400798740096
71152,7509,71152.0,20107.0,71152.0,27655.0,-84.23401022420626,-55.506721378437064,-88.53733150206381
71152,7515,71152.0,20098.0,71152.0,27643.0,-88.70575894524546,-57.04043280202521,-91.32357760653105
71162,7489,71162.0,20081.0,71162.0,27651.0,-93.1840088158828,-58.581948885659855,-94.12411741612519
71162,7496,71162.0,20074.0,71162.0,27627.0,-97.66959666357587,-60.131928788661156,-96.94014614838284
71162,7502,71162.0,20079.0,71162.0,27641.0,-102.16335984823166,-61.69092485694884,-99.7727329010435
71162,7501,71162.0,20110.0,71162.0,27651.0,-106.66606758791391,-63.25947716308585,-102.62285578911735
71162,7496,71162.0,20100.0,71162.0,27627.0,-111.17822659196713,-64.83786981333029,-105.49129491368828
71162,7474,71162.0,20077.0,71162.0,27642.0,-115.69997954202591,-66.42581209038815,-108.37852681691916
71173,7474,71173.0,20063.0,71173.0,27624.0,-120.23120366463633,-68.02246940622277,-111.28473777581348
71173,7448,71173.0,20078.0,71173.0,27608.0,-124.77173653820324,-69.626799553115,-114.20990937519869
71173,7464,71173.0,20034.0,71173.0,27621.0,-129.3216056909086,-71.23785226947848,-117.15398242501931
71173,7452,71173.0,20066.0,71173.0,27616.0,-133.8811466422701,-72.85499369964441,-120.11698589375825
71173,7465,71173.0,20062.0,71173.0,27631.0,-138.45095272406536,-74.47805172814844,-123.09896896292616
71173,7448,71173.0,20073.0,71173.0,27620.0,-143.0317355972108,-76.1072182873908,-126.09980298625231
71183,7447,71183.0,20047.0,71183.0,27606.0,-147.62423406166891,-77.7428462584198,-129.1190435846438
71183,7444,71183.0,20065.0,71183.0,27617.0,-152.22921566148682,-79.38541213891179,-132.15595609346087
71183,7467,71183.0,20092.0,71183.0,27595.0,-156.84743952248465,-81.03550483262427,-135.20961128702606
71183,7445,71183.0,20075.0,71183.0,27599.0,-161.4794549309335,-82.69356532221963,-138.27896843209356
71183,7443,71183.0,20078.0,71183.0,27617.0,-166.12539145922375,-84.35955124981109,-141.36292343950515
71183,7418,71183.0,20056.0,71183.0,27581.0,-170.78497335217878,-86.03286233177579,-144.46025334235236
71193,7426,71193.0,20031.0,71193.0,27600.0,-175.45772174509938,-87.71256910896994,-147.56957248967518
71193,7401,71193.0,20043.0,71193.0,27586.0,-180.14316461174337,-89.39782160278912,-150.68939965867503
71193,7404,71193.0,20047.0,71193.0,27577.0,-184.84100184020292,-91.08817279621766,-153.81822280313634
71193,7415,71193.0,20051.0,71193.0,27596.0,-189.55120723809625,-92.78359233169047,-156.95453113063638
71193,7408,71193.0,20068.0,71193.0,27581.0,-194.2739622447068,-94.48425746005213,-160.0967842027086
71193,7405,71193.0,20053.0,71193.0,27578.0,-199.00946992296497,-96.19029326030417,-163.243318108552
71204,7395,71204.0,20045.0,71204.0,27564.0,-203.7578475534587,-97.90161593090102,-166.3923526849818
71204,7387,71204.0,20046.0,71204.0,27554.0,-208.51915246772222,-99.61798438420135,-169.54215245375963
71204,7390,71204.0,20073.0,71204.0,27576.0,-213.29345814682296,-101.33907396599002,-172.6911956259989
71204,7396,71204.0,20058.0,71204.0,27571.0,-218.0808591620659,-103.06432339181103,-175.83815492906365
71204,7371,71204.0,20027.0,71204.0,27551.0,-222.88137864924278,-104.79275121299125,-178.98172875705797
71204,7369,71204.0,20021.0,71204.0,27544.0,-227.69495033174178,-106.52313240891823,-182.12062827106968
71214,7356,71214.0,20003.0,71214.0,27524.0,-232.52156616072557,-108.25447847140322,-185.25382167781117
71214,7365,71214.0,20015.0,71214.0,27540.0,-237.3614337490245,-109.98646484193873,-188.38082930787385
71214,7363,71214.0,20033.0,71214.0,27560.0,-242.21498777332704,-111.71957907277061,-191.50180239457347
71214,7372,71214.0,20052.0,71214.0,27546.0,-247.08274319754764,-113.45490067761114,-194.61728033617396
71214,7349,71214.0,20049.0,71214.0,27545.0,-251.96510161136183,-115.19362598774836,-197.72788345203332
71214,7352,71214.0,20029.0,71214.0,27533.0,-256.86227459232344,-116.93668404023916,-200.83423061080543
71224,7327,71224.0,20024.0,71224.0,27519.0,-261.7743746743637,-118.68470654765147,-203.93705945241976
71224,7344,71224.0,20047.0,71224.0,27549.0,-266.70156868373226,-120.43820216638889,-207.03737109697926
71224,7348,71224.0,20030.0,71224.0,27552.0,-271.64411130491567,-122.19758494016224,-210.13636051853655
71224,7327,71224.0,20039.0,71224.0,27533.0,-276.6021981614215,-123.96304678386235,-213.2351143401404
71224,7312,71224.0,20037.0,71224.0,27512.0,-281.5758832755945,-125.73447029627474,-216.33446659221647
71224,7320,71224.0,19993.0,71224.0,27516.0,-286.5652248243389,-127.51146689291912,-219.43521679655095
71235,7307,71235.0,20009.0,71235.0,27507.0,-291.5704426522723,-129.29363740057815,-222.5384290515559
71235,7332,71235.0,20020.0,71235.0,27525.0,-296.5918912405748,-131.0809033447228,-225.64553888927162
71235,7312,71235.0,20032.0,71235.0,27534.0,-301.6298724111132,-132.87351026835367,-228.75821930000922
71235,7314,71235.0,20027.0,71235.0,27528.0,-306.68442941852334,-134.67171725132425,-231.87807671102473
71235,7293,71235.0,20029.0,71235.0,27519.0,-311.75529039300943,-136.47551665722975,-235.00639138346793
71235,7296,71235.0,20004.0,71235.0,27509.0,-316.8419692300091,-138.28456016684711,-238.14408431412528
71245,7279,71245.0,20005.0,71245.0,27521.0,-321.9439045372209,-140.09830121855896,-241.29182358278473
71245,7285,71245.0,20012.0,71245.0,27523.0,-327.0605638009562,-141.91622030092984,-244.45003941249155
71245,7277,71245.0,20029.0,71245.0,27509.0,-332.19148445823726,-143.7378700304871,-247.61879935287033
71245,7279,71245.0,20012.0,71245.0,27493.0,-337.33624177447723,-145.5626793203092,-250.79776213550304
71245,7254,71245.0,20004.0,71245.0,27500.0,-342.494414373583,-147.38979188119535,-253.9863316231665
71245,7256,71245.0,19974.0,71245.0,27461.0,-347.66565874023445,-149.2181960873734,-257.183891463782
71255,7249,71255.0,19978.0,71255.0,27503.0,-352.8498583055043,-151.04710980622374,-260.3900172567096
71255,7257,71255.0,20005.0,71255.0,27492.0,-358.04718522998985,-152.8763065449594,-263.6045164947856
71255,7250,71255.0,19988.0,71255.0,27491.0,-363.25801620149105,-154.70609152162245,-266.827219395278
71255,7252,71255.0,20001.0,71255.0,27472.0,-368.4827872402369,-156.53706325665723,-270.0578059725429
71255,7231,71255.0,19995.0,71255.0,27484.0,-373.7219008308397,-158.36995006904752,-273.295859589569
71255,7234,71255.0,19985.0,71255.0,27460.0,-378.9757521521973,-160.20555384012482,-276.54098712616303
71266,7235,71266.0,20036.0,71266.0,27475.0,-384.2448015401818,-162.04467960046145,-279.79290054375593
71266,7238,71266.0,20017.0,71266.0,27476.0,-389.5295353218595,-163.8878546163932,-283.05143355072505
71266,7232,71266.0,19994.0,71266.0,27462.0,-394.830304890039,-165.7349523061414,-286.3164569515462
71266,7218,71266.0,19969.0,71266.0,27456.0,-400.1471978080076,-167.5852167822322,-289.58782625174905
71266,7209,71266.0,19965.0,71266.0,27446.0,-405.4800603351846,-169.43775278291884,-292.8654890177417
71266,7190,71266.0,19953.0,71266.0,27447.0,-410.82866530089655,-171.29206007926078,-296.14965485749894
71276,7196,71276.0,19979.0,71276.0,27439.0,-416.1929322396734,-173.14832501270882,-299.4409086233364
71276,7205,71276.0,19979.0,71276.0,27452.0,-421.5730358733631,-175.00738822694953,-302.7402364732906
71276,7201,71276.0,20006.0,71276.0,27460.0,-426.9692835438789,-176.87042906298385,-306.0489202510074
71276,7175,71276.0,19974.0,71276.0,27438.0,-432.38192349058284,-178.73857503713032,-309.3683284865153
71276,7179,71276.0,19962.0,71276.0,27442.0,-437.8111531194221,-180.61275409184523,-312.6998063507325
71276,7180,71276.0,19973.0,71276.0,27449.0,-443.25725642741384,-182.49388874712722,-316.0447110670769
71286,7163,71286.0,20023.0,71286.0,27446.0,-448.720641896761,-184.38300511824656,-319.40438024781355
71286,7174,71286.0,19982.0,71286.0,27465.0,-454.201807158262,-186.28088845448497,-322.77995014058604
71286,7153,71286.0,19950.0,71286.0,27441.0,-459.7013235030595,-188.18775669450446,-326.1721269541805
71286,7150,71286.0,19955.0,71286.0,27414.0,-465.21985439406217,-190.10352877389334,-329.5811196725586
71286,7123,71286.0,19942.0,71286.0,27390.0,-470.7582747417463,-192.02837804727844,-333.006954919612
71286,7145,71286.0,19964.0,71286.0,27425.0,-476.3178686614401,-193.96302239531394,-336.44998768265606
71297,7146,71297.0,19951.0,71297.0,27422.0,-481.90038307441966,-195.90870243769922,-339.9110857706227
71297,7149,71297.0,19947.0,71297.0,27401.0,-487.50780961826547,-197.86707043699082,-343.39142323456446
71297,7148,71297.0,19966.0,71297.0,27429.0,-493.14206480573023,-199.84013758543236,-346.89229758542973
71297,7119,71297.0,19990.0,71297.0,27417.0,-498.8048051472131,-201.83012784464634,-350.4150375566733
71297,7126,71297.0,19951.0,71297.0,27409.0,-504.4974702693048,-203.83913709065993,-353.96085364150105
71297,7131,71297.0,19985.0,71297.0,27416.0,-510.2214062458114,-205.86888891109425,-357.5307507629773
71307,7120,71307.0,19983.0,71307.0,27421.0,-515.9778343441534,-207.92064972583734,-361.1254989923772
71307,7106,71307.0,19962.0,71307.0,27406.0,-521.767744069556,-209.99508664059132,-364.74552669597097
71307,7109,71307.0,19952.0,71307.0,27390.0,-527.5919128405666,-212.09222989119996,-368.3908716756037
71307,7092,71307.0,19945.0,71307.0,27393.0,-533.4509976245877,-214.21171389636973,-372.0613299259928
71307,7093,71307.0,19931.0,71307.0,27380.0,-539.3456013699723,-216.3531006148923,-375.75666034615733
71307,7089,71307.0,19940.0,71307.0,27402.0,-545.2763142132948,-218.51612534164903,-379.4766652991635
71318,7093,71318.0,19970.0,71318.0,27391.0,-551.2436869447827,-220.70075162531626,-383.2210964344085
71318,7086,71318.0,19930.0,71318.0,27402.0,-557.2481164770744,-222.90696853350408,-386.98944851548623
71318,7076,71318.0,19948.0,71318.0,27383.0,-563.2897323451771,-225.13460954092022,-390.780784948325
71318,7058,71318.0,19939.0,71318.0,27374.0,-569.3684016022305,-227.38338934324273,-394.59371442753377
71318,7062,71318.0,19946.0,71318.0,27370.0,-575.483862226143,-229.65294611282812,-398.42652885048966
71318,7058,71318.0,19951.0,71318.0,27370.0,-581.6358373097056,-231.9427576641262,-402.2773689778081
71328,7060,71328.0,19974.0,71328.0,27380.0,-587.8240045719762,-234.2519436842895,-406.1442559967801
71328,7046,71328.0,19941.0,71328.0,27350.0,-594.0478839359333,-236.57898440470154,-410.02501333220357
71328,7031,71328.0,19912.0,71328.0,27350.0,-600.306803057921,-238.92164918354868,-413.9172872115094
71328,7020,71328.0,19892.0,71328.0,27327.0,-606.6000237975139,-241.2774122972304,-417.8187672397099
71328,7039,71328.0,19920.0,71328.0,27336.0,-612.9269041785486,-243.64406661663716,-421.7274674214607
71328,7010,71328.0,19924.0,71328.0,27356.0,-619.2869056351316,-246.0199686031989,-425.641843069556
71338,7032,71338.0,19944.0,71338.0,27371.0,-625.6794900853465,-248.40378112789782,-429.56056557649083
71338,7005,71338.0,19947.0,71338.0,27355.0,-632.1040343456187,-250.79400558392427,-433.4820542643348
71338,7018,71338.0,19905.0,71338.0,27327.0,-638.559767976211,-253.18864534967904,-437.4041903412813
71338,7010,71338.0,19903.0,71338.0,27346.0,-645.0457082713632,-255.58527790348938,-441.32442753328667
71338,7017,71338.0,19943.0,71338.0,27330.0,-651.5605418279694,-257.9813697098324,-445.23999994958314
71338,7007,71338.0,19959.0,71338.0,27355.0,-658.102448679555,-260.3742126734895,-449.1479196582057
71349,6994,71349.0,19927.0,71349.0,27350.0,-664.6689762976117,-262.7604093913387,-453.04477215601406
71349,6988,71349.0,19862.0,71349.0,27321.0,-671.2570505408502,-265.13568439978087,-456.926493990163
71349,6978,71349.0,19899.0,71349.0,27296.0,-677.8630811341998,-267.49544853232663,-460.78844024810195
71349,6963,71349.0,19886.0,71349.0,27305.0,-684.4830828512489,-269.83547702618466,-464.62580275753754
71349,6961,71349.0,19878.0,71349.0,27320.0,-691.1128084672798,-272.1521085704379,-468.4339480911857
71349,6977,71349.0,19923.0,71349.0,27323.0,-697.7478187330132,-274.4421455388241,-472.2083355441275
71359,6975,71359.0,19892.0,71359.0,27310.0,-704.3833336804847,-276.70261742341154,-475.94420951064177
71359,6955,71359.0,19909.0,71359.0,27303.0,-711.013952426637,-278.93048042982457,-479.63643877363677
71359,6938,71359.0,19903.0,71359.0,27311.0,-717.6335593554716,-281.12245975261,-483.27955750317375
71359,6937,71359.0,19892.0,71359.0,27299.0,-724.2355018508127,-283.2750143946397,-486.8678077826176
71359,6943,71359.0,19926.0,71359.0,27326.0,-730.8127706223494,-285.3842971437618,-490.39506848751705
71359,6930,71359.0,19899.0,71359.0,27311.0,-737.3579804671417,-287.44602482622827,-493.85466463328083
71369,6932,71369.0,19910.0,71369.0,27308.0,-743.8632549027386,-289.4553075322849,-497.2391525068748
71369,6918,71369.0,19874.0,71369.0,27274.0,-750.3201646668908,-291.40665349140096,-500.5403074564518
71369,6902,71369.0,19865.0,71369.0,27275.0,-756.7197587901906,-293.2942428455435,-503.74940969401064
71369,6918,71369.0,19888.0,71369.0,27270.0,-763.0526601821113,-295.11230657371823,-506.8576260019318
71369,6903,71369.0,19883.0,71369.0,27287.0,-769.3090904304582,-296.8552808861016,-509.8562002534532
71369,6908,71369.0,19900.0,71369.0,27280.0,-775.4787674535617,-298.5176340630393,-512.7363700576752
71380,6886,71380.0,19881.0,71380.0,27298.0,-781.5508200062214,-300.09361686073385,-515.4891413542791
71380,6887,71380.0,19881.0,71380.0,27264.0,-787.5138205586012,-301.5771633213018,-518.1050952833612
71380,6880,71380.0,19865.0,71380.0,27278.0,-793.3558802355672,-302.96198871976185,-520.5743692835139
71380,6881,71380.0,19904.0,71380.0,27279.0,-799.0646948809213,-304.24172497001354,-522.8867580828594
71380,6895,71380.0,19889.0,71380.0,27286.0,-804.6274697770425,-305.4098366803139,-525.0317001507324
71380,6879,71380.0,19896.0,71380.0,27268.0,-810.0307254428596,-306.4593565159336,-526.9981458926452
71390,6850,71390.0,19852.0,71390.0,27254.0,-815.2601711078116,-307.3827922088723,-528.774560894989
71390,6840,71390.0,19858.0,71390.0,27234.0,-820.3008931916346,-308.17240781163343,-530.349196117305
71390,6839,71390.0,19869.0,71390.0,27232.0,-825.1377519928184,-308.8206446831556,-531.7105181443617
71390,6837,71390.0,19862.0,71390.0,27251.0,-829.7556491032082,-309.3203040177324,-532.847548931563
71390,6847,71390.0,19862.0,71390.0,27263.0,-834.1395486591912,-309.6645033002873,-533.7498786376811
71390,6854,71390.0,19881.0,71390.0,27267.0,-838.2743156521855,-309.8466194104496,-534.4073701128302
71400,6837,71400.0,19865.0,71400.0,27247.0,-842.1444790434541,-309.8602044326625,-534.8098629856172
71400,6813,71400.0,19848.0,71400.0,27226.0,-845.734152902302,-309.69894116992543,-534.947193379506
71400,6818,71400.0,19858.0,71400.0,27246.0,-849.0272557046012,-309.3568146323752,-534.8095174440148
71400,6828,71400.0,19888.0,71400.0,27252.0,-852.0077793861678,-308.82828721312535,-534.3875626149866
71400,6809,71400.0,19876.0,71400.0,27281.0,-854.6598395139197,-308.10815395020967,-533.6725134807389
71400,6813,71400.0,19810.0,71400.0,27257.0,-856.9676426795584,-307.1913937534913,-532.6556681434795
71411,6805,71411.0,19860.0,71411.0,27228.0,-858.9155557866786,-306.0735226927418,-531.3282943911398
71411,6801,71411.0,19849.0,71411.0,27215.0,-860.4882210768869,-304.7510933313996,-529.6819895183089
71411,6796,71411.0,19837.0,71411.0,27239.0,-861.6706708530223,-303.2218100322011,-527.7092890855939
71411,6798,71411.0,19865.0,71411.0,27248.0,-862.4484504886688,-301.4844890224566,-525.4039703839169
71411,6802,71411.0,19880.0,71411.0,27253.0,-862.8076975891571,-299.5389988812796,-522.7609273936805
71411,6807,71411.0,19891.0,71411.0,27238.0,-862.7351312244984,-297.3859669750084,-519.7759796840644
71421,6800,71421.0,19870.0,71421.0,27240.0,-862.2179921561112,-295.02642588756504,-516.4459149279919
71421,6780,71421.0,19873.0,71421.0,27250.0,-861.2440781700334,-292.46174993124555,-512.7686943366429
71421,6788,71421.0,19874.0,71421.0,27276.0,-859.8019761130312,-289.6938553966496,-508.7435357709598
71421,6830,71421.0,19966.0,71421.0,27296.0,-857.8812663905451,-286.72521523119696,-504.3706965077333
71421,6806,71421.0,19937.0,71421.0,27271.0,-855.4723906647246,-283.5582833425441,-499.65111353683994
71421,6789,71421.0,19886.0,71421.0,27279.0,-852.566442124634,-280.19481212055973,-494.5862798183701
71431,6815,71431.0,19876.0,71431.0,27292.0,-849.1552975466698,-276.6360081780718,-489.17841718119746
71431,6791,71431.0,19903.0,71431.0,27269.0,-845.231899178056,-272.8833501882487,-483.43066856324964
71431,6805,71431.0,19906.0,71431.0,27294.0,-840.7904357611535,-268.93908726938247,-477.347258924544
71431,6822,71431.0,19918.0,71431.0,27323.0,-835.8264714913996,-264.8061831107765,-470.9336004428459
71431,6823,71431.0,19920.0,71431.0,27331.0,-830.3369563111247,-260.4881226498775,-464.1961172210845
71431,6825,71431.0,19909.0,71431.0,27327.0,-824.3201379180194,-255.98884226473297,-457.14191075484416
71442,6838,71442.0,19918.0,71442.0,27326.0,-817.7755536725801,-251.31282789074217,-449.77865248344347
71442,6834,71442.0,19936.0,71442.0,27330.0,-810.7040963885167,-246.46525950953196,-442.11475985852076
71442,6867,71442.0,19965.0,71442.0,27370.0,-803.1080508093276,-241.45194889865442,-434.1595723590591
71442,6879,71442.0,19956.0,71442.0,27371.0,-794.9910056256049,-236.27902595304695,-425.9232640945219
71442,6875,71442.0,19949.0,71442.0,27383.0,-786.3576510771163,-230.95268706821332,-417.4165756654483
71442,6878,71442.0,19952.0,71442.0,27376.0,-777.2136987980673,-225.47926644760628,-408.6506766052611
71452,6882,71452.0,19938.0,71452.0,27376.0,-767.5660492225716,-219.86552692263797,-399.63728554945027
71452,6896,71452.0,19962.0,71452.0,27404.0,-757.423034345853,-214.1189555619654,-390.3889061077644
71452,6924,71452.0,19983.0,71452.0,27404.0,-746.7945312176959,-208.24788373587228,-380.91894735239316
71452,6946,71452.0,19980.0,71452.0,27433.0,-735.6918467329239,-202.26134032364482,-371.24166173151974
71452,6960,71452.0,20011.0,71452.0,27448.0,-724.1274300624915,-196.1687976682744,-361.371982945267
71452,6962,71452.0,20003.0,71452.0,27462.0,-712.1146288977696,-189.97996379065418,-351.3253037976165
71462,6981,71462.0,20016.0,71462.0,27478.0,-699.6676408843789,-183.70463877229315,-341.1172562775047
71462,6989,71462.0,20009.0,71462.0,27490.0,-686.8015869585558,-177.35269165725114,-330.7635561072888
71462,7011,71462.0,20051.0,71462.0,27512.0,-673.5325664873047,-170.93409482044768,-320.27987685041217
71462,7023,71462.0,20041.0,71462.0,27518.0,-659.8776532453978,-164.4588212058661,-309.68171461924237
71462,7040,71462.0,20044.0,71462.0,27512.0,-645.8548600374543,-157.93666279962667,-298.98431775313736
71462,7048,71462.0,20018.0,71462.0,27504.0,-631.483124026682,-151.37727964360994,-288.2028428605821
71473,7073,71473.0,20038.0,71473.0,27521.0,-616.7823344455475,-144.79055597144634,-277.35273470366496
71473,7091,71473.0,20056.0,71473.0,27558.0,-601.773337313719,-138.1869413784349,-266.4500197996759
71473,7114,71473.0,20107.0,71473.0,27573.0,-586.4778537818888,-131.57739219512553,-255.51122181977465
71473,7148,71473.0,20099.0,71473.0,27592.0,-570.9183114252302,-124.97287629950203,-244.55300754541594
71473,7157,71473.0,20104.0,71473.0,27590.0,-555.117608020328,-118.38385183158265,-233.59189878614328
71473,7163,71473.0,20100.0,71473.0,27627.0,-539.0989325501906,-111.82011206127903,-222.6441650729828
71483,7196,71483.0,20095.0,71483.0,27623.0,-522.8857681657603,-105.29095762180806,-211.7257508857412
71483,7234,71483.0,20136.0,71483.0,27655.0,-506.50189016963174,-98.8054063981591,-200.8521498674404
71483,7239,71483.0,20143.0,71483.0,27652.0,-489.9711437463701,-92.37215744648913,-190.03828217348138
71483,7270,71483.0,20150.0,71483.0,27657.0,-473.31716863779855,-85.99929650978216,-179.29845337839944
71483,7273,71483.0,20117.0,71483.0,27670.0,-456.5632804580203,-79.69412330784282,-168.64644707214475
71483,7284,71483.0,20130.0,71483.0,27685.0,-439.73250788182895,-73.46338973123193,-158.0956596126277
71493,7308,71493.0,20147.0,71493.0,27698.0,-422.84773840294633,-67.31370990069482,-147.65912885376036
71493,7337,71493.0,20151.0,71493.0,27705.0,-405.9318282283235,-61.25172700657032,-137.34948272104558
71493,7363,71493.0,20165.0,71493.0,27737.0,-389.0075136664674,-55.28402254431103,-127.17887399353307
71493,7379,71493.0,20187.0,71493.0,27753.0,-372.0971860030834,-49.416957959396825,-117.1588260055218
71493,7396,71493.0,20177.0,71493.0,27750.0,-355.2227153092741,-43.65648896404528,-107.29999089861093
71493,7421,71493.0,20176.0,71493.0,27732.0,-338.405385191994,-38.008065649085125,-97.6120912292752
71504,7406,71504.0,20171.0,71504.0,27791.0,-321.66591753968555,-32.47676795254455,-88.10413160520932
71504,7471,71504.0,20229.0,71504.0,27807.0,-305.0245724046411,-27.067475958628137,-78.78443683928077
71504,7491,71504.0,20209.0,71504.0,27806.0,-288.50110783400385,-21.78472475797949,-69.66029169586199
71504,7505,71504.0,20234.0,71504.0,27808.0,-272.11444923694665,-16.63234489759742,-60.73763527333256
71504,7520,71504.0,20203.0,71504.0,27804.0,-255.8823813246574,-11.613293018920189,-52.02113560614913
71504,7519,71504.0,20211.0,71504.0,27818.0,-239.82153521220738,-6.729810173467342,-43.51445811024047
71514,7544,71514.0,20217.0,71514.0,27831.0,-223.94757498957188,-1.9837377254717978,-35.22046665656103
71514,7583,71514.0,20251.0,71514.0,27839.0,-208.27533834909804,2.6233229112366985,-27.14126001107951
71514,7588,71514.0,20238.0,71514.0,27858.0,-192.81873850505536,7.090164614381905,-19.278098185930844
71514,7603,71514.0,20261.0,71514.0,27854.0,-177.59056655888668,11.416228510334179,-11.631311723342947
71514,7614,71514.0,20241.0,71514.0,27844.0,-162.60246098857493,15.601718786295976,-4.200311245716023
71514,7629,71514.0,20246.0,71514.0,27853.0,-147.86501956093048,19.64753790088008,3.0161995319542143
71525,7664,71525.0,20256.0,71525.0,27882.0,-133.38786710429883,23.555113018245407,10.019975281214101
71525,7676,71525.0,20268.0,71525.0,27890.0,-119.17956344325626,27.326299821272357,16.813242479118458
71525,7677,71525.0,20258.0,71525.0,27879.0,-105.24744427235413,30.963438537243235,23.39889578764769
71525,7689,71525.0,20241.0,71525.0,27878.0,-91.59762944077346,34.46933748511924,29.7805130536521
71525,7696,71525.0,20274.0,71525.0,27869.0,-78.23522269154057,37.847064671537055,35.96208158104804
71525,7721,71525.0,20252.0,71525.0,27904.0,-65.16450837524508,41.09977805127548,41.94768043400961
71535,7739,71535.0,20284.0,71535.0,27914.0,-52.38900128375178,44.23072994485156,47.74142018081028
71535,7759,71535.0,20308.0,71535.0,27935.0,-39.91133934268669,47.24341920392334,53.34769863674569
71535,7760,71535.0,20304.0,71535.0,27918.0,-27.73313844600284,50.141937562946396,58.77151141308485
71535,7774,71535.0,20268.0,71535.0,27933.0,-15.85496112412477,52.93125709654825,64.01854595029107
71535,7775,71535.0,20275.0,71535.0,27939.0,-4.276425298860545,55.6170539057801,69.09509934836842
71535,7821,71535.0,20276.0,71535.0,27961.0,7.003690580986358,58.205239891096454,74.00806468154104
71545,7834,71545.0,20312.0,71545.0,27964.0,17.98755850464204,60.70172657607972,78.76508678067194
71545,7820,71545.0,20290.0,71545.0,27956.0,28.678567215723433,63.112568525808484,83.37473345829198
71545,7832,71545.0,20274.0,71545.0,27946.0,39.08136942335307,65.44411582946671,87.8464593204418
71545,7844,71545.0,20265.0,71545.0,27944.0,49.2016450421695,67.70279904103566,92.19031939273134
71545,7843,71545.0,20267.0,71545.0,27931.0,59.04587780195345,69.89466982290043,96.41657796767475
71545,7858,71545.0,20287.0,71545.0,27949.0,68.62122397416408,72.02508564374276,100.53535401521066
71556,7858,71556.0,20305.0,71556.0,27954.0,77.93538396774534,74.09874071129755,104.55642223024284
71556,7886,71556.0,20324.0,71556.0,27961.0,86.99650692328248,76.12000654038542,108.4892199873409
71556,7897,71556.0,20301.0,71556.0,27968.0,95.8132171037795,78.09334117922072,112.34294453670293
71556,7901,71556.0,20274.0,71556.0,27966.0,104.39474765498028,80.0233844668152,116.12661669035242
71556,7891,71556.0,20301.0,71556.0,27982.0,112.75098718144454,81.91462584946996,119.8491005830922
71556,7923,71556.0,20356.0,71556.0,27959.0,120.89233968029725,83.77118089380636,123.51908731256867
71566,7915,71566.0,20329.0,71566.0,27984.0,128.8295897696853,85.59716811560602,127.14500777054758
71566,7925,71566.0,20327.0,71566.0,27986.0,136.57387001809798,87.39724279520448,130.73494319335077
71566,7917,71566.0,20286.0,71566.0,27972.0,144.13657015644827,89.17659553190524,134.29662220461927
71566,7929,71566.0,20300.0,71566.0,27975.0,151.52912710588834,90.94044371959637,137.83735433674002
71566,7927,71566.0,20280.0,71566.0,27984.0,158.76280069166495,92.69346302334583,141.3638309776266
71566,7943,71566.0,20318.0,71566.0,27984.0,165.84851158009394,94.43946427731544,144.88198778689497
71576,7962,71576.0,20338.0,71576.0,28022.0,172.7967916723967,96.18145731825493,148.3970497909774
71576,7980,71576.0,20358.0,71576.0,28016.0,179.61790731671675,97.92210972593398,151.91376908470534
71576,7964,71576.0,20300.0,71576.0,28012.0,186.32206393176853,99.664230029003,155.43671128518343
71576,7971,71576.0,20311.0,71576.0,28001.0,192.91943469908688,101.4107309068674,158.97029916809748
71576,7987,71576.0,20334.0,71576.0,28011.0,199.41998264047982,103.1641916968484,162.51858703151356
71576,8016,71576.0,20345.0,71576.0,28043.0,205.83338740750133,104.92670008467539,166.0850914658053
71587,8009,71587.0,20348.0,71587.0,28051.0,212.1692343134298,106.70012669985508,169.67295362656853
71587,8000,71587.0,20316.0,71587.0,28028.0,218.43718804692827,108.48635495088806,173.28526695220148
71587,8004,71587.0,20331.0,71587.0,28020.0,224.64686541504045,110.28715236308139,176.92511286400503
71587,7994,71587.0,20311.0,71587.0,28017.0,230.80749787432347,112.10383716245872,180.5952011410095
71587,8010,71587.0,20354.0,71587.0,28015.0,236.9276041308023,113.93705980016585,184.29743462247114
71587,8029,71587.0,20355.0,71587.0,28055.0,243.01481215368324,115.78689365455344,188.03268552502243
71597,8040,71597.0,20360.0,71597.0,28054.0,249.07591937575467,117.65317013110021,191.8009108115615
71597,8046,71597.0,20371.0,71597.0,28053.0,255.11709774513645,119.53578697697961,195.6014629006395
71597,8047,71597.0,20337.0,71597.0,28056.0,261.14402889535063,121.43480970219989,199.4332516848603
71597,8049,71597.0,20341.0,71597.0,28068.0,267.161882215382,123.35030539880225,203.29470930954363
71597,8073,71597.0,20366.0,71597.0,28073.0,273.1752287293684,125.28203645303583,207.1837783329441
71597,8073,71597.0,20367.0,71597.0,28074.0,279.18804644801435,127.22938449188501,211.09797593697243
71607,8076,71607.0,20367.0,71607.0,28079.0,285.20380288062074,129.19154909538673,215.03442902317965
71607,8076,71607.0,20363.0,71607.0,28097.0,291.2254445893635,131.1676853576842,218.98988027554276
71607,8068,71607.0,20337.0,71607.0,28083.0,297.2552329655191,133.15680021189317,222.96073611431012
71607,8083,71607.0,20356.0,71607.0,28073.0,303.29450101474185,135.15745611762242,226.94304534358753
71607,8101,71607.0,20367.0,71607.0,28111.0,309.34348691014645,137.16752094603504,230.93233171039952
71607,8118,71607.0,20387.0,71607.0,28117.0,315.40139807696073,139.18423124279582,234.9235658496292
71618,8123,71618.0,20410.0,71618.0,28127.0,321.4666491391731,141.20455679565083,238.91143663451737
71618,8136,71618.0,20384.0,71618.0,28116.0,327.53707745353915,143.22562577035308,242.89062056107394
71618,8146,71618.0,20376.0,71618.0,28128.0,333.61006949938223,145.24488266731151,246.8558145859609
71618,8133,71618.0,20389.0,71618.0,28125.0,339.6826143845723,147.2598820523193,250.801637823995
71618,8171,71618.0,20407.0,71618.0,28148.0,345.75127848308614,149.2680905099608,254.72258238974985
71618,8172,71618.0,20411.0,71618.0,28147.0,351.8122308218025,151.26700248199452,258.61308843691467
71628,8170,71628.0,20386.0,71628.0,28162.0,357.8613901596482,153.2543515119272,262.4676990526515
71628,8167,71628.0,20371.0,71628.0,28135.0,363.8944631812918,155.22802032839616,266.28114947943266
71628,8170,71628.0,20370.0,71628.0,28135.0,369.90675454111226,157.1856053217377,270.0482248975255
71628,8170,71628.0,20393.0,71628.0,28143.0,375.8929087747638,159.12400178031578,273.7634253927458
71628,8201,71628.0,20423.0,71628.0,28167.0,381.8467501808972,161.03939042843558,277.4207499357174
71628,8221,71628.0,20429.0,71628.0,28194.0,387.7613625108812,162.9276577464883,281.0138484711192
71638,8214,71638.0,20415.0,71638.0,28185.0,393.6293904545237,164.78488997197525,284.53644112530304
71638,8221,71638.0,20426.0,71638.0,28166.0,399.44326363534094,166.60757056967236,287.9826101102643
71638,8237,71638.0,20419.0,71638.0,28175.0,405.1951996695917,168.392521769333,291.34668930060235
71638,8255,71638.0,20425.0,71638.0,28182.0,410.87721521517074,170.13682098879343,294.62297226186837
71638,8259,71638.0,20402.0,71638.0,28216.0,416.4812950187687,171.83770843706347,297.8056477081257
71638,8274,71638.0,20431.0,71638.0,28209.0,421.99959779740027,173.49242933073558,300.88905566628506
71649,8264,71649.0,20434.0,71649.0,28199.0,427.42456767227316,175.09816259406975,303.8679771668216
71649,8268,71649.0,20413.0,71649.0,28209.0,432.74889879330374,176.65211505834665,306.73766015642866
71649,8279,71649.0,20418.0,71649.0,28216.0,437.9653878049056,178.15152221707672,309.4936910826335
71649,8289,71649.0,20439.0,71649.0,28243.0,443.06683426704683,179.59349694083505,312.13202193432016
71649,8309,71649.0,20461.0,71649.0,28236.0,448.0461046198958,180.97508039249675,314.64921359295903
71649,8310,71649.0,20458.0,71649.0,28256.0,452.8963154051147,182.29360856371156,317.0427215847616
71659,8311,71659.0,20457.0,71659.0,28229.0,457.61099431496336,183.54707680170878,319.31105232684627
71659,8311,71659.0,20442.0,71659.0,28230.0,462.18409179853256,184.7342312313902,321.4536928109733
71659,8335,71659.0,20438.0,71659.0,28222.0,466.60990414790297,185.85439523156234,323.4708319889291
71659,8336,71659.0,20485.0,71659.0,28256.0,470.8830984918104,186.9072859960889,325.3631126789567
71659,8346,71659.0,20478.0,71659.0,28251.0,474.9988580966833,187.89316118770452,327.13167100274353
71659,8353,71659.0,20436.0,71659.0,28238.0,478.95301255950903,188.81313986672376,328.7783419105191
71669,8350,71669.0,20445.0,71669.0,28225.0,482.7421004323794,189.6691249738412,330.30565232292867
71669,8333,71669.0,20433.0,71669.0,28223.0,486.3633178697048,190.46333947486252,331.7165127886316
71669,8353,71669.0,20416.0,71669.0,28229.0,489.8143068680913,191.19791121015055,333.0138747108073
71669,8378,71669.0,20443.0,71669.0,28250.0,493.09300175516285,191.87459542707563,334.2006039942949
71669,8380,71669.0,20467.0,71669.0,28262.0,496.1977910186481,192.4947219509986,335.27964792174697
71669,8378,71669.0,20454.0,71669.0,28258.0,499.12782252732825,193.059496456385,336.25436969481495
71680,8369,71680.0,20445.0,71680.0,28238.0,501.88310411617783,193.57032187975378,337.12875305629285
71680,8379,71680.0,20457.0,71680.0,28245.0,504.4643671845032,194.02881209080047,337.9072987962294
71680,8397,71680.0,20470.0,71680.0,28264.0,506.87294222657397,194.43672240774333,338.59482550463326
71680,8390,71680.0,20475.0,71680.0,28245.0,509.1108203135234,194.796086295977,339.19645977151504
71680,8378,71680.0,20478.0,71680.0,28246.0,511.18074465933466,195.1094752196112,339.7176942572438
71680,8380,71680.0,20428.0,71680.0,28238.0,513.086095433593,195.38009016324042,340.1642827651885
71690,8374,71690.0,20422.0,71690.0,28223.0,514.8306304707991,195.61142772934585,340.54201059187244
71690,8389,71690.0,20437.0,71690.0,28219.0,516.4182881905907,195.80667046775858,340.85640877896816
71690,8386,71690.0,20444.0,71690.0,28245.0,517.8531355841757,195.968333568275,341.1125031520582
71690,8425,71690.0,20486.0,71690.0,28244.0,519.1394793553836,196.09842280624994,341.3148124847284
71690,8397,71690.0,20468.0,71690.0,28246.0,520.2821218714234,196.19891747702235,341.46757538912595
71690,8400,71690.0,20453.0,71690.0,28246.0,521.2865492926596,196.27217755359158,341.5749366314777
71700,8394,71700.0,20422.0,71700.0,28246.0,522.158847330624,196.32088239897064,341.64099761913405
71700,8397,71700.0,20454.0,71700.0,28251.0,522.9054861189327,196.34759000120917,341.6698240153814
71700,8409,71700.0,20471.0,71700.0,28263.0,523.5332067311936,196.35448531256267,341.66549939297596
71700,8407,71700.0,20457.0,71700.0,28276.0,524.049055685037,196.34358676705125,341.6322956242992
71700,8399,71700.0,20477.0,71700.0,28250.0,524.4604619825944,196.31706687324083,341.57489916301233
71700,8384,71700.0,20452.0,71700.0,28227.0,524.7751763500119,196.27738730403505,341.49840773380504
71711,8385,71711.0,20417.0,71711.0,28233.0,525.0010218454945,196.22718162917698,341.40795966763426
71711,8381,71711.0,20438.0,71711.0,28235.0,525.145605344568,196.16883704419806,341.3083134455234
71711,8411,71711.0,20471.0,71711.0,28249.0,525.2161859547006,196.10413726062768,341.2037172743624
71711,8403,71711.0,20461.0,71711.0,28250.0,525.219799278103,196.03442384327673,341.09804223537475
71711,8409,71711.0,20463.0,71711.0,28253.0,525.1635097938437,195.9610128532421,340.99498661442766
71711,8382,71711.0,20456.0,71711.0,28233.0,525.0545159052248,195.88537903427,340.89818129526714
71721,8392,71721.0,20455.0,71721.0,28224.0,524.899996119714,195.8091014262129,340.81107467265434
71721,8397,71721.0,20476.0,71721.0,28263.0,524.7068823130046,195.73380308494265,340.73671434531053
71721,8413,71721.0,20480.0,71721.0,28257.0,524.4818269786641,195.661258897354,340.67777760548194
71721,8415,71721.0,20460.0,71721.0,28244.0,524.2314047148785,195.593614773906,340.6368486030367
71721,8394,71721.0,20433.0,71721.0,28232.0,523.9623230999103,195.53338222319582,340.61650497357317
71721,8380,71721.0,20435.0,71721.0,28232.0,523.681371565054,195.4830503906785,340.6190843291513
71731,8373,71731.0,20427.0,71731.0,28231.0,523.3950716233743,195.44459880524283,340.6464098035645
71731,8408,71731.0,20446.0,71731.0,28267.0,523.1093398915949,195.41923050641753,340.6997214733997
71731,8416,71731.0,20464.0,71731.0,28260.0,522.8295320147113,195.4074206066843,340.7799066878514
71731,8398,71731.0,20454.0,71731.0,28242.0,522.5607964726217,195.4092053725835,340.88782486991266
71731,8401,71731.0,20491.0,71731.0,28240.0,522.308286804976,195.42452562392228,341.0243503467698
71731,8384,71731.0,20438.0,71731.0,28253.0,522.0770539993875,195.4534746907723,341.1901675843149
71742,8390,71742.0,20471.0,71742.0,28256.0,521.8718131545409,195.49633355146673,341.3856850916109
71742,8410,71742.0,20458.0,71742.0,28268.0,521.6967987720775,195.55343969358856,341.61117523134084
71742,8394,71742.0,20475.0,71742.0,28263.0,521.5558198316778,195.62515479615496,341.8669840960295
71742,8371,71742.0,20443.0,71742.0,28226.0,521.4523242843445,195.71193122306195,342.1535969257721
71742,8366,71742.0,20417.0,71742.0,28241.0,521.3891652375562,195.81415959356204,342.471395135707
71742,8375,71742.0,20434.0,71742.0,28224.0,521.3681921714262,195.9317063513313,342.8202607670048
71752,8388,71752.0,20440.0,71752.0,28240.0,521.3900516046456,196.06351368853927,343.1993258402436
71752,8406,71752.0,20461.0,71752.0,28258.0,521.4543307189895,196.2076119364712,343.60695970978435
71752,8406,71752.0,20510.0,71752.0,28284.0,521.559902260757,196.36153636231484,344.0410349219459
71752,8415,71752.0,20492.0,71752.0,28260.0,521.7052622864828,196.52301486473434,344.49938258285056
71752,8399,71752.0,20455.0,71752.0,28255.0,521.888719125506,196.6905138016817,344.9800608890383
71752,8401,71752.0,20455.0,71752.0,28252.0,522.1083890844893,196.86314823169644,345.4812426114577
71763,8431,71763.0,20488.0,71763.0,28269.0,522.3621264428502,197.04024196211856,346.0010008690237
71763,8430,71763.0,20488.0,71763.0,28241.0,522.6476508834469,197.22124775998918,346.53724217004395
71763,8410,71763.0,20456.0,71763.0,28264.0,522.9628198104656,197.40599739341707,347.087675481742
71763,8399,71763.0,20455.0,71763.0,28252.0,523.3056510024868,197.59469666687005,347.64974251925
71763,8397,71763.0,20445.0,71763.0,28245.0,523.6740106749758,197.78756427096164,348.220570040834
71763,8412,71763.0,20443.0,71763.0,28257.0,524.065300933155,197.9844645466121,348.7968976879544
71773,8418,71773.0,20429.0,71773.0,28255.0,524.4764097715081,198.18465760842915,349.3750118201739
71773,8432,71773.0,20473.0,71773.0,28281.0,524.9039014447694,198.3866567173148,349.950823063523
71773,8430,71773.0,20484.0,71773.0,28261.0,525.3442854124161,198.58838922791907,350.5200715019167
71773,8431,71773.0,20470.0,71773.0,28282.0,525.7942202812467,198.78766318005592,351.0785078630421
71773,8427,71773.0,20448.0,71773.0,28278.0,526.2505840503796,198.98245997621137,351.62199619399274
71773,8408,71773.0,20475.0,71773.0,28267.0,526.7103966003958,199.17080834315777,352.14658268406276
71783,8439,71783.0,20496.0,71783.0,28301.0,527.1706532168441,199.35067676510306,352.648534815075
71783,8420,71783.0,20489.0,71783.0,28286.0,527.6282453099877,199.52024062571786,353.1244420333588
71783,8432,71783.0,20455.0,71783.0,28266.0,528.0800149750005,199.67817604347704,353.5713497308501
71783,8425,71783.0,20468.0,71783.0,28259.0,528.5227896913807,199.8235413111118,353.98663523027847
71783,8425,71783.0,20449.0,71783.0,28273.0,528.9533507184832,199.95540788016012,354.36766634637456
71783,8420,71783.0,20453.0,71783.0,28260.0,529.3683676700687,200.07257483805424,354.71159473772104
71794,8434,71794.0,20472.0,71794.0,28290.0,529.7643256816102,200.17343774214152,355.01536913358063
71794,8451,71794.0,20490.0,71794.0,28292.0,530.1375707493632,200.25609279956262,355.2759098401374
71794,8438,71794.0,20475.0,71794.0,28284.0,530.4845239470985,200.3186703722202,355.4903839110557
71794,8437,71794.0,20444.0,71794.0,28264.0,530.8018582179267,200.35952550158365,355.6563301383843
71794,8429,71794.0,20472.0,71794.0,28265.0,531.0864577448739,200.37704064252506,355.7714700334227
71794,8450,71794.0,20488.0,71794.0,28291.0,531.3352895258392,200.36941909521147,355.8334578430939
71804,8451,71804.0,20488.0,71804.0,28292.0,531.5454220056505,200.33486988379332,355.83992180403703
71804,8426,71804.0,20494.0,71804.0,28287.0,531.7141503892706,200.27197569562694,355.7887420694468
71804,8428,71804.0,20444.0,71804.0,28270.0,531.8389454106996,200.179825026301,355.678199090623
71804,8428,71804.0,20446.0,71804.0,28267.0,531.9171993379387,200.057716322342,355.5068306229672
71804,8436,71804.0,20479.0,71804.0,28246.0,531.9460505949182,199.90468307118664,355.27312288390357
71804,8438,71804.0,20458.0,71804.0,28297.0,531.922404462475,199.71935186570505,354.97526459327645
71814,8456,71814.0,20489.0,71814.0,28269.0,531.8430750737311,199.50015371367067,354.611196674932
71814,8447,71814.0,20481.0,71814.0,28318.0,531.7049921380881,199.24557900649828,354.17893744007756
71814,8447,71814.0,20486.0,71814.0,28274.0,531.5053713084692,198.95440131669727,353.6769323742955
71814,8441,71814.0,20448.0,71814.0,28267.0,531.2417369847333,198.62575876546612,353.1041695524947
71814,8437,71814.0,20474.0,71814.0,28272.0,530.9118259748284,198.2589655052608,352.4599554973377
71814,8449,71814.0,20483.0,71814.0,28294.0,530.5134874463661,197.85331238214278,351.7436773335056
71825,8444,71825.0,20484.0,71825.0,28282.0,530.0446743574771,197.40817047716325,350.95489326963263
71825,8441,71825.0,20504.0,71825.0,28305.0,529.5035021521148,196.92329433894002,350.09359964819936
71825,8426,71825.0,20450.0,71825.0,28243.0,528.8882290783259,196.39902541450428,349.1603608989384
71825,8424,71825.0,20440.0,71825.0,28249.0,528.1970873610096,195.8361184355867,348.15607573874127
71825,8429,71825.0,20460.0,71825.0,28244.0,527.4280725443075,195.23522515468312,347.08145650373956
71825,8444,71825.0,20442.0,71825.0,28296.0,526.5788772447636,194.59651907971258,345.9367457317773
71835,8464,71835.0,20468.0,71835.0,28272.0,525.6470847319829,193.91967368077653,344.72198769768056
71835,8444,71835.0,20466.0,71835.0,28264.0,524.6305293177328,193.20401193014118,343.4374602665401
71835,8440,71835.0,20459.0,71835.0,28243.0,523.5275241174476,192.44870778491227,342.0837287509801
71835,8437,71835.0,20458.0,71835.0,28251.0,522.3367984013811,191.65289999503213,340.6613500939862
71835,8440,71835.0,20456.0,71835.0,28265.0,521.05733886612,190.8156555265826,339.1706442460567
71835,8437,71835.0,20474.0,71835.0,28280.0,519.6883311690143,189.93594250100608,337.6117978270111
71845,8441,71845.0,20507.0,71845.0,28274.0,518.2291835454689,189.01282314566944,335.98521708805407
71845,8442,71845.0,20466.0,71845.0,28283.0,516.6795819420424,188.04586678581418,334.2918630329279
71845,8428,71845.0,20476.0,71845.0,28237.0,515.0395422801694,187.03541053972572,332.5333642849299
71845,8415,71845.0,20433.0,71845.0,28242.0,513.3093546266971,185.9823904791432,330.7118044574715
71845,8426,71845.0,20441.0,71845.0,28247.0,511.4893949866598,184.88789907154995,328.82933575597133
71845,8431,71845.0,20484.0,71845.0,28243.0,509.58000708169334,183.75284731324138,326.8879809921386
71856,8440,71856.0,20471.0,71856.0,28250.0,507.5816159994585,182.57809174216067,324.88968870203337
71856,8415,71856.0,20443.0,71856.0,28231.0,505.4949320412732,181.3648097622106,322.8364207172447
71856,8413,71856.0,20436.0,71856.0,28231.0,503.3209776213573,180.11450399165554,320.730130464672
71856,8416,71856.0,20462.0,71856.0,28227.0,501.0609210039811,178.82868011844343,318.5726440733503
71856,8434,71856.0,20476.0,71856.0,28247.0,498.7159961184118,177.50878913991428,316.3656020751009
71856,8420,71856.0,20466.0,71856.0,28246.0,496.2876601921647,176.15656547941654,314.11060734675294
71866,8402,71866.0,20424.0,71866.0,28249.0,493.7777564333958,174.7742711906588,311.80951043176924
71866,8415,71866.0,20404.0,71866.0,28216.0,491.1884530333657,173.3644050219199,309.4645873158368
71866,8385,71866.0,20419.0,71866.0,28204.0,488.52207175684583,171.92905435702843,307.078397104132
71866,8389,71866.0,20452.0,71866.0,28201.0,485.78091937956884,170.46952742869476,304.65338226276737
71866,8405,71866.0,20434.0,71866.0,28222.0,482.9671421364626,168.98656727396173,302.19156347165716
71866,8402,71866.0,20472.0,71866.0,28208.0,480.08276905111387,167.48081347429925,299.6945657871064
71876,8387,71876.0,20429.0,71876.0,28227.0,477.12991371979155,165.9531514291841,297.16383641188014
71876,8383,71876.0,20428.0,71876.0,28196.0,474.11083901943346,164.40479533482926,294.6008172425467
71876,8381,71876.0,20419.0,71876.0,28205.0,471.02784217141743,162.8370623397325,292.0069608398004
71876,8390,71876.0,20439.0,71876.0,28204.0,467.8831786486224,161.2511090171099,289.3836403665857
71876,8381,71876.0,20454.0,71876.0,28220.0,464.67913008423835,159.64797212120084,286.7321618889701
71876,8368,71876.0,20459.0,71876.0,28207.0,461.41809266122635,158.02892168345107,284.053957918627
71887,8371,71887.0,20391.0,71887.0,28183.0,458.102542223139,156.39574392903324,281.3507314484002
71887,8359,71887.0,20392.0,71887.0,28197.0,454.734928644481,154.75047030213722,278.6243541320578
71887,8356,71887.0,20428.0,71887.0,28170.0,451.317594495098,153.09475896385908,275.8766561656252
71887,8357,71887.0,20398.0,71887.0,28184.0,447.85271589574256,151.42965319212615,273.1092818506624
71887,8365,71887.0,20421.0,71887.0,28188.0,444.3423120339788,149.75574901245895,270.32364518442847
71887,8368,71887.0,20416.0,71887.0,28181.0,440.7883940982223,148.07335716341692,267.52102589754946
71897,8352,71897.0,20425.0,71897.0,28164.0,437.1931726127852,146.3826472318996,264.70268446864264
71897,8338,71897.0,20393.0,71897.0,28161.0,433.55912073394165,144.68377799275845,261.8697937012257
71897,8331,71897.0,20409.0,71897.0,28165.0,429.88881248497296,142.97684395334684,259.0232677703084
71897,8352,71897.0,20430.0,71897.0,28191.0,426.18473619815865,141.2617797574516,256.1637598786181
71897,8324,71897.0,20415.0,71897.0,28176.0,422.44929961831156,139.5385118359077,253.29193372447475
71897,8315,71897.0,20398.0,71897.0,28164.0,418.6848788555602,137.80718124087286,250.40876186279206
71907,8320,71907.0,20403.0,71907.0,28149.0,414.89369659475744,136.06809565587037,247.51553725787412
71907,8312,71907.0,20394.0,71907.0,28125.0,411.0776792392245,134.3215259284009,244.6135919240648
71907,8304,71907.0,20406.0,71907.0,28151.0,407.23843457704555,132.56761019909797,241.70394927060187
71907,8316,71907.0,20395.0,71907.0,28152.0,403.3772649109329,130.80638585664832,238.78720354900415
71907,8314,71907.0,20397.0,71907.0,28138.0,399.4952378587764,129.0378481276294,235.8636951766776
71907,8320,71907.0,20408.0,71907.0,28145.0,395.5933775148561,127.26199482434922,232.93369050003332
71918,8294,71918.0,20392.0,71918.0,28123.0,391.67284843933345,125.47890379460004,229.99738992004762
71918,8293,71918.0,20395.0,71918.0,28140.0,387.73495637621176,123.6887985500044,227.05486353163968
71918,8277,71918.0,20410.0,71918.0,28131.0,383.780969707954,121.8920636182787,224.10603771620694
71918,8305,71918.0,20407.0,71918.0,28157.0,379.8119700472851,120.08935127046433,221.15082375071634
71918,8301,71918.0,20413.0,71918.0,28125.0,375.82895048596646,118.28180591636547,218.1893540293991
71918,8271,71918.0,20358.0,71918.0,28116.0,371.83306634830404,116.47115520352627,215.2220891227256
71928,8265,71928.0,20353.0,71928.0,28084.0,367.82566200277984,114.65939660423042,212.24959127224042
71928,8254,71928.0,20365.0,71928.0,28105.0,363.8079967916774,112.84821907447653,209.27209989696766
71928,8260,71928.0,20351.0,71928.0,28102.0,359.7809816882495,111.03864137021903,206.2892774127735
71928,8269,71928.0,20392.0,71928.0,28108.0,355.74514115588534,109.23103898611075,203.30028320860686
71928,8264,71928.0,20385.0,71928.0,28107.0,351.7007860127969,107.42544230777939,200.3039977022535
71928,8256,71928.0,20393.0,71928.0,28109.0,347.64823133711144,105.6219683480382,197.2992184119302
71938,8256,71938.0,20336.0,71938.0,28102.0,343.58789547711774,103.82105214733049,194.2848017674303
71938,8252,71938.0,20394.0,71938.0,28125.0,339.52031253241563,102.02328962558083,191.25979117017678
71938,8251,71938.0,20341.0,71938.0,28126.0,335.44616352308196,100.22922173687886,188.2236446632185
71938,8240,71938.0,20403.0,71938.0,28107.0,331.3663221798928,98.43935334733911,185.1765420000448
71938,8237,71938.0,20364.0,71938.0,28088.0,327.28185664363895,96.65435015389079,182.119487805131
71938,8228,71938.0,20371.0,71938.0,28075.0,323.19397894868143,94.87524160877699,179.0540671342378
71949,8217,71949.0,20337.0,71949.0,28058.0,319.1039645158768,93.10339305104034,175.98203553803643
71949,8224,71949.0,20344.0,71949.0,28063.0,315.01306387587033,91.34020248962874,172.90495404795533
71949,8210,71949.0,20337.0,71949.0,28105.0,310.9224612210682,89.58677091366492,169.82407747358994
71949,8222,71949.0,20373.0,71949.0,28067.0,306.83330605274466,87.84380512311638,166.7406275020003
71949,8214,71949.0,20364.0,71949.0,28074.0,302.74680169297346,86.1118562538512,163.65612878387506
71949,8189,71949.0,20341.0,71949.0,28051.0,298.66427979121016,84.39165719618425,160.57242143268746
71959,8198,71959.0,20321.0,71959.0,28044.0,294.5871312664834,82.68412581037332,157.49143690510104
71959,8189,71959.0,20355.0,71959.0,28069.0,290.5166604234769,80.99005415141288,154.4150063578364
71959,8206,71959.0,20358.0,71959.0,28073.0,286.454080757875,79.31000376932242,151.34492807488346
71959,8185,71959.0,20339.0,71959.0,28049.0,282.40066657280227,77.64455681431724,148.2832655713805
71959,8170,71959.0,20325.0,71959.0,28025.0,278.35784787379225,75.99446556669831,145.2324553793809
71959,8166,71959.0,20354.0,71959.0,28031.0,274.32708862498237,74.36052025981775,142.1950301699632
71970,8152,71970.0,20307.0,71970.0,28005.0,270.30965152908027,72.74343063371495,139.17325057277242
71970,8171,71970.0,20319.0,71970.0,28017.0,266.3064536795551,71.14372928972853,136.16886215181225
71970,8170,71970.0,20352.0,71970.0,28036.0,262.3181283955827,69.56163004159461,133.1830280591702
71970,8155,71970.0,20335.0,71970.0,28027.0,258.3452385670391,67.99714277901157,130.21652432920874
71970,8153,71970.0,20342.0,71970.0,28028.0,254.3884067339542,66.45041043107,127.27005611147786
71970,8135,71970.0,20316.0,71970.0,28011.0,250.44825259809693,64.92185518746365,124.34441149227342
71980,8139,71980.0,20314.0,71980.0,28022.0,246.5252492491333,63.41203480807718,121.4404346646202
71980,8143,71980.0,20333.0,71980.0,27992.0,242.6196397447938,61.921427568788346,118.55894793712466
71980,8141,71980.0,20309.0,71980.0,28008.0,238.7315050956455,60.45037248271896,115.70064886223363
71980,8137,71980.0,20315.0,71980.0,27993.0,234.860924956004,58.999104070484975,112.86600876557347
71980,8120,71980.0,20299.0,71980.0,27981.0,231.00806709366884,57.56768132040284,110.05520908053975
71980,8102,71980.0,20282.0,71980.0,27976.0,227.17309635237416,56.15579464161476,107.26802845314359
71990,8117,71990.0,20321.0,71990.0,28003.0,223.35595571713174,54.76256616166961,104.503729180396
71990,8129,71990.0,20343.0,71990.0,27998.0,219.55628660735726,53.38663884152086,101.76118381038034
71990,8135,71990.0,20290.0,71990.0,27989.0,215.77367862689573,52.02660300294133,99.03918526062719
71990,8100,71990.0,20322.0,71990.0,27970.0,212.00801605043642,50.6812321179207,96.3365883603256
71990,8103,71990.0,20297.0,71990.0,27996.0,208.25953857189506,49.34935588620897,93.6522180930796
71990,8088,71990.0,20298.0,71990.0,27978.0,204.52862036275462,48.029714671435414,90.98483396684654
72000,8098,72000.0,20327.0,72000.0,27991.0,200.81557098946035,46.72092485211758,88.33325780429692
72000,8096,72000.0,20338.0,72000.0,27989.0,197.12062007503414,45.42166036064111,85.69653142578437
72000,8085,72000.0,20316.0,72000.0,27974.0,193.44402093438958,44.131056522262014,83.07403747664978
72000,8070,72000.0,20286.0,72000.0,27961.0,189.786093062435,42.84889101480553,80.46549843089628
72000,8062,72000.0,20283.0,72000.0,27953.0,186.14709013639668,41.575264725981356,77.87078498364178
72000,8046,72000.0,20259.0,72000.0,27949.0,182.52696232786252,40.310057743349404,75.2896613362139
72010,8080,72010.0,20280.0,72010.0,27955.0,178.92518898006563,39.05250248742328,72.72163332425174
72010,8067,72010.0,20328.0,72010.0,27955.0,175.34087188057947,37.80112291328771,70.16595808469174
72010,8050,72010.0,20307.0,72010.0,27965.0,171.77299605214796,36.554183488624744,67.6217889677518
72010,8052,72010.0,20288.0,72010.0,27966.0,168.2205140546464,35.310233128459316,65.08839905029987
72010,8038,72010.0,20290.0,72010.0,27940.0,164.6822234718153,34.06817952002331,62.56536994538692
72010,8056,72010.0,20275.0,72010.0,27944.0,161.15668248448384,32.82701935208229,60.05258200689576
72020,8044,72020.0,20316.0,72020.0,27938.0,157.64227487191567,31.58567577335006,57.55004641537772
72020,8041,72020.0,20315.0,72020.0,27944.0,154.13734758388176,30.343171792804952,55.05780782861592
72020,8032,72020.0,20293.0,72020.0,27937.0,150.64027117717825,29.099006088409254,52.57598437859298
72020,8030,72020.0,20273.0,72020.0,27930.0,147.14939685865016,27.8532718683542,50.10482763645666
72020,8026,72020.0,20261.0,72020.0,27919.0,143.663005299872,26.60632654634054,47.6446932589667
72020,8027,72020.0,20230.0,72020.0,27894.0,140.1793039390655,25.35825710032441,45.19586969095735
72031,8016,72031.0,20283.0,72031.0,27920.0,136.69646068135495,24.10843252424047,42.75832157695868
72031,8046,72031.0,20318.0,72031.0,27935.0,133.2126821472982,22.855537998278663,40.331621075308874
72031,8022,72031.0,20286.0,72031.0,27924.0,129.7264053313143,21.598210195155616,37.91523504248232
72031,8018,72031.0,20256.0,72031.0,27905.0,126.23650356107402,20.3355573627816,35.50883620812135
72031,8006,72031.0,20275.0,72031.0,27912.0,122.74229026652574,19.067005675894478,33.112300392677696
72031,8019,72031.0,20298.0,72031.0,27918.0,119.24339749326748,17.79199602637908,30.725582028568965
72041,7999,72041.0,20300.0,72041.0,27914.0,115.73974571833855,16.510146480491812,28.348759402518056
72041,8006,72041.0,20283.0,72041.0,27898.0,112.23158069394333,15.2216557865151,25.98215652775218
72041,8009,72041.0,20253.0,72041.0,27894.0,108.71950648907875,13.927403561498892,23.626314985189595
