c_ts,c_val,d_ts,d_val,e_ts,e_val,c_val_filtered,d_val_filtered,e_val_filtered
207268,10701,207268.0,41912.0,207268.0,60234.0,-129.76954228414047,-35.058305056531225,-97.59941523108601
207268,10693,207268.0,41896.0,207268.0,60231.0,-137.0215771728005,-41.389209569956144,-105.91286814358179
207268,10678,207268.0,41873.0,207268.0,60187.0,-144.43884738939425,-47.706436090619874,-114.30509707472896
207268,10649,207268.0,41794.0,207268.0,60130.0,-152.0121844007958,-53.99086953030911,-122.75800212702613
207268,10635,207268.0,41798.0,207268.0,60145.0,-159.73277055576355,-60.22516822858685,-131.25482232854813
207268,10657,207268.0,41840.0,207268.0,60173.0,-167.59247068188893,-66.3946203122703,-139.7807466435727
207279,10661,207279.0,41915.0,207279.0,60191.0,-175.5838493538926,-72.48708694038802,-148.32275254047676
207279,10644,207279.0,41880.0,207279.0,60159.0,-183.69984171710038,-78.49188315802812,-156.86891139592527
207279,10618,207279.0,41829.0,207279.0,60124.0,-191.93350511352662,-84.39870778348886,-165.40797469719993
207279,10604,207279.0,41769.0,207279.0,60081.0,-200.2781431565217,-90.19771549216999,-173.92966236581196
207279,10606,207279.0,41763.0,207279.0,60131.0,-208.72761224862415,-95.88057358070745,-182.4252892954035
207279,10630,207279.0,41857.0,207279.0,60131.0,-217.27642017960622,-101.44134413129882,-190.88796344305922
207289,10627,207289.0,41900.0,207289.0,60189.0,-225.91942475018502,-106.8761131981049,-199.3120137461787
207289,10603,207289.0,41845.0,207289.0,60150.0,-234.65136937722903,-112.18160196358777,-207.69201641145813
207289,10578,207289.0,41785.0,207289.0,60095.0,-243.46670511654935,-117.35428588670433,-216.02215235564768
207289,10557,207289.0,41757.0,207289.0,60057.0,-252.3598389117199,-122.39089417928139,-224.2964707160159
207289,10567,207289.0,41785.0,207289.0,60082.0,-261.32552087858386,-127.28949844912137,-232.5097510117915
207289,10566,207289.0,41863.0,207289.0,60112.0,-270.35900248611836,-132.0499014990858,-240.65796644917688
207299,10581,207299.0,41861.0,207299.0,60124.0,-279.4558423550088,-136.6728588628444,-248.73787498522827
207299,10557,207299.0,41796.0,207299.0,60079.0,-288.61153386915436,-141.15895472028566,-256.74626849748415
207299,10520,207299.0,41749.0,207299.0,60053.0,-297.821304850386,-145.50840914281085,-264.6796977526509
207299,10512,207299.0,41729.0,207299.0,60028.0,-307.0803282423747,-149.72200081011067,-272.53487160544967
207299,10529,207299.0,41806.0,207299.0,60060.0,-316.3840869442972,-153.80203261362288,-280.30920234614337
207299,10553,207299.0,41854.0,207299.0,60099.0,-325.72835261560215,-157.7522290927338,-288.0008274486279
207310,10521,207310.0,41863.0,207310.0,60096.0,-335.10870776865943,-161.57651908588264,-295.6079236452474
207310,10498,207310.0,41780.0,207310.0,60053.0,-344.52015566980316,-165.27783676933373,-303.1278962262118
207310,10480,207310.0,41750.0,207310.0,60026.0,-353.9572188911538,-168.85807627380692,-310.5572005006058
207310,10462,207310.0,41739.0,207310.0,59998.0,-363.41432632644694,-172.3190743147423,-317.8918501457116
207310,10485,207310.0,41808.0,207310.0,60027.0,-372.88609624321475,-175.66346117738755,-325.1280357955418
207310,10494,207310.0,41829.0,207310.0,60057.0,-382.3672565127817,-178.89449157740032,-332.262246876358
207320,10473,207320.0,41813.0,207320.0,60052.0,-391.8522305251046,-182.01511030153517,-339.2907430090006
207320,10440,207320.0,41768.0,207320.0,60006.0,-401.33482810911295,-185.02727653172064,-346.2089235233739
207320,10429,207320.0,41724.0,207320.0,59969.0,-410.80838364961534,-187.9322004245703,-353.0113156547703
207320,10431,207320.0,41742.0,207320.0,59978.0,-420.2661068489731,-190.73119844188562,-359.6921795470075
207320,10442,207320.0,41812.0,207320.0,60023.0,-429.7012011285114,-193.426242546833,-366.2459652697221
207320,10457,207320.0,41838.0,207320.0,60049.0,-439.1065900146616,-196.01947872845207,-372.66697241920394
207331,10438,207331.0,41810.0,207331.0,60006.0,-448.4744217248856,-198.51207906499525,-378.9484796163751
207331,10410,207331.0,41748.0,207331.0,59974.0,-457.7957205041051,-200.90359090453234,-385.08226083795654
207331,10386,207331.0,41701.0,207331.0,59936.0,-467.06046626574073,-203.19244083905778,-391.05894818656526
207331,10400,207331.0,41758.0,207331.0,59974.0,-476.2579429536179,-205.37704910219875,-396.8687576945865
207331,10404,207331.0,41806.0,207331.0,60002.0,-485.3768945386318,-207.45632603567725,-402.50174873476834
207331,10394,207331.0,41822.0,207331.0,59990.0,-494.405316979309,-209.42899414886548,-407.9473542682929
207341,10371,207341.0,41786.0,207341.0,59973.0,-503.330198163753,-211.2925149437806,-413.19376913322105
207341,10343,207341.0,41714.0,207341.0,59920.0,-512.1375502548767,-213.04276395611942,-418.2278706181548
207341,10334,207341.0,41690.0,207341.0,59908.0,-520.812738906444,-214.67481229553908,-423.0357587234445
207341,10342,207341.0,41747.0,207341.0,59936.0,-529.3408224309887,-216.18408222514606,-427.6034490500819
207341,10352,207341.0,41820.0,207341.0,59972.0,-537.7065897369984,-217.56663234350683,-431.91703676656437
207341,10348,207341.0,41808.0,207341.0,59970.0,-545.8942651385325,-218.81819003278957,-435.96213580424325
207351,10318,207351.0,41748.0,207351.0,59926.0,-553.8871840894028,-219.93302613953833,-439.72321501666767
207351,10293,207351.0,41689.0,207351.0,59893.0,-561.6677945052312,-220.903959120019,-443.1835765018336
207351,10295,207351.0,41690.0,207351.0,59888.0,-569.2179943306951,-221.72347264552488,-446.3259988506605
207351,10292,207351.0,41744.0,207351.0,59928.0,-576.5194456948435,-222.38479337126628,-449.1333557684538
207351,10313,207351.0,41786.0,207351.0,59943.0,-583.5535727976587,-222.88192938500134,-451.58858731577607
207351,10299,207351.0,41771.0,207351.0,59925.0,-590.3012765000815,-223.2087950236466,-453.6741558637257
207362,10281,207362.0,41709.0,207362.0,59867.0,-596.7426434700524,-223.35849280478186,-455.3717441891529
207362,10260,207362.0,41682.0,207362.0,59862.0,-602.8569439437074,-223.32359251844107,-456.6626941129687
207362,10247,207362.0,41696.0,207362.0,59871.0,-608.622930887837,-223.09710616604434,-457.5288037866582
207362,10253,207362.0,41771.0,207362.0,59918.0,-614.0191862424148,-222.6730843844865,-457.9526949734594
207362,10260,207362.0,41802.0,207362.0,59906.0,-619.0242579141183,-222.04612829941448,-457.91748782518187
207362,10256,207362.0,41754.0,207362.0,59895.0,-623.6165335712086,-221.21028043583016,-457.4062835766784
207372,10221,207372.0,41699.0,207372.0,59856.0,-627.7740968033656,-220.15853338520532,-456.4020911548672
207372,10224,207372.0,41667.0,207372.0,59814.0,-631.4748577608225,-218.88354735092665,-454.8883905016084
207372,10219,207372.0,41696.0,207372.0,59848.0,-634.696869936174,-217.37887860926497,-452.8500336425355
207372,10235,207372.0,41769.0,207372.0,59906.0,-637.4184958394536,-215.63956964023225,-450.2737595355043
207372,10239,207372.0,41800.0,207372.0,59896.0,-639.6182947798136,-213.66156282162464,-447.1478273725004
207372,10222,207372.0,41724.0,207372.0,59861.0,-641.2747993987482,-211.44060365457545,-443.46136778557633
207382,10192,207382.0,41670.0,207382.0,59830.0,-642.3664973491134,-208.97200371652514,-439.20442372419666
207382,10183,207382.0,41667.0,207382.0,59839.0,-642.8722029710732,-206.251680365654,-434.3687015911291
207382,10200,207382.0,41709.0,207382.0,59881.0,-642.7715768097506,-203.27738457911926,-428.9482416783036
207382,10212,207382.0,41795.0,207382.0,59910.0,-642.0453565309375,-200.04890281500207,-422.93939902431543
207382,10215,207382.0,41779.0,207382.0,59924.0,-640.6752067978807,-196.56711356856985,-416.3402461898637
207382,10192,207382.0,41781.0,207382.0,59894.0,-638.6435226449419,-192.83283966690806,-409.15001530680127
207393,10169,207393.0,41679.0,207393.0,59865.0,-635.9335613286443,-188.84656480670037,-401.36913396608395
207393,10173,207393.0,41696.0,207393.0,59867.0,-632.5299396491623,-184.60927739442258,-392.99989139438367
207393,10182,207393.0,41758.0,207393.0,59917.0,-628.4191532452289,-180.1235917035063,-384.04715004318723
207393,10207,207393.0,41820.0,207393.0,59934.0,-623.5897702736213,-175.3938733887887,-374.5184589660659
207393,10214,207393.0,41816.0,207393.0,59956.0,-618.03227562133,-170.42520737460833,-364.42360727385665
207393,10200,207393.0,41752.0,207393.0,59940.0,-611.7388371976713,-165.22242423732953,-353.774182042582
207403,10185,207403.0,41723.0,207403.0,59920.0,-604.7033467409415,-159.79025951921147,-342.5835695066377
207403,10198,207403.0,41727.0,207403.0,59957.0,-596.9218041967492,-154.1344333254853,-330.86737892380745
207403,10240,207403.0,41810.0,207403.0,60020.0,-588.3926593305498,-148.2625046171268,-318.64371596228654
207403,10263,207403.0,41846.0,207403.0,60046.0,-579.1166917899906,-142.18362576002357,-305.9327546515379
207403,10258,207403.0,41826.0,207403.0,60043.0,-569.0965490658793,-135.90750064470978,-292.7559149188405
207403,10240,207403.0,41751.0,207403.0,60019.0,-558.3365008743092,-129.44377853203727,-279.13545657565055
207413,10250,207413.0,41755.0,207413.0,60004.0,-546.842701289636,-122.8026401848513,-265.0948391658635
207413,10260,207413.0,41809.0,207413.0,60069.0,-534.6236711179479,-115.9958656433323,-250.65942601764147
207413,10307,207413.0,41861.0,207413.0,60129.0,-521.6905510399894,-109.03710633984163,-235.85668379501783
207413,10327,207413.0,41912.0,207413.0,60146.0,-508.0569329896949,-101.94104546907529,-220.71552055117934
207413,10335,207413.0,41856.0,207413.0,60145.0,-493.7384515416605,-94.72224757102555,-205.26541505986376
207413,10332,207413.0,41814.0,207413.0,60126.0,-478.7525456838292,-87.39477752705412,-189.53613991139895
207424,10348,207424.0,41811.0,207424.0,60135.0,-463.1185827227361,-79.97294265108108,-173.5581603939716
207424,10373,207424.0,41880.0,207424.0,60191.0,-446.8581170978279,-72.47227507326765,-157.36317190660617
207424,10425,207424.0,41963.0,207424.0,60249.0,-429.99492527594214,-64.90953566703165,-140.98410303779474
207424,10441,207424.0,41973.0,207424.0,60294.0,-412.5546743661004,-57.30153664552196,-124.45437484048459
207424,10459,207424.0,41912.0,207424.0,60260.0,-394.56445843753477,-49.66386903199537,-107.8069697423789
207424,10451,207424.0,41869.0,207424.0,60242.0,-376.05259026622474,-42.010797270556864,-91.07415897832644
207434,10481,207434.0,41892.0,207434.0,60280.0,-357.0487569137565,-34.35630023653806,-74.28805139975643
207434,10512,207434.0,41930.0,207434.0,60313.0,-337.5842548985914,-26.71505204007798,-57.48117336140547
207434,10562,207434.0,41975.0,207434.0,60376.0,-317.6919397257809,-19.10246386635869,-40.68638045723583
207434,10569,207434.0,42015.0,207434.0,60405.0,-297.40585638109894,-11.533926011920443,-23.936170881720273
207434,10591,207434.0,41956.0,207434.0,60370.0,-276.76088566413614,-4.023949830741486,-7.261965999226305
207434,10607,207434.0,41940.0,207434.0,60383.0,-255.792660248067,3.4140036741817994,9.306009501623862
207444,10629,207444.0,41962.0,207444.0,60409.0,-234.53765624531792,10.766893730371663,25.738273169940697
207444,10672,207444.0,42020.0,207444.0,60437.0,-213.0332425852986,18.02156307019567,42.00573904665953
207444,10724,207444.0,42061.0,207444.0,60494.0,-191.31749679182184,25.165070109718442,58.07986809975853
207444,10739,207444.0,42047.0,207444.0,60506.0,-169.42873940569828,32.18560713498245,73.93319435928845
207444,10749,207444.0,41986.0,207444.0,60499.0,-147.40509342758796,39.073043641397064,89.5398492368777
207444,10763,207444.0,41957.0,207444.0,60490.0,-125.284415622018,45.818425354586,104.8756275551327
207455,10794,207455.0,42028.0,207455.0,60520.0,-103.10450738024389,52.41288865003192,119.9175880301724
207455,10861,207455.0,42079.0,207455.0,60573.0,-80.90318500371643,58.847245375732655,134.64375563596656
207455,10892,207455.0,42097.0,207455.0,60602.0,-58.717904625123765,65.11272203724786,149.0333900278706
207455,10894,207455.0,42083.0,207455.0,60614.0,-36.58515505875022,71.2020036758451,163.06762645828383
207455,10904,207455.0,42020.0,207455.0,60577.0,-14.54017996419691,77.10956478477829,176.72986452310784
207455,10916,207455.0,41980.0,207455.0,60557.0,7.382799841117333,82.83095965595743,190.00545203524155
207465,10947,207465.0,42044.0,207465.0,60623.0,29.1502111211974,88.36159446313457,202.8809114612734
207465,11012,207465.0,42138.0,207465.0,60661.0,50.72900991708127,93.69622582394155,215.34359376798437
207465,11036,207465.0,42131.0,207465.0,60693.0,72.08702366057122,98.82985381995275,227.38218914732795
207465,11048,207465.0,42093.0,207465.0,60654.0,93.19351395227977,103.75899373184478,238.9874494612942
207465,11045,207465.0,42053.0,207465.0,60649.0,114.01943487613926,108.4819262287171,250.15229304420734
207465,11067,207465.0,42023.0,207465.0,60652.0,134.53721987657445,112.99782493569745,260.8712476402583
207475,11105,207475.0,42101.0,207475.0,60714.0,154.72045026909183,117.30571056719145,271.1399177513436
207475,11154,207475.0,42154.0,207475.0,60715.0,174.5438434045264,121.40427792444677,280.95504929059314
207475,11164,207475.0,42150.0,207475.0,60734.0,193.98362812727203,125.2928001865707,290.3150014559906
207475,11175,207475.0,42105.0,207475.0,60691.0,213.01793193353387,128.9720865293997,299.2200066701784
207475,11175,207475.0,42053.0,207475.0,60690.0,231.62681430522446,132.44442456516154,307.6718725832437
207475,11197,207475.0,42072.0,207475.0,60699.0,249.7919874035906,135.7126067399078,315.6733285076882
207486,11231,207486.0,42132.0,207486.0,60753.0,267.49654856765255,138.77908890908225,323.22760311275886
207486,11262,207486.0,42175.0,207486.0,60783.0,284.7249984162589,141.64617549177592,330.33866839423223
207486,11296,207486.0,42133.0,207486.0,60753.0,301.4635572453244,144.31695994556836,337.01189482573284
207486,11275,207486.0,42095.0,207486.0,60723.0,317.7005151141731,146.79586089033768,343.254328309507
207486,11285,207486.0,42056.0,207486.0,60723.0,333.4262517972427,149.08810821159477,349.07421031693946
207486,11308,207486.0,42085.0,207486.0,60756.0,348.63290067412095,151.19869100578825,354.48028739953435
207496,11342,207496.0,42159.0,207496.0,60767.0,363.3140939970557,153.13180132822862,359.4815998988057
207496,11355,207496.0,42179.0,207496.0,60786.0,377.4650690681094,154.89136451289784,364.0877657661947
207496,11356,207496.0,42132.0,207496.0,60762.0,391.08289875934497,156.482097378147,368.3093160056917
207496,11350,207496.0,42075.0,207496.0,60732.0,404.16648833331544,157.90985566805395,372.1576685881452
207496,11350,207496.0,42039.0,207496.0,60719.0,416.7162516415856,159.18078893011966,375.6445988385475
207496,11377,207496.0,42100.0,207496.0,60758.0,428.7336832804632,160.30009392190686,378.78156008441505
207506,11408,207506.0,42171.0,207506.0,60810.0,440.2211666817486,161.27161701657127,381.5795341604084
207506,11422,207506.0,42201.0,207506.0,60812.0,451.1821597545817,162.09878708736085,384.04965424617023
207506,11416,207506.0,42142.0,207506.0,60778.0,461.62149896635424,162.78599032607517,386.2039743486558
207506,11401,207506.0,42073.0,207506.0,60727.0,471.54542105451685,163.3389884835834,388.0555270066474
207506,11404,207506.0,42055.0,207506.0,60728.0,480.96119293456934,163.76397159591727,389.617543357805
207506,11444,207506.0,42128.0,207506.0,60778.0,489.8766734027208,164.0662872323486,390.90260416709896
207517,11456,207517.0,42178.0,207517.0,60813.0,498.30023947963195,164.25022220410145,391.9225875479959
207517,11457,207517.0,42165.0,207517.0,60811.0,506.241056906877,164.31997215271247,392.68941094713017
207517,11453,207517.0,42107.0,207517.0,60759.0,513.7092634736991,164.28057452324168,393.215700851863
207517,11458,207517.0,42071.0,207517.0,60709.0,520.7158604822029,164.1377585171989,393.5145985568417
207517,11455,207517.0,42052.0,207517.0,60729.0,527.2724698752623,163.89690816401583,393.59879467525354
207517,11482,207517.0,42144.0,207517.0,60779.0,533.3911489285645,163.5621663839679,393.4797431262548
207527,11498,207527.0,42178.0,207527.0,60806.0,539.084405818266,163.1366168577104,393.1678434455594
207527,11492,207527.0,42145.0,207527.0,60787.0,544.3654136517625,162.62339381146614,392.6732854672318
207527,11469,207527.0,42078.0,207527.0,60733.0,549.2481189993877,162.02641228826482,392.0065623883768
207527,11458,207527.0,42065.0,207527.0,60726.0,553.7469551109468,161.34987693126854,391.1781176221424
207527,11466,207527.0,42109.0,207527.0,60766.0,557.8762969837462,160.59727340985864,390.19762900746196
207527,11492,207527.0,42165.0,207527.0,60801.0,561.6500828030236,159.77109301721555,389.07386297729767
207537,11515,207537.0,42183.0,207537.0,60794.0,565.0818805681621,158.87364043209183,387.81528860309334
207537,11494,207537.0,42139.0,207537.0,60759.0,568.1852496999966,157.9081272122293,386.43071459445684
207537,11480,207537.0,42052.0,207537.0,60735.0,570.9739195916128,156.87892979562452,384.9292710296188
207537,11475,207537.0,42064.0,207537.0,60705.0,573.4615316994925,155.7906658485003,383.3197820776627
207537,11494,207537.0,42121.0,207537.0,60747.0,575.6612361493854,154.6470642584469,381.6100616616591
207537,11514,207537.0,42168.0,207537.0,60773.0,577.5855714484998,153.45090964595468,379.80672271049195
207548,11511,207548.0,42171.0,207548.0,60788.0,579.2466936638418,152.20507948805343,377.91568593072816
207548,11501,207548.0,42104.0,207548.0,60756.0,580.6566389607888,150.91352833118805,375.94288397479414
207548,11494,207548.0,42046.0,207548.0,60712.0,581.8273216211533,149.58120106172362,373.8944464355358
207548,11484,207548.0,42045.0,207548.0,60710.0,582.7702894131979,148.21290951060877,371.7761833395597
207548,11489,207548.0,42079.0,207548.0,60732.0,583.4964261613272,146.81219624424375,369.59291132581114
207548,11516,207548.0,42138.0,207548.0,60766.0,584.015801494356,145.38115678205756,367.34831848687753
207558,11532,207558.0,42170.0,207558.0,60771.0,584.3378475333558,143.92131524297605,365.04547699955265
207558,11503,207558.0,42071.0,207558.0,60739.0,584.4717448166681,142.43471957348132,362.6874732073678
207558,11485,207558.0,42043.0,207558.0,60700.0,584.4265476525819,140.92406635244495,360.2775196030262
207558,11471,207558.0,42018.0,207558.0,60695.0,584.2108219469017,139.3916486870862,357.8184211160822
207558,11513,207558.0,42110.0,207558.0,60733.0,583.8321817466265,137.8383130199614,355.3119622480807
207558,11517,207558.0,42167.0,207558.0,60782.0,583.2972544414093,136.26363901167807,352.75894755509034
207569,11508,207569.0,42142.0,207569.0,60736.0,582.6120521172428,134.66725949750168,350.1599237516206
207569,11492,207569.0,42071.0,207569.0,60718.0,581.7822287511666,133.0499524865764,347.51574153794525
207569,11483,207569.0,42012.0,207569.0,60691.0,580.8129478256715,131.41334359256768,344.8273500134759
207569,11494,207569.0,42065.0,207569.0,60710.0,579.7085848140214,129.7586398056246,342.0952061323006
207569,11508,207569.0,42134.0,207569.0,60752.0,578.4726043573264,128.08591032751855,339.3190297368767
207569,11532,207569.0,42106.0,207569.0,60768.0,577.1077718673303,126.3946652364612,336.4982360468606
207579,11505,207579.0,42133.0,207579.0,60712.0,575.6165598047352,124.68488606214738,333.63264693584966
207579,11503,207579.0,42025.0,207579.0,60702.0,574.0013822476551,122.9574073756951,330.72267759349376
207579,11491,207579.0,41999.0,207579.0,60664.0,572.2644836288338,121.213287146106,327.7688022770226
207579,11511,207579.0,42060.0,207579.0,60712.0,570.4077264342429,119.45262725073849,324.7708920924865
207579,11529,207579.0,42123.0,207579.0,60747.0,568.4326157532338,117.67411703431013,321.72811083684064
207579,11525,207579.0,42135.0,207579.0,60729.0,566.3406253788587,115.87593738682392,318.6395105663342
207589,11505,207589.0,42087.0,207589.0,60710.0,564.133531968246,114.05702565914264,315.5046793236181
207589,11485,207589.0,42035.0,207589.0,60687.0,561.8134050863291,112.21742045025312,312.3237995301627
207589,11480,207589.0,42010.0,207589.0,60671.0,559.3822551000454,110.35749201972337,309.0972222891728
207589,11493,207589.0,42101.0,207589.0,60691.0,556.841668726083,108.47698924015164,305.82500888582024
207589,11512,207589.0,42117.0,207589.0,60733.0,554.1927559662633,106.57504850893174,302.50686041152625
207589,11522,207589.0,42149.0,207589.0,60741.0,551.4364711154976,104.65124759945633,299.1426439529306
207600,11493,207600.0,42063.0,207600.0,60711.0,548.5740346019544,102.70663392346816,295.73314096170765
207600,11480,207600.0,42024.0,207600.0,60658.0,545.607050881656,100.74371535002683,292.2802811695591
207600,11476,207600.0,42004.0,207600.0,60665.0,542.5372434222832,98.76541557091853,288.7866211986799
207600,11494,207600.0,42094.0,207600.0,60695.0,539.3661709956926,96.77405436898276,285.25470123296077
207600,11523,207600.0,42106.0,207600.0,60721.0,536.0953077084301,94.77143336847283,281.6870466610594
207600,11504,207600.0,42106.0,207600.0,60695.0,532.7264907664205,92.75985112902023,278.0867518743604
207610,11477,207610.0,42031.0,207610.0,60646.0,529.2622967757122,90.74285149960042,274.4578568843817
207610,11455,207610.0,41988.0,207610.0,60633.0,525.70591748911,88.72487542760247,270.8049945379473
207610,11475,207610.0,42032.0,207610.0,60651.0,522.060700861343,86.71018240425805,267.1326846136599
207610,11496,207610.0,42064.0,207610.0,60694.0,518.32993609649,84.70220909678926,263.44507604781063
207610,11482,207610.0,42096.0,207610.0,60689.0,514.5171132852497,82.70399441146047,259.7464164184868
207610,11474,207610.0,42065.0,207610.0,60658.0,510.62627706551723,80.71910018501254,256.0417082171052
207620,11447,207620.0,42016.0,207620.0,60609.0,506.66206135240236,78.75206410837552,252.33680096527536
207620,11444,207620.0,41972.0,207620.0,60616.0,502.62941310128974,76.8079274029406,248.63779759127422
207620,11452,207620.0,41989.0,207620.0,60646.0,498.53328220599883,74.89119732933327,244.95043461348885
207620,11462,207620.0,42068.0,207620.0,60652.0,494.3785566482254,73.00521575972766,241.28008150461486
207620,11470,207620.0,42083.0,207620.0,60673.0,490.1703014266424,71.15264399775722,237.63227203134915
207620,11455,207620.0,42042.0,207620.0,60641.0,485.91409873343036,69.33657197015813,234.01325741398585
207631,11422,207631.0,41978.0,207631.0,60588.0,481.61618160598994,67.56097472891074,230.43012173688527
207631,11416,207631.0,41954.0,207631.0,60572.0,477.2831868325934,65.82998999375667,226.89023072689508
207631,11425,207631.0,42018.0,207631.0,60630.0,472.9217495216844,64.1468341939803,223.40047508360948
207631,11444,207631.0,42054.0,207631.0,60640.0,468.5383762464734,62.513558972769545,219.96718642207838
207631,11433,207631.0,42079.0,207631.0,60617.0,464.139703808446,60.93190304047978,216.59675191439015
207631,11415,207631.0,41994.0,207631.0,60580.0,459.7327993753602,59.40428410861034,213.29602281948019
207641,11393,207641.0,41961.0,207641.0,60555.0,455.3251435785859,57.93382184246197,210.07199254839173
207641,11373,207641.0,41947.0,207641.0,60568.0,450.92427812786804,56.523337113951754,206.93111236220898
207641,11392,207641.0,42029.0,207641.0,60611.0,446.5373828121425,55.17441622193472,203.8789386172382
207641,11408,207641.0,42061.0,207641.0,60609.0,442.1711398444985,53.88757816354925,200.9204594310384
207641,11418,207641.0,42036.0,207641.0,60607.0,437.8320431698152,52.66334455586805,198.06075048326863
207641,11373,207641.0,41989.0,207641.0,60553.0,433.52683074476926,51.50301009375663,195.305296004084
207651,11360,207651.0,41945.0,207651.0,60526.0,429.26251745743286,50.4083364125323,192.6596368220164
207651,11353,207651.0,41969.0,207651.0,60551.0,425.0459758513044,49.38057608262884,190.1286164753815
207651,11367,207651.0,42014.0,207651.0,60582.0,420.883537979857,48.4198304517527,187.71596387135406
207651,11377,207651.0,42044.0,207651.0,60576.0,416.78097839456905,47.52535043903429,185.42459077503844
207651,11374,207651.0,42041.0,207651.0,60582.0,412.7438052081385,46.69645850402826,183.2571587877303
207651,11354,207651.0,41961.0,207651.0,60513.0,408.77754334329586,45.93317101481091,181.2162924101363
207662,11327,207662.0,41942.0,207662.0,60529.0,404.8877163470378,45.23583903885977,179.3042114458808
207662,11336,207662.0,41980.0,207662.0,60540.0,401.0795225440629,44.60416373371278,177.52214895603942
207662,11367,207662.0,42068.0,207662.0,60590.0,397.35759593021726,44.036822824572816,175.87025287976775
207662,11358,207662.0,42049.0,207662.0,60602.0,393.726207813048,43.532313271673424,174.34819793698026
207662,11338,207662.0,42023.0,207662.0,60556.0,390.18966417768576,43.09010353756588,172.95597354047337
207662,11322,207662.0,41957.0,207662.0,60525.0,386.7523846123986,42.710867096083724,171.69407263642404
207672,11296,207672.0,41924.0,207672.0,60518.0,383.41857765717833,42.39560696829515,170.56291350290795
207672,11329,207672.0,42019.0,207672.0,60554.0,380.1918301585838,42.14454551751505,169.562174463717
207672,11340,207672.0,42055.0,207672.0,60588.0,377.0750152414687,41.956991686998954,168.69076397645048
207672,11330,207672.0,42007.0,207672.0,60550.0,374.07061996773473,41.83229900242989,167.94737146529909
207672,11308,207672.0,41985.0,207672.0,60543.0,371.1810655818931,41.770580725642525,167.3308663440603
207672,11290,207672.0,41945.0,207672.0,60497.0,368.40862158777855,41.77235852140745,166.8400615998812
207682,11288,207682.0,41960.0,207682.0,60523.0,365.75502083516244,41.83769103907207,166.4730929167721
207682,11319,207682.0,41998.0,207682.0,60566.0,363.2211762418221,41.965614148192984,166.2270427588844
207682,11329,207682.0,42037.0,207682.0,60570.0,360.80732086785,42.1543420973301,166.0982405282916
207682,11314,207682.0,42049.0,207682.0,60574.0,358.51346202986747,42.40210820165011,166.08295354430768
207682,11288,207682.0,41971.0,207682.0,60517.0,356.33965160870065,42.707912522749936,166.17776065528184
207682,11287,207682.0,41929.0,207682.0,60489.0,354.2858074402219,43.071338772441884,166.37920588046202
207693,11282,207693.0,41970.0,207693.0,60517.0,352.35134684770276,43.491519400269596,166.6829770658092
207693,11307,207693.0,42035.0,207693.0,60575.0,350.5350087325113,43.9664732351444,167.08345356284332
207693,11309,207693.0,42062.0,207693.0,60584.0,348.8349998324037,44.49367579382662,167.57418566639544
207693,11289,207693.0,41992.0,207693.0,60568.0,347.24928912306154,45.07116008589153,168.1488000593908
207693,11274,207693.0,41964.0,207693.0,60548.0,345.7756861489312,45.69781638212337,168.80145317088534
207693,11270,207693.0,41921.0,207693.0,60513.0,344.4115859724086,46.37256316520077,169.52657968308668
207703,11284,207703.0,41977.0,207703.0,60543.0,343.1536722290297,47.093243314487616,170.31829862303266
207703,11303,207703.0,42053.0,207703.0,60585.0,341.9979021696422,47.85632218796903,171.17010255253328
207703,11320,207703.0,42079.0,207703.0,60606.0,340.9398426023821,48.657810629796785,172.07525907628826
207703,11282,207703.0,42014.0,207703.0,60563.0,339.9751038963001,49.49461161632452,173.0275525107009
207703,11283,207703.0,41952.0,207703.0,60526.0,339.09945732317897,50.36489024503484,174.02149167868973
207703,11264,207703.0,41957.0,207703.0,60527.0,338.308550881547,51.26713324967939,175.05171892295962
207713,11289,207713.0,41996.0,207713.0,60568.0,337.59757384423017,52.199017223559515,176.1123187020074
207713,11300,207713.0,42045.0,207713.0,60611.0,336.9612081334998,53.15722496364495,177.19683341071428
207713,11297,207713.0,42056.0,207713.0,60601.0,336.39388691655796,54.13822620266029,178.2989926872608
207713,11291,207713.0,42022.0,207713.0,60555.0,335.8900772700912,55.13919108195684,179.4133651350436
207713,11266,207713.0,41960.0,207713.0,60527.0,335.4443037702613,56.15817031941301,180.5352081658133
207713,11272,207713.0,41948.0,207713.0,60545.0,335.05090104378803,57.193315506052166,181.65969422748705
207724,11285,207724.0,42024.0,207724.0,60567.0,334.70374639981446,58.24190051946521,182.78133722939492
207724,11305,207724.0,42075.0,207724.0,60609.0,334.3962783085551,59.300293592943504,183.8941232321163
207724,11307,207724.0,42043.0,207724.0,60599.0,334.1218312793602,60.364975242998355,184.9921553485769
207724,11288,207724.0,41995.0,207724.0,60549.0,333.87398581248397,61.43336162583966,186.07016545509146
207724,11270,207724.0,41962.0,207724.0,60530.0,333.6466017464419,62.503496448901444,187.12330399659461
207724,11269,207724.0,41972.0,207724.0,60554.0,333.4335068754741,63.57303447958171,188.14640233500717
207734,11287,207734.0,42033.0,207734.0,60589.0,333.228166856173,64.63856096189363,189.13355371693407
207734,11287,207734.0,42088.0,207734.0,60605.0,333.02364421046025,65.69592294453797,190.0784380118501
207734,11305,207734.0,42053.0,207734.0,60604.0,332.812818304189,66.74132775732451,190.97500387883397
207734,11277,207734.0,42001.0,207734.0,60558.0,332.5886277245407,67.77210583419021,191.8178690643503
207734,11261,207734.0,41966.0,207734.0,60549.0,332.34407624766317,68.78633255896901,192.60209499049043
207734,11294,207734.0,41945.0,207734.0,60560.0,332.0719864344911,69.78166944561903,193.32258067872306
207744,11309,207744.0,42077.0,207744.0,60623.0,331.76492403816917,70.75451550961625,193.9737763796913
207744,11313,207744.0,42108.0,207744.0,60620.0,331.4155545132661,71.7004666057571,194.55013800833834
207744,11304,207744.0,42043.0,207744.0,60602.0,331.0170878311588,72.61576916698164,195.0468874596457
207744,11285,207744.0,41970.0,207744.0,60556.0,330.5634192321991,73.49802200733747,195.46025734812503
207744,11267,207744.0,41964.0,207744.0,60544.0,330.0489094674475,74.3452763434185,195.78696938158606
207744,11291,207744.0,42022.0,207744.0,60586.0,329.46801114777776,75.15473013524267,196.0235050411094
207755,11305,207755.0,42066.0,207755.0,60601.0,328.81512184402266,75.92246782562712,196.16591745446988
207755,11312,207755.0,42093.0,207755.0,60623.0,328.0848422048304,76.64435687644578,196.2103161201358
207755,11296,207755.0,42036.0,207755.0,60596.0,327.2723539261174,77.31712174155601,196.15349034296443
207755,11264,207755.0,41953.0,207755.0,60544.0,326.3735008566838,77.93849652143165,195.9930643860452
207755,11262,207755.0,41977.0,207755.0,60539.0,325.3844479238118,78.5061993926637,195.72695576051967
207755,11287,207755.0,42053.0,207755.0,60607.0,324.3012458576838,79.0168500335864,195.3526790909036
207765,11310,207765.0,42088.0,207765.0,60630.0,323.11980169918974,79.46614554436273,194.8674224898483
207765,11303,207765.0,42103.0,207765.0,60601.0,321.8363139056253,79.85011081080219,194.2688742598454
207765,11270,207765.0,42042.0,207765.0,60559.0,320.4476703000111,80.16617480581301,193.55574564950786
207765,11259,207765.0,41977.0,207765.0,60531.0,318.9513576934993,80.41315620189289,192.72737250015103
207765,11262,207765.0,42007.0,207765.0,60562.0,317.3450188698919,80.5902433733939,191.78288354262395
207765,11284,207765.0,42063.0,207765.0,60604.0,315.62616092155076,80.6960940219641,190.72083187893554
207775,11286,207775.0,42104.0,207775.0,60607.0,313.79227607409325,80.7290845308918,189.53964383018203
207775,11285,207775.0,42061.0,207775.0,60606.0,311.84118687284524,80.6883468444322,188.2383873581771
207775,11257,207775.0,41985.0,207775.0,60543.0,309.7712555860329,80.57428154792794,186.81712144684153
207775,11254,207775.0,41988.0,207775.0,60521.0,307.58126968599555,80.38787732235892,185.27648850844253
207775,11258,207775.0,42012.0,207775.0,60537.0,305.27015523959517,80.12960375468093,183.61685539759105
207775,11270,207775.0,42079.0,207775.0,60620.0,302.83684609022146,79.79908564028044,181.83788940723676
207786,11288,207786.0,42103.0,207786.0,60607.0,300.280466715597,79.39586839411429,179.93915409082317
207786,11271,207786.0,42041.0,207786.0,60578.0,297.60070129819576,78.92051568098114,177.92110363402816
207786,11239,207786.0,41985.0,207786.0,60521.0,294.7980049995578,78.37489384558017,175.78534857016598
207786,11229,207786.0,41963.0,207786.0,60524.0,291.87338222010317,77.76127075784495,173.5339843780021
207786,11222,207786.0,42057.0,207786.0,60537.0,288.82789979914753,77.08121659436911,171.16876609272322
207786,11248,207786.0,42070.0,207786.0,60608.0,285.6623702251299,76.33556929094865,168.6909545456242
207796,11262,207796.0,42103.0,207796.0,60566.0,282.3774658827672,75.5254828290302,166.1019576229374
207796,11230,207796.0,42006.0,207796.0,60546.0,278.97411657706414,74.65340075295553,163.4040116503138
207796,11195,207796.0,41974.0,207796.0,60499.0,275.45366009408644,73.7229328947719,160.60010752983078
207796,11213,207796.0,41962.0,207796.0,60517.0,271.81749077772207,72.7377202243762,157.69330321660755
207796,11222,207796.0,42049.0,207796.0,60557.0,268.06668974827085,71.7004412370941,154.68623192938475
207796,11242,207796.0,42055.0,207796.0,60565.0,264.20213455303474,70.6129635333594,151.58134228447489
207807,11234,207807.0,42060.0,207807.0,60546.0,260.22495869347836,69.47733492180595,148.38156670727687
207807,11209,207807.0,41978.0,207807.0,60518.0,256.13692184780865,68.29645033921491,145.09067735483555
207807,11174,207807.0,41963.0,207807.0,60489.0,251.9403568335245,67.07368419028445,141.7130279157442
207807,11176,207807.0,41968.0,207807.0,60482.0,247.63770337066356,65.81187859360719,138.2529422260934
207807,11194,207807.0,42044.0,207807.0,60524.0,243.23106164849165,64.51274583745939,134.71424335295688
207807,11200,207807.0,42072.0,207807.0,60547.0,238.72218857620018,63.17735885584898,131.10038441613037
207817,11201,207817.0,42043.0,207817.0,60517.0,234.11286379454302,61.80729861226299,127.41509197826583
207817,11164,207817.0,41954.0,207817.0,60452.0,229.4052004061744,60.40525221012432,123.66272251716843
207817,11149,207817.0,41931.0,207817.0,60443.0,224.60157049664548,58.97432301713155,119.84775307357269
207817,11156,207817.0,41995.0,207817.0,60472.0,219.7042303725548,57.516765070714506,115.97391186626469
207817,11181,207817.0,42041.0,207817.0,60513.0,214.71511291984183,56.033586608347065,112.04393226221953
207817,11172,207817.0,42032.0,207817.0,60524.0,209.63606830543733,54.5253666853051,108.06018901808126
207827,11148,207827.0,42025.0,207827.0,60469.0,204.4692433273696,52.9932507212446,104.02552660998921
207827,11127,207827.0,41955.0,207827.0,60456.0,199.2171257989351,51.43919808412025,99.9434498420089
207827,11119,207827.0,41930.0,207827.0,60424.0,193.88222151552193,49.86535417677009,95.81759771239453
207827,11127,207827.0,41984.0,207827.0,60437.0,188.4667178750702,48.27308730098488,91.65107111583345
207827,11146,207827.0,42035.0,207827.0,60490.0,182.97245381970592,46.66270007303908,87.44618293415874
207827,11130,207827.0,42019.0,207827.0,60490.0,177.40121626336793,45.03417759325372,83.20490361794475
207838,11108,207838.0,41977.0,207838.0,60431.0,171.75503307560462,43.388035372701715,78.9295711269227
207838,11088,207838.0,41949.0,207838.0,60429.0,166.03612055114684,41.72530776804428,74.62301114986494
207838,11085,207838.0,41923.0,207838.0,60384.0,160.24655005709155,40.046790234982204,70.28796836360604
207838,11086,207838.0,41971.0,207838.0,60431.0,154.38796770044573,38.35227200646718,65.92648409062542
207838,11116,207838.0,42022.0,207838.0,60452.0,148.4616178908162,36.64045938348114,61.53978691203915
207838,11097,207838.0,42030.0,207838.0,60457.0,142.4686950270558,34.90977987399829,57.128825687493276
207848,11076,207848.0,41979.0,207848.0,60416.0,136.41071565708958,33.15935891239516,52.69492281694639
207848,11057,207848.0,41941.0,207848.0,60369.0,130.28952858429705,31.38919781640773,48.23982523954956
207848,11056,207848.0,41900.0,207848.0,60381.0,124.1070175092969,29.59939313411367,43.76508634275612
207848,11063,207848.0,41999.0,207848.0,60413.0,117.86487660628558,27.789208897972372,39.27148905365118
207848,11074,207848.0,42025.0,207848.0,60443.0,111.56469170055414,25.957084478851378,34.75920217676784
207848,11065,207848.0,41993.0,207848.0,60412.0,105.20826223049744,24.101636750436043,30.22850602947736
207858,11030,207858.0,41961.0,207858.0,60379.0,98.7978603800932,22.22243428130305,25.68027787499028
207858,11020,207858.0,41929.0,207858.0,60343.0,92.33613792785422,20.31976041313645,21.115739303944196
207858,11017,207858.0,41925.0,207858.0,60373.0,85.82578192337013,18.393816528327193,16.535791355168243
207858,11030,207858.0,41977.0,207858.0,60400.0,79.26931373128167,16.44414868341081,11.940702305463759
207858,11033,207858.0,42035.0,207858.0,60414.0,72.66923372729764,14.46988043714856,7.33051844076769
207858,11006,207858.0,41975.0,207858.0,60371.0,66.02832740325033,12.470662840862971,2.705746506222198
207869,10981,207869.0,41933.0,207869.0,60344.0,59.349756384481054,10.447289277742229,-1.9324409487736034
207869,10938,207869.0,41894.0,207869.0,60290.0,52.63671772960021,8.401191978891006,-6.582728290775748
207869,10979,207869.0,41927.0,207869.0,60352.0,45.89188997370411,6.333384811368788,-11.244456332720887
207869,10989,207869.0,41987.0,207869.0,60358.0,39.11723447915233,4.243987605925085,-15.917909461024209
207869,10987,207869.0,41980.0,207869.0,60388.0,32.31440092383508,2.1327691189326146,-20.603784798290746
207869,10954,207869.0,41944.0,207869.0,60342.0,25.485241047570184,6.390175769865891e-06,-25.302416110120475
207879,10937,207879.0,41919.0,207879.0,60293.0,18.631878121829175,-2.153316959034484,-30.01354573910183
207879,10926,207879.0,41886.0,207879.0,60291.0,11.756382672297718,-4.326078732536359,-34.73686716729219
207879,10934,207879.0,41916.0,207879.0,60330.0,4.860455081978614,-6.5177595490197575,-39.47270681277783
207879,10931,207879.0,41969.0,207879.0,60348.0,-2.0546198839267618,-8.728693864740805,-44.22202343670884
207879,10949,207879.0,41950.0,207879.0,60331.0,-8.987752758869817,-10.959557442531121,-48.98577574413201
207879,10904,207879.0,41942.0,207879.0,60312.0,-15.937753536787739,-13.210641712393638,-53.76440490561981
207889,10891,207889.0,41865.0,207889.0,60247.0,-22.903276054779838,-15.481738661183584,-58.557937904064005
207889,10875,207889.0,41875.0,207889.0,60264.0,-29.883126083942727,-17.772810282794254,-63.36664693330354
207889,10890,207889.0,41969.0,207889.0,60316.0,-36.87660937651066,-20.08467762540282,-68.19161927703902
207889,10907,207889.0,41985.0,207889.0,60343.0,-43.88352912956458,-22.418666981915635,-73.03447471505837
207889,10893,207889.0,41963.0,207889.0,60305.0,-50.903812652895795,-24.775379147130835,-77.89642065540616
207889,10863,207889.0,41886.0,207889.0,60253.0,-57.93715175899604,-27.153967955562777,-82.77771549564648
207900,10852,207900.0,41850.0,207900.0,60231.0,-64.98303127058927,-29.55270317117531,-87.67810479729957
207900,10837,207900.0,41889.0,207900.0,60250.0,-72.04105256681362,-31.97018230480856,-92.59767778811485
207900,10873,207900.0,41923.0,207900.0,60292.0,-79.11114744086206,-34.40596907950554,-97.53722542660572
207900,10869,207900.0,41979.0,207900.0,60318.0,-86.19338681989973,-36.86009598952889,-102.49773170724418
207900,10844,207900.0,41912.0,207900.0,60258.0,-93.28753006114403,-39.33200773140982,-107.47949602125513
207900,10812,207900.0,41871.0,207900.0,60212.0,-100.39283897034034,-41.820068678662736,-112.48184781547985
207910,10802,207910.0,41848.0,207910.0,60184.0,-107.50837916274708,-44.32214844729225,-117.50383804921233
207910,10803,207910.0,41894.0,207910.0,60238.0,-114.63345666330645,-46.83655706284098,-122.5451769037567
207910,10815,207910.0,41942.0,207910.0,60275.0,-121.76777491198271,-49.36223698347409,-127.60638364894646
207910,10812,207910.0,41940.0,207910.0,60248.0,-128.91123529549577,-51.89800358967652,-132.6880333238757
207910,10794,207910.0,41889.0,207910.0,60228.0,-136.06362204090817,-54.44166997707492,-137.7900129183309
207910,10770,207910.0,41806.0,207910.0,60196.0,-143.22449122649437,-56.990084146644094,-142.911493322262
207920,10751,207920.0,41789.0,207920.0,60168.0,-150.39337927172767,-59.54028710423782,-148.0514571756985
207920,10761,207920.0,41906.0,207920.0,60200.0,-157.5701366438289,-62.09075176995309,-153.20929087885605
207920,10774,207920.0,41902.0,207920.0,60238.0,-164.75503871546886,-64.64133879719992,-158.3849126003132
207920,10768,207920.0,41889.0,207920.0,60222.0,-171.94853009568203,-67.19215350930766,-163.57822381331567
207920,10746,207920.0,41866.0,207920.0,60170.0,-179.15087360742336,-69.74274687736794,-168.78850362610683
207920,10723,207920.0,41822.0,207920.0,60138.0,-186.3620782900831,-72.29225754199422,-174.0145392121181
207931,10712,207931.0,41807.0,207931.0,60150.0,-193.5821529667022,-74.84010431662463,-179.25536689272286
207931,10731,207931.0,41879.0,207931.0,60195.0,-200.81138181794063,-77.38662207865332,-184.5107476373513
207931,10724,207931.0,41916.0,207931.0,60193.0,-208.0503042385351,-79.93290240563252,-189.78084679543468
207931,10723,207931.0,41885.0,207931.0,60185.0,-215.29943337218975,-82.4798065693636,-195.0655086488103
207931,10686,207931.0,41823.0,207931.0,60103.0,-222.55904722498497,-85.02725378718057,-200.36394336825418
207931,10670,207931.0,41810.0,207931.0,60099.0,-229.82930530879628,-87.57459419593579,-205.67524124440848
207941,10664,207941.0,41817.0,207941.0,60116.0,-237.11061592876717,-90.1215424063906,-210.99925483096405
207941,10678,207941.0,41849.0,207941.0,60150.0,-244.4039060284901,-92.66869217194369,-216.33694037322488
207941,10686,207941.0,41899.0,207941.0,60175.0,-251.7105224010353,-95.2172155271,-221.68984282496353
207941,10671,207941.0,41858.0,207941.0,60134.0,-259.0318613769101,-97.76803577149934,-227.05925261824865
207941,10631,207941.0,41803.0,207941.0,60082.0,-266.3691256227619,-100.32130399336614,-232.44584767981513
207941,10631,207941.0,41774.0,207941.0,60075.0,-273.72348930610485,-102.87684491000559,-237.85017278326688
207951,10634,207951.0,41788.0,207951.0,60118.0,-281.0964348129452,-105.4351753675351,-243.27333897887388
207951,10641,207951.0,41871.0,207951.0,60148.0,-288.4898198093259,-107.99801685567337,-248.71702026434116
207951,10640,207951.0,41904.0,207951.0,60137.0,-295.905617935755,-110.56764633302484,-254.18268877417876
207951,10612,207951.0,41842.0,207951.0,60097.0,-303.3456244936241,-113.1456054096547,-259.6709019755641
207951,10594,207951.0,41771.0,207951.0,60066.0,-310.8114184794765,-115.7321581187891,-265.18130763377593
207951,10577,207951.0,41735.0,207951.0,60039.0,-318.3046254327975,-118.32716910619368,-270.7132774871983
207962,10591,207962.0,41804.0,207962.0,60083.0,-325.82722200965736,-120.93146524022009,-276.26657264156137
207962,10619,207962.0,41862.0,207962.0,60064.0,-333.3815220071368,-123.54720939297718,-281.8414983411013
207962,10606,207962.0,41903.0,207962.0,60095.0,-340.9697264016411,-126.17685733489321,-287.4385541941864
207962,10558,207962.0,41783.0,207962.0,60049.0,-348.59345219432225,-128.8217904896661,-293.058016969881
207962,10548,207962.0,41750.0,207962.0,60006.0,-356.2537884252015,-131.48215845971052,-298.6998991478004
207962,10545,207962.0,41768.0,207962.0,60026.0,-363.9517578821676,-134.1580284179414,-304.3644127310523
207972,10560,207972.0,41820.0,207972.0,60072.0,-371.68858949496007,-136.85033368374474,-310.0523554884507
207972,10557,207972.0,41849.0,207972.0,60052.0,-379.46555853379016,-139.56059544837245,-315.7647861946924
207972,10550,207972.0,41818.0,207972.0,60055.0,-387.28362730288666,-142.28994985823988,-321.50235513887384
207972,10519,207972.0,41767.0,207972.0,59991.0,-395.14322425347086,-145.03860155467825,-327.26504674401224
207972,10491,207972.0,41723.0,207972.0,59972.0,-403.0443679078894,-147.80627027922344,-333.0525751018124
207972,10482,207972.0,41763.0,207972.0,60007.0,-410.98708701162786,-150.59318531620974,-338.8650661275556
207982,10507,207982.0,41846.0,207982.0,60041.0,-418.97178275926683,-153.4005106817504,-344.70325327915396
207982,10515,207982.0,41851.0,207982.0,60045.0,-426.99914251433006,-156.2295433412635,-350.56785697040453
207982,10484,207982.0,41819.0,207982.0,59983.0,-435.06969607950316,-159.08040082237397,-356.45882358224776
207982,10468,207982.0,41738.0,207982.0,59967.0,-443.18354876132526,-161.95153587022855,-362.37526794604355
207982,10448,207982.0,41710.0,207982.0,59951.0,-451.34054215710785,-164.84053348295748,-368.3160889466232
207982,10446,207982.0,41746.0,207982.0,59963.0,-459.54057755434656,-167.74540112040094,-374.2805641343226
207993,10471,207993.0,41824.0,207993.0,60000.0,-467.7837437484209,-170.66508328156877,-380.26842756522615
207993,10450,207993.0,41797.0,207993.0,59999.0,-476.0701015507308,-173.59874112664355,-386.279388394786
207993,10436,207993.0,41776.0,207993.0,59959.0,-484.3993597387664,-176.54473416418983,-392.31250510078127
207993,10414,207993.0,41718.0,207993.0,59914.0,-492.7708127904542,-179.5004332737976,-398.3660872254839
207993,10402,207993.0,41682.0,207993.0,59926.0,-501.1835545803791,-182.46298047167383,-404.438252162804
207993,10414,207993.0,41778.0,207993.0,59926.0,-509.6366948586226,-185.43021636636868,-410.5274975465774
208002,10408,208002.0,41795.0,208002.0,59959.0,-518.1293458133827,-188.40071900918036,-416.63273074999404
208002,10416,208002.0,41783.0,208002.0,59965.0,-526.6603686291448,-191.37283481021282,-422.7527798293624
208002,10381,208002.0,41752.0,208002.0,59931.0,-535.2280966106777,-194.34382878474548,-428.8857846254879
208002,10368,208002.0,41677.0,208002.0,59882.0,-543.8302878782903,-197.31000212891064,-435.02902661311305
208002,10356,208002.0,41702.0,208002.0,59886.0,-552.46434209318,-200.2675890072511,-441.1794100506781
208002,10377,208002.0,41746.0,208002.0,59953.0,-561.1274939172079,-203.21355234643428,-447.3339469259838
208012,10362,208012.0,41778.0,208012.0,59956.0,-569.8167080655901,-206.14543081267163,-453.4894201196263
208012,10348,208012.0,41768.0,208012.0,59943.0,-578.528409609223,-209.0604171832965,-459.6414333301825
208012,10324,208012.0,41701.0,208012.0,59870.0,-587.2583936598968,-211.95468208264003,-465.7838718750929
208012,10325,208012.0,41657.0,208012.0,59834.0,-596.0019772913928,-214.82368183581826,-471.90935936869266
208012,10302,208012.0,41691.0,208012.0,59856.0,-604.754183366027,-217.6631793832345,-478.0102854907362
208012,10328,208012.0,41755.0,208012.0,59919.0,-613.5097945199442,-220.46984106521364,-484.07935071858384
208023,10319,208023.0,41759.0,208023.0,59933.0,-622.2631904491338,-223.24069503706775,-490.1089968652914
208023,10297,208023.0,41746.0,208023.0,59885.0,-631.0080435456654,-225.97206866092517,-496.0903186383754
208023,10256,208023.0,41680.0,208023.0,59827.0,-639.7372353147725,-228.659099811136,-502.0126443955664
208023,10258,208023.0,41649.0,208023.0,59814.0,-648.443181984273,-231.29623910316636,-507.8641749440095
208023,10260,208023.0,41688.0,208023.0,59847.0,-657.1182194317037,-233.87823119811378,-513.63288945023
208023,10256,208023.0,41737.0,208023.0,59869.0,-665.7546591181662,-236.4005493293488,-519.3067636405327
208033,10284,208033.0,41734.0,208033.0,59862.0,-674.3445193243273,-238.8588299045869,-524.8732359190815
208033,10248,208033.0,41712.0,208033.0,59829.0,-682.879114075876,-241.24800956435595,-530.3186341453618
208033,10222,208033.0,41657.0,208033.0,59784.0,-691.3488015559583,-243.56209373170117,-535.6281888114034
208033,10220,208033.0,41641.0,208033.0,59787.0,-699.7431351349945,-245.79474704911357,-540.78662294285
208033,10221,208033.0,41702.0,208033.0,59818.0,-708.05114817566,-247.94007449150317,-545.7787161290244
208033,10216,208033.0,41714.0,208033.0,59856.0,-716.2613864199204,-249.99271303685478,-550.5891996297393
208044,10232,208044.0,41740.0,208044.0,59816.0,-724.3616984317649,-251.94711063789822,-555.2020538831414
208044,10191,208044.0,41683.0,208044.0,59781.0,-732.338974698502,-253.79675561620658,-559.600024472618
208044,10178,208044.0,41632.0,208044.0,59742.0,-740.1790826805625,-255.5341398439866,-563.7649459770192
208044,10166,208044.0,41632.0,208044.0,59745.0,-747.8671115632013,-257.1515672286341,-567.6785767729921
208044,10174,208044.0,41689.0,208044.0,59782.0,-755.3876519404288,-258.6420083670465,-571.3231986176627
208044,10185,208044.0,41740.0,208044.0,59804.0,-762.7247891410314,-259.9990099904056,-574.6814918560215
208054,10178,208054.0,41700.0,208054.0,59807.0,-769.8618066486291,-261.2157241866612,-577.7358345591595
208054,10150,208054.0,41656.0,208054.0,59749.0,-776.7808834546374,-262.2841949467488,-580.4677101767686
208054,10131,208054.0,41639.0,208054.0,59727.0,-783.4631036119789,-263.1956652034971,-582.8578293712969
208054,10122,208054.0,41649.0,208054.0,59732.0,-789.88877451923,-263.9414128559242,-584.8868411614039
208054,10135,208054.0,41705.0,208054.0,59772.0,-796.0377246790666,-264.5131689556127,-586.535860932831
208054,10139,208054.0,41729.0,208054.0,59817.0,-801.8892982455078,-264.90269537640233,-587.7862209655949
208064,10128,208064.0,41684.0,208064.0,59772.0,-807.422095582164,-265.10093507747274,-588.6186586053232
208064,10101,208064.0,41650.0,208064.0,59715.0,-812.6137883445211,-265.09766614341333,-589.0128715755114
208064,10074,208064.0,41601.0,208064.0,59686.0,-817.4412850058029,-264.8821071383566,-588.9481088836524
208064,10092,208064.0,41609.0,208064.0,59724.0,-821.8811504089704,-264.44402483297256,-588.4042778764926
208064,10103,208064.0,41716.0,208064.0,59750.0,-825.9098470131765,-263.7744198027566,-587.3624874406457
208064,10103,208064.0,41723.0,208064.0,59749.0,-829.5035537213837,-262.86502728144774,-585.8047426474981
208075,10073,208075.0,41662.0,208075.0,59731.0,-832.6378686332656,-261.70713949451454,-583.7134552333159
208075,10047,208075.0,41588.0,208075.0,59672.0,-835.2878599274254,-260.2913100343507,-581.071480824382
208075,10028,208075.0,41557.0,208075.0,59671.0,-837.4285526812082,-258.6085193427,-577.8628372768641
208075,10035,208075.0,41623.0,208075.0,59720.0,-839.035538753266,-256.6517148582592,-574.0735602982325
208075,10052,208075.0,41721.0,208075.0,59736.0,-840.0853159052001,-254.41623057953197,-569.6919015377184
208075,10058,208075.0,41746.0,208075.0,59771.0,-840.5552051690192,-251.89860462261458,-564.7077805511557
208085,10028,208085.0,41658.0,208085.0,59721.0,-840.4231022089839,-249.09496464438183,-559.1121527796856
208085,10011,208085.0,41594.0,208085.0,59688.0,-839.6675126778873,-246.00071962989512,-552.8969859848669
208085,10013,208085.0,41589.0,208085.0,59709.0,-838.2679694201836,-242.61184553998146,-546.0559547125445
208085,10032,208085.0,41668.0,208085.0,59731.0,-836.20543758858,-238.9263038325056,-538.5851589032351
208085,10041,208085.0,41705.0,208085.0,59758.0,-833.462360252628,-234.94419256152875,-530.4832233038121
208085,10039,208085.0,41699.0,208085.0,59780.0,-830.0224422521425,-230.66678796637046,-521.7509032738178
208095,10013,208095.0,41661.0,208095.0,59739.0,-825.8705391570414,-226.09571911619202,-512.390700938601
208095,10013,208095.0,41634.0,208095.0,59716.0,-820.9928906593228,-221.2330810155922,-502.40699354845435
208095,10016,208095.0,41636.0,208095.0,59723.0,-815.3775612712075,-216.08223112950756,-491.80677109749234
208095,10038,208095.0,41698.0,208095.0,59807.0,-809.0147427138419,-210.64845167007934,-480.6002970122013
208095,10062,208095.0,41752.0,208095.0,59866.0,-801.8967241017249,-204.93877530027032,-468.80083362138123
208095,10063,208095.0,41737.0,208095.0,59847.0,-794.0176091645429,-198.96103884429328,-456.423533263722
208106,10050,208106.0,41690.0,208106.0,59800.0,-785.3730883626216,-192.7231220032732,-443.4846562261465
208106,10044,208106.0,41650.0,208106.0,59812.0,-775.9605595266133,-186.23322078974138,-430.001908325591
208106,10050,208106.0,41709.0,208106.0,59845.0,-765.7795445417651,-179.50083567549302,-415.9952985848928
208106,10093,208106.0,41790.0,208106.0,59897.0,-754.8320338391638,-172.53723566458387,-401.48747420733173
208106,10098,208106.0,41783.0,208106.0,59949.0,-743.1224591947503,-165.35473622466924,-386.5032428056094
208106,10103,208106.0,41767.0,208106.0,59944.0,-730.6574384538478,-157.96563258341754,-371.0687061363499
208116,10098,208116.0,41684.0,208116.0,59937.0,-717.4457028524758,-150.38203865663246,-355.2106784427715
208116,10114,208116.0,41713.0,208116.0,59910.0,-703.4983200484999,-142.6168254872706,-338.95682973585434
208116,10147,208116.0,41805.0,208116.0,59994.0,-688.8289353276698,-134.68459634324984,-322.33626577637784
208116,10187,208116.0,41834.0,208116.0,60036.0,-673.4537108759093,-126.60148584240439,-305.3796817535095
208116,10206,208116.0,41866.0,208116.0,60053.0,-657.3909181541569,-118.38393238851057,-288.1187365893771
208116,10191,208116.0,41810.0,208116.0,60027.0,-640.6605268872569,-110.04763763692702,-270.58537946517436
208126,10204,208126.0,41767.0,208126.0,60036.0,-623.2841988685825,-101.60756242949007,-252.8118823945234
208126,10227,208126.0,41774.0,208126.0,60049.0,-605.2856252213402,-93.07889190700557,-234.83139972185248
208126,10277,208126.0,41863.0,208126.0,60109.0,-586.6907267905277,-84.47798173175197,-216.6783816208766
208126,10292,208126.0,41911.0,208126.0,60169.0,-567.5274477411572,-75.82219211224478,-198.38836898871182
208126,10340,208126.0,41891.0,208126.0,60192.0,-547.825319611096,-67.12876695166901,-179.9971949302482
208126,10326,208126.0,41892.0,208126.0,60162.0,-527.61508835618,-58.41395560760397,-161.54020892284916
208137,10332,208137.0,41840.0,208137.0,60167.0,-506.9286483039205,-49.69306477734641,-143.0522166427462
208137,10379,208137.0,41838.0,208137.0,60210.0,-485.79930428039376,-40.981217373690825,-124.56800479078345
208137,10417,208137.0,41930.0,208137.0,60266.0,-464.261927799195,-32.29412779983109,-106.12261196752328
208137,10452,208137.0,41982.0,208137.0,60322.0,-442.3526723187639,-23.647976382806988,-87.75085675305849
208137,10483,208137.0,41947.0,208137.0,60305.0,-420.10847107293563,-15.058344007528916,-69.48647601114334
208137,10476,208137.0,41913.0,208137.0,60308.0,-397.5666826007233,-6.539471258677949,-51.36162916777863
208147,10491,208147.0,41886.0,208147.0,60293.0,-374.76510134340856,1.895316562286098,-33.40713366877114
208147,10534,208147.0,41931.0,208147.0,60336.0,-351.74224305434143,10.232616006037645,-15.653072374170932
208147,10594,208147.0,41992.0,208147.0,60405.0,-328.5374261972535,18.458486996966883,1.8709222499487623
208147,10618,208147.0,42038.0,208147.0,60438.0,-305.19035464585824,26.55902960424126,19.136127028840235
208147,10637,208147.0,41991.0,208147.0,60438.0,-281.7405302801122,34.52144605769129,36.11558496608086
208147,10645,208147.0,41941.0,208147.0,60418.0,-258.2269758425954,42.334441002528365,52.78455358014031
208157,10668,208157.0,41920.0,208157.0,60404.0,-234.68833760811333,49.98744233337041,69.12017319613761
208157,10707,208157.0,42019.0,208157.0,60478.0,-211.16308328101275,57.46948484720278,85.10078907343302
208157,10762,208157.0,42076.0,208157.0,60525.0,-187.68945590521722,64.76912510001031,100.70578617172748
208157,10800,208157.0,42057.0,208157.0,60536.0,-164.30503885733015,71.87555376752448,115.91622057956687
208157,10808,208157.0,42035.0,208157.0,60524.0,-141.0461634154461,78.7796127173172,130.71552175442923
208157,10797,208157.0,41998.0,208157.0,60497.0,-117.94763933579225,85.47374372495352,145.08951336030475
208168,10826,208168.0,41998.0,208168.0,60498.0,-95.04302379943789,91.95116054554913,159.0257572877902
208168,10882,208168.0,42088.0,208168.0,60554.0,-72.36501476014013,98.20514919511942,172.51280820172087
208168,10911,208168.0,42108.0,208168.0,60581.0,-49.94540298519962,104.22928389387323,185.54004078364943
208168,10953,208168.0,42094.0,208168.0,60602.0,-27.814595895287596,110.01837675279936,198.09810873126588
208168,10944,208168.0,42048.0,208168.0,60578.0,-6.00115941802585,115.56904836021576,210.17942874184985
208168,10955,208168.0,42019.0,208168.0,60559.0,15.468270999450283,120.87928398466715,221.77812921018767
208178,10958,208178.0,42015.0,208178.0,60591.0,36.56866662299211,125.94738025226386,232.88950436266379
208178,11009,208178.0,42108.0,208178.0,60642.0,57.276181428974155,130.7711768581954,243.5096195892623
208178,11049,208178.0,42181.0,208178.0,60664.0,77.56806782975059,135.34841726505815,253.63559632024027
208178,11087,208178.0,42139.0,208178.0,60668.0,97.42307051434483,139.67813726737185,263.2662952767187
208178,11066,208178.0,42094.0,208178.0,60631.0,116.82193689364749,143.7617174977668,272.40269190641544
208178,11069,208178.0,42031.0,208178.0,60611.0,135.74749640845778,147.60252125557966,281.04755548538185
208188,11112,208188.0,42070.0,208188.0,60646.0,154.1842749215042,151.20459318999002,289.2046908949037
208188,11137,208188.0,42138.0,208188.0,60701.0,172.1182215130653,154.57177463178223,296.87852009935466
208188,11171,208188.0,42144.0,208188.0,60727.0,189.53688412236312,157.70802267809304,304.07450508849286
208188,11171,208188.0,42136.0,208188.0,60708.0,206.42975926517062,160.6183480511768,310.79998311012383
208188,11150,208188.0,42073.0,208188.0,60647.0,222.7883851782488,163.3092241484921,317.06448917166585
208188,11167,208188.0,42044.0,208188.0,60648.0,238.6059824319462,165.7880138064638,322.8791385677139
208199,11208,208199.0,42079.0,208199.0,60674.0,253.87695596669153,168.06190129044413,328.25564386772703
208199,11222,208199.0,42145.0,208199.0,60724.0,268.59677685089946,170.13735126082742,333.2059191853963
208199,11249,208199.0,42162.0,208199.0,60721.0,282.7622459689437,172.02066719962173,337.7425061074474
208199,11252,208199.0,42123.0,208199.0,60689.0,296.37177551690206,173.7190095898618,341.87914497368104
208199,11247,208199.0,42057.0,208199.0,60665.0,309.4254657995368,175.24069785581912,345.6307423236385
208199,11251,208199.0,42049.0,208199.0,60653.0,321.92491262208773,176.59440322964346,349.0127077586401
208209,11281,208209.0,42103.0,208209.0,60739.0,333.8728930088598,177.78806200681,352.04035387855265
208209,11307,208209.0,42162.0,208209.0,60715.0,345.27326716232767,178.82867862834053,354.72903067455763
208209,11314,208209.0,42129.0,208209.0,60710.0,356.131199785067,179.7231559482343,357.0947227049393
208209,11317,208209.0,42109.0,208209.0,60693.0,366.4534173192686,180.4790920259694,359.15426871119064
208209,11292,208209.0,42051.0,208209.0,60631.0,376.24818321276496,181.10465884969844,360.9249420967789
208209,11301,208209.0,42059.0,208209.0,60659.0,385.52492219002056,181.60773476136902,362.4236446938861
208219,11339,208219.0,42135.0,208219.0,60696.0,394.2937846815695,181.99517064463075,363.66625157819624
208219,11334,208219.0,42159.0,208219.0,60691.0,402.5655538324778,182.27302542225183,364.6676568430451
208219,11358,208219.0,42129.0,208219.0,60691.0,410.3518502428418,182.44755814894145,365.4422445957843
208219,11327,208219.0,42057.0,208219.0,60667.0,417.66525768073916,182.5257541711089,366.0041047228472
208219,11336,208219.0,42062.0,208219.0,60648.0,424.5191629731776,182.51473148640295,366.3668108220482
208219,11327,208219.0,42057.0,208219.0,60663.0,430.927378477773,182.42070098043948,366.54297841041785
208230,11365,208230.0,42135.0,208230.0,60728.0,436.90382800411203,182.24850229732348,366.54408259354494
208230,11360,208230.0,42179.0,208230.0,60696.0,442.4625345412188,182.00216238943366,366.38089501122687
208230,11364,208230.0,42129.0,208230.0,60719.0,447.61779803840204,181.6860738640321,366.06414505938835
208230,11349,208230.0,42062.0,208230.0,60676.0,452.38424303887166,181.3056192297585,365.60479387117994
208230,11348,208230.0,42057.0,208230.0,60646.0,456.7766102342848,180.86653664234507,365.0137891656602
208230,11355,208230.0,42103.0,208230.0,60695.0,460.8094452730128,180.37385670417493,364.3015373870508
208240,11379,208240.0,42151.0,208240.0,60724.0,464.49693326677607,179.83168305888998,363.47771406648536
208240,11395,208240.0,42153.0,208240.0,60732.0,467.8530384014225,179.2439845894752,362.5518046714086
208240,11373,208240.0,42086.0,208240.0,60662.0,470.8918126035247,178.61543983900023,361.5337442259993
208240,11352,208240.0,42031.0,208240.0,60624.0,473.6274660426818,177.95130951844436,360.43373662460544
208240,11345,208240.0,42056.0,208240.0,60625.0,476.07399259707097,177.25636326048217,359.26125736739465
208240,11357,208240.0,42109.0,208240.0,60640.0,478.2446452901577,176.5340058827716,358.0241176920752
208250,11386,208250.0,42143.0,208250.0,60713.0,480.15171051744096,175.78652178205587,356.72833655710485
208250,11388,208250.0,42124.0,208250.0,60696.0,481.8067202745958,175.0160710548326,355.3788526054392
208250,11370,208250.0,42076.0,208250.0,60643.0,483.2208024789037,174.2253565972216,353.98033320408445
208250,11357,208250.0,42042.0,208250.0,60615.0,484.4047359336954,173.41734487409587,352.5371494833608
208250,11360,208250.0,42042.0,208250.0,60632.0,485.36865898321525,172.59434990144726,351.05259817401725
208250,11373,208250.0,42108.0,208250.0,60681.0,486.12177959177654,171.75735460062933,349.52838398920136
208261,11394,208261.0,42164.0,208261.0,60710.0,486.67238400924657,170.90631418378314,347.96499789630644
208261,11409,208261.0,42130.0,208261.0,60676.0,487.0281659864132,170.04130189849954,346.36261076175896
208261,11371,208261.0,42021.0,208261.0,60651.0,487.1966172337635,169.1632565844881,344.72158381449236
208261,11361,208261.0,42038.0,208261.0,60606.0,487.18506401012644,168.2733383899387,343.04215070043216
208261,11370,208261.0,42059.0,208261.0,60650.0,487.000299006545,167.37165354015036,341.323677886006
208261,11385,208261.0,42127.0,208261.0,60668.0,486.6482838654455,166.45684770587678,339.5642967074243
208271,11406,208271.0,42129.0,208271.0,60705.0,486.13426817429115,165.52686343546182,337.76130171481793
208271,11388,208271.0,42114.0,208271.0,60681.0,485.4631668909052,164.57998744273317,335.91194502806525
208271,11369,208271.0,42067.0,208271.0,60627.0,484.63978521362435,163.61528320510172,334.0138780091501
208271,11364,208271.0,42038.0,208271.0,60620.0,483.6686559848422,162.632155957594,332.0648072609604
208271,11364,208271.0,42076.0,208271.0,60676.0,482.55368982261234,161.62953985672135,330.0618406047664
208271,11400,208271.0,42101.0,208271.0,60712.0,481.2980263910997,160.60552694627538,328.0015086650411
208282,11413,208282.0,42151.0,208282.0,60712.0,479.9043072702825,159.5578366357059,325.88063821763257
208282,11400,208282.0,42096.0,208282.0,60657.0,478.3752205656152,158.48469671999584,323.69718697027696
208282,11363,208282.0,42044.0,208282.0,60628.0,476.713813262052,157.3852152158434,321.45021621787976
208282,11355,208282.0,42010.0,208282.0,60628.0,474.9232433911935,156.25871487914625,319.13913500382745
208282,11375,208282.0,42122.0,208282.0,60661.0,473.00627952067646,155.1037468345047,316.76304554860764
208282,11395,208282.0,42110.0,208282.0,60672.0,470.9651363700116,153.91806638261536,314.3207647075179
208292,11404,208292.0,42130.0,208292.0,60680.0,468.801818481503,152.699595317478,311.81135149545224
208292,11372,208292.0,42068.0,208292.0,60644.0,466.51858129489733,151.44719099158448,309.2345821665753
208292,11338,208292.0,42062.0,208292.0,60626.0,464.11798339128757,150.16054626705562,306.5909600364724
208292,11357,208292.0,42042.0,208292.0,60604.0,461.6024468612186,148.83952799448682,303.88126207786047
208292,11375,208292.0,42109.0,208292.0,60648.0,458.9738700981293,147.4836603125148,301.10604523491685
208292,11396,208292.0,42116.0,208292.0,60683.0,456.2337867291951,146.09230929936393,298.2656790764883
208302,11377,208302.0,42142.0,208302.0,60668.0,453.38388443947133,144.66547792221996,295.36101202575657
208302,11364,208302.0,42063.0,208302.0,60632.0,450.4263513978814,143.20449085370745,292.3940093929648
208302,11347,208302.0,42011.0,208302.0,60614.0,447.36380333352963,141.71180620822886,289.36771356476896
208302,11352,208302.0,42045.0,208302.0,60606.0,444.198981421384,140.1899784427846,286.28569425471056
208302,11391,208302.0,42100.0,208302.0,60652.0,440.9346195675492,138.64087730161083,283.1516383340594
208302,11383,208302.0,42124.0,208302.0,60678.0,437.5737420657456,137.0660653059642,279.9695627993521
208313,11362,208313.0,42074.0,208313.0,60640.0,434.1201405929462,135.46778125184517,276.7445111182376
208313,11332,208313.0,42024.0,208313.0,60572.0,430.57847999164585,133.849293166104,273.4828869044957
208313,11318,208313.0,41989.0,208313.0,60550.0,426.9538971266103,132.2141754281709,270.191809547647
208313,11318,208313.0,42048.0,208313.0,60566.0,423.25145086740076,130.56523647267238,266.87799752623164
208313,11358,208313.0,42108.0,208313.0,60626.0,419.47586420701776,128.90424239069233,263.5472355654264
208313,11357,208313.0,42138.0,208313.0,60637.0,415.63179108322953,127.23285120236683,260.2048726684068
208323,11342,208323.0,42072.0,208323.0,60579.0,411.7243568064652,125.5539138441627,256.85671943087624
208323,11308,208323.0,42002.0,208323.0,60539.0,407.7594032745704,123.8718243652341,253.50926176955383
208323,11313,208323.0,41996.0,208323.0,60540.0,403.7432404817896,122.19156103938799,250.16895814724032
208323,11308,208323.0,42041.0,208323.0,60590.0,399.682268403809,120.51746249669259,246.84152873848535
208323,11321,208323.0,42095.0,208323.0,60593.0,395.58284749334933,118.85298533457426,243.53204986691915
208323,11318,208323.0,42060.0,208323.0,60598.0,391.4514398422129,117.20148354584393,240.24563496761144
208333,11297,208333.0,42019.0,208333.0,60541.0,387.29480224176024,115.56690672082165,236.9879146781903
208333,11292,208333.0,41973.0,208333.0,60548.0,383.11999820379486,113.95353456877011,233.76488686032866
208333,11273,208333.0,41986.0,208333.0,60507.0,378.93420039118956,112.36501476398573,230.5823549315789
208333,11284,208333.0,42079.0,208333.0,60592.0,374.7444572713885,110.80375024799271,227.4455108406207
208333,11300,208333.0,42089.0,208333.0,60580.0,370.5576362532627,109.27142917125634,224.35915021721502
208333,11295,208333.0,42057.0,208333.0,60591.0,366.38064831275483,107.77023598359997,221.32841833995795
208344,11260,208344.0,41997.0,208344.0,60524.0,362.2207171080628,106.30342414440608,218.35932786554778
208344,11233,208344.0,41957.0,208344.0,60478.0,358.0852673786549,104.87468171187584,215.45843496231896
208344,11244,208344.0,41968.0,208344.0,60540.0,353.98143037235116,103.48691301680051,212.63194483476167
208344,11267,208344.0,42059.0,208344.0,60541.0,349.9156922309712,102.141525073308,209.88523603181042
208344,11270,208344.0,42085.0,208344.0,60579.0,345.8940635418736,100.83895324843031,207.22328701066084
208344,11266,208344.0,42052.0,208344.0,60533.0,341.9225411641733,99.57996473181021,204.65140575873158
208354,11222,208354.0,41973.0,208354.0,60498.0,338.00736227276207,98.36635150989517,202.1754730560026
208354,11223,208354.0,41941.0,208354.0,60489.0,334.1548015063585,97.20026403801998,199.80148064209362
208354,11237,208354.0,42021.0,208354.0,60483.0,330.3707741022405,96.08298290228525,197.5348113430121
208354,11244,208354.0,42045.0,208354.0,60529.0,326.6607365808047,95.01456120319102,195.37988022838516
208354,11247,208354.0,42094.0,208354.0,60530.0,323.0299616906221,93.99470998656287,193.34037137995062
208354,11231,208354.0,42014.0,208354.0,60496.0,319.4838514980362,93.02394520962613,191.41974430791308
208364,11200,208364.0,41962.0,208364.0,60472.0,316.02798488988986,92.10382248477191,189.62135420775297
208364,11191,208364.0,41952.0,208364.0,60464.0,312.66780824690557,91.23600459380827,187.94799773863866
208364,11212,208364.0,42011.0,208364.0,60484.0,309.4082180274543,90.42115335184593,186.40138812400482
208364,11220,208364.0,42064.0,208364.0,60540.0,306.2534641170316,89.65884179347248,184.9821301764128
208364,11230,208364.0,42054.0,208364.0,60509.0,303.2074608055445,88.94852308761082,183.69029637626488
208364,11180,208364.0,42001.0,208364.0,60454.0,300.27411872223536,88.29047147401769,182.5259422243749
208375,11169,208375.0,41943.0,208375.0,60448.0,297.4572463100531,87.68568944336769,181.48881411065025
208375,11171,208375.0,41946.0,208375.0,60478.0,294.7600510697978,87.1348519826401,180.57759980229832
208375,11194,208375.0,42024.0,208375.0,60510.0,292.1847767399097,86.63735840965415,179.78969497281383
208375,11211,208375.0,42061.0,208375.0,60526.0,289.7328466513727,86.19151983106195,179.12173473304932
208375,11209,208375.0,42032.0,208375.0,60531.0,287.40535533363857,85.79567379868648,178.57038431414253
208375,11173,208375.0,41981.0,208375.0,60479.0,285.20345703139685,85.44895126760021,178.13281628976347
208385,11164,208385.0,41935.0,208385.0,60452.0,283.1282928946746,85.15089248678272,177.80651421859312
208385,11168,208385.0,41977.0,208385.0,60479.0,281.1805802516693,84.90039552176913,177.58857076862463
208385,11173,208385.0,42040.0,208385.0,60490.0,279.360319266922,84.69516714129364,177.47520692522735
208385,11188,208385.0,42065.0,208385.0,60533.0,277.6668314785751,84.53232976869629,177.46196569409085
208385,11178,208385.0,42024.0,208385.0,60494.0,276.09899664928435,84.40956328513364,177.54428900453263
208385,11157,208385.0,41946.0,208385.0,60454.0,274.6554167723325,84.32552301575981,177.71779393594227
208395,11148,208395.0,41932.0,208395.0,60440.0,273.3342907299382,84.27901994624534,177.97782140882825
208395,11149,208395.0,42003.0,208395.0,60487.0,272.1330866698406,84.26782937133825,178.31870472750182
208395,11176,208395.0,42018.0,208395.0,60514.0,271.0483501219157,84.28841713194757,178.73363035282517
208395,11193,208395.0,42067.0,208395.0,60539.0,270.0758948312189,84.33675553173046,179.21527929476068
208395,11182,208395.0,42018.0,208395.0,60499.0,269.21127320695746,84.40935277067373,179.75662198642047
208395,11168,208395.0,41960.0,208395.0,60481.0,268.4501197504933,84.50360153231537,180.35116666189205
208406,11132,208406.0,41949.0,208406.0,60454.0,267.7880539263548,84.61712101545339,180.99251980182828
208406,11165,208406.0,41992.0,208406.0,60489.0,267.22025796980626,84.74675425623658,181.67373443369544
208406,11198,208406.0,42080.0,208406.0,60547.0,266.74126201312987,84.8883925578705,182.38714265793988
208406,11190,208406.0,42041.0,208406.0,60504.0,266.34529690878253,85.03792461704793,183.12489321059542
208406,11167,208406.0,42009.0,208406.0,60488.0,266.02679601370477,85.19225004408233,183.87948802927673
208406,11151,208406.0,41962.0,208406.0,60451.0,265.7804288834853,85.34925042739629,184.64357941546405
208416,11146,208416.0,41922.0,208416.0,60492.0,265.6006974110187,85.50680101478167,185.4093113574258
208416,11166,208416.0,42014.0,208416.0,60513.0,265.48154992153735,85.6617236437294,186.1680106954623
208416,11182,208416.0,42069.0,208416.0,60525.0,265.4163473187173,85.80971107122889,186.91052992027588
208416,11194,208416.0,42050.0,208416.0,60552.0,265.3981936200788,85.9464312484558,187.62789380205191
208416,11155,208416.0,41996.0,208416.0,60496.0,265.42030527437663,86.06859541561911,188.31178670754883
208416,11151,208416.0,41941.0,208416.0,60462.0,265.4760066422613,86.17381032108663,188.95448221746824
208426,11157,208426.0,41989.0,208426.0,60488.0,265.55836804896296,86.25953239429323,189.54816876911372
208426,11176,208426.0,42013.0,208426.0,60558.0,265.6599541057854,86.32236247340134,190.08447701844705
208426,11189,208426.0,42080.0,208426.0,60567.0,265.77296584672644,86.35840566653106,190.5549802126389
208426,11182,208426.0,42055.0,208426.0,60542.0,265.8896028795061,86.36433420801254,190.95219833608655
208426,11160,208426.0,41956.0,208426.0,60490.0,266.0022855778393,86.33809299732009,191.27001146258814
208426,11152,208426.0,41941.0,208426.0,60481.0,266.1035190032333,86.27835951123565,191.50312637647892
208437,11174,208437.0,41989.0,208437.0,60508.0,266.1855748654889,86.18325599503194,191.64624020679804
208437,11188,208437.0,42044.0,208437.0,60560.0,266.2404086518705,86.0498216549461,191.69378359316477
208437,11189,208437.0,42069.0,208437.0,60550.0,266.2599335979847,85.87477715514204,191.64047426089422
208437,11185,208437.0,42030.0,208437.0,60507.0,266.23635427132075,85.65568297771884,191.48198704570942
208437,11166,208437.0,41951.0,208437.0,60489.0,266.16226860985876,85.39132000888833,191.2149330699719
208437,11157,208437.0,41940.0,208437.0,60494.0,266.03048807312604,85.08087958815078,190.83623927676075
208447,11161,208447.0,42012.0,208447.0,60519.0,265.83371780679363,84.72280898077413,190.34266911626102
208447,11208,208447.0,42045.0,208447.0,60534.0,265.5644208504482,84.31462367779794,189.73090339753912
208447,11198,208447.0,42052.0,208447.0,60535.0,265.2151256601638,83.85383025939754,188.99799522788476
208447,11179,208447.0,42004.0,208447.0,60510.0,264.7789039842013,83.33886506327129,188.14174987677274
208447,11149,208447.0,41940.0,208447.0,60457.0,264.2494385222917,82.76909353530583,187.16063098355144
208447,11169,208447.0,41930.0,208447.0,60473.0,263.62062190355425,82.14383388606036,186.05313449325112
208457,11186,208457.0,42024.0,208457.0,60494.0,262.8862356167791,81.46133801624117,184.81715654238207
208457,11191,208457.0,42066.0,208457.0,60551.0,262.04008348028486,80.71892575804517,183.45003734103292
208457,11205,208457.0,42058.0,208457.0,60533.0,261.0763956926701,79.9142664152692,181.9493114734205
208457,11178,208457.0,41983.0,208457.0,60489.0,259.9901576043382,79.04644166806814,180.3134199670141
208457,11172,208457.0,41943.0,208457.0,60457.0,258.77715899639026,78.11572138495828,178.54163138044453
208457,11158,208457.0,41965.0,208457.0,60475.0,257.4337518852777,77.12242676000429,176.6333156438199
208468,11177,208468.0,42032.0,208468.0,60525.0,255.956555789515,76.06616988355331,174.58747528155232
208468,11189,208468.0,42058.0,208468.0,60530.0,254.34241008850742,74.94627720549656,172.40310068167068
208468,11179,208468.0,42022.0,208468.0,60513.0,252.5886079856602,73.76287680478535,170.0799386257065
208468,11160,208468.0,41965.0,208468.0,60484.0,250.69310457044958,72.51743524681167,167.61887675922506
208468,11139,208468.0,41939.0,208468.0,60452.0,248.65439550727405,71.21219559188354,165.02166270953956
208468,11149,208468.0,41979.0,208468.0,60472.0,246.47114534261428,69.8491620772763,162.2902937601858
208478,11186,208478.0,42025.0,208478.0,60523.0,244.14198439086127,68.42971409755171,159.42671652481985
208478,11179,208478.0,42051.0,208478.0,60514.0,241.6657818471522,66.95523999873095,156.43324332419772
208478,11166,208478.0,41993.0,208478.0,60468.0,239.04213006097595,65.42811066667315,153.3132035542349
208478,11130,208478.0,41921.0,208478.0,60424.0,236.27148550356696,63.851885882782064,150.0709314344213
208478,11125,208478.0,41918.0,208478.0,60421.0,233.35481668486798,62.230378981311524,146.7109847956039
208478,11138,208478.0,41982.0,208478.0,60465.0,230.293127323898,60.56652680094209,143.2373981887203
208488,11160,208488.0,42016.0,208488.0,60480.0,227.0873262706509,58.862297260163686,139.65370073482933
208488,11155,208488.0,42024.0,208488.0,60494.0,223.73854330949283,57.11964660472065,135.96360751807455
208488,11132,208488.0,41925.0,208488.0,60440.0,220.2485123758531,55.341368689111576,132.17168014628564
208488,11097,208488.0,41921.0,208488.0,60382.0,216.61957085645784,53.53084864738535,128.28328043045803
208488,11097,208488.0,41907.0,208488.0,60379.0,212.85421825214036,51.69099608983683,124.30371382619987
208488,11119,208488.0,41973.0,208488.0,60405.0,208.9546611348947,49.823495054196805,120.23727886760815
208499,11127,208499.0,42010.0,208499.0,60462.0,204.92280370513436,47.92907487734597,116.08711488908358
208499,11121,208499.0,41994.0,208499.0,60434.0,200.76062721292297,46.008522657277155,111.85592075089919
208499,11108,208499.0,41933.0,208499.0,60392.0,196.4705251017328,44.06345172113652,107.54668235652176
208499,11078,208499.0,41890.0,208499.0,60367.0,192.0553125091492,42.096026698226524,103.16260140395225
208499,11069,208499.0,41908.0,208499.0,60381.0,187.51791814049759,40.107924420754536,98.70644788189243
208499,11101,208499.0,41984.0,208499.0,60425.0,182.86104174641616,38.09965375382304,94.18021248010925
208509,11097,208509.0,42001.0,208509.0,60456.0,178.08717780718152,36.07102153152417,89.58556070727833
208509,11082,208509.0,41974.0,208509.0,60417.0,173.19896283688365,34.02226698066646,84.92475675613325
208509,11056,208509.0,41903.0,208509.0,60339.0,168.19935243629533,31.954628136679062,80.20110792927994
208509,11043,208509.0,41859.0,208509.0,60338.0,163.09139730265338,29.869712886463482,75.41835683594879
208509,11055,208509.0,41925.0,208509.0,60356.0,157.87788320822298,27.768301955609417,70.57967087018268
208509,11068,208509.0,41951.0,208509.0,60394.0,152.56122542810323,25.649844574005236,65.68730547486629
208520,11079,208520.0,42024.0,208520.0,60392.0,147.14375716303027,23.513191178570693,60.74312525034367
208520,11055,208520.0,41951.0,208520.0,60364.0,141.6281750997182,21.357871051707548,55.74930286081596
208520,11024,208520.0,41868.0,208520.0,60326.0,136.01772514179368,19.184637955124018,50.70850355929359
208520,11004,208520.0,41854.0,208520.0,60315.0,130.31591775452688,16.9946017765525,45.62344597665188
208520,11015,208520.0,41927.0,208520.0,60354.0,124.52602578446931,14.787887200785192,40.49637132859971
208520,11032,208520.0,41998.0,208520.0,60371.0,118.65085438331879,12.563454542438947,35.32906854506609
208530,11028,208530.0,41983.0,208530.0,60373.0,112.69297113687043,10.320325583264008,30.123497745741105
208530,11007,208530.0,41911.0,208530.0,60326.0,106.65508060538015,8.058818071971231,24.882386668410277
208530,10983,208530.0,41861.0,208530.0,60271.0,100.54011415974445,5.7804795617550155,19.60915643817907
208530,10978,208530.0,41867.0,208530.0,60283.0,94.35097228827615,3.4869209223460587,14.307158376121947
208530,10981,208530.0,41924.0,208530.0,60332.0,88.0902228374959,1.178838593961359,8.979004920990462
208530,10992,208530.0,41959.0,208530.0,60329.0,81.76005460459996,-1.143851645060252,3.6267453592184893
208540,11006,208540.0,41938.0,208540.0,60329.0,75.36254893267198,-3.4810547643813123,-1.7473970438173012
208540,10970,208540.0,41901.0,208540.0,60264.0,68.90007698016905,-5.831762760409944,-7.140590711917611
208540,10939,208540.0,41819.0,208540.0,60255.0,62.37542189620032,-8.19429591365774,-12.549683212221424
208540,10935,208540.0,41850.0,208540.0,60249.0,55.79143154598458,-10.567371323286352,-17.97189893325549
208540,10962,208540.0,41907.0,208540.0,60301.0,49.1506165597508,-12.950992976191657,-23.40523473508793
208540,10952,208540.0,41967.0,208540.0,60310.0,42.45519347270212,-15.346149502713502,-28.848114512600233
208551,10946,208551.0,41901.0,208551.0,60297.0,35.70744335567409,-17.753602942795467,-34.29859415661957
208551,10912,208551.0,41875.0,208551.0,60218.0,28.90990421609453,-20.173140581637796,-39.753924435562425
208551,10889,208551.0,41833.0,208551.0,60224.0,22.06517245980268,-22.603988020198784,-45.21097374691422
208551,10888,208551.0,41870.0,208551.0,60230.0,15.17545701633415,-25.04571970682045,-50.667029180816996
208551,10918,208551.0,41902.0,208551.0,60260.0,8.242290790038226,-27.498665207536803,-56.12009567379434
208551,10928,208551.0,41958.0,208551.0,60262.0,1.2667535168589268,-29.96339636368478,-61.568503109010095
208561,10900,208561.0,41885.0,208561.0,60237.0,-5.749966042643507,-32.43973447847195,-67.0103314081052
208561,10877,208561.0,41819.0,208561.0,60161.0,-12.806251446038857,-34.92637640162154,-72.44330328779739
208561,10851,208561.0,41796.0,208561.0,60159.0,-19.90026478739628,-37.421758777455594,-77.86544627817605
208561,10866,208561.0,41866.0,208561.0,60206.0,-27.03038035725919,-39.925296364002435,-83.27595135852386
208561,10879,208561.0,41927.0,208561.0,60246.0,-34.19536213304306,-42.43756774326519,-88.67521843380987
208561,10886,208561.0,41943.0,208561.0,60249.0,-41.39408480441256,-44.95917321545157,-94.06394297189749
208571,10856,208571.0,41890.0,208571.0,60183.0,-48.62507562692318,-47.489365772049794,-99.44218077859571
208571,10823,208571.0,41818.0,208571.0,60162.0,-55.88636688536812,-50.02570984706189,-104.80928740516396
208571,10816,208571.0,41781.0,208571.0,60153.0,-63.17582091461114,-52.565043100158434,-110.16462088460315
208571,10823,208571.0,41847.0,208571.0,60204.0,-70.49156347112512,-55.104826581712146,-115.5081133303361
208571,10825,208571.0,41857.0,208571.0,60191.0,-77.83209649374692,-57.64364283067671,-120.84011644120329
208571,10831,208571.0,41917.0,208571.0,60184.0,-85.19606805318548,-60.18055056645355,-126.16083661618939
208582,10788,208582.0,41814.0,208582.0,60133.0,-92.58200309934483,-62.71413991615222,-131.47007809216
208582,10773,208582.0,41774.0,208582.0,60123.0,-99.98833706192949,-65.24241744963382,-136.76758349292243
208582,10764,208582.0,41783.0,208582.0,60119.0,-107.41378270838803,-67.76376998622786,-142.05364597491365
208582,10781,208582.0,41875.0,208582.0,60158.0,-114.85764377803076,-70.27781728455764,-147.32943240339165
208582,10788,208582.0,41867.0,208582.0,60204.0,-122.31973747182712,-72.78502038088294,-152.59662899416622
208582,10780,208582.0,41881.0,208582.0,60146.0,-129.8000067711622,-75.28552318886588,-157.8565874757636
208592,10745,208592.0,41789.0,208592.0,60104.0,-137.29820710275885,-77.77847396638745,-163.10983585352358
208592,10717,208592.0,41770.0,208592.0,60087.0,-144.8140073401937,-80.26243174343935,-168.35652847252624
208592,10728,208592.0,41772.0,208592.0,60106.0,-152.34742420150928,-82.73645096822145,-173.59725455294875
208592,10740,208592.0,41828.0,208592.0,60125.0,-159.89910233544498,-85.20081433595576,-178.8333329647972
208592,10753,208592.0,41908.0,208592.0,60139.0,-167.47010820522667,-87.65664885992632,-184.0664454884971
208592,10739,208592.0,41821.0,208592.0,60117.0,-175.06142798178792,-90.10471254790355,-189.29804159828893
208602,10699,208602.0,41780.0,208602.0,60081.0,-182.6736368968517,-92.54466909859545,-194.5290510056622
208602,10693,208602.0,41753.0,208602.0,60045.0,-190.3070273964014,-94.97568639507651,-199.76018724011436
208602,10694,208602.0,41810.0,208602.0,60103.0,-197.9619795389919,-97.39749669938175,-204.9925326064104
208602,10696,208602.0,41848.0,208602.0,60125.0,-205.63912436248665,-99.81061124598833,-210.22762131348958
208602,10693,208602.0,41857.0,208602.0,60112.0,-213.33920104417302,-102.21552127252608,-215.46677182407205
208602,10678,208602.0,41807.0,208602.0,60057.0,-221.0628405632716,-104.61177591394423,-220.71046370228322
208613,10652,208613.0,41734.0,208613.0,60016.0,-228.8105065488275,-106.9979204793639,-225.95855221936432
208613,10637,208613.0,41702.0,208613.0,60009.0,-236.58268638515085,-109.37252785353647,-231.2111668977197
208613,10645,208613.0,41798.0,208613.0,60059.0,-244.38018685128333,-111.73545488503203,-236.4694602186717
208613,10659,208613.0,41851.0,208613.0,60083.0,-252.2042104826494,-114.08795778760444,-241.73550627702286
208613,10656,208613.0,41852.0,208613.0,60062.0,-260.0560709694999,-116.4314216898421,-247.01150517274016
208613,10641,208613.0,41771.0,208613.0,60026.0,-267.9367883797451,-118.76608043169719,-252.29916732605818
208623,10616,208623.0,41727.0,208623.0,60001.0,-275.8469122483388,-121.09104603857952,-257.599838221464
208623,10606,208623.0,41718.0,208623.0,60016.0,-283.7866655946181,-123.40547180330586,-262.9150518735506
208623,10604,208623.0,41769.0,208623.0,60031.0,-291.7562034308508,-125.70963071668012,-268.2468390698116
208623,10609,208623.0,41799.0,208623.0,60044.0,-299.75571457556396,-128.00499251953806,-273.5974948757309
208623,10600,208623.0,41808.0,208623.0,60018.0,-307.7852959364785,-130.29342685968479,-278.9690947306488
208623,10566,208623.0,41740.0,208623.0,60000.0,-315.84480972525665,-132.57643104389072,-284.36325285205794
208633,10549,208633.0,41704.0,208633.0,59969.0,-323.9340048991069,-134.85522015020788,-289.7813313273779
208633,10540,208633.0,41728.0,208633.0,59964.0,-332.0528866432323,-137.13158433706855,-295.2249237759368
208633,10566,208633.0,41781.0,208633.0,60014.0,-340.20197367814416,-139.4084791837919,-300.69618855234216
208633,10571,208633.0,41849.0,208633.0,60040.0,-348.3821297145735,-141.68951927716583,-306.19755788827075
208633,10545,208633.0,41787.0,208633.0,59997.0,-356.5941026074064,-143.97771089129995,-311.73092814074477
208633,10524,208633.0,41729.0,208633.0,59946.0,-364.8382589016296,-146.2746905032373,-317.2972174639506
208644,10507,208644.0,41681.0,208644.0,59940.0,-373.11474445360517,-148.58130889608418,-322.89681701383415
208644,10511,208644.0,41763.0,208644.0,59991.0,-381.4238019616295,-150.8988443968999,-328.5302658033436
208644,10526,208644.0,41812.0,208644.0,59996.0,-389.76586898812405,-153.22933956684986,-334.1982142342626
208644,10519,208644.0,41816.0,208644.0,60003.0,-398.14133301902314,-155.57462822491996,-339.9007147398626
208644,10489,208644.0,41764.0,208644.0,59948.0,-406.5501985377823,-157.93516781522015,-345.63662674986693
208644,10471,208644.0,41693.0,208644.0,59905.0,-414.99205061135467,-160.30991356073855,-351.4037309549838
208654,10465,208654.0,41671.0,208654.0,59918.0,-423.4663311791355,-162.69735783666937,-357.19946184003123
208654,10456,208654.0,41723.0,208654.0,59923.0,-431.9726083095968,-165.09679780613246,-363.02155429740475
208654,10492,208654.0,41801.0,208654.0,59949.0,-440.51058142889315,-167.5086231958408,-368.86806001785186
208654,10474,208654.0,41800.0,208654.0,59956.0,-449.079745635415,-169.9332963901582,-374.7368511067052
208654,10435,208654.0,41735.0,208654.0,59914.0,-457.6789883162757,-172.37008729189188,-380.62507240190166
208654,10416,208654.0,41662.0,208654.0,59866.0,-466.30661187299876,-174.81694109754778,-386.52907885293786
208664,10418,208664.0,41684.0,208664.0,59877.0,-474.96075223728997,-177.27158222185736,-392.4450078090857
208664,10435,208664.0,41759.0,208664.0,59932.0,-483.63963266006795,-179.73251675256395,-398.36929219555265
208664,10436,208664.0,41769.0,208664.0,59939.0,-492.34135332258325,-182.19877795861322,-404.2983456876548
208664,10413,208664.0,41758.0,208664.0,59895.0,-501.0634657468644,-184.6688439294163,-410.2277397489589
208664,10378,208664.0,41692.0,208664.0,59854.0,-509.8027955025701,-187.14000435103506,-416.15189463346826
208664,10363,208664.0,41665.0,208664.0,59821.0,-518.5557116160406,-189.6087674004244,-422.06464876712494
208675,10362,208675.0,41657.0,208675.0,59855.0,-527.3185776754611,-192.07188186120504,-427.960101593221
208675,10391,208675.0,41767.0,208675.0,59888.0,-536.0879314334829,-194.5269809194974,-433.83289832561553
208675,10381,208675.0,41767.0,208675.0,59923.0,-544.8601926760954,-196.97205849041012,-439.67763502787346
208675,10370,208675.0,41735.0,208675.0,59876.0,-553.631170651409,-199.40423551741378,-445.4878678665506
208675,10338,208675.0,41660.0,208675.0,59830.0,-562.3958244923391,-201.81921470860556,-451.2556333489893
208675,10323,208675.0,41630.0,208675.0,59815.0,-571.148426527272,-204.21203294681817,-456.9718804555547
208685,10334,208685.0,41696.0,208685.0,59836.0,-579.8828777006385,-206.5782595214738,-462.6272280433556
208685,10345,208685.0,41762.0,208685.0,59873.0,-588.5927786382902,-208.91428444235257,-468.21218165745967
208685,10335,208685.0,41754.0,208685.0,59867.0,-597.2711331085895,-211.2163144943636,-473.71661982176704
208685,10302,208685.0,41691.0,208685.0,59817.0,-605.91002407377,-213.47921246391513,-479.1291714025294
208685,10283,208685.0,41665.0,208685.0,59803.0,-614.5006511147416,-215.6964121139857,-484.4371987494994
208685,10280,208685.0,41619.0,208685.0,59771.0,-623.0336728217497,-217.86084229355106,-489.6273788886028
208695,10285,208695.0,41689.0,208695.0,59812.0,-631.4994638558932,-219.96592542788386,-494.68629224445004
208695,10301,208695.0,41757.0,208695.0,59849.0,-639.8880259223367,-222.00569743858279,-499.6004486304469
208695,10306,208695.0,41747.0,208695.0,59851.0,-648.1885792767406,-223.973782175373,-504.3556072574882
208695,10268,208695.0,41672.0,208695.0,59794.0,-656.3891022243408,-225.86225670553014,-508.93599832026666
208695,10248,208695.0,41619.0,208695.0,59758.0,-664.4762135904828,-227.66172916417563,-513.324294566233
208695,10233,208695.0,41618.0,208695.0,59744.0,-672.4354916443004,-229.36256061452815,-517.5023819274545
208706,10245,208706.0,41685.0,208706.0,59783.0,-680.2518534949946,-230.95594817486398,-521.4521445666699
208706,10259,208706.0,41727.0,208706.0,59787.0,-687.9095967520481,-232.4338335703073,-525.1555808997972
208706,10234,208706.0,41681.0,208706.0,59817.0,-695.3921039371742,-233.78790452499643,-528.5942936770529
208706,10224,208706.0,41633.0,208706.0,59756.0,-702.6815845463499,-235.00896420460154,-531.7489132558683
208706,10184,208706.0,41638.0,208706.0,59734.0,-709.7591649308094,-236.08734692926205,-534.5990476153986
208706,10192,208706.0,41645.0,208706.0,59741.0,-716.6052597893326,-237.01369238859812,-537.1238325939323
208716,10201,208716.0,41724.0,208716.0,59767.0,-723.1998818473036,-237.77911335287928,-539.3024293439362
208716,10194,208716.0,41725.0,208716.0,59790.0,-729.522613104246,-238.37449409905335,-541.1139010115594
208716,10188,208716.0,41693.0,208716.0,59758.0,-735.5523718617637,-238.78949458242437,-542.5366919242649
208716,10159,208716.0,41619.0,208716.0,59717.0,-741.2673161787701,-239.01227251683827,-543.5484061267048
208716,10147,208716.0,41590.0,208716.0,59689.0,-746.6450240734968,-239.03034665649997,-544.1262988014121
208716,10158,208716.0,41631.0,208716.0,59711.0,-751.6628034460315,-238.83189537629804,-544.2481352379249
208726,10163,208726.0,41682.0,208726.0,59755.0,-756.2978167443633,-238.40633539907424,-543.8926409704598
208726,10167,208726.0,41687.0,208726.0,59760.0,-760.5268976604792,-237.74379046826243,-543.039173458692
208726,10148,208726.0,41630.0,208726.0,59710.0,-764.3262872533595,-236.83428610650296,-541.6671381206495
208726,10107,208726.0,41546.0,208726.0,59667.0,-767.6716282113275,-235.6678445408065,-539.7560458959379
208726,10100,208726.0,41592.0,208726.0,59648.0,-770.5383819426788,-234.23564808286304,-537.2864214458677
208726,10098,208726.0,41640.0,208726.0,59684.0,-772.9024304790637,-232.53107728356846,-534.2408624374833
208737,10117,208737.0,41707.0,208737.0,59739.0,-774.7404228086243,-230.5494685955464,-530.6043965215495
208737,10125,208737.0,41686.0,208737.0,59718.0,-776.0296984462564,-228.28688317528938,-526.3639807364184
208737,10102,208737.0,41643.0,208737.0,59691.0,-776.748015652527,-225.73913157263593,-521.5079229558876
208737,10092,208737.0,41593.0,208737.0,59665.0,-776.8734756135262,-222.90191047765708,-516.0260271985342
208737,10083,208737.0,41590.0,208737.0,59669.0,-776.3847809141862,-219.77185131106256,-509.9103397282227
208737,10094,208737.0,41651.0,208737.0,59728.0,-775.2615800937589,-216.3475094028774,-503.15575154022883
208747,10094,208747.0,41705.0,208747.0,59715.0,-773.4846379090199,-212.62938925667711,-495.7599616729474
208747,10103,208747.0,41686.0,208747.0,59747.0,-771.0358198183956,-208.61904034832722,-487.72304030704595
208747,10084,208747.0,41628.0,208747.0,59718.0,-767.8980511818428,-204.31830411493138,-479.04714015684476
208747,10066,208747.0,41608.0,208747.0,59700.0,-764.0554622286002,-199.72962276190177,-469.736625307683
208747,10062,208747.0,41625.0,208747.0,59736.0,-759.493808385387,-194.85705365164262,-459.79854457368776
208747,10101,208747.0,41700.0,208747.0,59796.0,-754.2009094608285,-189.70687816470505,-449.24290889683573
208758,10110,208758.0,41734.0,208758.0,59835.0,-748.1667033985857,-184.28715528317582,-438.082216035767
208758,10109,208758.0,41723.0,208758.0,59798.0,-741.3829493946462,-178.60662646390662,-426.3305682797959
208758,10100,208758.0,41679.0,208758.0,59784.0,-733.843040088962,-172.67401376536696,-414.0033298901649
208758,10094,208758.0,41639.0,208758.0,59780.0,-725.5421740394052,-166.4983463987525,-401.1176415378422
208758,10114,208758.0,41675.0,208758.0,59789.0,-716.4777146495985,-160.089957219844,-387.6932245940985
208758,10147,208758.0,41769.0,208758.0,59890.0,-706.6493855983658,-153.46106414754868,-373.7527583137698
208768,10159,208768.0,41780.0,208768.0,59904.0,-696.0591045289092,-146.6251691812985,-359.3214204775069
208768,10168,208768.0,41760.0,208768.0,59901.0,-684.7106432124547,-139.59587162336885,-344.4259408656113
208768,10157,208768.0,41697.0,208768.0,59896.0,-672.6094743476951,-132.38641049485324,-329.09409766601095
208768,10151,208768.0,41667.0,208768.0,59862.0,-659.7629748660931,-125.01042544809252,-313.3550283192584
208768,10200,208768.0,41733.0,208768.0,59951.0,-646.1808115227022,-117.48320315348025,-297.2398783247134
208768,10217,208768.0,41847.0,208768.0,60025.0,-631.8750774771436,-109.8220649593028,-280.7819006706575
208778,10248,208778.0,41843.0,208778.0,60045.0,-616.86001562818,-102.04526392758198,-264.01554347275743
208778,10245,208778.0,41819.0,208778.0,60035.0,-601.1516541294354,-94.17045517013263,-246.97529174131506
208778,10242,208778.0,41751.0,208778.0,60007.0,-584.7677178961376,-86.21427086163621,-229.69532664732859
208778,10252,208778.0,41765.0,208778.0,60021.0,-567.7279005792619,-78.19318959252901,-212.21008617051473
208778,10303,208778.0,41841.0,208778.0,60100.0,-550.0542171561465,-70.1245540924188,-194.55493272065104
208778,10331,208778.0,41887.0,208778.0,60111.0,-531.7710034199829,-62.02655088334253,-176.76613533690661
208789,10363,208789.0,41858.0,208789.0,60184.0,-512.9045110612262,-53.91725855746761,-158.88018960381743
208789,10365,208789.0,41866.0,208789.0,60123.0,-493.4824719428231,-45.81392571088813,-140.933125751464
208789,10360,208789.0,41817.0,208789.0,60155.0,-473.53399296753025,-37.7330931649734,-122.9603825474259
208789,10405,208789.0,41849.0,208789.0,60195.0,-453.0898029000412,-29.691232074629923,-104.99717700855985
208789,10444,208789.0,41917.0,208789.0,60254.0,-432.182443431317,-21.70519717530385,-87.07860179434599
208789,10493,208789.0,41977.0,208789.0,60301.0,-410.846014934216,-13.791806568677458,-69.2390140422718
208799,10487,208799.0,41948.0,208799.0,60302.0,-389.1156498975106,-5.966687142914012,-51.51112937690502
208799,10508,208799.0,41911.0,208799.0,60263.0,-367.02721684291015,1.7565038857120783,-33.92554245535945
208799,10523,208799.0,41854.0,208799.0,60250.0,-344.6174296526598,9.365682441107467,-16.51113237715404
208799,10560,208799.0,41908.0,208799.0,60321.0,-321.9240697293251,16.84917327881692,0.7040345674802779
208799,10620,208799.0,41992.0,208799.0,60366.0,-298.9859595743005,24.195020865542446,17.692333803288648
208799,10651,208799.0,42022.0,208799.0,60404.0,-275.84254490095066,31.391607578206134,34.427142615117305
208809,10660,208809.0,41954.0,208809.0,60379.0,-252.53331877973426,38.42886320933064,50.88364031285738
208809,10673,208809.0,41929.0,208809.0,60353.0,-229.09754390232385,45.29858478512392,67.03897907414026
208809,10694,208809.0,41876.0,208809.0,60372.0,-205.5743870396246,51.99348656141248,82.87167246547003
208809,10739,208809.0,41967.0,208809.0,60416.0,-182.003132530807,58.50593971424013,98.36087223881847
208809,10779,208809.0,42033.0,208809.0,60471.0,-158.42312950011237,64.82764251225689,113.4862909773237
208809,10800,208809.0,42068.0,208809.0,60486.0,-134.8734553386831,70.95064013027505,128.22880971807712
208820,10821,208820.0,41986.0,208820.0,60468.0,-111.39258357021208,76.86866833925731,142.5711337338841
208820,10838,208820.0,41953.0,208820.0,60450.0,-88.01828149327241,82.57736829006473,156.4978474749641
208820,10862,208820.0,41942.0,208820.0,60489.0,-64.7876877852542,88.07322688432632,169.99489553907716
208820,10921,208820.0,42031.0,208820.0,60543.0,-41.73734623435735,93.35248949227639,183.04922073603905
208820,10942,208820.0,42065.0,208820.0,60547.0,-18.902975834548556,98.41120473165662,195.64906158686875
208820,10981,208820.0,42072.0,208820.0,60583.0,3.68096727447238,103.24626786439825,207.7845676713943
208830,10986,208830.0,42007.0,208830.0,60542.0,25.98164778424257,107.85629322222843,219.44816251176167
208830,10999,208830.0,41947.0,208830.0,60542.0,47.96793999527108,112.24135044165772,230.63439527242195
208830,11030,208830.0,42014.0,208830.0,60539.0,69.61028286237729,116.40180133116215,241.3393564023615
208830,11067,208830.0,42075.0,208830.0,60601.0,90.88056135381595,120.33758315036008,251.56015523786874
208830,11107,208830.0,42109.0,208830.0,60630.0,111.75226804836149,124.04883277849333,261.2950121730989
208830,11118,208830.0,42076.0,208830.0,60627.0,132.20087707414547,127.5371293023529,270.5438825199153
208840,11110,208840.0,42011.0,208840.0,60600.0,152.2040791192228,130.8060173318406,279.3089078568158
208840,11121,208840.0,41976.0,208840.0,60553.0,171.7415990351942,133.86029493955894,287.5941241781618
208840,11154,208840.0,42020.0,208840.0,60595.0,190.79476675227306,136.70472584896717,295.4045866525585
208840,11207,208840.0,42087.0,208840.0,60632.0,209.3463400023424,139.34341424348074,302.745718332798
208840,11237,208840.0,42140.0,208840.0,60661.0,227.38084051710365,141.7804815430014,309.6234877525883
208840,11221,208840.0,42051.0,208840.0,60645.0,244.88508653480062,144.02132861345544,316.04506513196526
208851,11220,208851.0,42009.0,208851.0,60611.0,261.84832714125866,146.07302618967105,322.0191353651094
208851,11228,208851.0,41997.0,208851.0,60610.0,278.26182911787373,147.94336180776313,327.555525548577
208851,11273,208851.0,42034.0,208851.0,60634.0,294.11839222353694,149.63962773885925,332.6645656822861
208851,11291,208851.0,42110.0,208851.0,60668.0,309.4122647260201,151.16834772457145,337.3568500586752
208851,11319,208851.0,42133.0,208851.0,60683.0,324.1394310873386,152.53615072418543,341.64358923845026
208851,11309,208851.0,42049.0,208851.0,60655.0,338.2979117674928,153.75093542208504,345.5371252638436
208861,11289,208861.0,41976.0,208861.0,60616.0,351.887731244031,154.82196735742824,349.0509904857696
208861,11298,208861.0,42000.0,208861.0,60617.0,364.91044705771014,155.75861700581873,352.19931532982235
208861,11335,208861.0,42063.0,208861.0,60665.0,377.3685798750846,156.56912679413148,354.9961471628903
208861,11372,208861.0,42092.0,208861.0,60671.0,389.265482833758,157.26067967487256,357.455386087391
208861,11383,208861.0,42059.0,208861.0,60664.0,400.6057310407631,157.84035210953513,359.5912380486569
208861,11357,208861.0,42041.0,208861.0,60629.0,411.39552923257986,158.3156985407512,361.41846840807256
208871,11342,208871.0,41982.0,208871.0,60610.0,421.6426011624591,158.6944288101791,362.95206899133996
208871,11365,208871.0,41981.0,208871.0,60618.0,431.35560301550333,158.98348588567777,364.2065890792632
208871,11387,208871.0,42062.0,208871.0,60674.0,440.5436414154643,159.1882602915551,365.19573293096937
208871,11428,208871.0,42110.0,208871.0,60707.0,449.21631465913185,159.3128071750586,365.93270906439795
208871,11431,208871.0,42084.0,208871.0,60681.0,457.3841655807829,159.36103142834426,366.4311163331612
208871,11397,208871.0,41995.0,208871.0,60626.0,465.0590681362564,159.33752935606955,366.7054658103308
208882,11383,208882.0,41991.0,208882.0,60602.0,472.2540616719174,159.2470951340855,366.77073294403436
208882,11399,208882.0,42031.0,208882.0,60601.0,478.9827053516558,159.0935759305586,366.6413381924493
208882,11439,208882.0,42093.0,208882.0,60658.0,485.2586059879392,158.87950226368525,366.3304602659952
208882,11452,208882.0,42126.0,208882.0,60693.0,491.0955519196442,158.60693464523263,365.8502522057684
208882,11428,208882.0,42060.0,208882.0,60671.0,496.50794286883604,158.27867241149625,365.21272309569
208882,11405,208882.0,42005.0,208882.0,60574.0,501.5108636921718,157.89860031533152,364.4302610071559
208892,11405,208892.0,42003.0,208892.0,60609.0,506.1196072854674,157.47084089579175,363.5150682464264
208892,11436,208892.0,42052.0,208892.0,60640.0,510.34911768507993,156.9987142465187,362.47824514143
208892,11445,208892.0,42084.0,208892.0,60655.0,514.2138648783161,156.48461000887193,361.32969371257514
208892,11459,208892.0,42117.0,208892.0,60653.0,517.7281285817338,155.93079576859316,360.0787295665184
208892,11463,208892.0,42021.0,208892.0,60630.0,520.9063444623624,155.3402875261596,358.73455779877406
208892,11423,208892.0,42019.0,208892.0,60596.0,523.7632371115747,154.71684517874573,357.3062159505559
208902,11418,208902.0,42000.0,208902.0,60596.0,526.3135531227387,154.06410303504737,355.8020747897704
208902,11446,208902.0,42058.0,208902.0,60621.0,528.5715496266205,153.38481877513598,354.2293297048987
208902,11454,208902.0,42076.0,208902.0,60659.0,530.5507680269585,152.68095916480277,352.5940045646648
208902,11458,208902.0,42059.0,208902.0,60649.0,532.264242233552,151.95437958937117,350.90152245116036
208902,11440,208902.0,42010.0,208902.0,60622.0,533.7247341878834,151.2072595193632,349.157284520308
208902,11414,208902.0,41982.0,208902.0,60606.0,534.9446400849224,150.44172922774283,347.36670838181874
208913,11448,208913.0,42020.0,208913.0,60585.0,535.9356215205571,149.659047913609,345.5347784395277
208913,11458,208913.0,42045.0,208913.0,60632.0,536.7083982903694,148.85921551140208,343.6655937135463
208913,11466,208913.0,42078.0,208913.0,60640.0,537.2729695954768,148.04140265489798,341.76238248948385
208913,11473,208913.0,42069.0,208913.0,60622.0,537.6390022481507,147.20477988252904,339.8279573541899
208913,11440,208913.0,41999.0,208913.0,60579.0,537.8160394950168,146.349009469666,337.8649770872059
208913,11430,208913.0,41968.0,208913.0,60572.0,537.8133621751188,145.47385148319967,335.87558628811695
208923,11437,208923.0,42020.0,208923.0,60591.0,537.6395788078821,144.57818965503455,333.8608070447611
208923,11460,208923.0,42086.0,208923.0,60648.0,537.3023450113539,143.65965286972124,331.8204009978868
208923,11456,208923.0,42101.0,208923.0,60621.0,536.8084750589707,142.71544751446515,329.75342640259066
208923,11454,208923.0,42045.0,208923.0,60627.0,536.1642227187453,141.74355484688206,327.65892759632703
208923,11434,208923.0,42020.0,208923.0,60562.0,535.3753830736769,140.7430792295584,325.53608907063375
208923,11421,208923.0,41941.0,208923.0,60573.0,534.4471058401317,139.71349230478424,323.3837671563699
208933,11451,208933.0,42043.0,208933.0,60603.0,533.383600110126,138.65350573111093,321.1999113534036
208933,11469,208933.0,42112.0,208933.0,60616.0,532.1881108125557,137.5607948341897,318.98152091298255
208933,11481,208933.0,42111.0,208933.0,60638.0,530.8633327020386,136.43313783115093,316.72518530865364
208933,11468,208933.0,42038.0,208933.0,60600.0,529.4119460666325,135.26979896126727,314.4276784744631
208933,11433,208933.0,41971.0,208933.0,60592.0,527.8368268208953,134.07159124973444,312.0861394356649
208933,11429,208933.0,41968.0,208933.0,60580.0,526.1407689985808,132.8396108327292,309.6977989597468
208944,11451,208944.0,42030.0,208944.0,60606.0,524.3260332310679,131.57397038715544,307.259648970772
208944,11466,208944.0,42050.0,208944.0,60630.0,522.3942432445565,130.2736548054371,304.76848991843525
208944,11464,208944.0,42108.0,208944.0,60631.0,520.3467173243691,128.93743435571582,302.2214067911344
208944,11457,208944.0,42015.0,208944.0,60583.0,518.1848441143923,127.56492670244192,299.6162367492385
208944,11431,208944.0,41962.0,208944.0,60559.0,515.9101728398475,126.15677167418421,296.95147194693146
208944,11428,208944.0,41963.0,208944.0,60569.0,513.524187551998,124.71362939832954,294.22564213582683
208954,11446,208954.0,42059.0,208954.0,60605.0,511.0280081932766,123.23514923826123,291.4368752869813
208954,11469,208954.0,42074.0,208954.0,60644.0,508.42239080158515,121.72021886391789,288.5831847094816
208954,11460,208954.0,42046.0,208954.0,60599.0,505.708109789814,120.16814336275611,285.66325201957807
208954,11436,208954.0,41999.0,208954.0,60569.0,502.88633169572074,118.57933376796728,282.67687831729546
208954,11428,208954.0,41965.0,208954.0,60544.0,499.9585978915497,116.95488373853009,279.62462601199786
208954,11436,208954.0,41981.0,208954.0,60586.0,496.9265416859657,115.29561113985481,276.5071471163127
208964,11448,208964.0,42064.0,208964.0,60601.0,493.7917546325518,113.60155814356895,273.3250135537013
208964,11454,208964.0,42085.0,208964.0,60618.0,490.55596996194754,111.87258324700528,270.0792194520408
208964,11446,208964.0,42044.0,208964.0,60584.0,487.22138297386067,110.10957165471709,266.77182316290117
208964,11419,208964.0,41971.0,208964.0,60537.0,483.7908148910348,108.31497086074496,263.40609352067554
208964,11398,208964.0,41932.0,208964.0,60518.0,480.26752784992146,106.49201797480167,259.9859518312088
208964,11402,208964.0,41995.0,208964.0,60559.0,476.6547860540542,104.6434338040893,256.51519720553415
208975,11440,208975.0,42041.0,208975.0,60585.0,472.95558189844826,102.77093746444064,252.99732055796164
208975,11436,208975.0,42068.0,208975.0,60580.0,469.1728689698824,100.87603474994836,249.43606499732863
208975,11421,208975.0,42021.0,208975.0,60553.0,465.3100630256032,98.96119178679758,245.8360525248196
208975,11397,208975.0,41950.0,208975.0,60503.0,461.3712543285054,97.03019991846337,242.2028111085127
208975,11377,208975.0,41916.0,208975.0,60498.0,457.36095313901643,95.08733509062085,238.5421594865487
208975,11402,208975.0,41995.0,208975.0,60552.0,453.28367786212345,93.13611706027369,234.8595566406814
208985,11408,208985.0,42022.0,208985.0,60556.0,449.1438248539035,91.1789837178039,231.1601442954773
208985,11405,208985.0,42031.0,208985.0,60551.0,444.9459290234362,89.21813135239199,227.449401317156
208985,11387,208985.0,41973.0,208985.0,60512.0,440.69496498292443,87.25643201562613,223.73361856698907
208985,11363,208985.0,41904.0,208985.0,60472.0,436.3963445648307,85.29737557147602,220.01970226384822
208985,11370,208985.0,41938.0,208985.0,60486.0,432.05563685310375,83.34406669610439,216.31449183600145
208985,11372,208985.0,41996.0,208985.0,60517.0,427.6783181607523,81.39839179088847,212.62424368163192
208995,11379,208995.0,42051.0,208995.0,60541.0,423.2697905744496,79.46139995260924,208.9548169063388
208995,11380,208995.0,42005.0,208995.0,60511.0,418.83560817740164,77.5345579510435,205.31233417659323
208995,11350,208995.0,41953.0,208995.0,60474.0,414.38167602225235,75.62054149167263,201.7035525290306
208995,11335,208995.0,41897.0,208995.0,60453.0,409.914186921326,73.72276738769519,198.13553109518102
208995,11342,208995.0,41939.0,208995.0,60477.0,405.4393100297896,71.84419474855584,194.61498205551908
208995,11356,208995.0,42006.0,208995.0,60512.0,400.9629912453916,69.98666800300322,191.1480351611558
209005,11362,209005.0,42018.0,209005.0,60511.0,396.49112021466453,68.1514958016206,187.7406786908877
209005,11334,209005.0,41971.0,209005.0,60479.0,392.02985733246896,66.34055338588732,184.39937475906544
209005,11330,209005.0,41943.0,209005.0,60433.0,387.58573805880866,64.55667795171848,181.13113642667588
209005,11299,209005.0,41907.0,209005.0,60435.0,383.16545316632227,62.8030898114622,177.9429409350819
209005,11315,209005.0,41951.0,209005.0,60450.0,378.7755050568304,61.08255161510672,174.8410616709961
209005,11325,209005.0,42031.0,209005.0,60483.0,374.4220293251741,59.397184301135965,171.83094599531825
209015,11350,209015.0,42015.0,209015.0,60493.0,370.11099789867,57.74932419404399,168.9177075401364
209015,11308,209015.0,41969.0,209015.0,60441.0,365.848659867009,56.14260966074923,166.10672483965612
209015,11279,209015.0,41910.0,209015.0,60406.0,361.64169363892915,54.5820850339632,163.40366210763975
209015,11270,209015.0,41874.0,209015.0,60400.0,357.49679904426165,53.07317597647274,160.81378044566765
209015,11289,209015.0,41942.0,209015.0,60444.0,353.42015212540707,51.62046501889069,158.3412395111111
209015,11303,209015.0,41981.0,209015.0,60459.0,349.4172870229339,50.22736193850692,155.9891058760092
209026,11296,209026.0,41995.0,209026.0,60455.0,345.4934209465332,48.89690965647743,153.7599606855399
209026,11271,209026.0,41927.0,209026.0,60423.0,341.6537768317021,47.632756176018276,151.65640428138016
209026,11249,209026.0,41884.0,209026.0,60381.0,337.90352507509436,46.43918345736383,149.68094570079623
209026,11250,209026.0,41860.0,209026.0,60382.0,334.2473947725275,45.320118234009286,147.83534172716338
209026,11268,209026.0,41935.0,209026.0,60467.0,330.6893509438671,44.27808388244812,146.12006336139916
209026,11274,209026.0,41966.0,209026.0,60459.0,327.2326492468078,43.31412937121814,144.53463438860348
209036,11268,209036.0,41969.0,209036.0,60447.0,323.880164840856,42.428749374356926,143.07855262890774
209036,11243,209036.0,41897.0,209036.0,60385.0,320.6346209052086,41.622729008501516,141.75171119139273
209036,11221,209036.0,41885.0,209036.0,60366.0,317.498457679196,40.89700452095483,140.5538664304765
209036,11229,209036.0,41914.0,209036.0,60390.0,314.47343098158444,40.25186369777113,139.48370913474807
209036,11259,209036.0,41977.0,209036.0,60458.0,311.56035297124197,39.68660912964455,138.53847796894726
209036,11267,209036.0,41939.0,209036.0,60463.0,308.7593130543198,39.200121451356736,137.7145665031446
209046,11244,209046.0,41913.0,209046.0,60434.0,306.07017046612566,38.79149284964085,137.008516797144
209046,11228,209046.0,41875.0,209046.0,60389.0,303.492778187386,38.45986269650997,136.417379693792
209046,11208,209046.0,41857.0,209046.0,60363.0,301.02674189603346,38.203590927936276,135.9381464661389
209046,11227,209046.0,41905.0,209046.0,60400.0,298.67101144694107,38.01947143398196,135.56686105734656
209046,11237,209046.0,41982.0,209046.0,60451.0,296.4237116626888,37.90270596422461,135.29829940648446
209046,11259,209046.0,42018.0,209046.0,60467.0,294.2823763914635,37.84796649255547,135.1265741885764
209057,11231,209057.0,41947.0,209057.0,60428.0,292.24437339944643,37.850833835508,135.04606004040232
209057,11222,209057.0,41877.0,209057.0,60395.0,290.3071113819804,37.908240602456345,135.05169842501172
209057,11194,209057.0,41897.0,209057.0,60355.0,288.46783085170864,38.0175300621121,135.13841113540826
209057,11227,209057.0,41890.0,209057.0,60417.0,286.7232117161812,38.17525014763351,135.30021757890776
209057,11236,209057.0,42004.0,209057.0,60451.0,285.0692448783434,38.376856453595096,135.52997073412814
209057,11256,209057.0,41983.0,209057.0,60458.0,283.5015541494221,38.61752266390803,135.82000339130897
209067,11219,209067.0,41937.0,209067.0,60408.0,282.01585290037497,38.89323894473082,136.16290981781034
209067,11193,209067.0,41896.0,209067.0,60402.0,280.6080215647747,39.20100243200089,136.55160503379588
209067,11194,209067.0,41884.0,209067.0,60406.0,279.2736745891851,39.537954233179335,136.9787914531231
209067,11229,209067.0,41933.0,209067.0,60441.0,278.0077067068247,39.900458716440845,137.4365859446555
209067,11244,209067.0,42015.0,209067.0,60470.0,276.80437317779604,40.28408442969216,137.9167466992633
209067,11229,209067.0,41986.0,209067.0,60455.0,275.65779892644105,40.68461223681765,138.4113079015738
209077,11220,209077.0,41911.0,209077.0,60417.0,274.5623420210427,41.09900430647467,138.9130092804326
209077,11193,209077.0,41878.0,209077.0,60402.0,273.51251014757656,41.525127946771704,139.41506545520468
209077,11214,209077.0,41900.0,209077.0,60429.0,272.5026164413824,41.96053996768642,139.91055863426385
209077,11233,209077.0,41974.0,209077.0,60455.0,271.5265876947589,42.40173408605408,140.39217330960383
209077,11239,209077.0,41974.0,209077.0,60471.0,270.57817808975193,42.84457392608628,140.85255244597369
209077,11232,209077.0,41948.0,209077.0,60461.0,269.65137818326866,43.28523580500503,141.28489493887537
209088,11207,209088.0,41919.0,209088.0,60414.0,268.7406044800305,43.72056862204246,141.68322388491478
209088,11198,209088.0,41882.0,209088.0,60388.0,267.8405078876848,44.14760383995696,142.04200006346323
209088,11205,209088.0,41931.0,209088.0,60415.0,266.9455934888422,44.562778258065045,142.35533379161058
209088,11222,209088.0,41974.0,209088.0,60493.0,266.0500120275989,44.961667024399276,142.61663315707986
209088,11241,209088.0,42035.0,209088.0,60497.0,265.1477236375347,45.339678292149145,142.81925546162478
209088,11218,209088.0,41960.0,209088.0,60443.0,264.2328761480173,45.69322598703523,142.9575347290473
209098,11195,209098.0,41906.0,209098.0,60388.0,263.29998127446976,46.020188853866586,143.02696113520616
209098,11187,209098.0,41891.0,209098.0,60402.0,262.34364805743917,46.319101395726584,143.023293979699
209098,11202,209098.0,41933.0,209098.0,60432.0,261.3581489551564,46.58796721695221,142.9416364003156
209098,11243,209098.0,42021.0,209098.0,60474.0,260.33732267225554,46.823996077321176,142.7763786007471
209098,11222,209098.0,41996.0,209098.0,60494.0,259.2749636646369,47.02453590232099,142.52194701554257
209098,11216,209098.0,41932.0,209098.0,60449.0,258.1652735349341,47.18811107204594,142.17366140342662
209108,11186,209108.0,41894.0,209108.0,60397.0,257.0028908460325,47.31431438519368,141.72791686157527
209108,11195,209108.0,41885.0,209108.0,60424.0,255.78254001286152,47.40267416942064,141.1815290124751
209108,11209,209108.0,41967.0,209108.0,60457.0,254.49871228612622,47.45171281505569,140.53107827931964
209108,11235,209108.0,41990.0,209108.0,60455.0,253.14572303239672,47.45910742882355,139.77300618051126
209108,11227,209108.0,41991.0,209108.0,60475.0,251.71812727356274,47.42272195024417,138.90417436209015
209108,11216,209108.0,41960.0,209108.0,60420.0,250.21112130037213,47.341476676570885,137.9222368646073
209119,11173,209119.0,41874.0,209119.0,60412.0,248.62055209624958,47.21528826747393,136.82549990317096
209119,11197,209119.0,41895.0,209119.0,60437.0,246.94251853592948,47.04409645451493,135.61242911036135
209119,11206,209119.0,41986.0,209119.0,60452.0,245.17300566601,46.82692861433921,134.28141546270416
209119,11213,209119.0,42006.0,209119.0,60464.0,243.30794479686628,46.562177993752094,132.83108730897857
209119,11210,209119.0,41966.0,209119.0,60459.0,241.34353561380786,46.248792057919204,131.26080832746564
209119,11189,209119.0,41889.0,209119.0,60415.0,239.27644390542,45.88682286105384,129.57091218552205
209129,11174,209129.0,41874.0,209129.0,60376.0,237.10370098924813,45.47664331052673,127.76238452773363
209129,11182,209129.0,41917.0,209129.0,60438.0,234.82239803347363,45.0177055984972,125.83617644336583
209129,11211,209129.0,41970.0,209129.0,60453.0,232.4295194040129,44.50812281298629,123.79295482508212
209129,11212,209129.0,42048.0,209129.0,60451.0,229.92218428510998,43.94551491988212,121.63362957354393
209129,11196,209129.0,41959.0,209129.0,60436.0,227.29808417711538,43.32843717478263,119.35997765276778
209129,11170,209129.0,41884.0,209129.0,60389.0,224.55564280968304,42.656988592079294,116.9747183940585
209139,11158,209139.0,41866.0,209139.0,60373.0,221.6937366450245,41.931845666271236,114.48100558617358
209139,11173,209139.0,41962.0,209139.0,60415.0,218.7112714861419,41.15285867896081,111.88176327232082
209139,11188,209139.0,41989.0,209139.0,60430.0,215.607036162185,40.3189003842167,109.17953096001409
209139,11188,209139.0,42013.0,209139.0,60426.0,212.37995070221146,39.429025766693265,106.37694564416674
209139,11182,209139.0,41955.0,209139.0,60408.0,209.02943178383086,38.483643672202525,103.47724939381845
209139,11152,209139.0,41889.0,209139.0,60356.0,205.55553752596737,37.48464597262303,100.48428612686492
209150,11137,209150.0,41855.0,209150.0,60369.0,201.95875807644626,36.43437889840459,97.4019793719091
209150,11162,209150.0,41938.0,209150.0,60364.0,198.23964222268606,35.33434489938933,94.2337381387849
209150,11174,209150.0,41971.0,209150.0,60428.0,194.39870118155946,34.184909911611456,90.98234527412461
209150,11149,209150.0,41975.0,209150.0,60403.0,190.4366947833516,32.986212285173785,87.65046580414383
209150,11141,209150.0,41922.0,209150.0,60367.0,186.35485278882456,31.739127929977467,84.24123888417651
209150,11114,209150.0,41844.0,209150.0,60322.0,182.15472573050394,30.445204930322454,80.75820651134686
209160,11117,209160.0,41906.0,209160.0,60331.0,177.83782713564997,29.105652596083786,77.2045667569295
209160,11133,209160.0,41942.0,209160.0,60384.0,173.4053807590479,27.720589019803906,73.58257708560198
209160,11149,209160.0,41992.0,209160.0,60390.0,168.85842169471726,26.289490158142325,69.89378156004426
209160,11146,209160.0,41926.0,209160.0,60394.0,164.19822501571048,24.812285931421638,66.13980889017442
209160,11106,209160.0,41896.0,209160.0,60332.0,159.42667537267485,23.289834478102488,62.32291761586106
209160,11088,209160.0,41870.0,209160.0,60307.0,154.5461808566226,21.7233495807548,58.445768268793245
209170,11096,209170.0,41897.0,209170.0,60337.0,149.5592180839829,20.113495611822106,54.51069564311281
209170,11122,209170.0,41982.0,209170.0,60368.0,144.46805685542103,18.460135517643337,50.51934117325982
209170,11118,209170.0,41989.0,209170.0,60397.0,139.27499215112422,16.76314061097202,46.47312496607721
209170,11096,209170.0,41931.0,209170.0,60372.0,133.9827737571577,15.023580174923914,42.374126376698484
209170,11064,209170.0,41862.0,209170.0,60302.0,128.59470727723755,13.243993668970404,38.22553322991705
209170,11055,209170.0,41839.0,209170.0,60273.0,123.11429894440502,11.427365041458053,34.03114154351363
209181,11069,209181.0,41905.0,209181.0,60299.0,117.54480839633774,9.57583319475706,29.79431242174877
209181,11080,209181.0,41963.0,209181.0,60362.0,111.889146426416,7.690445839528053,25.517474764404454
209181,11074,209181.0,41965.0,209181.0,60339.0,106.15016212651858,5.772167137316728,21.20266342564493
209181,11061,209181.0,41909.0,209181.0,60287.0,100.33097731523998,3.8230321153390534,16.852281229494892
209181,11024,209181.0,41840.0,209181.0,60281.0,94.43503424126064,1.8462416757018758,12.469087076713166
209181,11018,209181.0,41819.0,209181.0,60263.0,88.4657856287917,-0.15492329068543143,8.05555981877447
209191,11043,209191.0,41901.0,209191.0,60316.0,82.42631837034901,-2.1783306124346566,3.6134594422174757
209191,11037,209191.0,41950.0,209191.0,60317.0,76.31933573728509,-4.223097569211866,-0.8559733434076406
209191,11038,209191.0,41932.0,209191.0,60318.0,70.1474838408675,-6.288480742434928,-5.351379521800453
209191,11008,209191.0,41875.0,209191.0,60256.0,63.91361143770777,-8.372856273368178,-9.870851803417935
209191,10994,209191.0,41833.0,209191.0,60244.0,57.62071002519684,-10.473857061302922,-14.41218992200055
209191,10993,209191.0,41834.0,209191.0,60249.0,51.27162924804733,-12.589383634037937,-18.973586266230882
209201,10990,209201.0,41880.0,209201.0,60281.0,44.86885286429194,-14.71844452045589,-23.55402146937047
209201,11011,209201.0,41946.0,209201.0,60303.0,38.414533503415186,-16.861026817312364,-28.15297741147488
209201,10990,209201.0,41935.0,209201.0,60266.0,31.910751731006826,-19.01703543491155,-32.76978337060814
209201,10964,209201.0,41833.0,209201.0,60235.0,25.359728168234938,-21.18534527104245,-37.403295552776115
209201,10960,209201.0,41809.0,209201.0,60188.0,18.76372146485417,-23.364113771203698,-42.0523026269658
209201,10952,209201.0,41823.0,209201.0,60212.0,12.12474561829643,-25.552072612697366,-46.716341599021916
209212,10965,209212.0,41938.0,209212.0,60277.0,5.44444047971254,-27.74925244195135,-51.396120641194216
209212,10982,209212.0,41955.0,209212.0,60285.0,-1.2757589111412813,-29.956179436125538,-56.092980225892404
209212,10943,209212.0,41872.0,209212.0,60237.0,-8.034265523309159,-32.17237544319268,-60.807888357691525
209212,10924,209212.0,41835.0,209212.0,60200.0,-14.829184669253522,-34.39586971388378,-65.54108291434824
209212,10913,209212.0,41785.0,209212.0,60205.0,-21.658584163275492,-36.6241674639878,-70.2925978455778
209212,10918,209212.0,41840.0,209212.0,60233.0,-28.52086859350976,-38.855560254964004,-75.06283742476765
209222,10927,209222.0,41931.0,209222.0,60251.0,-35.414869214603925,-41.0895012961125,-79.8524983430585
209222,10925,209222.0,41894.0,209222.0,60268.0,-42.33962320473728,-43.32568549872549,-84.66193272510276
209222,10899,209222.0,41852.0,209222.0,60187.0,-49.2940952929784,-45.56291497279901,-89.49056726133654
209222,10877,209222.0,41787.0,209222.0,60170.0,-56.27715344455177,-47.799101828706966,-94.33703211159758
209222,10873,209222.0,41796.0,209222.0,60174.0,-63.28784720845434,-50.03233142224276,-99.19994698148645
209222,10893,209222.0,41850.0,209222.0,60192.0,-70.32565889754,-52.26181436973623,-104.07852659082499
209232,10896,209232.0,41900.0,209232.0,60227.0,-77.39039169464164,-54.48778028682254,-108.97246321757441
209232,10888,209232.0,41876.0,209232.0,60229.0,-84.4817716056535,-56.71045493795636,-113.88126847883956
209232,10872,209232.0,41814.0,209232.0,60157.0,-91.59912956429355,-58.9292480089037,-118.80366933932069
209232,10846,209232.0,41793.0,209232.0,60147.0,-98.74139035893901,-61.14300551109339,-123.73771202989985
209232,10839,209232.0,41796.0,209232.0,60122.0,-105.90732388350102,-63.350950424539505,-128.68152534800575
209232,10849,209232.0,41856.0,209232.0,60160.0,-113.09581590029674,-65.55327344203481,-133.6339905739133
209243,10841,209243.0,41854.0,209243.0,60219.0,-120.30590336532728,-67.75084159648658,-138.59468868205934
209243,10836,209243.0,41872.0,209243.0,60180.0,-127.53660875603663,-69.94439915565728,-143.56310667192275
209243,10798,209243.0,41813.0,209243.0,60121.0,-134.78685877914376,-72.1340054921264,-148.5379428827202
209243,10788,209243.0,41786.0,209243.0,60067.0,-142.05568783972257,-74.31917536563428,-153.51745639024668
209243,10806,209243.0,41786.0,209243.0,60112.0,-149.3425704794157,-76.49960423935885,-158.50056910983082
209243,10810,209243.0,41874.0,209243.0,60165.0,-156.64747604684612,-78.6756914135649,-163.48744975927104
209253,10823,209253.0,41873.0,209253.0,60170.0,-163.97051812463218,-80.8481000662091,-168.47892807558367
209253,10800,209253.0,41827.0,209253.0,60131.0,-171.31149013447134,-83.01677714885827,-173.4754779422483
209253,10769,209253.0,41780.0,209253.0,60093.0,-178.66965543969485,-85.1806534257822,-178.47687233563454
209253,10749,209253.0,41762.0,209253.0,60083.0,-186.04397206649588,-87.33838185866927,-183.48268007289764
209253,10754,209253.0,41782.0,209253.0,60122.0,-193.4335476715454,-89.48932106818661,-188.4928778519502
209253,10772,209253.0,41876.0,209253.0,60139.0,-200.83786945065555,-91.6338087125222,-193.50785107900668
209264,10760,209264.0,41876.0,209264.0,60137.0,-208.25661271590798,-93.77233220115127,-198.52778753265
209264,10760,209264.0,41797.0,209264.0,60085.0,-215.689285172817,-95.90435563524895,-203.55213977947858
209264,10706,209264.0,41766.0,209264.0,60043.0,-223.13509141889443,-98.02815481226985,-208.57978166921083
