c_ts,c_val,d_ts,d_val,e_ts,e_val,c_val_filtered,d_val_filtered,e_val_filtered
414512.0,13145.0,414512.0,42982.0,414512.0,64179.0,-40.31848092019407,-51.31565848950477,-118.94167231422814
414512.0,13133.0,414512.0,42980.0,414512.0,64154.0,-44.47801664557885,-55.0114030009448,-124.51963753957197
414512.0,13135.0,414512.0,42936.0,414512.0,64135.0,-48.75369929994792,-58.754950867147606,-130.22673521107797
414512.0,13116.0,414512.0,42954.0,414512.0,64151.0,-53.140492531150244,-62.53834199080591,-136.05546373861426
414512.0,13137.0,414512.0,42962.0,414512.0,64154.0,-57.63337177826176,-66.35424322681834,-141.99885610605264
414512.0,13117.0,414512.0,42973.0,414512.0,64166.0,-62.22729716714586,-70.1958853771525,-148.05027091731813
414522.0,13109.0,414522.0,42970.0,414522.0,64103.0,-66.91714659266009,-74.05670772897338,-154.2031211068212
414522.0,13093.0,414522.0,42902.0,414522.0,64126.0,-71.69778116671286,-77.93016569397864,-160.45095741652892
414522.0,13094.0,414522.0,42912.0,414522.0,64112.0,-76.56424319723519,-81.81007210243341,-166.78779150031846
414522.0,13096.0,414522.0,42922.0,414522.0,64111.0,-81.51189460953432,-85.6912032053865,-173.2082338814325
414522.0,13078.0,414522.0,42921.0,414522.0,64105.0,-86.5364190678594,-89.56953413299922,-179.7074388597745
414522.0,13085.0,414522.0,42925.0,414522.0,64107.0,-91.63379925112241,-93.4420533814934,-186.2810386775596
414532.0,13078.0,414532.0,42932.0,414532.0,64103.0,-96.80031799203232,-97.30650656277184,-192.92505293519207
414532.0,13094.0,414532.0,42870.0,414532.0,64065.0,-102.0324802009302,-101.16128403080384,-199.63583006393634
414532.0,13055.0,414532.0,42919.0,414532.0,64070.0,-107.32686581470332,-105.00558804768426,-206.41019299960269
414532.0,13062.0,414532.0,42949.0,414532.0,64109.0,-112.68011625676765,-108.83954360392866,-213.24561108725203
414532.0,13072.0,414532.0,42970.0,414532.0,64098.0,-118.08905047188175,-112.66368628013713,-220.1399611967879
414532.0,13063.0,414532.0,42923.0,414532.0,64068.0,-123.55063339542485,-116.47813273312873,-227.09103800763847
414543.0,13040.0,414543.0,42905.0,414543.0,64050.0,-129.0618273163528,-120.2822817346368,-234.09643683965777
414543.0,13028.0,414543.0,42885.0,414543.0,64043.0,-134.61964597980034,-124.07522182529738,-241.15388195653858
414543.0,13023.0,414543.0,42871.0,414543.0,64051.0,-140.22142164545585,-127.85635990823849,-248.26154305721462
414543.0,13020.0,414543.0,42874.0,414543.0,64042.0,-145.86502818386515,-131.62589439250462,-255.41807087097183
414543.0,13039.0,414543.0,42828.0,414543.0,64008.0,-151.54889637362828,-135.38513492149315,-262.6225239294663
414543.0,13030.0,414543.0,42880.0,414543.0,64023.0,-157.27180325484173,-139.13676985992117,-269.8744597602686
414553.0,13009.0,414553.0,42917.0,414553.0,64018.0,-163.0326136790094,-142.8848163871589,-277.1740792268374
414553.0,13010.0,414553.0,42886.0,414553.0,64020.0,-168.83023110964112,-146.63400217158977,-284.52215892171836
414553.0,13003.0,414553.0,42908.0,414553.0,64006.0,-174.6637131896902,-150.38907836025453,-291.9198545788339
414553.0,13022.0,414553.0,42918.0,414553.0,64043.0,-180.53228498073813,-154.15447657734776,-299.36850702345487
414553.0,13000.0,414553.0,42903.0,414553.0,64010.0,-186.4351669324284,-157.93405074897763,-306.8693534873638
414553.0,12988.0,414553.0,42873.0,414553.0,63988.0,-192.37141795675356,-161.73090563845926,-314.42327781468475
414563.0,12973.0,414563.0,42859.0,414563.0,63981.0,-198.34000612388087,-165.5476074306555,-322.03090914838776
414563.0,12969.0,414563.0,42868.0,414563.0,63965.0,-204.34003820295675,-169.38662650718882,-329.69294562114703
414563.0,12956.0,414563.0,42837.0,414563.0,63959.0,-210.37095582583933,-173.25065210285203,-337.4103994689616
414563.0,12962.0,414563.0,42860.0,414563.0,63937.0,-216.4326355647184,-177.14274233132932,-345.1847574695145
414563.0,12969.0,414563.0,42872.0,414563.0,63962.0,-222.52535853715514,-181.06632568016374,-353.01809511966457
414563.0,12947.0,414563.0,42894.0,414563.0,63947.0,-228.64964954303096,-185.024891979368,-360.9130210559665
414574.0,12943.0,414574.0,42839.0,414574.0,63940.0,-234.80616583650212,-189.02153463383712,-368.87246581714237
414574.0,12937.0,414574.0,42839.0,414574.0,63928.0,-240.99574884514442,-193.05886208161402,-376.8995516403785
414574.0,12952.0,414574.0,42870.0,414574.0,63955.0,-247.21946275195694,-197.1392763555377,-384.99755331676795
414574.0,12946.0,414574.0,42882.0,414574.0,63932.0,-253.47844182641848,-201.2649730976009,-393.1697193024749
414574.0,12931.0,414574.0,42869.0,414574.0,63960.0,-259.77364968143297,-205.4374787909613,-401.4189428637192
414574.0,12922.0,414574.0,42859.0,414574.0,63909.0,-266.10578719657383,-209.6572513085973,-409.7474794541754
414584.0,12899.0,414584.0,42773.0,414584.0,63873.0,-272.4754158600367,-213.92380311618643,-418.15697736402177
414584.0,12896.0,414584.0,42800.0,414584.0,63872.0,-278.8831953193616,-218.2364138940418,-426.64896120208533
414584.0,12903.0,414584.0,42798.0,414584.0,63874.0,-285.33007726995527,-222.59493475123455,-435.2253775743648
414584.0,12896.0,414584.0,42804.0,414584.0,63871.0,-291.81730387902917,-227.00004657543468,-443.8887374485851
414584.0,12877.0,414584.0,42826.0,414584.0,63877.0,-298.34628761479274,-231.45301096887016,-452.6419279918588
414584.0,12887.0,414584.0,42802.0,414584.0,63866.0,-304.9185768365008,-235.95529218482423,-461.4879487893221
414594.0,12878.0,414594.0,42802.0,414594.0,63869.0,-311.53586257853954,-240.50830096879832,-470.42967960994577
414594.0,12885.0,414594.0,42814.0,414594.0,63837.0,-318.19987874782305,-245.11333109019864,-479.4697464077561
414594.0,12878.0,414594.0,42831.0,414594.0,63834.0,-324.9122199656007,-249.77143555679422,-488.6105583199781
414594.0,12862.0,414594.0,42795.0,414594.0,63851.0,-331.6741903276594,-254.48312104929502,-497.8544123666338
414594.0,12861.0,414594.0,42812.0,414594.0,63855.0,-338.48677207647495,-259.24815600740476,-507.20336221591754
414594.0,12840.0,414594.0,42770.0,414594.0,63796.0,-345.35070200114524,-264.0656461549858,-516.6589096293656
414605.0,12824.0,414605.0,42750.0,414605.0,63793.0,-352.266617081421,-268.9343167590537,-526.222026474238
414605.0,12824.0,414605.0,42741.0,414605.0,63795.0,-359.23526530201406,-273.8529874808153,-535.8935396323261
414605.0,12822.0,414605.0,42720.0,414605.0,63801.0,-366.2576601905871,-278.8210840265723,-545.6743202246498
414605.0,12825.0,414605.0,42776.0,414605.0,63790.0,-373.335045488041,-283.8388972385452,-555.5650848693805
414605.0,12811.0,414605.0,42771.0,414605.0,63770.0,-380.4687367007256,-288.90735286612926,-565.5661469054947
414605.0,12822.0,414605.0,42759.0,414605.0,63752.0,-387.6599710372533,-294.02742759969425,-575.6773968331327
414615.0,12789.0,414615.0,42736.0,414615.0,63749.0,-394.9098122345541,-299.1997840538389,-585.8984714856867
414615.0,12796.0,414615.0,42757.0,414615.0,63775.0,-402.21915273208015,-304.4248270442317,-596.228822543919
414615.0,12784.0,414615.0,42828.0,414615.0,63768.0,-409.58879494593003,-309.7026144982896,-606.6674334624238
414615.0,12790.0,414615.0,42766.0,414615.0,63732.0,-417.0194679293587,-315.03220003340925,-617.2123811289011
414615.0,12775.0,414615.0,42749.0,414615.0,63717.0,-424.51173487147764,-320.4110183694785,-627.8607219129444
414615.0,12761.0,414615.0,42713.0,414615.0,63700.0,-432.0659209286771,-325.83506440949566,-638.6087689492874
414625.0,12757.0,414625.0,42692.0,414625.0,63693.0,-439.68215850886236,-331.29962322358756,-649.4524086210835
414625.0,12747.0,414625.0,42674.0,414625.0,63709.0,-447.36048321470037,-336.80000667749704,-660.3871993456709
414625.0,12770.0,414625.0,42697.0,414625.0,63671.0,-455.10082259050677,-342.33206209606345,-671.4082426749457
414625.0,12764.0,414625.0,42701.0,414625.0,63666.0,-462.90276434399857,-347.8922669239536,-682.5100656516966
414625.0,12747.0,414625.0,42717.0,414625.0,63674.0,-470.7652072572745,-353.47739939738744,-693.6866562405504
414625.0,12729.0,414625.0,42660.0,414625.0,63679.0,-478.68619836092284,-359.08415163593946,-704.9313869036419
414636.0,12728.0,414636.0,42717.0,414636.0,63651.0,-486.66304342824225,-364.7090272701459,-716.2367111644298
414636.0,12726.0,414636.0,42715.0,414636.0,63657.0,-494.6924399111407,-370.34826265525106,-727.5939207436513
414636.0,12723.0,414636.0,42724.0,414636.0,63647.0,-502.77044217406916,-375.9973852576501,-738.9930566047253
414636.0,12710.0,414636.0,42683.0,414636.0,63629.0,-510.89232996241725,-381.65072503982617,-750.4228244363071
414636.0,12699.0,414636.0,42641.0,414636.0,63603.0,-519.0525380834415,-387.3014456329083,-761.8705756056523
414636.0,12684.0,414636.0,42645.0,414636.0,63596.0,-527.2447081640651,-392.94212785823345,-773.3224713218817
414646.0,12687.0,414646.0,42667.0,414646.0,63566.0,-535.4617938582531,-398.5653391723323,-784.76373327681
414646.0,12668.0,414646.0,42669.0,414646.0,63587.0,-543.6961164985378,-404.1636489365584,-796.1788274042926
414646.0,12666.0,414646.0,42616.0,414646.0,63570.0,-551.9393734418351,-409.72932854809807,-807.5514537387621
414646.0,12677.0,414646.0,42653.0,414646.0,63574.0,-560.1826114994308,-415.2543195034398,-818.8643307319614
414646.0,12663.0,414646.0,42650.0,414646.0,63559.0,-568.4160807240746,-420.7303482220637,-830.098944548854
414646.0,12638.0,414646.0,42625.0,414646.0,63542.0,-576.6290619358757,-426.1488033849203,-841.2354075872529
414656.0,12635.0,414656.0,42658.0,414656.0,63543.0,-584.809903054227,-431.50054402402145,-852.2524369396964
414656.0,12628.0,414656.0,42677.0,414656.0,63547.0,-592.9461957753557,-436.77567709447356,-863.1273198757422
414656.0,12629.0,414656.0,42659.0,414656.0,63531.0,-601.0248420298285,-441.96308019674785,-873.8357354916136
414656.0,12618.0,414656.0,42679.0,414656.0,63532.0,-609.0319741930164,-447.0498944070859,-884.3515304014528
414656.0,12613.0,414656.0,42593.0,414656.0,63480.0,-616.9528529188644,-452.02137208717807,-894.6466516296448
414656.0,12587.0,414656.0,42581.0,414656.0,63459.0,-624.7718503028318,-456.8613026983818,-904.6914014701719
414667.0,12590.0,414667.0,42588.0,414667.0,63489.0,-632.4725552771715,-461.5528592409376,-914.4548917691388
414667.0,12594.0,414667.0,42611.0,414667.0,63460.0,-640.0378762721191,-466.07914539040536,-923.9052311072837
414667.0,12589.0,414667.0,42615.0,414667.0,63438.0,-647.4499635857301,-470.42304114882097,-933.0094215929472
414667.0,12578.0,414667.0,42603.0,414667.0,63455.0,-654.690016774374,-474.5667421815977,-941.7333710383792
414667.0,12563.0,414667.0,42587.0,414667.0,63427.0,-661.7381962037298,-478.49150539750013,-950.0419811112064
414667.0,12567.0,414667.0,42595.0,414667.0,63446.0,-668.5736778196102,-482.17770051297924,-957.899106143696
414677.0,12557.0,414677.0,42595.0,414677.0,63454.0,-675.1747040485579,-485.60490714762983,-965.2673837345508
414677.0,12558.0,414677.0,42624.0,414677.0,63450.0,-681.5185465048066,-488.75179905003375,-972.1079079584312
414677.0,12552.0,414677.0,42598.0,414677.0,63421.0,-687.58142572889,-491.59582421035117,-978.3799103159031
414677.0,12520.0,414677.0,42534.0,414677.0,63393.0,-693.3384898789267,-494.113080223879,-984.0407977632517
414677.0,12510.0,414677.0,42534.0,414677.0,63365.0,-698.7639927791009,-496.27882680389365,-989.0466240160464
414677.0,12511.0,414677.0,42537.0,414677.0,63386.0,-703.8316316515895,-498.06833265258615,-993.3526959874849
414688.0,12514.0,414688.0,42515.0,414688.0,63355.0,-708.5147600165499,-499.45740179628456,-996.9139525053793
414688.0,12517.0,414688.0,42550.0,414688.0,63398.0,-712.7863369713905,-500.42252148869153,-999.6850398453995
414688.0,12508.0,414688.0,42586.0,414688.0,63356.0,-716.6187553706252,-500.9407093623053,-1001.620219100322
414688.0,12500.0,414688.0,42515.0,414688.0,63374.0,-719.9837400112784,-500.9890868988965,-1002.673288985615
414688.0,12489.0,414688.0,42535.0,414688.0,63364.0,-722.8523996895722,-500.54472636835607,-1002.7976449595764
414688.0,12485.0,414688.0,42518.0,414688.0,63366.0,-725.195389520582,-499.5850269645268,-1001.9463790122752
414698.0,12490.0,414698.0,42601.0,414698.0,63373.0,-726.9830670772029,-498.08796316928306,-1000.0723285375927
414698.0,12475.0,414698.0,42563.0,414698.0,63355.0,-728.185570441078,-496.03171431118693,-997.1281263959495
414698.0,12466.0,414698.0,42552.0,414698.0,63345.0,-728.7729041178796,-493.39413744089336,-993.0663690423169
414698.0,12458.0,414698.0,42524.0,414698.0,63316.0,-728.7151491317327,-490.15280872248525,-987.840031740531
414698.0,12450.0,414698.0,42510.0,414698.0,63312.0,-727.9827557670965,-486.28564215045105,-981.4031182233314
414698.0,12443.0,414698.0,42499.0,414698.0,63298.0,-726.5468349247275,-481.77164109198475,-973.7113823869715
414708.0,12442.0,414708.0,42490.0,414708.0,63321.0,-724.3794308286224,-476.5915546774719,-964.7229292194133
414708.0,12458.0,414708.0,42555.0,414708.0,63336.0,-721.4537193493122,-470.7282737632538,-954.3985304381519
414708.0,12438.0,414708.0,42580.0,414708.0,63317.0,-717.7440842746872,-464.16665340774034,-942.7016966598144
414708.0,12436.0,414708.0,42553.0,414708.0,63311.0,-713.2262160766172,-456.89286562505436,-929.5988594916694
414708.0,12431.0,414708.0,42548.0,414708.0,63345.0,-707.8773837532028,-448.894033709224,-915.059814474156
414708.0,12448.0,414708.0,42579.0,414708.0,63351.0,-701.6767510103366,-440.1584440416723,-899.0580758501765
414719.0,12445.0,414719.0,42566.0,414719.0,63364.0,-694.6055452595501,-430.6758136780364,-881.570968067675
414719.0,12460.0,414719.0,42565.0,414719.0,63382.0,-686.6471003389549,-420.4374036227156,-862.5796875938729
414719.0,12457.0,414719.0,42543.0,414719.0,63369.0,-677.7868889133767,-409.43629988897754,-842.0694956435505
414719.0,12465.0,414719.0,42561.0,414719.0,63398.0,-668.0126058016543,-397.6679455932252,-820.0300646838923
414719.0,12449.0,414719.0,42556.0,414719.0,63398.0,-657.3143532904834,-385.13066728641354,-796.4559144256436
414719.0,12463.0,414719.0,42595.0,414719.0,63409.0,-645.6849652546023,-371.8259831709739,-771.3468404860714
414729.0,12487.0,414729.0,42627.0,414729.0,63459.0,-633.1203368318138,-357.75859206545135,-744.708299464087
414729.0,12486.0,414729.0,42626.0,414729.0,63493.0,-619.6195615542318,-342.9360815160906,-716.5515763853296
414729.0,12511.0,414729.0,42644.0,414729.0,63531.0,-605.1849327277755,-327.36866453287774,-686.8936189830375
414729.0,12530.0,414729.0,42637.0,414729.0,63509.0,-589.8219386037597,-311.06920576422056,-655.7568662878547
414729.0,12531.0,414729.0,42681.0,414729.0,63586.0,-573.5392391237405,-294.0534214260509,-623.1694129824019
414729.0,12580.0,414729.0,42716.0,414729.0,63638.0,-556.3486341762881,-276.3399247237275,-589.1651991610289
414739.0,12581.0,414739.0,42758.0,414739.0,63676.0,-538.2649846328698,-257.94989769508544,-553.7837530546637
414739.0,12610.0,414739.0,42747.0,414739.0,63715.0,-519.3060695898653,-238.90658315062382,-517.069714300626
414739.0,12620.0,414739.0,42751.0,414739.0,63748.0,-499.49251492330734,-219.2350817201688,-479.0725776482508
414739.0,12637.0,414739.0,42755.0,414739.0,63785.0,-478.8478411481075,-198.96265360094094,-439.8466718444564
414739.0,12673.0,414739.0,42802.0,414739.0,63826.0,-457.3985449148927,-178.11918622902436,-399.4512324573868
414739.0,12698.0,414739.0,42849.0,414739.0,63879.0,-435.1740879092295,-156.7373190324189,-357.9504555697259
414750.0,12741.0,414750.0,42832.0,414750.0,63973.0,-412.20671539204807,-134.85216358245287,-315.41334019048617
414750.0,12767.0,414750.0,42900.0,414750.0,64015.0,-388.5311540200262,-112.5010390195801,-271.91315338486277
414750.0,12784.0,414750.0,42917.0,414750.0,64071.0,-364.18432146839075,-89.72332887500406,-227.52671826267925
414750.0,12818.0,414750.0,42927.0,414750.0,64130.0,-339.2051802980026,-66.56026582805927,-182.33388875052327
414750.0,12856.0,414750.0,43033.0,414750.0,64200.0,-313.6346782071821,-43.05465324406276,-136.4171742611765
414750.0,12895.0,414750.0,43046.0,414750.0,64252.0,-287.51557508188495,-19.250335978948556,-89.86129311660636
414760.0,12932.0,414760.0,43060.0,414760.0,64319.0,-260.89211706788603,4.808572833774065,-42.75267836360217
414760.0,12939.0,414760.0,43082.0,414760.0,64354.0,-233.80972627392129,29.07811343089304,4.820929145429091
414760.0,12971.0,414760.0,43043.0,414760.0,64395.0,-206.31490704551447,53.51428784436399,52.77068178099648
414760.0,13011.0,414760.0,43116.0,414760.0,64477.0,-178.45532686329304,78.07251151841979,101.00663930609403
414760.0,13038.0,414760.0,43134.0,414760.0,64539.0,-150.27981536910715,102.70718107775593,149.43790667090605
414760.0,13086.0,414760.0,43208.0,414760.0,64615.0,-121.83819902544957,127.37178872438926,197.97311083575607
414770.0,13125.0,414770.0,43219.0,414770.0,64657.0,-93.18103660895355,152.01947546043328,246.52101719195093
414770.0,13164.0,414770.0,43274.0,414770.0,64690.0,-64.35927011561557,176.60362394253303,294.99094045669665
414770.0,13181.0,414770.0,43263.0,414770.0,64791.0,-35.42389265212472,201.07825165710278,343.292880140428
414770.0,13223.0,414770.0,43316.0,414770.0,64863.0,-6.425779396605151,225.3981391396144,391.3377943371753
414770.0,13271.0,414770.0,43369.0,414770.0,64950.0,22.584407041929694,249.51890721547403,439.03835878152245
414770.0,13302.0,414770.0,43383.0,414770.0,64966.0,51.556448979290735,273.3973523308009,486.309892278651
414781.0,13341.0,414781.0,43398.0,414781.0,65007.0,80.44091501115582,296.99185927325175,533.070854331796
414781.0,13375.0,414781.0,43418.0,414781.0,65058.0,109.18945009467672,320.26249603159454,579.2427800936168
414781.0,13397.0,414781.0,43399.0,414781.0,65104.0,137.75497548144767,343.17077595228716,624.7500620514772
414781.0,13425.0,414781.0,43449.0,414781.0,65142.0,166.09177780659337,365.67924431738675,669.5198744319921
414781.0,13460.0,414781.0,43497.0,414781.0,65189.0,194.1554969547234,387.75120022516444,713.4821436171544
414781.0,13503.0,414781.0,43515.0,414781.0,65255.0,221.90315989274683,409.3508868801907,756.5695365790968
414791.0,13523.0,414791.0,43574.0,414791.0,65318.0,249.2933509512983,430.4439916076435,798.7176578113692
414791.0,13557.0,414791.0,43567.0,414791.0,65375.0,276.28640054794425,450.9981187851499,839.8655257438202
414791.0,13583.0,414791.0,43582.0,414791.0,65381.0,302.844482389371,470.98304049830085,879.9560635935864
414791.0,13623.0,414791.0,43648.0,414791.0,65482.0,328.93168722067435,490.3707158481619,918.9363435417085
414791.0,13650.0,414791.0,43675.0,414791.0,65475.0,354.5141674385983,509.13547856089997,956.7577419085103
414791.0,13667.0,414791.0,43672.0,414791.0,65529.0,379.56030516314433,527.2545314179732,993.3761082282456
414801.0,13686.0,414801.0,43674.0,414801.0,65540.0,404.0407591570753,544.7082120507474,1028.7517332623677
414801.0,13707.0,414801.0,43686.0,414801.0,65556.0,427.9283511451148,561.4797637061732,1062.8490769112693
414801.0,13727.0,414801.0,43677.0,414801.0,65627.0,451.19790176759534,577.5549050630027,1095.6364414755913
414801.0,13766.0,414801.0,43672.0,414801.0,65622.0,473.82613645252434,592.921361545934,1127.0858140342384
414801.0,13789.0,414801.0,43729.0,414801.0,65677.0,495.79174095016515,607.5684132496524,1157.1728789717579
414801.0,13803.0,414801.0,43736.0,414801.0,65689.0,517.0755166930475,621.4867654583993,1185.8770052662876
414812.0,13831.0,414812.0,43737.0,414812.0,65734.0,537.6604707281008,634.6687684202182,1213.1812214715562
414812.0,13839.0,414812.0,43757.0,414812.0,65746.0,557.5318003698078,647.1085536023688,1239.0722458469484
414812.0,13854.0,414812.0,43772.0,414812.0,65766.0,576.6768176489834,658.8019854900227,1263.5404851690982
414812.0,13882.0,414812.0,43801.0,414812.0,65783.0,595.0848322537663,669.7467063679268,1286.5799176627359
414812.0,13896.0,414812.0,43806.0,414812.0,65798.0,612.7470864684967,679.9423511206454,1308.187890722421
414812.0,13918.0,414812.0,43819.0,414812.0,65828.0,629.6567910292224,689.390776300545,1328.3649408828226
414822.0,13925.0,414822.0,43787.0,414822.0,65812.0,645.8091690910122,698.0960990792164,1347.114656366563
414822.0,13935.0,414822.0,43772.0,414822.0,65839.0,661.2014194858621,706.0643618660565,1364.4434607756534
414822.0,13942.0,414822.0,43795.0,414822.0,65868.0,675.8325771681857,713.3029054393625,1380.360354243301
414822.0,13965.0,414822.0,43776.0,414822.0,65873.0,689.7033377256006,719.8198470518402,1394.8768486186575
414822.0,13962.0,414822.0,43809.0,414822.0,65881.0,702.8159411055394,725.6238555343169,1408.0070397335458
414822.0,13977.0,414822.0,43829.0,414822.0,65894.0,715.1740821602903,730.7241765947767,1419.7675715116309
414832.0,13982.0,414832.0,43833.0,414832.0,65895.0,726.7827791357726,735.1309120802971,1430.1775076570723
414832.0,13995.0,414832.0,43813.0,414832.0,65910.0,737.648242486709,738.8553221969637,1439.258215620605
414832.0,14014.0,414832.0,43860.0,414832.0,65900.0,747.7778167134381,741.9098973943107,1447.0332581833447
414832.0,14019.0,414832.0,43843.0,414832.0,65918.0,757.1800193068989,744.3084181094857,1453.5282656623078
414832.0,14011.0,414832.0,43815.0,414832.0,65894.0,765.864581451566,746.0660829151799,1458.770777860846
414832.0,14020.0,414832.0,43812.0,414832.0,65889.0,773.8423364105772,747.1993363100297,1462.7899922042193
414843.0,14029.0,414843.0,43769.0,414843.0,65877.0,781.1250099219607,747.725322810021,1465.6163584877715
414843.0,14023.0,414843.0,43782.0,414843.0,65886.0,787.7250761806118,747.6612359707598,1467.2811467941085
414843.0,14024.0,414843.0,43817.0,414843.0,65855.0,793.6556405804137,747.0238795185392,1467.816127238412
414843.0,14040.0,414843.0,43827.0,414843.0,65921.0,798.9302840580178,745.8297820472641,1467.253396962969
414843.0,14032.0,414843.0,43822.0,414843.0,65891.0,803.5629657562022,744.0957372431172,1465.6255051351438
414843.0,14040.0,414843.0,43811.0,414843.0,65858.0,807.5679936891077,741.8392166226802,1462.9657271789074
414853.0,14041.0,414853.0,43789.0,414853.0,65856.0,810.959975940511,739.0783891299644,1459.307950901961
414853.0,14046.0,414853.0,43784.0,414853.0,65845.0,813.7537741952508,735.8318583306801,1454.686211895377
414853.0,14059.0,414853.0,43781.0,414853.0,65840.0,815.9645218681617,732.1183452989779,1449.1343587587307
414853.0,14052.0,414853.0,43795.0,414853.0,65849.0,817.6077103982492,727.9565432550488,1442.685962407182
414853.0,14053.0,414853.0,43754.0,414853.0,65824.0,818.6992642939672,723.3651534687624,1435.3743631347108
414853.0,14037.0,414853.0,43745.0,414853.0,65798.0,819.2554951485345,718.3628124347478,1427.2326701904497
414863.0,14033.0,414863.0,43725.0,414863.0,65787.0,819.2929118513358,712.9677437713963,1418.2935245855865
414863.0,14038.0,414863.0,43707.0,414863.0,65782.0,818.8279815859688,707.1973163799593,1408.58876369934
414863.0,14027.0,414863.0,43716.0,414863.0,65767.0,817.8769726265884,701.06770053313,1398.1492456680767
414863.0,14036.0,414863.0,43778.0,414863.0,65765.0,816.4558966167482,694.5938621575217,1387.0048365780724
414863.0,14033.0,414863.0,43739.0,414863.0,65756.0,814.580507308628,687.7901153706447,1375.1844704211876
414863.0,14027.0,414863.0,43703.0,414863.0,65752.0,812.2663431034961,680.6707410194538,1362.716274775327
414874.0,14017.0,414874.0,43721.0,414874.0,65729.0,809.5287359832636,673.2500069727114,1349.6277207979238
414874.0,14027.0,414874.0,43722.0,414874.0,65733.0,806.3827499045997,665.5419276631415,1335.945725790419
414874.0,14026.0,414874.0,43762.0,414874.0,65746.0,802.8431756548202,657.560450480868,1321.696808628687
414874.0,14014.0,414874.0,43688.0,414874.0,65708.0,798.924632275729,649.3199734475722,1306.9074186082887
414874.0,14002.0,414874.0,43671.0,414874.0,65668.0,794.6416126798393,640.8355096998855,1291.6041555466502
414874.0,13985.0,414874.0,43633.0,414874.0,65661.0,790.0083495401889,632.1221765446387,1275.8135666088097
414884.0,13990.0,414884.0,43640.0,414884.0,65627.0,785.0385859833842,623.1944619178369,1259.561753748827
414884.0,13985.0,414884.0,43621.0,414884.0,65628.0,779.7454327631368,614.0657858379133,1242.8741308964618
414884.0,13990.0,414884.0,43656.0,414884.0,65611.0,774.141402539363,604.7484596004185,1225.7753786171559
414884.0,13990.0,414884.0,43661.0,414884.0,65603.0,768.2385722699753,595.2540341853792,1208.2895589969817
414884.0,13972.0,414884.0,43633.0,414884.0,65591.0,762.0487640285604,585.5938816481419,1190.4403191222991
414884.0,13984.0,414884.0,43618.0,414884.0,65550.0,755.5836507646679,575.7795618717673,1172.2510508312012
414895.0,13961.0,414895.0,43607.0,414895.0,65539.0,748.8548048363987,565.8227739603445,1153.7448764517917
414895.0,13968.0,414895.0,43638.0,414895.0,65552.0,741.8737415537895,555.7352602135617,1134.9445710738473
414895.0,13961.0,414895.0,43594.0,414895.0,65511.0,734.6519674769265,545.52899014528,1115.872701901527
414895.0,13955.0,414895.0,43577.0,414895.0,65483.0,727.2010674989417,535.2163651288081,1096.5518422879418
414895.0,13925.0,414895.0,43543.0,414895.0,65460.0,719.5327615347504,524.8100486557242,1077.0045096169763
414895.0,13922.0,414895.0,43541.0,414895.0,65432.0,711.6587887810645,514.3225331130866,1057.2529112978932
414905.0,13915.0,414905.0,43524.0,414905.0,65437.0,703.5906980951667,503.76579884744046,1037.3187814658438
414905.0,13901.0,414905.0,43516.0,414905.0,65432.0,695.339734344532,493.15117844417233,1017.2234776631672
414905.0,13914.0,414905.0,43542.0,414905.0,65404.0,686.9168507113752,482.4894076226458,996.9883266770643
414905.0,13904.0,414905.0,43524.0,414905.0,65377.0,678.3328364699139,471.7909170192845,976.6349274231046
414905.0,13890.0,414905.0,43473.0,414905.0,65344.0,669.5985194061268,461.06615808822903,956.1851612633027
414905.0,13881.0,414905.0,43492.0,414905.0,65340.0,660.7248765842021,450.325564106721,935.6610223861875
414915.0,13891.0,414915.0,43511.0,414915.0,65343.0,651.7230490604393,439.57939081521727,915.084589311432
414915.0,13893.0,414915.0,43504.0,414915.0,65289.0,642.604480772995,428.8379989461873,894.4782460870086
414915.0,13861.0,414915.0,43471.0,414915.0,65285.0,633.3811913634619,418.11237391066913,873.8648529515388
414915.0,13838.0,414915.0,43427.0,414915.0,65264.0,624.0658628106028,407.4142387603713,853.2677119325122
414915.0,13838.0,414915.0,43416.0,414915.0,65222.0,614.6716099689436,396.755618408593,832.7105128205822
414915.0,13812.0,414915.0,43400.0,414915.0,65203.0,605.211705781948,386.1482635246547,812.2172385287838
414926.0,13799.0,414926.0,43371.0,414926.0,65181.0,595.6994084801338,375.60326560906526,791.8119582406541
414926.0,13818.0,414926.0,43423.0,414926.0,65194.0,586.1478498634092,365.1309134670021,771.5187402992649
414926.0,13789.0,414926.0,43428.0,414926.0,65157.0,576.5700813781305,354.74097690379193,751.3618520258256
414926.0,13789.0,414926.0,43403.0,414926.0,65136.0,566.9792330416162,344.4434152801978,731.3660311717169
414926.0,13783.0,414926.0,43421.0,414926.0,65068.0,557.3885986085011,334.24898646025196,711.5564578755559
414926.0,13757.0,414926.0,43363.0,414926.0,65084.0,547.8116607183688,324.1694664289869,691.9583716833944
414936.0,13761.0,414936.0,43370.0,414936.0,65073.0,538.2620798784671,314.217566246999,672.5967658948871
414936.0,13761.0,414936.0,43393.0,414936.0,65053.0,528.7536852954844,304.4067685686921,653.4965105462277
414936.0,13736.0,414936.0,43298.0,414936.0,64986.0,519.3005723469148,294.7513119930021,634.6825571644383
414936.0,13712.0,414936.0,43258.0,414936.0,64983.0,509.9171524411826,285.2658937847883,616.1797266523217
414936.0,13702.0,414936.0,43271.0,414936.0,64950.0,500.6179625575263,275.96474850401887,598.0122474657552
414936.0,13686.0,414936.0,43255.0,414936.0,64934.0,491.41737566129575,266.8608366854962,580.2034540978585
414946.0,13686.0,414946.0,43260.0,414946.0,64913.0,482.3294199700121,257.9656854732717,562.7756612789078
414946.0,13681.0,414946.0,43275.0,414946.0,64925.0,473.36775720029743,249.2896015208033,545.7501463548484
414946.0,13653.0,414946.0,43265.0,414946.0,64888.0,464.5457444645979,240.84203519584568,529.1473038797526
414946.0,13653.0,414946.0,43282.0,414946.0,64849.0,455.87641950169893,232.63202289659318,512.9867815010836
414946.0,13651.0,414946.0,43227.0,414946.0,64855.0,447.372416903444,224.66851491320264,497.2873394638695
414946.0,13639.0,414946.0,43243.0,414946.0,64889.0,439.0459869314069,216.96040235555273,482.06676296198424
414957.0,13638.0,414957.0,43253.0,414957.0,64827.0,430.9091063954851,209.5163926101244,467.3422233751804
414957.0,13639.0,414957.0,43233.0,414957.0,64802.0,422.9735962001315,202.34510135357766,453.1306223569626
414957.0,13603.0,414957.0,43176.0,414957.0,64785.0,415.2512229075599,195.45517465801242,439.44838800010734
414957.0,13602.0,414957.0,43166.0,414957.0,64739.0,407.75365846367447,188.8549289093823,426.3109896632707
414957.0,13574.0,414957.0,43168.0,414957.0,64750.0,400.49225116090963,182.55168230246124,413.7325190101278
414957.0,13553.0,414957.0,43154.0,414957.0,64733.0,393.4777147197043,176.5513523851041,401.7254460455166
414967.0,13578.0,414967.0,43177.0,414967.0,64766.0,386.719840358473,170.85844084258397,390.3007055199129
414967.0,13571.0,414967.0,43193.0,414967.0,64734.0,380.2274460220078,165.47629200255386,379.4681011533082
414967.0,13553.0,414967.0,43143.0,414967.0,64682.0,374.00859685470033,160.40749539277988,369.2366205520909
414967.0,13554.0,414967.0,43157.0,414967.0,64676.0,368.07076474176637,155.6540558273706,359.61422135116374
414967.0,13539.0,414967.0,43166.0,414967.0,64689.0,362.4208011847289,151.21727831761112,350.60734125523567
414967.0,13542.0,414967.0,43190.0,414967.0,64689.0,357.0648851655248,147.09786152731277,342.22078133657226
414977.0,13547.0,414977.0,43177.0,414977.0,64688.0,352.0085489866289,143.29635150560256,334.4580251160489
414977.0,13519.0,414977.0,43134.0,414977.0,64642.0,347.2567717677652,139.81349628591678,327.3215278133307
414977.0,13525.0,414977.0,43127.0,414977.0,64662.0,342.8140028062413,136.65008242023055,320.8126761391991
414977.0,13502.0,414977.0,43107.0,414977.0,64623.0,338.6840438091963,133.80639306157804,314.93156223234894
414977.0,13498.0,414977.0,43105.0,414977.0,64609.0,334.86987485063844,131.28170648402175,309.6767457363366
414977.0,13505.0,414977.0,43140.0,414977.0,64611.0,331.37350285690167,129.07407788241827,305.04495747056444
414988.0,13493.0,414988.0,43140.0,414988.0,64623.0,328.1959154977652,127.18052590027511,301.03089247566646
414988.0,13498.0,414988.0,43111.0,414988.0,64624.0,325.3371343473325,125.5974357403669,297.62731919524555
414988.0,13488.0,414988.0,43115.0,414988.0,64631.0,322.7962620486884,124.32069528208112,294.8253936588844
414988.0,13490.0,414988.0,43119.0,414988.0,64640.0,320.5714971721445,123.34552789287488,292.61498664180084
414988.0,13505.0,414988.0,43141.0,414988.0,64625.0,318.660179530069,122.6664470463488,290.98496336945584
414988.0,13497.0,414988.0,43178.0,414988.0,64652.0,317.0589429060229,122.27758586456193,289.9233857331956
414998.0,13498.0,414998.0,43137.0,414998.0,64636.0,315.7639145701228,122.17326616770416,289.4176859414383
414998.0,13481.0,414998.0,43099.0,414998.0,64638.0,314.7707916946607,122.34826081107587,289.4548302015834
414998.0,13477.0,414998.0,43105.0,414998.0,64616.0,314.07473812981436,122.79737105564672,290.02133117602403
414998.0,13484.0,414998.0,43078.0,414998.0,64590.0,313.67020691228174,123.51471984051912,291.10299630481404
414998.0,13478.0,414998.0,43096.0,414998.0,64591.0,313.55084651451375,124.493260990925,292.6844488607116
414998.0,13499.0,414998.0,43124.0,414998.0,64642.0,313.70954970234527,125.72462598122945,294.7487459945282
415007.0,13488.0,415007.0,43132.0,415007.0,64636.0,314.13860473107565,127.19937121738758,297.2775172270597
415007.0,13487.0,415007.0,43139.0,415007.0,64639.0,314.82984387440547,128.90747230352946,300.2514620358733
415007.0,13497.0,415007.0,43123.0,415007.0,64643.0,315.77469037127554,130.838685133097,303.6506748878115
415007.0,13490.0,415007.0,43115.0,415007.0,64652.0,316.9641688120741,132.98257579964877,307.45472345803387
415007.0,13493.0,415007.0,43131.0,415007.0,64675.0,318.38893995205876,135.3283289372801,311.64275185320605
415007.0,13492.0,415007.0,43166.0,415007.0,64660.0,320.0393035775504,137.86469100260175,316.1936944924483
415018.0,13501.0,415018.0,43160.0,415018.0,64636.0,321.9051879397704,140.5802876453618,321.0863645425258
415018.0,13487.0,415018.0,43149.0,415018.0,64689.0,323.976164520122,143.46403423114913,326.299275926987
415018.0,13494.0,415018.0,43124.0,415018.0,64652.0,326.2414216697056,146.50517644889774,331.81050719889015
415018.0,13504.0,415018.0,43124.0,415018.0,64659.0,328.6897015077377,149.69290874405715,337.5977010636016
415018.0,13495.0,415018.0,43118.0,415018.0,64655.0,331.3093056616698,153.01588460489845,343.6379007512132
415018.0,13515.0,415018.0,43164.0,415018.0,64715.0,334.0881600939771,156.46195904087492,349.9073797885252
415028.0,13499.0,415028.0,43177.0,415028.0,64699.0,337.01387261029254,160.01838218353768,356.381868631445
415028.0,13515.0,415028.0,43165.0,415028.0,64691.0,340.07376320092374,163.67230476362553,363.0369522656793
415028.0,13517.0,415028.0,43146.0,415028.0,64720.0,343.25487975776724,167.41107172863698,369.8481741012199
415028.0,13522.0,415028.0,43191.0,415028.0,64722.0,346.5440582634311,171.2221202543986,376.7909906305273
415028.0,13546.0,415028.0,43220.0,415028.0,64760.0,349.92805822546404,175.09300669988133,383.8409358362086
415028.0,13535.0,415028.0,43209.0,415028.0,64746.0,353.3937656840262,179.0118907506383,390.9739556643033
415038.0,13534.0,415038.0,43150.0,415038.0,64725.0,356.92835696107693,182.96790646056735,398.16659764993796
415038.0,13509.0,415038.0,43129.0,415038.0,64700.0,360.5192272728399,186.95073453278218,405.3957387476771
415038.0,13525.0,415038.0,43150.0,415038.0,64739.0,364.15368259718036,190.94962713645714,412.6379755741166
415038.0,13523.0,415038.0,43166.0,415038.0,64760.0,367.8186441234286,194.95275377741353,419.8692849300487
415038.0,13540.0,415038.0,43186.0,415038.0,64760.0,371.50056806974317,198.94723486994184,427.06522653954914
415038.0,13529.0,415038.0,43176.0,415038.0,64781.0,375.18552665167886,202.9195031722726,434.20131034582937
415049.0,13556.0,415049.0,43200.0,415049.0,64810.0,378.8593069551616,206.85558470763755,441.25328023161705
415049.0,13554.0,415049.0,43223.0,415049.0,64785.0,382.50753625691834,210.74131174681824,448.1974039929419
415049.0,13574.0,415049.0,43205.0,415049.0,64789.0,386.1158909130496,214.5626241250676,455.0106124960995
415049.0,13573.0,415049.0,43225.0,415049.0,64842.0,389.67034070773195,218.30581971076612,461.67042807039206
415049.0,13564.0,415049.0,43252.0,415049.0,64831.0,393.15731781698025,221.95769174101025,468.1550957180984
415049.0,13587.0,415049.0,43224.0,415049.0,64841.0,396.56375215043875,225.50574166872525,474.4439644100386
415059.0,13563.0,415059.0,43206.0,415059.0,64807.0,399.87705040941916,228.93827973999868,480.51763347385486
415059.0,13566.0,415059.0,43198.0,415059.0,64795.0,403.08503344942795,232.2440959820754,486.35762998937525
415059.0,13577.0,415059.0,43259.0,415059.0,64831.0,406.17578378578605,235.41204601415728,491.94587483230646
415059.0,13594.0,415059.0,43214.0,415059.0,64862.0,409.13758577117846,238.43107618865014,497.26448841792217
415059.0,13593.0,415059.0,43242.0,415059.0,64838.0,411.95910251359925,241.29048200435807,502.29612493524894
415059.0,13591.0,415059.0,43235.0,415059.0,64832.0,414.62960170543647,243.9799832612087,507.0242791242689
415069.0,13596.0,415069.0,43237.0,415069.0,64838.0,417.13903847395727,246.4897073672818,511.4331614096906
415069.0,13587.0,415069.0,43234.0,415069.0,64856.0,419.47802595352385,248.81019243373004,515.5074677414516
415069.0,13600.0,415069.0,43274.0,415069.0,64888.0,421.6377829468007,250.9324165469821,519.2324655846505
415069.0,13597.0,415069.0,43296.0,415069.0,64915.0,423.6101176657679,252.84808624883703,522.5944734510306
415069.0,13602.0,415069.0,43266.0,415069.0,64872.0,425.3874721200512,254.55018046299674,525.5814612389805
415069.0,13596.0,415069.0,43249.0,415069.0,64849.0,426.96297075202045,256.0332259875168,528.1832132703108
415080.0,13590.0,415080.0,43246.0,415080.0,64853.0,428.33039868401795,257.2930234797624,530.390858108859
415080.0,13584.0,415080.0,43244.0,415080.0,64862.0,429.48408551479406,258.32619647576405,532.1963058254787
415080.0,13591.0,415080.0,43242.0,415080.0,64860.0,430.4187495067127,259.1299258286031,533.5920645258108
415080.0,13612.0,415080.0,43253.0,415080.0,64864.0,431.12946019713235,259.70186967822076,534.571312957036
415080.0,13614.0,415080.0,43281.0,415080.0,64868.0,431.61184102624657,260.0402670201252,535.1279967065517
415080.0,13596.0,415080.0,43251.0,415080.0,64876.0,431.86236035838505,260.14422899297415,535.2569401139733
415090.0,13596.0,415090.0,43238.0,415090.0,64844.0,431.8784135477734,260.0139143807026,534.9539498035722
415090.0,13586.0,415090.0,43249.0,415090.0,64880.0,431.658169851986,259.6503586512763,534.2158067912907
415090.0,13594.0,415090.0,43247.0,415090.0,64883.0,431.20040081450884,259.05524996543824,533.0403031244011
415090.0,13591.0,415090.0,43246.0,415090.0,64879.0,430.50442374116375,258.23092127645737,531.426521477511
415090.0,13579.0,415090.0,43262.0,415090.0,64866.0,429.57011983536853,257.1804633508854,529.3751230193234
415090.0,13582.0,415090.0,43215.0,415090.0,64841.0,428.39790963744997,255.9078109011659,526.8883379929664
415100.0,13569.0,415100.0,43206.0,415100.0,64821.0,426.9886635098138,254.417591261913,523.9696508908087
415100.0,13564.0,415100.0,43211.0,415100.0,64837.0,425.3435936991861,252.7146909619488,520.6233805002362
415100.0,13568.0,415100.0,43177.0,415100.0,64835.0,423.4641461610075,250.80384967433918,516.8544744564032
415100.0,13570.0,415100.0,43232.0,415100.0,64849.0,421.3519669836966,248.68947566680777,512.6686577978109
415100.0,13560.0,415100.0,43172.0,415100.0,64782.0,419.0089777676093,246.37567248188964,508.0726439458193
415100.0,13556.0,415100.0,43199.0,415100.0,64825.0,416.43743848010587,243.86631075846418,503.0740476967902
415111.0,13551.0,415111.0,43212.0,415111.0,64808.0,413.63992082089436,241.1650276842837,497.6811902359225
415111.0,13575.0,415111.0,43226.0,415111.0,64808.0,410.6193114214582,238.27542715254185,491.9031784060501
415111.0,13557.0,415111.0,43221.0,415111.0,64807.0,407.3789844288715,235.20155740047608,485.75013046416194
415111.0,13542.0,415111.0,43235.0,415111.0,64806.0,403.9230037402426,231.94835435378354,479.2333497008364
415111.0,13542.0,415111.0,43212.0,415111.0,64752.0,400.25610990518624,228.5219189962149,472.36540713855436
415111.0,13518.0,415111.0,43161.0,415111.0,64742.0,396.38354215554347,224.92952336576496,465.1599224731691
415121.0,13519.0,415121.0,43172.0,415121.0,64710.0,392.3108451637586,221.179187129345,457.63102261443163
415121.0,13510.0,415121.0,43139.0,415121.0,64702.0,388.04370083541687,217.27907139751468,449.7927870168087
415121.0,13510.0,415121.0,43148.0,415121.0,64721.0,383.5878436444742,213.23705784153793,441.6589343352515
415121.0,13500.0,415121.0,43134.0,415121.0,64682.0,378.94906742132997,209.0605371383964,433.2428228049658
415121.0,13501.0,415121.0,43154.0,415121.0,64697.0,374.1332586473025,204.7563639921784,424.5575777169559
415121.0,13477.0,415121.0,43121.0,415121.0,64688.0,369.1464054726988,200.33095623099655,415.61617960741506
415132.0,13496.0,415132.0,43122.0,415132.0,64668.0,363.99456809966466,195.79034954972758,406.4315855846114
415132.0,13494.0,415132.0,43174.0,415132.0,64682.0,358.68392568534296,191.14021983031554,397.016867177592
415132.0,13469.0,415132.0,43133.0,415132.0,64654.0,353.220954206119,186.38618651618017,387.3853278550259
415132.0,13463.0,415132.0,43170.0,415132.0,64630.0,347.61250437569595,181.53431185464925,377.55057145335985
415132.0,13456.0,415132.0,43087.0,415132.0,64624.0,341.8656741712037,176.59134452988465,367.5263895383955
415132.0,13428.0,415132.0,43062.0,415132.0,64595.0,335.98763764163704,171.56440999984832,357.32653201623503
415142.0,13426.0,415142.0,43089.0,415142.0,64582.0,329.9854560774779,166.4602646967477,346.96449613553455
415142.0,13422.0,415142.0,43101.0,415142.0,64567.0,323.8658753573646,161.2848343090824,336.4533212932994
415142.0,13432.0,415142.0,43115.0,415142.0,64590.0,317.6352832826826,156.04349531261434,325.8054944392922
415142.0,13416.0,415142.0,43074.0,415142.0,64566.0,311.299875248889,150.74161993453637,315.03313159873187
415142.0,13404.0,415142.0,43050.0,415142.0,64551.0,304.86582769513075,145.38472059131493,304.1482792767074
415142.0,13390.0,415142.0,43062.0,415142.0,64520.0,298.3392969931058,139.97812481620434,293.1629933380583
415152.0,13395.0,415152.0,43072.0,415152.0,64531.0,291.7263103550477,134.5267046405594,282.0891828249593
415152.0,13389.0,415152.0,43098.0,415152.0,64533.0,285.032746883838,129.03508726034096,270.93856235064715
415152.0,13387.0,415152.0,43062.0,415152.0,64496.0,278.2644632079666,123.50817278628912,259.72285433953317
415152.0,13359.0,415152.0,43033.0,415152.0,64470.0,271.4274177999432,117.95141656535424,248.45389872186394
415152.0,13364.0,415152.0,43009.0,415152.0,64455.0,264.5276521248744,112.37055211561278,237.14341471087215
415152.0,13348.0,415152.0,43008.0,415152.0,64439.0,257.5711931826095,106.77101758211185,225.8026510526525
415163.0,13328.0,415163.0,43032.0,415163.0,64413.0,250.5639784322043,101.15761169828392,214.4421530493534
415163.0,13344.0,415163.0,42982.0,415163.0,64416.0,243.51178266524136,95.53453692942395,203.0716075413743
415163.0,13338.0,415163.0,43024.0,415163.0,64431.0,236.42024174853026,89.90553013213662,191.69984038259065
415163.0,13320.0,415163.0,43060.0,415163.0,64374.0,229.2950378048763,84.2740765421857,180.33503489711472
415163.0,13306.0,415163.0,42987.0,415163.0,64379.0,222.14201291801675,78.64392350085734,168.98485330299764
415163.0,13286.0,415163.0,42990.0,415163.0,64383.0,214.9670533245557,73.01938787071981,157.65633941001215
415173.0,13292.0,415173.0,43013.0,415173.0,64371.0,207.77588556235258,67.40513322012742,146.3559747023172
415173.0,13282.0,415173.0,42987.0,415173.0,64351.0,200.5739867558276,61.80603791537936,135.08993209480388
415173.0,13267.0,415173.0,42965.0,415173.0,64330.0,193.366631112449,56.227311818398334,123.86418513932563
415173.0,13256.0,415173.0,42929.0,415173.0,64296.0,186.158908529757,50.67433728931621,112.6843530767402
415173.0,13247.0,415173.0,42899.0,415173.0,64274.0,178.9556422859984,45.152100761126405,101.55535439336484
415173.0,13226.0,415173.0,42915.0,415173.0,64268.0,171.76127445421514,39.66452839381361,90.48100631337661
415183.0,13218.0,415183.0,42942.0,415183.0,64303.0,164.57972697771817,34.2141830119682,79.46387362599887
415183.0,13220.0,415183.0,42920.0,415183.0,64259.0,157.41426659458966,28.802528619607585,68.50555290301293
415183.0,13209.0,415183.0,42920.0,415183.0,64254.0,150.26748883497453,23.43035968603556,57.60704596198184
415183.0,13210.0,415183.0,42900.0,415183.0,64239.0,143.1414230066555,18.09795397918731,46.7688319384996
415183.0,13199.0,415183.0,42913.0,415183.0,64221.0,136.0376589191626,12.80502176953894,35.99076744720105
415183.0,13188.0,415183.0,42923.0,415183.0,64220.0,128.95743658861022,7.550750902617494,25.272029326089296
415194.0,13197.0,415194.0,42936.0,415194.0,64235.0,121.90170089142345,2.3341157142897373,14.611186985181234
415194.0,13190.0,415194.0,42915.0,415194.0,64221.0,114.87121218993661,-2.8456695904513367,4.006505566073656
415194.0,13168.0,415194.0,42887.0,415194.0,64203.0,107.86671491852707,-7.988909242949035,-6.543669804005731
415194.0,13172.0,415194.0,42857.0,415194.0,64202.0,100.88900422775095,-13.09564074909622,-17.040717770296965
415194.0,13152.0,415194.0,42867.0,415194.0,64158.0,93.93888256381678,-18.166140305283307,-27.485746640140633
415194.0,13139.0,415194.0,42844.0,415194.0,64161.0,87.0170972223554,-23.201322138739783,-37.87973962850947
415204.0,13154.0,415204.0,42886.0,415204.0,64160.0,80.1242790858688,-28.20281926994039,-48.22372205048566
415204.0,13133.0,415204.0,42845.0,415204.0,64119.0,73.26097763306626,-33.172788165874294,-58.51878650985714
415204.0,13120.0,415204.0,42883.0,415204.0,64138.0,66.42776791197014,-38.11362341710446,-68.76607723963002
415204.0,13113.0,415204.0,42852.0,415204.0,64136.0,59.62523720275624,-43.02772201089391,-78.96675582376395
415204.0,13108.0,415204.0,42862.0,415204.0,64119.0,52.85388575224425,-47.917305223280664,-89.1217722054198
415204.0,13117.0,415204.0,42888.0,415204.0,64126.0,46.114135835417244,-52.784243417564085,-99.2315603503232
415214.0,13104.0,415214.0,42819.0,415214.0,64083.0,39.40649769387039,-57.62984523139124,-109.2958730558206
415214.0,13087.0,415214.0,42882.0,415214.0,64075.0,32.73174662543562,-62.4547628751958,-119.31382470403298
415214.0,13052.0,415214.0,42790.0,415214.0,64023.0,26.09088050077952,-67.25908433251175,-129.2841844681842
415214.0,13060.0,415214.0,42813.0,415214.0,64039.0,19.484819229480877,-72.04258208608502,-139.20582083852003
415214.0,13058.0,415214.0,42800.0,415214.0,64030.0,12.9141355350136,-76.80511026980514,-149.07800001980502
415214.0,13047.0,415214.0,42796.0,415214.0,64031.0,6.3790537837940064,-81.54686693103395,-158.90032777115005
415225.0,13040.0,415225.0,42807.0,415225.0,64028.0,-0.12042683585355007,-86.26837367530203,-168.67246220995355
415225.0,13041.0,415225.0,42815.0,415225.0,63997.0,-6.584464906384596,-90.97029006394649,-178.39386068281067
415225.0,13031.0,415225.0,42787.0,415225.0,63984.0,-13.013312532844168,-95.65314370086668,-188.06373678440912
415225.0,13012.0,415225.0,42767.0,415225.0,63953.0,-19.407248181295643,-100.31723300374227,-197.68126194975912
415225.0,13008.0,415225.0,42802.0,415225.0,63978.0,-25.766613855774494,-104.9627856176449,-207.24581737014034
415225.0,13025.0,415225.0,42784.0,415225.0,63974.0,-32.09187161130859,-109.58997986266809,-216.75698258532293
415235.0,13010.0,415235.0,42782.0,415235.0,63950.0,-38.38346892857447,-114.19870373969104,-226.21423042072104
415235.0,12999.0,415235.0,42796.0,415235.0,63954.0,-44.6415979356338,-118.78833481315507,-235.61666422654764
415235.0,12993.0,415235.0,42735.0,415235.0,63913.0,-50.86610143179621,-123.35766644916993,-244.9629856484038
415235.0,12981.0,415235.0,42728.0,415235.0,63893.0,-57.05651964044637,-127.90511602061781,-254.2516666547499
415235.0,12962.0,415235.0,42720.0,415235.0,63885.0,-63.21217246536452,-132.42924749577128,-263.4812894374204
415235.0,12957.0,415235.0,42746.0,415235.0,63894.0,-69.33229548003789,-136.92915312201154,-272.65080936507877
415245.0,12961.0,415245.0,42774.0,415245.0,63899.0,-75.41616896143967,-141.4042834350047,-281.7594658111684
415245.0,12944.0,415245.0,42720.0,415245.0,63864.0,-81.4631165476917,-145.85391383169923,-290.80646231771243
415245.0,12938.0,415245.0,42699.0,415245.0,63860.0,-87.47244437524279,-150.276911510133,-299.79079658476303
415245.0,12930.0,415245.0,42711.0,415245.0,63855.0,-93.44345023811508,-154.6720800523982,-308.7113273369008
415245.0,12934.0,415245.0,42720.0,415245.0,63892.0,-99.37544410689844,-159.0385029046629,-317.5667219302252
415245.0,12914.0,415245.0,42730.0,415245.0,63836.0,-105.2676990843434,-163.37540819516778,-326.3550965367949
415256.0,12919.0,415256.0,42716.0,415256.0,63801.0,-111.11939555821834,-167.6817775312487,-335.0738042926398
415256.0,12893.0,415256.0,42684.0,415256.0,63798.0,-116.929625360714,-171.95613188108814,-343.7197822889357
415256.0,12878.0,415256.0,42674.0,415256.0,63756.0,-122.69749239022786,-176.19670909087404,-352.2901336978273
415256.0,12858.0,415256.0,42666.0,415256.0,63777.0,-128.42235829478443,-180.4018711880043,-360.782530266958
415256.0,12879.0,415256.0,42667.0,415256.0,63754.0,-134.1041138463205,-184.57040558773696,-369.19536849147096
415256.0,12866.0,415256.0,42628.0,415256.0,63763.0,-139.74322306183143,-188.70166966073407,-377.5277058480526
415266.0,12852.0,415266.0,42696.0,415266.0,63762.0,-145.34056638497003,-192.79567381416734,-385.7790641668786
415266.0,12859.0,415266.0,42644.0,415266.0,63727.0,-150.8973419522677,-196.85295132981616,-393.9492256482441
415266.0,12857.0,415266.0,42632.0,415266.0,63735.0,-156.41502087229782,-200.87432626644107,-402.03817130033576
415266.0,12836.0,415266.0,42671.0,415266.0,63723.0,-161.8952370838026,-204.86092749159576,-410.04614359639675
415266.0,12838.0,415266.0,42688.0,415266.0,63738.0,-167.3397271006349,-208.8141047880389,-417.9735925335858
415266.0,12832.0,415266.0,42661.0,415266.0,63707.0,-172.75036209196878,-212.73491309033585,-425.82096259254956
415276.0,12839.0,415276.0,42667.0,415276.0,63692.0,-178.12911237105016,-216.6236606252598,-433.5885695052075
415276.0,12814.0,415276.0,42596.0,415276.0,63660.0,-183.47792197429254,-220.47995602698785,-441.27676514504856
415276.0,12808.0,415276.0,42600.0,415276.0,63653.0,-188.79866528635944,-224.3032281099433,-448.88631565322044
415276.0,12796.0,415276.0,42608.0,415276.0,63662.0,-194.09326255222925,-228.09338844164245,-456.4187175628772
415276.0,12808.0,415276.0,42600.0,415276.0,63680.0,-199.3637983911114,-231.85114091743264,-463.876170600244
415276.0,12800.0,415276.0,42623.0,415276.0,63663.0,-204.61247123586395,-235.57785941251126,-471.2611889046482
415287.0,12794.0,415287.0,42640.0,415287.0,63631.0,-209.8414201789612,-239.2752378857502,-478.5762391567662
415287.0,12783.0,415287.0,42600.0,415287.0,63660.0,-215.05260724503165,-242.94485051020632,-485.82369897996614
415287.0,12774.0,415287.0,42599.0,415287.0,63633.0,-220.2478258547522,-246.58794962406546,-493.0058845996698
415287.0,12782.0,415287.0,42583.0,415287.0,63618.0,-225.42874435229447,-250.20565728095625,-500.1249615056154
415287.0,12771.0,415287.0,42629.0,415287.0,63618.0,-230.59686311782332,-253.79915371186667,-507.1829464884893
415287.0,12775.0,415287.0,42598.0,415287.0,63610.0,-235.7533831905278,-257.36950244161,-514.1817908652502
415297.0,12753.0,415297.0,42586.0,415297.0,63616.0,-240.89909563817992,-260.91735082297305,-521.1233363883543
415297.0,12740.0,415297.0,42545.0,415297.0,63573.0,-246.03440091854316,-264.4429997442565,-528.0092105617276
415297.0,12726.0,415297.0,42542.0,415297.0,63566.0,-251.15949058842943,-267.94689915305804,-534.8409122479684
415297.0,12727.0,415297.0,42573.0,415297.0,63577.0,-256.2745780195562,-271.4301221420245,-541.6200693025154
415297.0,12730.0,415297.0,42570.0,415297.0,63591.0,-261.3799959803612,-274.89436831327566,-548.348477610247
415297.0,12732.0,415297.0,42589.0,415297.0,63572.0,-266.47608822444465,-278.3415368626851,-555.0277737441489
415307.0,12713.0,415307.0,42621.0,415307.0,63559.0,-271.5630084063316,-281.7731567028727,-561.6591095100902
415307.0,12701.0,415307.0,42560.0,415307.0,63524.0,-276.64064083168967,-285.1898395180008,-568.2431642677399
415307.0,12707.0,415307.0,42581.0,415307.0,63580.0,-281.70868756212406,-288.5910531956081,-574.7803411917777
415307.0,12697.0,415307.0,42602.0,415307.0,63566.0,-286.76672962742464,-291.9752115730913,-581.2706556911852
415307.0,12688.0,415307.0,42542.0,415307.0,63519.0,-291.81418343189455,-295.33965958614704,-587.7133200256769
415307.0,12667.0,415307.0,42512.0,415307.0,63509.0,-296.8503081964709,-298.6807785029061,-594.1066798084656
415318.0,12661.0,415318.0,42511.0,415318.0,63488.0,-301.8743615955217,-301.99460797551626,-600.4486582496132
415318.0,12661.0,415318.0,42504.0,415318.0,63484.0,-306.88579230841015,-305.27753777906554,-606.7372164296095
415318.0,12648.0,415318.0,42487.0,415318.0,63461.0,-311.8843238023767,-308.52663830761225,-612.9706171767392
415318.0,12641.0,415318.0,42500.0,415318.0,63475.0,-316.86996174482726,-311.7397898126316,-619.1475776083805
415318.0,12648.0,415318.0,42521.0,415318.0,63483.0,-321.84300398048265,-314.9156651181075,-625.2672517053524
415318.0,12642.0,415318.0,42486.0,415318.0,63434.0,-326.8039842694145,-318.0534910054195,-631.32904903501
415328.0,12623.0,415328.0,42503.0,415328.0,63456.0,-331.7535558505896,-321.1528392554172,-637.3325851167295
415328.0,12613.0,415328.0,42502.0,415328.0,63443.0,-336.6924949272973,-324.21358903649764,-643.2777958316356
415328.0,12629.0,415328.0,42526.0,415328.0,63459.0,-341.6218139369655,-327.23579150220854,-649.1648900737323
415328.0,12615.0,415328.0,42521.0,415328.0,63429.0,-346.5427478072786,-330.21930304093587,-654.9941285052962
415328.0,12613.0,415328.0,42495.0,415328.0,63444.0,-351.45659697857275,-333.16343407534816,-660.7656732844462
415328.0,12604.0,415328.0,42480.0,415328.0,63404.0,-356.364623456456,-336.066933168006,-666.4795816143381
415338.0,12595.0,415338.0,42465.0,415338.0,63374.0,-361.26804842521517,-338.92832264678424,-672.1359937042744
415338.0,12587.0,415338.0,42443.0,415338.0,63385.0,-366.1680967433051,-341.746344965518,-677.7355556140875
415338.0,12589.0,415338.0,42455.0,415338.0,63405.0,-371.06604578500003,-344.5203518744745,-683.2797268723762
415338.0,12575.0,415338.0,42459.0,415338.0,63410.0,-375.96322799725294,-347.25049882422553,-688.7705802464941
415338.0,12580.0,415338.0,42476.0,415338.0,63392.0,-380.8609952272294,-349.93762319989776,-694.2103101590296
415338.0,12568.0,415338.0,42475.0,415338.0,63366.0,-385.7606751355046,-352.5828913791718,-699.6009718092881
415349.0,12559.0,415349.0,42451.0,415349.0,63361.0,-390.6635378672863,-355.1874776754169,-704.9446269975117
415349.0,12555.0,415349.0,42459.0,415349.0,63375.0,-395.5708134152078,-357.7524957179872,-710.2435970770933
415349.0,12546.0,415349.0,42470.0,415349.0,63401.0,-400.4837414209567,-360.27906485912115,-715.5003959647265
415349.0,12549.0,415349.0,42470.0,415349.0,63346.0,-405.4035865949073,-362.76821003949624,-720.7173471839917
415349.0,12540.0,415349.0,42445.0,415349.0,63332.0,-410.3315954307991,-365.2206537663051,-725.896433293016
415349.0,12531.0,415349.0,42423.0,415349.0,63323.0,-415.268934651271,-367.6368502757524,-731.0396528491112
415359.0,12518.0,415359.0,42396.0,415359.0,63312.0,-420.2166963422758,-370.0173933977015,-736.1494760543835
415359.0,12491.0,415359.0,42403.0,415359.0,63299.0,-425.1760365226453,-372.36358561324784,-741.2290934332007
415359.0,12506.0,415359.0,42414.0,415359.0,63311.0,-430.148414733791,-374.677812106075,-746.2825323365068
415359.0,12513.0,415359.0,42446.0,415359.0,63318.0,-435.13571200271883,-376.9634627498894,-751.3146128377813
415359.0,12500.0,415359.0,42438.0,415359.0,63308.0,-440.1400652347287,-379.22445254952817,-756.3306963478801
415359.0,12493.0,415359.0,42410.0,415359.0,63289.0,-445.16363653936,-381.4647512464332,-761.3364534533721
415370.0,12490.0,415370.0,42432.0,415370.0,63300.0,-450.20854812804964,-383.6882821893289,-766.3378410384632
415370.0,12486.0,415370.0,42447.0,415370.0,63296.0,-455.27689164966125,-385.89895559458506,-771.3411245890946
415370.0,12484.0,415370.0,42416.0,415370.0,63296.0,-460.3706844034699,-388.10048799255424,-776.3527572834778
415370.0,12471.0,415370.0,42425.0,415370.0,63300.0,-465.4917986723842,-390.29623439166056,-781.3791763808476
415370.0,12473.0,415370.0,42375.0,415370.0,63264.0,-470.6419248250668,-392.48933052807416,-786.4266603874829
415370.0,12453.0,415370.0,42380.0,415370.0,63261.0,-475.8225762233942,-394.6831025927487,-791.5013925021772
415380.0,12445.0,415380.0,42397.0,415380.0,63251.0,-481.0351500479776,-396.8814933894958,-796.6097159725045
415380.0,12442.0,415380.0,42399.0,415380.0,63236.0,-486.2810480408293,-399.0891506620252,-801.7583706940194
415380.0,12460.0,415380.0,42411.0,415380.0,63284.0,-491.561715460296,-401.3111450822091,-806.954540853632
415380.0,12437.0,415380.0,42454.0,415380.0,63236.0,-496.878478805369,-403.552518101405,-812.2056364988682
415380.0,12419.0,415380.0,42378.0,415380.0,63238.0,-502.23238463702546,-405.8177950961788,-817.519039507703
415380.0,12412.0,415380.0,42401.0,415380.0,63252.0,-507.62429242072665,-408.11083399202204,-822.9020849006677
415390.0,12414.0,415390.0,42378.0,415390.0,63244.0,-513.0550877917683,-410.43513873826276,-828.3620303661457
415390.0,12419.0,415390.0,42402.0,415390.0,63247.0,-518.5257248003601,-412.7941477687286,-833.9058235351841
415390.0,12407.0,415390.0,42442.0,415390.0,63239.0,-524.0370687767218,-415.19110675605407,-839.5398691459898
415390.0,12393.0,415390.0,42390.0,415390.0,63228.0,-529.5897482306825,-417.6285984039023,-845.2699092058253
415390.0,12386.0,415390.0,42351.0,415390.0,63208.0,-535.1841715866997,-420.10830795978603,-851.101032135475
415390.0,12364.0,415390.0,42363.0,415390.0,63183.0,-540.8206723084329,-422.631471607277,-857.0378653515828
415401.0,12355.0,415401.0,42326.0,415401.0,63190.0,-546.4997135926915,-425.19956448542086,-863.0848964799446
415401.0,12370.0,415401.0,42350.0,415401.0,63174.0,-552.222067624431,-427.8147223589577,-869.246718651935
415401.0,12352.0,415401.0,42367.0,415401.0,63176.0,-557.9888155747394,-430.47983819764005,-875.5280924794031
415401.0,12351.0,415401.0,42341.0,415401.0,63196.0,-563.8012128395543,-433.1983538316519,-881.9338528914047
415401.0,12345.0,415401.0,42345.0,415401.0,63158.0,-569.6606056681976,-435.97402788786854,-888.4686869889547
415401.0,12343.0,415401.0,42364.0,415401.0,63159.0,-575.5683910488634,-438.8108842937818,-895.1369810888707
415411.0,12322.0,415411.0,42383.0,415411.0,63168.0,-581.52597124038,-441.7130356494876,-901.942854183086
415411.0,12339.0,415411.0,42364.0,415411.0,63165.0,-587.5347413572587,-444.6842437286854,-908.8901064953754
415411.0,12327.0,415411.0,42359.0,415411.0,63135.0,-593.5960350869766,-447.72757517866705,-915.982020268939
415411.0,12305.0,415411.0,42315.0,415411.0,63110.0,-599.7110082591759,-450.8454518113529,-923.2213668139505
415411.0,12290.0,415411.0,42296.0,415411.0,63104.0,-605.8806706917667,-454.04010145674084,-930.6107391077138
415411.0,12280.0,415411.0,42305.0,415411.0,63096.0,-612.1061290117684,-457.314184662333,-938.1529123687577
415421.0,12281.0,415421.0,42301.0,415421.0,63099.0,-618.388819831645,-460.6712025341768,-945.8509775288607
415421.0,12281.0,415421.0,42343.0,415421.0,63088.0,-624.7305571802818,-464.11545087776676,-953.7082697724526
415421.0,12289.0,415421.0,42329.0,415421.0,63110.0,-631.1333820000676,-467.65159337928463,-961.7281831115141
415421.0,12288.0,415421.0,42358.0,415421.0,63078.0,-637.5992763894767,-471.2840884452499,-969.9139073182181
415421.0,12253.0,415421.0,42317.0,415421.0,63063.0,-644.1299064505334,-475.0167407348164,-978.2682530536172
415421.0,12255.0,415421.0,42312.0,415421.0,63063.0,-650.7266102182701,-478.85258164219175,-986.7937209175477
415432.0,12257.0,415432.0,42362.0,415432.0,63077.0,-657.3905537185036,-482.7939592092542,-995.4925795784206
415432.0,12235.0,415432.0,42328.0,415432.0,63071.0,-664.1227778614896,-486.8423921542765,-1004.3666554163794
415432.0,12231.0,415432.0,42303.0,415432.0,63042.0,-670.9241705366895,-490.9982648438899,-1013.4169995538288
415432.0,12215.0,415432.0,42283.0,415432.0,63009.0,-677.7955318434542,-495.2609378958069,-1022.6438430314437
415432.0,12204.0,415432.0,42266.0,415432.0,62992.0,-684.7377000492813,-499.62926832699344,-1032.0469594949654
415432.0,12208.0,415432.0,42248.0,415432.0,62992.0,-691.75165325279,-504.10214059012725,-1041.6261338478084
415442.0,12204.0,415442.0,42276.0,415442.0,63005.0,-698.8385037514164,-508.67881425100893,-1051.381346294384
415442.0,12198.0,415442.0,42257.0,415442.0,62982.0,-705.9993607984229,-513.3589689391231,-1061.3125908300294
415442.0,12189.0,415442.0,42264.0,415442.0,62987.0,-713.2351790907071,-518.142517424059,-1071.419595309962
415442.0,12176.0,415442.0,42271.0,415442.0,62960.0,-720.546696163388,-523.0294053909558,-1081.70167178005
415442.0,12178.0,415442.0,42264.0,415442.0,62954.0,-727.9344384247144,-528.0194080395557,-1092.1577031519316
415442.0,12169.0,415442.0,42264.0,415442.0,62982.0,-735.3987027173531,-533.1119073221635,-1102.7861205378326
415452.0,12167.0,415452.0,42297.0,415452.0,62952.0,-742.9394668446118,-538.3056599496229,-1113.5846648636616
415452.0,12159.0,415452.0,42248.0,415452.0,62908.0,-750.5562735752452,-543.598489406864,-1124.550123042874
415452.0,12135.0,415452.0,42241.0,415452.0,62907.0,-758.248167054195,-548.9871246301907,-1135.678471860517
415452.0,12123.0,415452.0,42197.0,415452.0,62894.0,-766.0137706783843,-554.4674849273822,-1146.9652637251545
415452.0,12119.0,415452.0,42183.0,415452.0,62882.0,-773.8514781356301,-560.0352877957298,-1158.40581122105
415452.0,12096.0,415452.0,42214.0,415452.0,62866.0,-781.759611941771,-565.6865952562969,-1169.9951928619178
415463.0,12104.0,415463.0,42230.0,415463.0,62918.0,-789.7365090515553,-571.4178738562965,-1181.728146979429
415463.0,12100.0,415463.0,42218.0,415463.0,62887.0,-797.7805194304711,-577.225515849429,-1193.5986434417432
415463.0,12101.0,415463.0,42217.0,415463.0,62894.0,-805.8898508592681,-583.1053195069339,-1205.5992507534106
415463.0,12083.0,415463.0,42173.0,415463.0,62833.0,-814.0623429990286,-589.0523354486918,-1217.7207945487644
415463.0,12089.0,415463.0,42221.0,415463.0,62848.0,-822.29531850883,-595.0609961604467,-1229.9524817623642
415463.0,12081.0,415463.0,42208.0,415463.0,62815.0,-830.5854809328567,-601.1251119721261,-1242.2821892391146
415473.0,12079.0,415473.0,42203.0,415473.0,62833.0,-838.9287643311171,-607.2375515436454,-1254.696585240294
415473.0,12056.0,415473.0,42180.0,415473.0,62796.0,-847.3201894029289,-613.3899753774773,-1267.1810518560014
415473.0,12040.0,415473.0,42168.0,415473.0,62785.0,-855.7538658724757,-619.5729018635017,-1279.719613149725
415473.0,12027.0,415473.0,42139.0,415473.0,62752.0,-864.2231655819419,-625.7759948209073,-1292.2950475943499
415473.0,12019.0,415473.0,42113.0,415473.0,62749.0,-872.7209329154985,-631.9884777249588,-1304.8891428160962
415473.0,12007.0,415473.0,42113.0,415473.0,62726.0,-881.2396113429126,-638.1996243531123,-1317.4829151126332
415483.0,12030.0,415483.0,42147.0,415483.0,62748.0,-889.7712316721102,-644.3990489437191,-1330.0566607659036
415483.0,12011.0,415483.0,42169.0,415483.0,62748.0,-898.3072035678649,-650.5764400373039,-1342.5897325057151
415483.0,11988.0,415483.0,42104.0,415483.0,62690.0,-906.8380522568582,-656.7209386868957,-1355.0601672338871
415483.0,11978.0,415483.0,42121.0,415483.0,62710.0,-915.3533961617646,-662.8208737241914,-1367.444570422696
415483.0,11986.0,415483.0,42129.0,415483.0,62711.0,-923.8421010125634,-668.8639374085626,-1379.7182012352955
415483.0,11990.0,415483.0,42156.0,415483.0,62690.0,-932.2922566201288,-674.8371299634166,-1391.8548260500972
415494.0,11970.0,415494.0,42127.0,415494.0,62690.0,-940.69092000875,-680.7262872179992,-1403.8264282101404
415494.0,11948.0,415494.0,42099.0,415494.0,62655.0,-949.0239349233747,-686.515738182088,-1415.6030864999134
415494.0,11938.0,415494.0,42062.0,415494.0,62642.0,-957.2760325269803,-692.1885200182039,-1427.1530596838193
415494.0,11927.0,415494.0,42065.0,415494.0,62639.0,-965.4310660137828,-697.726991041832,-1438.442978910096
415494.0,11915.0,415494.0,42069.0,415494.0,62617.0,-973.4721772578177,-703.1133363620818,-1449.437979011939
415494.0,11928.0,415494.0,42090.0,415494.0,62629.0,-981.3818433999159,-708.3296206716363,-1460.1016949050304
415504.0,11922.0,415504.0,42073.0,415504.0,62579.0,-989.1417593959014,-713.3574676851686,-1470.396223369732
415504.0,11900.0,415504.0,42049.0,415504.0,62592.0,-996.7326178055049,-718.177771551891,-1480.282191029391
415504.0,11895.0,415504.0,42061.0,415504.0,62560.0,-1004.134019143201,-722.770720111793,-1489.7189317723287
415504.0,11887.0,415504.0,42063.0,415504.0,62577.0,-1011.3245538906958,-727.1159120526454,-1498.6646109672906
415504.0,11895.0,415504.0,42095.0,415504.0,62569.0,-1018.2818443403728,-731.1921982685589,-1507.0761804098217
415504.0,11888.0,415504.0,42068.0,415504.0,62570.0,-1024.982425538964,-734.977252129336,-1514.909175470838
415514.0,11872.0,415514.0,42031.0,415514.0,62518.0,-1031.4015692657463,-738.4472902814725,-1522.1175622598894
415514.0,11854.0,415514.0,42026.0,415514.0,62516.0,-1037.5132521532623,-741.5773130209259,-1528.6539256320475
415514.0,11834.0,415514.0,42014.0,415514.0,62510.0,-1043.2903517224754,-744.3416484661998,-1534.4699023856278
415514.0,11830.0,415514.0,41979.0,415514.0,62475.0,-1048.704963914191,-746.7144228985461,-1539.5165313124776
415514.0,11836.0,415514.0,42000.0,415514.0,62494.0,-1053.7286406181884,-748.669962138953,-1543.7445034449338
415514.0,11834.0,415514.0,42035.0,415514.0,62522.0,-1058.3324003680004,-750.1829952746593,-1547.1042655090002
415525.0,11828.0,415525.0,42011.0,415525.0,62494.0,-1062.486577879421,-751.2283984803792,-1549.5457778289322
415525.0,11816.0,415525.0,41997.0,415525.0,62487.0,-1066.1607157423662,-751.7808339030802,-1551.0182237492215
415525.0,11812.0,415525.0,42006.0,415525.0,62481.0,-1069.3235963646798,-751.814766069604,-1551.4700749128501
415525.0,11808.0,415525.0,42052.0,415525.0,62471.0,-1071.943346346024,-751.3045611749017,-1550.8493683300997
415525.0,11802.0,415525.0,42041.0,415525.0,62472.0,-1073.987521198996,-750.224178314646,-1549.1039581017587
415525.0,11795.0,415525.0,42027.0,415525.0,62485.0,-1075.4231734701712,-748.5466902687357,-1546.181686807963
415535.0,11782.0,415535.0,41962.0,415535.0,62461.0,-1076.2169680435331,-746.2442964360803,-1542.0304681263415
415535.0,11768.0,415535.0,41955.0,415535.0,62435.0,-1076.3353962820565,-743.2890736584358,-1536.598484733804
415535.0,11750.0,415535.0,41956.0,415535.0,62415.0,-1075.745112342234,-739.6540206050445,-1529.8347601819114
415535.0,11753.0,415535.0,41968.0,415535.0,62420.0,-1074.4133441702827,-735.3137510419582,-1521.6899728462636
415535.0,11756.0,415535.0,41983.0,415535.0,62445.0,-1072.3082264497411,-730.2446506665801,-1512.1170886057898
415535.0,11749.0,415535.0,42008.0,415535.0,62451.0,-1069.3989573926592,-724.4246966480323,-1501.0715669431484
415545.0,11765.0,415545.0,41978.0,415545.0,62446.0,-1065.655853254945,-717.8331895541656,-1488.5113322097495
415545.0,11747.0,415545.0,41982.0,415545.0,62429.0,-1061.0503906131175,-710.4507181260719,-1474.3969243297688
415545.0,11734.0,415545.0,41975.0,415545.0,62436.0,-1055.5553425932894,-702.2594769671705,-1458.6919942187378
415545.0,11746.0,415545.0,41985.0,415545.0,62479.0,-1049.145099014524,-693.2436767106342,-1441.3638557927716
415545.0,11751.0,415545.0,42029.0,415545.0,62487.0,-1041.795995258446,-683.3897436773027,-1422.3836970624384
415545.0,11761.0,415545.0,42029.0,415545.0,62492.0,-1033.4864422452456,-672.6861739419135,-1401.7265262391245
415556.0,11746.0,415556.0,41990.0,415556.0,62491.0,-1024.1969695815042,-661.1233215183913,-1379.3712929266494
415556.0,11746.0,415556.0,42004.0,415556.0,62501.0,-1013.9104173253236,-648.6936472007862,-1355.3013369787134
415556.0,11753.0,415556.0,41994.0,415556.0,62504.0,-1002.612301277991,-635.3923757495769,-1329.5049855823283
415556.0,11769.0,415556.0,42020.0,415556.0,62543.0,-990.2911459316183,-621.2180638235669,-1301.976110887943
415556.0,11782.0,415556.0,42079.0,415556.0,62593.0,-976.9386276848481,-606.1727792923507,-1272.7144380852737
415556.0,11779.0,415556.0,42065.0,415556.0,62617.0,-962.5496116650638,-590.2618393545366,-1241.7254705489822
415566.0,11792.0,415566.0,42086.0,415566.0,62620.0,-947.1222686039671,-573.4934534498958,-1209.0203133543735
415566.0,11815.0,415566.0,42100.0,415566.0,62670.0,-930.6582759755083,-555.87867148989,-1174.6157815099073
415566.0,11836.0,415566.0,42184.0,415566.0,62714.0,-913.1629172686401,-537.4313740575806,-1138.53463873876
415566.0,11872.0,415566.0,42165.0,415566.0,62764.0,-894.6449821982562,-518.1678812629983,-1100.805579728823
415566.0,11884.0,415566.0,42161.0,415566.0,62804.0,-875.116538511564,-498.10652788512846,-1061.4629733222782
415566.0,11891.0,415566.0,42174.0,415566.0,62819.0,-854.5927552155811,-477.26780734001795,-1020.5466712939045
415577.0,11914.0,415577.0,42213.0,415577.0,62865.0,-833.0919407547419,-455.67486126911825,-978.1020940918274
415577.0,11935.0,415577.0,42224.0,415577.0,62907.0,-810.6357126719412,-433.3537211285057,-934.1804971295232
415577.0,11963.0,415577.0,42232.0,415577.0,62972.0,-787.2490957839548,-410.33332328406743,-888.8391186642648
415577.0,11987.0,415577.0,42287.0,415577.0,63075.0,-762.9605076924233,-386.64557199028377,-842.1409607027294
415577.0,12042.0,415577.0,42331.0,415577.0,63088.0,-737.801642959314,-362.3252772973294,-794.154180841246
415577.0,12076.0,415577.0,42346.0,415577.0,63136.0,-711.8071740771916,-337.40977257601145,-744.9515463147123
415587.0,12082.0,415587.0,42370.0,415587.0,63228.0,-685.0143491576489,-311.9385282584284,-694.6102961272708
415587.0,12125.0,415587.0,42394.0,415587.0,63288.0,-657.4627806790957,-285.95305807340696,-643.2119778562493
415587.0,12182.0,415587.0,42483.0,415587.0,63347.0,-629.1943795663166,-259.4968594868036,-590.8419469989591
415587.0,12208.0,415587.0,42516.0,415587.0,63424.0,-600.2530832161227,-232.6149438099622,-537.588833826702
415587.0,12236.0,415587.0,42505.0,415587.0,63503.0,-570.6844408714963,-205.35311646867444,-483.54407414685784
415587.0,12256.0,415587.0,42532.0,415587.0,63541.0,-540.5354090727666,-177.7577041617498,-428.80138980105176
415597.0,12295.0,415597.0,42541.0,415597.0,63602.0,-509.8543921374036,-149.8758792052784,-373.4564122405592
415597.0,12330.0,415597.0,42576.0,415597.0,63669.0,-478.69129948897603,-121.75609588939909,-317.6065756614879
415597.0,12375.0,415597.0,42598.0,415597.0,63754.0,-447.0974624382596,-93.4483519679643,-261.3509932804684
415597.0,12412.0,415597.0,42688.0,415597.0,63848.0,-415.1254128455586,-65.00417859104323,-204.79001003655412
415597.0,12456.0,415597.0,42738.0,415597.0,63878.0,-382.8285989027822,-36.47615064077081,-148.02451148322496
415597.0,12500.0,415597.0,42747.0,415597.0,63971.0,-350.26108085669705,-7.917035205657044,-91.15536608256923
415608.0,12535.0,415608.0,42791.0,415608.0,64063.0,-317.47721506243613,20.620834600660828,-34.28303406494274
415608.0,12591.0,415608.0,42856.0,415608.0,64127.0,-284.53133676041773,49.08582658929083,22.4930206311019
415608.0,12619.0,415608.0,42901.0,415608.0,64196.0,-251.47743172318218,77.42741876259083,79.07507001902513
415608.0,12651.0,415608.0,42903.0,415608.0,64251.0,-218.36884965433978,105.59681732378363,135.3676563201111
415608.0,12683.0,415608.0,42923.0,415608.0,64303.0,-185.25817699088282,133.54726496687402,191.2778450522908
415608.0,12720.0,415608.0,42928.0,415608.0,64351.0,-152.19723702418685,161.2338285357792,246.71526885070648
415618.0,12750.0,415618.0,42949.0,415618.0,64428.0,-119.23708813976418,188.61293470187678,301.5920702670778
415618.0,12788.0,415618.0,42975.0,415618.0,64478.0,-86.42799218587686,215.6419303490132,355.82293873269623
415618.0,12830.0,415618.0,43025.0,415618.0,64548.0,-53.81935131437069,242.278851219977,409.3253011990282
415618.0,12870.0,415618.0,43066.0,415618.0,64595.0,-21.45956107090069,268.48253782431175,462.01954779883454
415618.0,12904.0,415618.0,43095.0,415618.0,64673.0,10.604213771754985,294.21303116103786,513.829240563849
415618.0,12932.0,415618.0,43112.0,415618.0,64697.0,42.32623494824884,319.43195614864294,564.6813178979853
415628.0,12991.0,415628.0,43142.0,415628.0,64784.0,73.66232917545119,344.10267954023436,614.5062487146811
415628.0,13041.0,415628.0,43238.0,415628.0,64838.0,104.57014488848858,368.19046212677745,663.238209437179
415628.0,13057.0,415628.0,43229.0,415628.0,64891.0,135.0095954502998,391.6629868709796,710.8154156331871
415628.0,13082.0,415628.0,43231.0,415628.0,64954.0,164.94318867092363,414.49096053554354,757.1805011356776
415628.0,13103.0,415628.0,43231.0,415628.0,64963.0,194.3360132307928,436.64810583350004,802.2807543982858
415628.0,13125.0,415628.0,43263.0,415628.0,65026.0,223.15552690905486,458.11064016608157,846.0681127596088
415639.0,13157.0,415639.0,43297.0,415639.0,65048.0,251.37134607748828,478.85689141888736,888.4989750163068
415639.0,13190.0,415639.0,43305.0,415639.0,65091.0,278.95513465870977,498.8672944397316,929.5340058848885
415639.0,13219.0,415639.0,43342.0,415639.0,65151.0,305.88063401213583,518.1245382005184,969.1380187681209
415639.0,13245.0,415639.0,43407.0,415639.0,65199.0,332.12376991001247,536.6137934473267,1007.28004941112
415639.0,13274.0,415639.0,43350.0,415639.0,65210.0,357.6627423417551,554.3230902039878,1043.9335973061723
415639.0,13294.0,415639.0,43382.0,415639.0,65249.0,382.47807666766107,571.2434347941834,1079.076705986989
415649.0,13319.0,415649.0,43418.0,415649.0,65287.0,406.5526388544963,587.368484636971,1112.6918041500073
415649.0,13367.0,415649.0,43423.0,415649.0,65331.0,429.87167006698576,602.6943679886688,1144.7656159246828
415649.0,13361.0,415649.0,43425.0,415649.0,65344.0,452.4229160501757,617.2197945486623,1175.289246101014
415649.0,13376.0,415649.0,43402.0,415649.0,65366.0,474.1966878621554,630.9459531529101,1204.258203974691
415649.0,13380.0,415649.0,43410.0,415649.0,65374.0,495.1856357966494,643.8760164915608,1231.6721920643681
415649.0,13404.0,415649.0,43409.0,415649.0,65391.0,515.3843643097719,656.0145138803493,1257.534720565997
415659.0,13434.0,415659.0,43428.0,415659.0,65411.0,534.7891735409719,667.366865432492,1281.852691248147
415659.0,13440.0,415659.0,43463.0,415659.0,65440.0,553.3980227246468,677.9392272483971,1304.636088298256
415659.0,13470.0,415659.0,43470.0,415659.0,65470.0,571.210586099374,687.7386676895245,1325.8978750676238
415659.0,13481.0,415659.0,43484.0,415659.0,65458.0,588.2282880560838,696.7734944269731,1345.6540154504073
415659.0,13485.0,415659.0,43459.0,415659.0,65482.0,604.4543053963857,705.0534143113583,1363.9233685421514
415659.0,13493.0,415659.0,43465.0,415659.0,65490.0,619.8934617813588,712.5893558035832,1380.7274074982902
415670.0,13529.0,415670.0,43541.0,415670.0,65527.0,634.552046652346,719.3932349519687,1396.0900149542854
415670.0,13512.0,415670.0,43515.0,415670.0,65536.0,648.4377325123271,725.4781806122753,1410.0375162162727
415670.0,13544.0,415670.0,43515.0,415670.0,65516.0,661.5595458475229,730.8590323423057,1422.598769343284
415670.0,13548.0,415670.0,43481.0,415670.0,65515.0,673.9277943067846,735.5523941492933,1433.8049672419643
415670.0,13553.0,415670.0,43464.0,415670.0,65513.0,685.5540166332094,739.576101951248,1443.6891164440635
415670.0,13556.0,415670.0,43495.0,415670.0,65533.0,696.4509104968408,742.9485393215977,1452.2855355991478
415680.0,13571.0,415680.0,43460.0,415680.0,65519.0,706.6321771481053,745.6882137880888,1459.6295891620857
415680.0,13573.0,415680.0,43519.0,415680.0,65552.0,716.112387719146,747.8136619053836,1465.757580295821
415680.0,13575.0,415680.0,43472.0,415680.0,65559.0,724.9068990665567,749.3435428698693,1470.7067755417775
415680.0,13577.0,415680.0,43475.0,415680.0,65512.0,733.0317276215935,750.296699493297,1474.5154892566575
415680.0,13586.0,415680.0,43482.0,415680.0,65521.0,740.5033787319767,750.6919916562483,1477.2228785343127
415680.0,13607.0,415680.0,43511.0,415680.0,65541.0,747.3387524047328,750.5481647172389,1478.868479758627
415690.0,13602.0,415690.0,43491.0,415690.0,65548.0,753.5551997972245,749.8840538023968,1479.4920339544044
415690.0,13594.0,415690.0,43509.0,415690.0,65526.0,759.1705862281997,748.7188865939182,1479.1336603737313
415690.0,13607.0,415690.0,43510.0,415690.0,65464.0,764.2031881342407,747.0724674678572,1477.833792181504
415690.0,13586.0,415690.0,43446.0,415690.0,65500.0,768.671488156212,744.9652180728062,1475.632583556245
415690.0,13593.0,415690.0,43419.0,415690.0,65487.0,772.5939487181752,742.4177843196736,1472.569294859407
415690.0,13598.0,415690.0,43457.0,415690.0,65472.0,775.988777672811,739.4502394846924,1468.68211396717
415701.0,13599.0,415701.0,43459.0,415701.0,65480.0,778.8737947020095,736.0816436839712,1464.0081534656647
415701.0,13610.0,415701.0,43475.0,415701.0,65473.0,781.2664363384042,732.3303112025757,1458.5834079637907
415701.0,13600.0,415701.0,43461.0,415701.0,65478.0,783.1838079667998,728.2143074642397,1452.4428038903288
415701.0,13595.0,415701.0,43402.0,415701.0,65438.0,784.6426770101632,723.7516347130478,1445.620279901025
415701.0,13616.0,415701.0,43438.0,415701.0,65456.0,785.6593925831403,718.9599338058885,1438.1487146331604
415701.0,13625.0,415701.0,43502.0,415701.0,65453.0,786.2499172547668,713.8562621045045,1430.0598241587768
415711.0,13617.0,415711.0,43449.0,415711.0,65473.0,786.4300553885587,708.4576005572594,1421.3843215135034
415711.0,13619.0,415711.0,43419.0,415711.0,65434.0,786.2156529108827,702.7814883712213,1412.152286681644
415711.0,13599.0,415711.0,43379.0,415711.0,65422.0,785.622595980328,696.8458315515101,1402.393359512491
415711.0,13597.0,415711.0,43385.0,415711.0,65388.0,784.6666404266816,690.6681215174682,1392.1365522231372
415711.0,13591.0,415711.0,43379.0,415711.0,65373.0,783.3631706117765,684.2648383081857,1381.4098363588998
415711.0,13598.0,415711.0,43368.0,415711.0,65389.0,781.7270248200759,677.6512786422156,1370.2397946943609
415721.0,13600.0,415721.0,43408.0,415721.0,65391.0,779.7724797764001,670.8416605716271,1358.6516184722493
415721.0,13594.0,415721.0,43396.0,415721.0,65367.0,777.5133513150452,663.8494779260496,1346.6694390034152
415721.0,13594.0,415721.0,43330.0,415721.0,65357.0,774.963089316472,656.6878855218227,1334.3166103290298
415721.0,13576.0,415721.0,43354.0,415721.0,65344.0,772.1347834930068,649.3696067443499,1321.615745862512
415721.0,13590.0,415721.0,43375.0,415721.0,65354.0,769.0410957797716,641.9065958062583,1308.5887207449664
415721.0,13586.0,415721.0,43373.0,415721.0,65335.0,765.6942383086929,634.3101848322893,1295.2568375073683
415732.0,13577.0,415732.0,43357.0,415732.0,65303.0,762.1060592928454,626.5916040790414,1281.6410248133009
415732.0,13562.0,415732.0,43324.0,415732.0,65281.0,758.2880886960304,618.7622374481673,1267.7617893202191
415732.0,13560.0,415732.0,43283.0,415732.0,65265.0,754.2514279541159,610.8333660344508,1253.6389240318733
415732.0,13561.0,415732.0,43293.0,415732.0,65234.0,750.0066088481539,602.8155875494228,1239.2912011627398
415732.0,13554.0,415732.0,43294.0,415732.0,65239.0,745.5635668806904,594.7183706460597,1224.7361520894162
415732.0,13552.0,415732.0,43316.0,415732.0,65245.0,740.9316964372825,586.5501020047606,1209.9900349714533
415742.0,13554.0,415742.0,43320.0,415742.0,65214.0,736.1199145592175,578.3185570680051,1195.0680704244357
415742.0,13549.0,415742.0,43269.0,415742.0,65219.0,731.1367512372872,570.0314015468086,1179.9847302040116
415742.0,13534.0,415742.0,43264.0,415742.0,65197.0,725.9904416538255,561.6962762012412,1164.7539003191484
415742.0,13524.0,415742.0,43294.0,415742.0,65183.0,720.6889108170685,553.3205557125538,1149.3889869107034
415742.0,13549.0,415742.0,43298.0,415742.0,65192.0,715.2397049630974,544.9114168469819,1133.9030271802515
415742.0,13528.0,415742.0,43278.0,415742.0,65172.0,709.6500839841358,536.4763350702575,1118.3088838591377
415752.0,13532.0,415752.0,43266.0,415752.0,65178.0,703.927242259697,528.0234649966509,1102.619551125568
415752.0,13502.0,415752.0,43220.0,415752.0,65118.0,698.0784026669512,519.5615867036315,1086.8483914399656
415752.0,13486.0,415752.0,43190.0,415752.0,65096.0,692.1106702099764,511.09966014687444,1071.0090458650504
415752.0,13511.0,415752.0,43201.0,415752.0,65089.0,686.0307826497963,502.6461958406196,1055.115035653676
415752.0,13503.0,415752.0,43215.0,415752.0,65079.0,679.8450756320111,494.20889888067444,1039.1794614348207
415752.0,13489.0,415752.0,43180.0,415752.0,65055.0,673.559714712266,485.7947965058591,1023.2150080071267
415763.0,13491.0,415763.0,43184.0,415763.0,65047.0,667.1808743268464,477.41044825332096,1007.2340317095607
415763.0,13479.0,415763.0,43183.0,415763.0,65053.0,660.7147643458761,469.06197337203,991.2486429384135
415763.0,13475.0,415763.0,43183.0,415763.0,65028.0,654.1676416218903,460.75512193660023,975.2709149512299
415763.0,13479.0,415763.0,43195.0,415763.0,65049.0,647.5458528790183,452.4955331455414,959.3132064203214
415763.0,13467.0,415763.0,43209.0,415763.0,65028.0,640.8559289778492,444.28914418688043,943.3885406771448
415763.0,13468.0,415763.0,43184.0,415763.0,64994.0,634.1047121368173,436.14267865276605,927.5109542225921
415773.0,13454.0,415773.0,43166.0,415773.0,64969.0,627.2994470919028,428.0639552689418,911.6955570661859
415773.0,13466.0,415773.0,43150.0,415773.0,64967.0,620.4478501387493,420.061822441134,895.958306463087
415773.0,13426.0,415773.0,43094.0,415773.0,64908.0,613.5581760596876,412.14579931448804,880.3157687876036
415773.0,13419.0,415773.0,43096.0,415773.0,64893.0,606.6391531687772,404.32551008465515,864.7848326041329
415773.0,13425.0,415773.0,43106.0,415773.0,64890.0,599.6997619253822,396.610146011318,849.3823116932163
415773.0,13422.0,415773.0,43081.0,415773.0,64882.0,592.7491340855462,389.0083029080731,834.124751166729
415783.0,13402.0,415783.0,43103.0,415783.0,64868.0,585.7966651934768,381.5281128658574,819.0285636246892
415783.0,13405.0,415783.0,43101.0,415783.0,64867.0,578.8520992958921,374.1774614878069,804.1102641138319
415783.0,13392.0,415783.0,43075.0,415783.0,64847.0,571.9255147449701,366.9642620371267,789.3866778834969
415783.0,13397.0,415783.0,43081.0,415783.0,64839.0,565.0273402926182,359.89661422325406,774.8751123060894
415783.0,13389.0,415783.0,43062.0,415783.0,64839.0,558.168447695496,352.9827765379491,760.5934984860157
415783.0,13368.0,415783.0,43056.0,415783.0,64793.0,551.3602476391776,346.23110365723056,746.5605161603006
415794.0,13350.0,415794.0,43023.0,415794.0,64758.0,544.6146408984168,339.6499365004702,732.7955171515874
415794.0,13348.0,415794.0,43012.0,415794.0,64724.0,537.9437980574428,333.24733337414256,719.318062612979
415794.0,13326.0,415794.0,43026.0,415794.0,64721.0,531.3599313293087,327.03075121434506,706.1473001003908
415794.0,13313.0,415794.0,42974.0,415794.0,64717.0,524.8751127246525,321.00686487671106,693.3015886371768
415794.0,13328.0,415794.0,43015.0,415794.0,64685.0,518.5011118699417,315.1814615002784,680.7984561528222
415794.0,13313.0,415794.0,43018.0,415794.0,64694.0,512.2493765335763,309.55945020470347,668.6546438336053
415804.0,13293.0,415804.0,42988.0,415804.0,64679.0,506.131129171604,304.1451366872552,656.8861376555094
415804.0,13284.0,415804.0,42985.0,415804.0,64650.0,500.15732211111265,298.9424367398228,645.5082351255423
415804.0,13289.0,415804.0,43001.0,415804.0,64647.0,494.3384591041014,293.9548201012496,634.5355232667875
415804.0,13300.0,415804.0,43023.0,415804.0,64637.0,488.6845702665768,289.18539735466396,623.981759257018
415804.0,13271.0,415804.0,42994.0,415804.0,64628.0,483.20539875109773,284.63732784149846,613.8598374075987
415804.0,13263.0,415804.0,43000.0,415804.0,64606.0,477.91050943597935,280.3141599336955,604.1818218001935
415815.0,13252.0,415815.0,42937.0,415815.0,64574.0,472.8091472996692,276.2197757161202,594.9588478638716
415815.0,13249.0,415815.0,42938.0,415815.0,64587.0,467.9100252829468,272.35792377531493,586.2008560765962
415815.0,13240.0,415815.0,42932.0,415815.0,64572.0,463.2212113346122,268.7315909152402,577.9163942077946
415815.0,13231.0,415815.0,42946.0,415815.0,64571.0,458.7500759104434,265.3426396901806,570.1126456319014
415815.0,13236.0,415815.0,42960.0,415815.0,64564.0,454.50324704918046,262.1918937967076,562.7955478469288
415815.0,13224.0,415815.0,42951.0,415815.0,64561.0,450.48660516728853,259.27948508212194,555.9698896597437
415825.0,13225.0,415825.0,42918.0,415825.0,64551.0,446.7053173583424,256.6051059649814,549.639394938343
415825.0,13220.0,415825.0,42940.0,415825.0,64544.0,443.1638644612483,254.1679325093693,543.8067684898991
415825.0,13230.0,415825.0,42962.0,415825.0,64562.0,439.8660910854455,251.9665075533706,538.473736322049
415825.0,13222.0,415825.0,42969.0,415825.0,64519.0,436.8153310638305,249.99901294504923,533.6411368623025
415825.0,13221.0,415825.0,42949.0,415825.0,64543.0,434.0145535671416,248.26375486621058,529.3089517738962
415825.0,13201.0,415825.0,42916.0,415825.0,64492.0,431.46641037129365,246.7593260130353,525.4761792022475
415835.0,13177.0,415835.0,42927.0,415835.0,64497.0,429.17308299586915,245.4842949315191,522.1405676673323
415835.0,13190.0,415835.0,42885.0,415835.0,64512.0,427.1359539149826,244.43673016071241,519.2983158706393
415835.0,13192.0,415835.0,42887.0,415835.0,64530.0,425.35535878579753,243.61375148926427,516.9440521677518
415835.0,13186.0,415835.0,42942.0,415835.0,64516.0,423.8306038111019,243.01122374565136,515.0711808487911
415835.0,13201.0,415835.0,42954.0,415835.0,64505.0,422.56011061315183,242.62397974724746,513.6721906532913
415835.0,13192.0,415835.0,42948.0,415835.0,64530.0,421.5415631694103,242.4465442061863,512.7387010967279
415846.0,13196.0,415846.0,42908.0,415846.0,64499.0,420.7720467405851,242.47363223764717,512.2614552913378
415846.0,13188.0,415846.0,42959.0,415846.0,64536.0,420.24812220005583,242.70009075199275,512.2303789309061
415846.0,13196.0,415846.0,42928.0,415846.0,64527.0,419.9658338342777,243.1207584725888,512.6346996660445
415846.0,13192.0,415846.0,42952.0,415846.0,64514.0,419.9207256025031,243.73056044555466,513.4631170750192
415846.0,13186.0,415846.0,42920.0,415846.0,64503.0,420.1078720547391,244.5246004333436,514.7038090627892
415846.0,13178.0,415846.0,42894.0,415846.0,64510.0,420.5218410799868,245.49799434414268,516.3441941049322
415856.0,13186.0,415856.0,42893.0,415856.0,64491.0,421.156576502563,246.64539628872663,518.3706723297064
415856.0,13186.0,415856.0,42881.0,415856.0,64511.0,422.00532212652865,247.9604299190737,520.7684490576156
415856.0,13206.0,415856.0,42951.0,415856.0,64535.0,423.06068861065546,249.43542997098152,523.5215039756437
415856.0,13193.0,415856.0,42944.0,415856.0,64520.0,424.3148370834092,251.06176742090167,526.612801538754
415856.0,13194.0,415856.0,42913.0,415856.0,64511.0,425.7596279564327,252.8304549435223,530.0244982447965
415856.0,13177.0,415856.0,42964.0,415856.0,64541.0,427.3865854337606,254.73242582841866,533.7379044857611
415866.0,13182.0,415866.0,42928.0,415866.0,64515.0,429.18669821785954,256.7585473525952,537.7334039229504
415866.0,13210.0,415866.0,42956.0,415866.0,64572.0,431.1502671551039,258.8997007889676,541.9905212195835
415866.0,13205.0,415866.0,42962.0,415866.0,64576.0,433.26701665110556,261.14688989425525,546.4881934038384
415866.0,13208.0,415866.0,42923.0,415866.0,64539.0,435.5263710064171,263.49131543439483,551.2051544530002
415866.0,13202.0,415866.0,42912.0,415866.0,64539.0,437.9176025637652,265.9242136663569,556.1199703455089
415866.0,13207.0,415866.0,42900.0,415866.0,64549.0,440.42980141394435,268.43632145165975,561.2106281297044
415877.0,13200.0,415877.0,42919.0,415877.0,64560.0,443.0517945013628,271.0173244648697,566.4542119429716
415877.0,13205.0,415877.0,42914.0,415877.0,64545.0,445.77206507608514,273.6556287875454,571.8268670444445
415877.0,13224.0,415877.0,42992.0,415877.0,64584.0,448.578719400355,276.3385290778227,577.3038259479945
415877.0,13212.0,415877.0,42958.0,415877.0,64606.0,451.45957191232986,279.0527777350854,582.8595459950037
415877.0,13236.0,415877.0,42967.0,415877.0,64608.0,454.40229256675786,281.78520940772296,588.4681129667335
415877.0,13221.0,415877.0,42971.0,415877.0,64614.0,457.39452567775083,284.52296592908993,594.103666687502
415887.0,13230.0,415887.0,43011.0,415887.0,64645.0,460.4239543524741,287.2535366157809,599.7406369604735
415887.0,13253.0,415887.0,43006.0,415887.0,64676.0,463.47834126990415,289.9650595581213,605.3540335127107
415887.0,13243.0,415887.0,42990.0,415887.0,64637.0,466.54566357720637,292.646720382134,610.919889932654
415887.0,13228.0,415887.0,42997.0,415887.0,64623.0,469.61425527805983,295.2888441192425,616.4154030200523
415887.0,13238.0,415887.0,42949.0,415887.0,64620.0,472.6727207261987,297.8826380337267,621.8184991678628
415887.0,13239.0,415887.0,42948.0,415887.0,64620.0,475.7097329301987,300.4196848860608,627.107235284441
415897.0,13228.0,415897.0,42952.0,415897.0,64642.0,478.7139315537539,302.8913245358833,632.2594660278173
415897.0,13246.0,415897.0,42990.0,415897.0,64707.0,481.6738663393843,305.28831878855186,637.2529561519533
415897.0,13260.0,415897.0,43003.0,415897.0,64686.0,484.5780004896291,307.60107297009415,642.0659852240287
415897.0,13259.0,415897.0,42996.0,415897.0,64669.0,487.4148897269888,309.82016560972585,646.6779759220107
415897.0,13258.0,415897.0,42974.0,415897.0,64672.0,490.17340383817543,311.9366704867289,651.069549611408
415897.0,13268.0,415897.0,43011.0,415897.0,64686.0,492.84281703059315,313.9421033732657,655.2222122353207
415908.0,13270.0,415908.0,43013.0,415908.0,64729.0,495.412844359971,315.8283843368015,659.1182964727823
415908.0,13263.0,415908.0,43022.0,415908.0,64691.0,497.8737014759365,317.58808907639803,662.7412862331396
415908.0,13278.0,415908.0,42978.0,415908.0,64702.0,500.2161313531708,319.21467587544726,666.0760747890342
415908.0,13262.0,415908.0,42993.0,415908.0,64678.0,502.43139832377653,320.70232818749173,669.1088312608827
415908.0,13256.0,415908.0,42993.0,415908.0,64694.0,504.51123352032334,322.0455911541444,671.8266722410713
415908.0,13251.0,415908.0,42995.0,415908.0,64695.0,506.44765106434204,323.2391968706243,674.2174445886837
415918.0,13262.0,415918.0,42979.0,415918.0,64712.0,508.2327243131888,324.2780623876527,676.2697311167994
415918.0,13280.0,415918.0,42997.0,415918.0,64725.0,509.85854098651964,325.15723801182526,677.9730593270612
415918.0,13277.0,415918.0,43014.0,415918.0,64701.0,511.3174001637642,325.871901182839,679.3181678488646
415918.0,13269.0,415918.0,42966.0,415918.0,64678.0,512.602051058037,326.41748715365827,680.2970374791696
415918.0,13279.0,415918.0,42983.0,415918.0,64708.0,513.7057673933513,326.789657118172,680.9026001007028
415918.0,13286.0,415918.0,42984.0,415918.0,64710.0,514.6223507080755,326.9840371516122,681.1285365527493
415928.0,13278.0,415928.0,43013.0,415928.0,64697.0,515.3462206503092,326.9961510609995,680.9694065287915
415928.0,13276.0,415928.0,43031.0,415928.0,64703.0,515.8725013967335,326.82176382367135,680.4207990509877
415928.0,13264.0,415928.0,42991.0,415928.0,64697.0,516.1969728325091,326.4573665994432,679.4793235834134
415928.0,13261.0,415928.0,42994.0,415928.0,64705.0,516.3159109342564,325.9003460874012,678.1425977498504
415928.0,13261.0,415928.0,42971.0,415928.0,64684.0,516.2259105846509,325.14871893876114,676.4092803327305
415928.0,13254.0,415928.0,42958.0,415928.0,64676.0,515.9237658179877,324.2007126079633,674.2790201103544
415939.0,13276.0,415939.0,42948.0,415939.0,64677.0,515.4064480818153,323.05435460818455,671.7522780766463
415939.0,13267.0,415939.0,42976.0,415939.0,64675.0,514.6712210680657,321.7071673717683,668.8301809039631
415939.0,13273.0,415939.0,43022.0,415939.0,64657.0,513.7158436397656,320.15627840964686,665.5144865822269
415939.0,13250.0,415939.0,42998.0,415939.0,64687.0,512.5386868989901,318.3990470321132,661.8075933899298
415939.0,13253.0,415939.0,42993.0,415939.0,64656.0,511.1386663039765,316.4337017866807,657.712626540372
415939.0,13278.0,415939.0,42993.0,415939.0,64684.0,509.5151426895164,314.25952121133787,653.2336105165002
415949.0,13257.0,415949.0,43007.0,415949.0,64661.0,507.6680269755386,311.87679068221615,648.3756440156643
415949.0,13255.0,415949.0,42970.0,415949.0,64646.0,505.59797727795984,309.2868490523594,643.1450105864732
415949.0,13231.0,415949.0,42945.0,415949.0,64613.0,503.30638486461964,306.49200246286523,637.5490649155946
415949.0,13225.0,415949.0,42914.0,415949.0,64602.0,500.79512869682446,303.49503410674066,631.5958338490855
415949.0,13237.0,415949.0,42941.0,415949.0,64591.0,498.0663130266013,300.2985506981194,625.2935504737468
415949.0,13225.0,415949.0,42937.0,415949.0,64554.0,495.12218833821595,296.9046633967698,618.650284923463
415959.0,13224.0,415959.0,42950.0,415959.0,64599.0,491.9652272338816,293.3151386953563,611.6736837891592
415959.0,13222.0,415959.0,42949.0,415959.0,64610.0,488.59818519694727,289.53174599726736,604.3710445273398
415959.0,13220.0,415959.0,42957.0,415959.0,64553.0,485.0241360315536,285.55658933185595,596.7497731844312
415959.0,13198.0,415959.0,42988.0,415959.0,64610.0,481.24650212441856,281.3924696881173,588.817731406616
415959.0,13217.0,415959.0,42943.0,415959.0,64578.0,477.2690268109458,277.043316341539,580.5834016574163
415959.0,13207.0,415959.0,42955.0,415959.0,64560.0,473.09578182403607,272.5144482781449,572.0561354876537
415970.0,13196.0,415970.0,42946.0,415970.0,64552.0,468.7312805323154,267.8125421366316,563.2462498267932
415970.0,13190.0,415970.0,42906.0,415970.0,64514.0,464.1805389835795,262.9454967235584,554.1648333763787
415970.0,13169.0,415970.0,42883.0,415970.0,64499.0,459.44898949067874,257.9221392460049,544.8234206204568
415970.0,13157.0,415970.0,42876.0,415970.0,64476.0,454.5422911185782,252.7516758713258,535.233589759752
415970.0,13156.0,415970.0,42840.0,415970.0,64478.0,449.46609760918784,247.44313120355378,525.40661169297
415970.0,13156.0,415970.0,42857.0,415970.0,64467.0,444.22592017459374,242.00493423479935,515.3533115690243
415980.0,13157.0,415980.0,42905.0,415980.0,64479.0,438.8271821138289,236.4448123805409,505.08416480505343
415980.0,13140.0,415980.0,42863.0,415980.0,64442.0,433.27536995807856,230.77019974398752,494.60951591144726
415980.0,13122.0,415980.0,42845.0,415980.0,64444.0,427.5760846651835,224.98871615970452,483.9397113361965
415980.0,13123.0,415980.0,42844.0,415980.0,64421.0,421.7349198299218,219.10814405857303,473.0850690877955
415980.0,13133.0,415980.0,42870.0,415980.0,64421.0,415.75736100427935,213.13622669851173,462.05582241058164
415980.0,13117.0,415980.0,42859.0,415980.0,64422.0,409.64889617454105,207.08083188660362,450.8621707404683
415990.0,13112.0,415990.0,42823.0,415990.0,64400.0,403.4152036494515,200.95028261484896,439.51445379518316
415990.0,13094.0,415990.0,42760.0,415990.0,64358.0,397.0622026643086,194.75323711807494,428.0232521634985
415990.0,13086.0,415990.0,42810.0,415990.0,64349.0,390.59596449061604,188.49803308915838,416.39917323286085
415990.0,13094.0,415990.0,42792.0,415990.0,64323.0,384.0226194473212,182.1922061000912,404.6524475824572
415990.0,13073.0,415990.0,42771.0,415990.0,64328.0,377.3483769913399,175.84255634999056,392.79264715183825
415990.0,13063.0,415990.0,42787.0,415990.0,64332.0,370.5795858332752,169.4553020888296,380.8286766326834
416000.0,13063.0,416000.0,42799.0,416000.0,64331.0,363.7227043572683,163.03616771484553,368.76905598366767
416000.0,13038.0,416000.0,42784.0,416000.0,64307.0,356.7842357778494,156.59067346973984,356.6223237810978
416000.0,13037.0,416000.0,42759.0,416000.0,64286.0,349.77066425038265,150.12443226448966,344.3972575639045
416000.0,13023.0,416000.0,42759.0,416000.0,64291.0,342.68836136790395,143.64313168150318,332.1028522020421
416000.0,13023.0,416000.0,42810.0,416000.0,64274.0,335.5435275923843,137.15247416990974,319.74830694001747
416000.0,13019.0,416000.0,42761.0,416000.0,64261.0,328.3422271003253,130.6584961791586,307.34313819598964
416010.0,13000.0,416010.0,42721.0,416010.0,64233.0,321.0904753651912,124.16789772544931,294.89724579812537
416010.0,12995.0,416010.0,42699.0,416010.0,64200.0,313.79427404422523,117.68773055581292,282.42077247301563
416010.0,12972.0,416010.0,42691.0,416010.0,64173.0,306.45953833211604,111.22466325602349,269.9237420983503
416010.0,12955.0,416010.0,42665.0,416010.0,64158.0,299.09193277587053,104.78441198196478,257.41559781582566
416010.0,12955.0,416010.0,42700.0,416010.0,64153.0,291.69665583389286,98.37148231227664,244.90486026727336
416010.0,12970.0,416010.0,42709.0,416010.0,64144.0,284.2783490593149,91.98928275079882,232.39904326189765
416021.0,12951.0,416021.0,42719.0,416021.0,64152.0,276.8412784689,85.64065222694154,219.90480231206516
416021.0,12932.0,416021.0,42680.0,416021.0,64120.0,269.3895734294739,79.32843720666295,207.42819638976937
416021.0,12935.0,416021.0,42683.0,416021.0,64115.0,261.92725376512897,73.05568119101846,194.97487447588333
416021.0,12930.0,416021.0,42704.0,416021.0,64133.0,254.4581744658034,66.82554995096655,182.55017050978933
416021.0,12933.0,416021.0,42693.0,416021.0,64104.0,246.98612059159964,60.64145178011779,170.1593271348272
416021.0,12904.0,416021.0,42670.0,416021.0,64095.0,239.51498343826813,54.50733242181457,157.80779544317733
416031.0,12900.0,416031.0,42650.0,416031.0,64061.0,232.04880534734315,48.427719576049924,145.50131508133643
416031.0,12875.0,416031.0,42620.0,416031.0,64030.0,224.59164446296367,42.407401504614654,133.24570572854623
416031.0,12864.0,416031.0,42583.0,416031.0,64029.0,217.14735846588292,36.45088327428283,121.0465053502935
416031.0,12854.0,416031.0,42621.0,416031.0,64022.0,209.71938607883078,30.561814765225677,108.90871205066412
416031.0,12868.0,416031.0,42601.0,416031.0,63995.0,202.31063549949494,24.74274647817583,96.83677302775493
416031.0,12851.0,416031.0,42604.0,416031.0,64008.0,194.92358690552084,18.995293972177706,84.83466666517882
416041.0,12841.0,416041.0,42586.0,416041.0,63978.0,187.5604854874261,13.320332413350457,72.90598856771669
416041.0,12833.0,416041.0,42590.0,416041.0,63967.0,180.22341445848593,7.718024878069343,61.05403735965433
416041.0,12821.0,416041.0,42565.0,416041.0,63960.0,172.91425808384463,2.1877815176624154,49.28182119976657
416041.0,12827.0,416041.0,42643.0,416041.0,63981.0,165.63468620031335,-3.2716662649464183,37.592114419435916
416041.0,12813.0,416041.0,42617.0,416041.0,63935.0,158.38622492220242,-8.66178722091911,25.98771798301584
416041.0,12809.0,416041.0,42566.0,416041.0,63921.0,151.1703750251972,-13.983606009280663,14.471650472845795
416052.0,12774.0,416052.0,42563.0,416052.0,63870.0,143.98864236641168,-19.237654175770558,3.046941661316737
416052.0,12762.0,416052.0,42566.0,416052.0,63880.0,136.8423588669055,-24.42445966273442,-8.2838500059039
416052.0,12769.0,416052.0,42548.0,416052.0,63861.0,129.7323911461043,-29.544862483207623,-19.519013629803
416052.0,12784.0,416052.0,42518.0,416052.0,63851.0,122.65906663096064,-34.600116064743816,-30.65777575191737
416052.0,12757.0,416052.0,42600.0,416052.0,63881.0,115.62243246157482,-39.591970535351436,-41.70017278585942
416052.0,12761.0,416052.0,42549.0,416052.0,63901.0,108.62253350203946,-44.52242423739267,-52.64662506928698
416062.0,12747.0,416062.0,42521.0,416062.0,63854.0,101.6594969591846,-49.39328710164949,-63.49723075910424
416062.0,12725.0,416062.0,42545.0,416062.0,63832.0,94.73350657573673,-54.206187221292566,-74.25133406622479
416062.0,12730.0,416062.0,42565.0,416062.0,63827.0,87.84471293690609,-58.962737250323755,-84.9076734166947
416062.0,12716.0,416062.0,42534.0,416062.0,63804.0,80.9931426182423,-63.66428988875617,-95.46469065516351
416062.0,12715.0,416062.0,42515.0,416062.0,63784.0,74.17870533030822,-68.31166488801358,-105.92070991713217
416062.0,12705.0,416062.0,42482.0,416062.0,63769.0,67.4012585826465,-72.90535548855968,-116.27411573824077
416072.0,12680.0,416072.0,42478.0,416072.0,63739.0,60.66062665756783,-77.44606653141227,-126.52359926163865
416072.0,12670.0,416072.0,42475.0,416072.0,63729.0,53.95648485259807,-81.93519364601667,-136.66844021640918
416072.0,12678.0,416072.0,42479.0,416072.0,63719.0,47.28817173146615,-86.37501885467367,-146.70876602107433
416072.0,12674.0,416072.0,42500.0,416072.0,63727.0,40.65466414426476,-90.76859826249444,-156.645646375885
416072.0,12673.0,416072.0,42499.0,416072.0,63714.0,34.05476967608723,-95.11940652141448,-166.48095655981172
416072.0,12669.0,416072.0,42487.0,416072.0,63712.0,27.487366560556154,-99.43091808617692,-176.2171328493912
416083.0,12637.0,416083.0,42445.0,416083.0,63693.0,20.951537289016358,-103.7064550223119,-185.85698595007648
416083.0,12639.0,416083.0,42470.0,416083.0,63704.0,14.44650690408588,-107.94942065632955,-195.40359462873357
416083.0,12630.0,416083.0,42511.0,416083.0,63694.0,7.971475048712932,-112.16345755412601,-204.86016208690432
416083.0,12620.0,416083.0,42510.0,416083.0,63691.0,1.5255360715262327,-116.35201367258242,-214.22978236476
416083.0,12615.0,416083.0,42448.0,416083.0,63669.0,-4.892314810495691,-120.51769703120772,-223.51523810195795
416083.0,12604.0,416083.0,42436.0,416083.0,63633.0,-11.28318033202504,-124.66226876007926,-232.71900764776194
416093.0,12595.0,416093.0,42410.0,416093.0,63633.0,-17.6482750705311,-128.7873088443435,-241.8435320267322
416093.0,12594.0,416093.0,42416.0,416093.0,63620.0,-23.98894223299027,-132.89490286689676,-250.89152919002254
416093.0,12583.0,416093.0,42439.0,416093.0,63603.0,-30.30664092177284,-136.9879247111324,-259.8661389357152
416093.0,12582.0,416093.0,42428.0,416093.0,63628.0,-36.602893720452755,-141.06987467917332,-268.77091257732786
416093.0,12584.0,416093.0,42462.0,416093.0,63625.0,-42.87920062677949,-145.14446518902014,-277.60960274106867
416093.0,12562.0,416093.0,42429.0,416093.0,63577.0,-49.136921311099115,-149.21518869514716,-286.38582199001314
416103.0,12563.0,416103.0,42409.0,416103.0,63585.0,-55.37720862792685,-153.2850963996745,-295.10296276096426
416103.0,12554.0,416103.0,42450.0,416103.0,63583.0,-61.60102369579653,-157.35686657086353,-303.7643744547171
416103.0,12538.0,416103.0,42444.0,416103.0,63603.0,-67.80915560955611,-161.432767748424,-312.3733199765528
416103.0,12537.0,416103.0,42405.0,416103.0,63582.0,-74.00225182732879,-165.51435890277156,-320.93259829531144
416103.0,12523.0,416103.0,42408.0,416103.0,63543.0,-80.18087337452715,-169.60242228828554,-329.44423766583884
416103.0,12508.0,416103.0,42382.0,416103.0,63516.0,-86.3455525848048,-173.69727262614742,-337.9096520309936
416114.0,12499.0,416114.0,42354.0,416114.0,63501.0,-92.49689788280983,-177.7991572458473,-346.330183637857
416114.0,12487.0,416114.0,42398.0,416114.0,63502.0,-98.63574356865638,-181.9086055112415,-354.7076007682467
416114.0,12492.0,416114.0,42406.0,416114.0,63505.0,-104.76325149405784,-186.02644217707996,-363.04425709857117
416114.0,12491.0,416114.0,42392.0,416114.0,63502.0,-110.88087758475518,-190.15333716682971,-371.3429328695979
416114.0,12495.0,416114.0,42377.0,416114.0,63508.0,-116.99018293759013,-194.28939363286628,-379.6065298107725
416114.0,12482.0,416114.0,42359.0,416114.0,63467.0,-123.09258051727454,-198.43416283630484,-387.83781401300564
416124.0,12465.0,416124.0,42355.0,416124.0,63475.0,-129.1891813288422,-202.5869178776154,-396.0393766544629
416124.0,12479.0,416124.0,42377.0,416124.0,63499.0,-135.2807885938609,-206.74685035470645,-404.21367690590876
416124.0,12477.0,416124.0,42374.0,416124.0,63482.0,-141.3678496689035,-210.9129633158882,-412.36280671496047
416124.0,12454.0,416124.0,42369.0,416124.0,63454.0,-147.45027056941444,-215.0837475565009,-420.4881150088959
416124.0,12434.0,416124.0,42321.0,416124.0,63418.0,-153.52734605286986,-219.25702580199044,-428.5902073016616
416124.0,12425.0,416124.0,42310.0,416124.0,63447.0,-159.59796514040494,-223.4302441014829,-436.6693125702898
416134.0,12423.0,416134.0,42295.0,416134.0,63396.0,-165.6608796100159,-227.60106074519842,-444.72555597386145
416134.0,12414.0,416134.0,42311.0,416134.0,63435.0,-171.714814911701,-231.76780780293456,-452.7589957473564
416134.0,12409.0,416134.0,42337.0,416134.0,63367.0,-177.7584498537742,-235.9295177504331,-460.76961044962957
416134.0,12405.0,416134.0,42327.0,416134.0,63397.0,-183.79036831318444,-240.08552333372677,-468.7573782263262
416134.0,12378.0,416134.0,42297.0,416134.0,63390.0,-189.80904372694073,-244.23502533310722,-476.72237118964404
416134.0,12387.0,416134.0,42289.0,416134.0,63370.0,-195.81290700570224,-248.37707144767575,-484.6646706417197
416145.0,12362.0,416145.0,42343.0,416145.0,63367.0,-201.80045542250036,-252.51074598174404,-492.58422658979714
416145.0,12380.0,416145.0,42302.0,416145.0,63372.0,-207.7702972954462,-256.6350178914941,-500.48082345223463
416145.0,12356.0,416145.0,42295.0,416145.0,63344.0,-213.72110215914137,-260.74839900301237,-508.3540224435757
416145.0,12321.0,416145.0,42272.0,416145.0,63303.0,-219.65159408489677,-264.84896693707043,-516.2031899297064
416145.0,12314.0,416145.0,42249.0,416145.0,63286.0,-225.56080877890957,-268.93474874248244,-524.0278849698219
416145.0,12322.0,416145.0,42237.0,416145.0,63297.0,-231.4484809335096,-273.00419411930824,-531.8284057158736
416155.0,12316.0,416155.0,42245.0,416155.0,63283.0,-237.31517330769424,-277.0565804407858,-539.6060413684221
416155.0,12322.0,416155.0,42266.0,416155.0,63290.0,-243.1621090953965,-281.09212903531073,-547.3629770618402
416155.0,12324.0,416155.0,42253.0,416155.0,63284.0,-248.99090791493865,-285.11175382726594,-555.102084367472
416155.0,12306.0,416155.0,42236.0,416155.0,63284.0,-254.80333264289538,-289.1167519613065,-562.8266965118007
416155.0,12296.0,416155.0,42236.0,416155.0,63262.0,-260.60116239735964,-293.1087601797355,-570.5404188159104
416155.0,12295.0,416155.0,42247.0,416155.0,63263.0,-266.3862341156696,-297.08984941961313,-578.2470612731596
416165.0,12308.0,416165.0,42257.0,416165.0,63257.0,-272.1604563712974,-301.0624277129439,-585.9506445837588
416165.0,12285.0,416165.0,42262.0,416165.0,63257.0,-277.925649665861,-305.0288987093882,-593.6553378661129
416165.0,12282.0,416165.0,42270.0,416165.0,63253.0,-283.68337908286367,-308.9912437179892,-601.3652995868617
416165.0,12275.0,416165.0,42211.0,416165.0,63255.0,-289.4349391217744,-312.95076194753545,-609.0844762197808
416165.0,12246.0,416165.0,42191.0,416165.0,63211.0,-295.18143602418263,-316.90828053753637,-616.8164596902474
416165.0,12239.0,416165.0,42190.0,416165.0,63197.0,-300.92396350357603,-320.8648100509449,-624.5646038289248
416176.0,12234.0,416176.0,42192.0,416176.0,63206.0,-306.66385565260873,-324.8221030402739,-632.3323693637432
416176.0,12256.0,416176.0,42224.0,416176.0,63230.0,-312.40278831205444,-328.7827169768201,-640.1234480763895
416176.0,12240.0,416176.0,42201.0,416176.0,63210.0,-318.14258112839207,-332.74967660088663,-647.941425191265
416176.0,12243.0,416176.0,42210.0,416176.0,63178.0,-323.88488036068964,-336.7260897646643,-655.7893927207583
416176.0,12223.0,416176.0,42217.0,416176.0,63186.0,-329.6309733243254,-340.7149271426163,-663.6699447084968
416176.0,12214.0,416176.0,42206.0,416176.0,63206.0,-335.38178906333667,-344.71885036238524,-671.5852952389057
416186.0,12212.0,416186.0,42238.0,416186.0,63172.0,-341.1379981925186,-348.73997513659367,-679.537108317978
416186.0,12215.0,416186.0,42192.0,416186.0,63182.0,-346.9000601019234,-352.77961383596846,-687.5262297867469
416186.0,12180.0,416186.0,42175.0,416186.0,63151.0,-352.6681790529276,-356.8382180240785,-695.5526227523144
416186.0,12183.0,416186.0,42178.0,416186.0,63118.0,-358.4423512870703,-360.915680786007,-703.6155166307782
416186.0,12170.0,416186.0,42155.0,416186.0,63101.0,-364.22254361633065,-365.01172158510735,-711.7137900404296
416186.0,12163.0,416186.0,42165.0,416186.0,63108.0,-370.00882540821533,-369.1260946122834,-719.8464418594937
416196.0,12161.0,416196.0,42139.0,416196.0,63120.0,-375.8014053976643,-373.2586975352573,-728.0127619284107
416196.0,12165.0,416196.0,42193.0,416196.0,63120.0,-381.600595585649,-377.4095786313493,-736.2120678641356
416196.0,12153.0,416196.0,42126.0,416196.0,63113.0,-387.40668198317667,-381.5787633836896,-744.443265026228
416196.0,12143.0,416196.0,42170.0,416196.0,63073.0,-393.2197952849932,-385.76608874750985,-752.7045858379267
416196.0,12132.0,416196.0,42148.0,416196.0,63064.0,-399.03990288990224,-389.9711665117046,-760.9937048031477
416196.0,12140.0,416196.0,42175.0,416196.0,63099.0,-404.86686357809583,-394.19325113119396,-769.3079945274562
416207.0,12140.0,416207.0,42169.0,416207.0,63068.0,-410.7003728327519,-398.43092502693577,-777.6444634354212
416207.0,12118.0,416207.0,42136.0,416207.0,63049.0,-416.5397907183741,-402.6818199433464,-785.9994845525077
416207.0,12093.0,416207.0,42134.0,416207.0,63015.0,-422.38409922217625,-406.9426314251962,-794.3688395939149
416207.0,12085.0,416207.0,42078.0,416207.0,63022.0,-428.2321428831624,-411.2094872020548,-802.7481007396896
416207.0,12071.0,416207.0,42074.0,416207.0,63002.0,-434.08297465386966,-415.47855625522783,-811.132953582763
416207.0,12080.0,416207.0,42075.0,416207.0,62945.0,-439.9360662076547,-419.7466861944863,-819.519412820822
416217.0,12072.0,416217.0,42110.0,416217.0,62996.0,-445.79130784352753,-424.0116744371545,-827.9041453428267
416217.0,12083.0,416217.0,42075.0,416217.0,62991.0,-451.6488425287887,-428.272033652524,-836.2846175170926
416217.0,12059.0,416217.0,42049.0,416217.0,62967.0,-457.50884943856465,-432.52674735489046,-844.6587773987959
416217.0,12050.0,416217.0,42084.0,416217.0,62969.0,-463.3714409127002,-436.7753941305748,-853.0247191841769
416217.0,12059.0,416217.0,42115.0,416217.0,62963.0,-469.236707230497,-441.01817507897056,-861.3806193746248
416217.0,12050.0,416217.0,42083.0,416217.0,62961.0,-475.10471492507907,-445.2554296222214,-869.7246816334208
416228.0,12039.0,416228.0,42102.0,416228.0,62939.0,-480.97538578275874,-449.4870950190559,-878.0550155197799
416228.0,12006.0,416228.0,42065.0,416228.0,62906.0,-486.84847913613976,-453.7125406299129,-886.3696636743432
416228.0,11996.0,416228.0,42029.0,416228.0,62905.0,-492.72383935165556,-457.9307526543241,-894.6668807272786
416228.0,11995.0,416228.0,42021.0,416228.0,62880.0,-498.60175876275036,-462.1408491217369,-902.9454899507358
416228.0,12000.0,416228.0,42030.0,416228.0,62883.0,-504.48315856504496,-466.34267219786676,-911.2051193850268
416228.0,11998.0,416228.0,42046.0,416228.0,62863.0,-510.3694844537125,-470.5369943982065,-919.44631342662
416238.0,11997.0,416238.0,42070.0,416238.0,62893.0,-516.2624647066837,-474.72521728884107,-927.6705198895598
416238.0,11984.0,416238.0,42023.0,416238.0,62870.0,-522.1639026870631,-478.90887025788686,-935.8798816945251
416238.0,11981.0,416238.0,42020.0,416238.0,62840.0,-528.0755785905518,-483.08940715192665,-944.0769950395814
416238.0,11967.0,416238.0,42009.0,416238.0,62863.0,-533.9992441928457,-487.268446438301,-952.2649031407155
416238.0,11972.0,416238.0,42037.0,416238.0,62874.0,-539.9366417348969,-491.448021770347,-960.4470988046633
416238.0,11956.0,416238.0,42059.0,416238.0,62854.0,-545.8894882029408,-495.6304138744623,-968.6272078965534
416248.0,11939.0,416248.0,42014.0,416248.0,62829.0,-551.8594694699312,-499.81766892892784,-976.8086652457671
416248.0,11932.0,416248.0,41994.0,416248.0,62798.0,-557.8483454293025,-504.0113821479829,-984.9948098801399
416248.0,11921.0,416248.0,41983.0,416248.0,62774.0,-563.858125591966,-508.21304399329586,-993.1893509079063
416248.0,11922.0,416248.0,41979.0,416248.0,62789.0,-569.8911815235236,-512.4245502862,-1001.3968740689439
416248.0,11908.0,416248.0,41982.0,416248.0,62784.0,-575.9502616530414,-516.6484653530135,-1009.6230468218706
416248.0,11918.0,416248.0,41975.0,416248.0,62806.0,-582.0384448041822,-520.8880401615861,-1017.8744125362487
416259.0,11912.0,416259.0,41979.0,416259.0,62809.0,-588.1590242668011,-525.1471290492245,-1026.1579172930913
416259.0,11888.0,416259.0,41991.0,416259.0,62786.0,-594.3153627863153,-529.4300514833551,-1034.4803977688491
416259.0,11892.0,416259.0,42009.0,416259.0,62779.0,-600.5108660980547,-533.7413096897094,-1042.8482991392798
416259.0,11903.0,416259.0,41999.0,416259.0,62777.0,-606.749014188028,-538.0851478471556,-1051.2676673084957
416259.0,11897.0,416259.0,42027.0,416259.0,62766.0,-613.0332073259667,-542.465100440833,-1059.7441724107975
416259.0,11878.0,416259.0,41990.0,416259.0,62748.0,-619.3664996147922,-546.8836389239701,-1068.2830804176883
416269.0,11865.0,416269.0,41954.0,416269.0,62749.0,-625.7515174360115,-551.3420946653102,-1076.8892779000123
416269.0,11854.0,416269.0,41935.0,416269.0,62732.0,-632.1906051922523,-555.8410766637976,-1085.567325490188
416269.0,11852.0,416269.0,41949.0,416269.0,62711.0,-638.686001961118,-560.3811208990579,-1094.3215075065623
416269.0,11846.0,416269.0,41954.0,416269.0,62715.0,-645.2399052996323,-564.9630066744164,-1103.1559403263564
416269.0,11830.0,416269.0,41929.0,416269.0,62705.0,-651.8544484346165,-569.5876650529831,-1112.0746604426508
416269.0,11833.0,416269.0,41963.0,416269.0,62689.0,-658.531689930561,-574.2560173215077,-1121.0816010041494
416279.0,11817.0,416279.0,41926.0,416279.0,62681.0,-665.2736218379388,-578.9688486869711,-1130.1805740821867
416279.0,11808.0,416279.0,41950.0,416279.0,62695.0,-672.0821739951689,-583.7266767040932,-1139.3752767514768
416279.0,11809.0,416279.0,41941.0,416279.0,62690.0,-678.9592366811072,-588.5296366710928,-1148.669134680205
416279.0,11818.0,416279.0,41944.0,416279.0,62700.0,-685.9066145366651,-593.3773232675835,-1158.0649466855953
416279.0,11805.0,416279.0,41960.0,416279.0,62661.0,-692.9258186053582,-598.268558077212,-1167.5645406148312
416279.0,11788.0,416279.0,41913.0,416279.0,62675.0,-700.0178502397985,-603.2011761018466,-1177.1686428364137
416290.0,11778.0,416290.0,41873.0,416290.0,62640.0,-707.1831832469969,-608.1721186749389,-1186.8769268816382
416290.0,11764.0,416290.0,41875.0,416290.0,62596.0,-714.4219057905266,-613.1780190229965,-1196.6881966902479
416290.0,11753.0,416290.0,41906.0,416290.0,62603.0,-721.7338783494757,-618.2157867807643,-1206.600801605089
416290.0,11757.0,416290.0,41879.0,416290.0,62611.0,-729.1188348759322,-623.2826350411659,-1216.6130322082834
416290.0,11752.0,416290.0,41894.0,416290.0,62604.0,-736.5763603721264,-628.3757847888286,-1226.7230882573851
416290.0,11740.0,416290.0,41883.0,416290.0,62607.0,-744.1057550150674,-633.4922657183936,-1236.9287381753595
416300.0,11721.0,416300.0,41879.0,416300.0,62595.0,-751.7059487647143,-638.6288135306006,-1247.2269959737996
416300.0,11723.0,416300.0,41857.0,416300.0,62567.0,-759.3755555229391,-643.7818395189781,-1257.6139472269026
416300.0,11718.0,416300.0,41865.0,416300.0,62580.0,-767.1129292655559,-648.9475251693327,-1268.084750503303
416300.0,11719.0,416300.0,41883.0,416300.0,62565.0,-774.916078508679,-654.1218678476314,-1278.633656532567
416300.0,11695.0,416300.0,41870.0,416300.0,62563.0,-782.7825099939492,-659.3004753284415,-1289.2538874134023
416300.0,11682.0,416300.0,41866.0,416300.0,62522.0,-790.7091918879058,-664.4782651214327,-1299.9375278283824
416310.0,11667.0,416310.0,41831.0,416310.0,62490.0,-798.692699311794,-669.6493884876083,-1310.675697637941
416310.0,11658.0,416310.0,41814.0,416310.0,62520.0,-806.7294188518006,-674.8074906142219,-1321.458949442585
416310.0,11659.0,416310.0,41796.0,416310.0,62512.0,-814.8156684744528,-679.9461938052983,-1332.2774198703169
416310.0,11666.0,416310.0,41820.0,416310.0,62539.0,-822.9476439192919,-685.0595185432375,-1343.1204697865624
416310.0,11654.0,416310.0,41826.0,416310.0,62489.0,-831.121187641505,-690.141930969867,-1353.9761375429102
416310.0,11636.0,416310.0,41835.0,416310.0,62476.0,-839.331556493568,-695.187992694807,-1364.830897376874
416321.0,11644.0,416321.0,41813.0,416321.0,62442.0,-847.5733461330068,-700.1919308365823,-1375.6698892960126
416321.0,11626.0,416321.0,41806.0,416321.0,62458.0,-855.8404711258398,-705.1474542950484,-1386.4773213712392
416321.0,11625.0,416321.0,41850.0,416321.0,62502.0,-864.1260916407667,-710.0477354959239,-1397.2365227970315
416321.0,11614.0,416321.0,41852.0,416321.0,62437.0,-872.4225395484976,-714.8851287856163,-1407.9294802600693
416321.0,11609.0,416321.0,41781.0,416321.0,62460.0,-880.7212643855665,-719.6507005779853,-1418.536378253669
416321.0,11580.0,416321.0,41791.0,416321.0,62414.0,-889.0128156211815,-724.3342555191014,-1429.0355648574425
416331.0,11585.0,416331.0,41763.0,416331.0,62399.0,-897.2869242386653,-728.9249095503335,-1439.4037736314908
416331.0,11575.0,416331.0,41784.0,416331.0,62387.0,-905.5326029876879,-733.4115666520725,-1449.6164384006502
416331.0,11571.0,416331.0,41802.0,416331.0,62375.0,-913.7381260021676,-737.782961653196,-1459.6479923954566
416331.0,11570.0,416331.0,41788.0,416331.0,62388.0,-921.890910400223,-742.0273443409258,-1469.4719744523484
416331.0,11557.0,416331.0,41803.0,416331.0,62378.0,-929.9773791716683,-746.1320845107425,-1479.060898575857
416331.0,11525.0,416331.0,41726.0,416331.0,62383.0,-937.9829069472777,-750.0835464192679,-1488.3859767624326
416341.0,11537.0,416341.0,41759.0,416341.0,62354.0,-945.8919421800856,-753.8674030407299,-1497.4168740641903
416341.0,11534.0,416341.0,41775.0,416341.0,62366.0,-953.6881281237445,-757.4690465329043,-1506.1216182484548
416341.0,11533.0,416341.0,41820.0,416341.0,62366.0,-961.3541883592034,-760.8734336173777,-1514.4665496836487
416341.0,11529.0,416341.0,41779.0,416341.0,62345.0,-968.8716704908919,-764.064378490684,-1522.416168802024
416341.0,11502.0,416341.0,41773.0,416341.0,62312.0,-976.2207732061097,-767.0240405098954,-1529.9330724572803
416341.0,11485.0,416341.0,41724.0,416341.0,62296.0,-983.3803949089678,-769.733066564521,-1536.9782353117084
416352.0,11485.0,416352.0,41711.0,416352.0,62304.0,-990.3283721890816,-772.1712288360036,-1543.5114593708029
416352.0,11465.0,416352.0,41712.0,416352.0,62286.0,-997.0416983383093,-774.3181639374963,-1549.4916306761493
416352.0,11470.0,416352.0,41771.0,416352.0,62319.0,-1003.4966194198424,-776.1537304104348,-1554.8766954082614
416352.0,11463.0,416352.0,41754.0,416352.0,62294.0,-1009.6686450585981,-777.6576857219582,-1559.6234457711648
416352.0,11454.0,416352.0,41723.0,416352.0,62285.0,-1015.5324929341788,-778.8091266097682,-1563.6873052253036
416352.0,11452.0,416352.0,41702.0,416352.0,62266.0,-1021.062028480247,-779.5864583974464,-1567.0223694550054
416362.0,11440.0,416362.0,41726.0,416362.0,62271.0,-1026.230249177555,-779.9678716951221,-1569.5816741543917
416362.0,11444.0,416362.0,41743.0,416362.0,62288.0,-1031.009283930442,-779.9316269739459,-1571.3173774368277
416362.0,11427.0,416362.0,41762.0,416362.0,62278.0,-1035.3703861390036,-779.4558057083309,-1572.1806823200118
416362.0,11415.0,416362.0,41751.0,416362.0,62273.0,-1039.2839719608323,-778.5178202055503,-1572.1216748724642
416362.0,11401.0,416362.0,41715.0,416362.0,62246.0,-1042.7197815918112,-777.0941725746768,-1571.0893770848043
416362.0,11397.0,416362.0,41700.0,416362.0,62239.0,-1045.6471280931726,-775.1607509341751,-1569.0321010733437
416372.0,11385.0,416372.0,41727.0,416372.0,62225.0,-1048.035123435457,-772.6934288627842,-1565.8979686456819
416372.0,11391.0,416372.0,41705.0,416372.0,62191.0,-1049.852834178874,-769.668448771086,-1561.6354865858807
416372.0,11393.0,416372.0,41708.0,416372.0,62224.0,-1051.0693374305738,-766.0625393741295,-1556.1941509944513
416372.0,11383.0,416372.0,41732.0,416372.0,62206.0,-1051.6536780779134,-761.8530189698142,-1549.5249082983137
416372.0,11359.0,416372.0,41727.0,416372.0,62205.0,-1051.5748901941977,-757.0178144431612,-1541.580395630252
416372.0,11361.0,416372.0,41694.0,416372.0,62219.0,-1050.802241466004,-751.5354331551716,-1532.3151705998753
416383.0,11370.0,416383.0,41745.0,416383.0,62272.0,-1049.3055498612532,-745.3851434160647,-1521.685853057374
416383.0,11368.0,416383.0,41750.0,416383.0,62249.0,-1047.0553104446942,-738.5471213892197,-1509.6509313997303
416383.0,11373.0,416383.0,41751.0,416383.0,62240.0,-1044.0226535511479,-731.0022655845632,-1496.1705707575923
416383.0,11348.0,416383.0,41718.0,416383.0,62231.0,-1040.1793558542822,-722.7320701587196,-1481.2069303317176
416383.0,11322.0,416383.0,41733.0,416383.0,62239.0,-1035.4981116812075,-713.718950238751,-1464.7248596184374
416383.0,11327.0,416383.0,41707.0,416383.0,62230.0,-1029.9531059543626,-703.9468235618314,-1446.6925801118282
416393.0,11330.0,416393.0,41703.0,416393.0,62245.0,-1023.5206083386938,-693.4017041204954,-1427.0822706331912
416393.0,11343.0,416393.0,41743.0,416393.0,62304.0,-1016.1792838390089,-682.0722314213447,-1405.8704884968954
416393.0,11357.0,416393.0,41788.0,416393.0,62310.0,-1007.9102246559928,-669.9498261725787,-1383.0382047945882
416393.0,11371.0,416393.0,41766.0,416393.0,62331.0,-998.6968355296856,-657.0283371751818,-1358.5705962107636
416393.0,11355.0,416393.0,41780.0,416393.0,62314.0,-988.5247209124268,-643.3037220510129,-1332.457083720619
416393.0,11364.0,416393.0,41787.0,416393.0,62353.0,-977.3817667599017,-628.7741606795167,-1304.6917764934703
416403.0,11386.0,416403.0,41824.0,416403.0,62411.0,-965.258387047087,-613.4402857715373,-1275.2739246862798
416403.0,11388.0,416403.0,41849.0,416403.0,62454.0,-952.1476763608198,-597.3051501768135,-1244.2078996642722
416403.0,11405.0,416403.0,41836.0,416403.0,62457.0,-938.0454263765773,-580.3740138742312,-1211.502823090416
416403.0,11402.0,416403.0,41843.0,416403.0,62480.0,-922.9501804786714,-562.654341121659,-1177.1724478065091
416403.0,11418.0,416403.0,41856.0,416403.0,62498.0,-906.8633974861955,-544.1561472278185,-1141.235508767184
416403.0,11431.0,416403.0,41879.0,416403.0,62551.0,-889.7896617917315,-524.8923911407112,-1103.7162076358145
416414.0,11457.0,416414.0,41896.0,416414.0,62568.0,-871.736824508338,-504.87916662733744,-1064.6445187721572
416414.0,11479.0,416414.0,41976.0,416414.0,62650.0,-852.7160026179015,-484.13562888443874,-1024.056281414554
416414.0,11494.0,416414.0,41960.0,416414.0,62692.0,-832.7414844327363,-462.6836095123631,-981.9930608897646
416414.0,11519.0,416414.0,41978.0,416414.0,62744.0,-811.8306523127305,-440.5472268379525,-938.501793876054
416414.0,11535.0,416414.0,42010.0,416414.0,62773.0,-790.0039646714656,-417.75288348165725,-893.6344794552678
416414.0,11572.0,416414.0,42061.0,416414.0,62855.0,-767.2849420657651,-394.32937111376276,-847.4480662111555
416424.0,11597.0,416424.0,42120.0,416424.0,62930.0,-743.7000798026646,-370.3075756144798,-800.0042483441655
416424.0,11629.0,416424.0,42123.0,416424.0,62971.0,-719.2786701109585,-345.7198383711633,-751.3689524198494
416424.0,11640.0,416424.0,42107.0,416424.0,63015.0,-694.0526321805631,-320.5995494752285,-701.6118365484365
416424.0,11671.0,416424.0,42081.0,416424.0,63047.0,-668.0564685193253,-294.9815100804116,-650.8061904376295
416424.0,11694.0,416424.0,42167.0,416424.0,63126.0,-641.3273243304816,-268.9028341537328,-599.0291268026526
416424.0,11733.0,416424.0,42225.0,416424.0,63203.0,-613.90501724865,-242.4034049548294,-546.3616205838978
