c_ts,c_val,d_ts,d_val,e_ts,e_val,c_val_filtered,d_val_filtered,e_val_filtered
69873.0,14698.0,69873.0,49671.0,69873.0,71745.0,196.43246353960404,190.48955341581924,318.85007470012187
69873.0,14700.0,69873.0,49710.0,69873.0,71775.0,197.69047616118215,194.00292055168777,322.75411206092735
69883.0,14694.0,69883.0,49742.0,69883.0,71762.0,199.02885035570162,197.6422282678064,326.8342924064687
69883.0,14699.0,69883.0,49679.0,69883.0,71723.0,200.45160103128424,201.40056423643435,331.09485017856036
69883.0,14693.0,69883.0,49742.0,69883.0,71734.0,201.9624787805105,205.27176791094317,335.5396648984196
69883.0,14699.0,69883.0,49731.0,69883.0,71749.0,203.56494802376506,209.25040959171534,340.17179235758215
69883.0,14693.0,69883.0,49717.0,69883.0,71766.0,205.26217458825346,213.33190762330372,344.99333612657244
69883.0,14689.0,69883.0,49760.0,69883.0,71748.0,207.05699630202923,217.5126624744203,350.0056592837005
69894.0,14699.0,69894.0,49718.0,69894.0,71753.0,208.95186435831593,221.79009654254597,355.20951131422856
69894.0,14672.0,69894.0,49666.0,69894.0,71731.0,210.9487715482125,226.1625006375828,360.6048799044451
69894.0,14678.0,69894.0,49675.0,69894.0,71733.0,213.04910657203737,230.6283432003239,366.190666769624
69894.0,14689.0,69894.0,49670.0,69894.0,71759.0,215.25345055611913,235.18534790113034,371.96438786730516
69894.0,14700.0,69894.0,49687.0,69894.0,71746.0,217.56154036397984,239.82998726791763,377.9221024294296
69894.0,14692.0,69894.0,49713.0,69894.0,71739.0,219.9724432045149,244.55747337324604,384.05846363771536
69904.0,14701.0,69904.0,49733.0,69904.0,71774.0,222.4847158875737,249.36208379791526,390.3666664372942
69904.0,14688.0,69904.0,49687.0,69904.0,71805.0,225.09643340285956,254.2375619629468,396.8385274110599
69904.0,14699.0,69904.0,49742.0,69904.0,71772.0,227.80513746042973,259.1772297650908,403.4648770425928
69904.0,14713.0,69904.0,49740.0,69904.0,71842.0,230.60781433532082,264.1739685415951,410.23594083263856
69904.0,14716.0,69904.0,49772.0,69904.0,71785.0,233.50101947042103,269.22048546299584,417.14156789989835
69904.0,14715.0,69904.0,49721.0,69904.0,71813.0,236.48108822145898,274.30967737528476,424.1713235675001
69914.0,14699.0,69914.0,49728.0,69914.0,71786.0,239.54422036272908,279.4345944901932,431.3143167441452
69914.0,14699.0,69914.0,49695.0,69914.0,71761.0,242.68634133244353,284.58794344251714,438.5587948192584
69914.0,14691.0,69914.0,49722.0,69914.0,71781.0,245.90283748009256,289.7614881425492,445.89160559120364
69914.0,14707.0,69914.0,49749.0,69914.0,71807.0,249.18833746616977,294.9457513858436,453.2977836275753
69914.0,14720.0,69914.0,49751.0,69914.0,71823.0,252.536681625703,300.13018748240887,460.76061361328806
69914.0,14720.0,69914.0,49775.0,69914.0,71858.0,255.94109768268737,305.30360157767745,468.2620902203552
69925.0,14718.0,69925.0,49786.0,69925.0,71853.0,259.3944069490836,310.4545387520791,475.7834674299791
69925.0,14724.0,69925.0,49790.0,69925.0,71860.0,262.8890952799776,315.5716189703289,483.3056692006835
69925.0,14734.0,69925.0,49790.0,69925.0,71870.0,266.4173198450379,320.6437777711968,490.8094507782484
69925.0,14747.0,69925.0,49840.0,69925.0,71924.0,269.97100778394764,325.6604312750662,498.27553386887365
69925.0,14737.0,69925.0,49794.0,69925.0,71885.0,273.54204092621967,330.6117216894185,505.68496318677063
69925.0,14726.0,69925.0,49746.0,69925.0,71855.0,277.12233660497014,335.48854414217453,513.0193126323106
69935.0,14741.0,69935.0,49785.0,69935.0,71889.0,280.7037256639419,340.28196660992285,520.2603288742083
69935.0,14740.0,69935.0,49782.0,69935.0,71874.0,284.27781612509784,344.98257143114546,527.3894419620458
69935.0,14717.0,69935.0,49763.0,69935.0,71881.0,287.83594396784105,349.58027319836094,534.3875887813807
69935.0,14748.0,69935.0,49791.0,69935.0,71915.0,291.3690696323413,354.06429561470134,541.2352143664432
69935.0,14753.0,69935.0,49832.0,69935.0,71923.0,294.86771564240354,358.4232003851253,547.9124435911419
69935.0,14753.0,69935.0,49818.0,69935.0,71927.0,298.32212979774243,362.64527002157365,554.3994461283362
69945.0,14756.0,69945.0,49798.0,69945.0,71899.0,301.7224921057128,366.7189433937585,560.6766573549772
69945.0,14756.0,69945.0,49810.0,69945.0,71947.0,305.05897958336834,370.6328045423232,566.7246959678945
69945.0,14774.0,69945.0,49872.0,69945.0,71962.0,308.3217884073099,374.37544487333105,572.5243634469484
69945.0,14789.0,69945.0,49870.0,69945.0,71958.0,311.50127562439434,377.9358345478937,578.0570012152972
69945.0,14769.0,69945.0,49821.0,69945.0,71970.0,314.58820859530607,381.3039403480057,583.3048843425809
69945.0,14758.0,69945.0,49828.0,69945.0,71943.0,317.5738553494258,384.4707748125566,588.2513306180808
69956.0,14770.0,69956.0,49802.0,69956.0,71931.0,320.4497846067886,387.4278506583736,592.8805073512071
69956.0,14761.0,69956.0,49818.0,69956.0,71940.0,323.2076327624875,390.16662968307077,597.177029531445
69956.0,14778.0,69956.0,49817.0,69956.0,71955.0,325.8390384559042,392.67824165605276,601.1256493731795
69956.0,14782.0,69956.0,49835.0,69956.0,71980.0,328.3357146400942,394.95346740662984,604.7113230892453
69956.0,14779.0,69956.0,49851.0,69956.0,71983.0,330.68959770880167,396.98294592177,607.9195987203445
69956.0,14788.0,69956.0,49844.0,69956.0,71968.0,332.892978831881,398.75750456239075,610.7370138492583
69966.0,14783.0,69966.0,49850.0,69966.0,71985.0,334.9385712119172,400.2684325854534,613.1512506963495
69966.0,14804.0,69966.0,49878.0,69966.0,71988.0,336.8195843390758,401.50765576551305,615.1511583083062
69966.0,14791.0,69966.0,49893.0,69966.0,72012.0,338.5298580941312,402.468039048763,616.7269154365275
69966.0,14799.0,69966.0,49863.0,69966.0,71987.0,340.06399620518374,403.14382761359565,617.8703304143733
69966.0,14799.0,69966.0,49872.0,69966.0,71978.0,341.4174284246098,403.53085824631535,618.5749970497219
69966.0,14780.0,69966.0,49860.0,69966.0,71970.0,342.5864076699561,403.6264460999449,618.8361428736873
69977.0,14767.0,69977.0,49810.0,69977.0,71961.0,343.56787549342005,403.42911696248217,618.6503379207857
69977.0,14772.0,69977.0,49824.0,69977.0,71940.0,344.35916564672686,402.9381406034702,618.0152281178284
69977.0,14764.0,69977.0,49813.0,69977.0,71947.0,344.957736072116,402.15298869878654,616.9292711340239
69977.0,14783.0,69977.0,49870.0,69977.0,71952.0,345.36108523406955,401.0731646032196,615.3915577427097
69977.0,14769.0,69977.0,49841.0,69977.0,71963.0,345.5668265660797,399.6985567674086,613.401884688996
69977.0,14779.0,69977.0,49837.0,69977.0,71967.0,345.5728098073034,398.02990904373735,610.9610548052169
69987.0,14769.0,69987.0,49817.0,69987.0,71918.0,345.377194189114,396.06892623458765,608.0711412919226
69987.0,14786.0,69987.0,49851.0,69987.0,71937.0,344.9784998468251,393.8181140173379,604.7354348376994
69987.0,14780.0,69987.0,49847.0,69987.0,71968.0,344.37572250963433,391.28082269141674,600.9582920689071
69987.0,14775.0,69987.0,49820.0,69987.0,71914.0,343.5684852053504,388.46152299590517,596.7453061534259
69987.0,14758.0,69987.0,49791.0,69987.0,71905.0,342.55707927830485,385.36584438449177,592.1034837145621
69987.0,14753.0,69987.0,49765.0,69987.0,71885.0,341.3423198536112,382.0001347900474,587.0409806303297
69997.0,14744.0,69997.0,49765.0,69997.0,71865.0,339.9253128770545,378.37081894993395,581.5666454087794
69997.0,14743.0,69997.0,49755.0,69997.0,71882.0,338.30726322364353,374.48392948028635,575.6897098623849
69997.0,14757.0,69997.0,49800.0,69997.0,71876.0,336.4894088362135,370.34501286799514,569.4197482197743
69997.0,14763.0,69997.0,49783.0,69997.0,71871.0,334.4731557317433,365.95945875381176,562.7668922318954
69997.0,14748.0,69997.0,49787.0,69997.0,71852.0,332.260351096888,361.33301757076447,555.7420591122551
69997.0,14747.0,69997.0,49758.0,69997.0,71836.0,329.8534616954176,356.472101612662,548.3569855592721
70007.0,14732.0,70007.0,49768.0,70007.0,71844.0,327.2555543145329,351.3837701788072,540.6241383336867
70007.0,14753.0,70007.0,49786.0,70007.0,71808.0,324.4702258993203,346.0756980940597,532.5566669536809
70007.0,14741.0,70007.0,49778.0,70007.0,71829.0,321.5016654090192,340.55641271671846,524.1684142916761
70007.0,14721.0,70007.0,49749.0,70007.0,71767.0,318.3547906123255,334.8356312130271,515.4738976252698
70007.0,14706.0,70007.0,49698.0,70007.0,71764.0,315.03519862469284,328.9242181974155,506.48813219811404
70007.0,14697.0,70007.0,49677.0,70007.0,71734.0,311.548883482395,322.83358331342936,497.2262522996316
70017.0,14695.0,70017.0,49663.0,70017.0,71724.0,307.9019512773211,316.57485232252355,487.7031236561365
70017.0,14681.0,70017.0,49690.0,70017.0,71702.0,304.10047027323145,310.1583273877215,477.93308425892576
70017.0,14697.0,70017.0,49718.0,70017.0,71747.0,300.1504335458661,303.5935701096792,467.92987588404117
70017.0,14684.0,70017.0,49662.0,70017.0,71672.0,296.0578339493664,296.88994305885166,457.70684476219174
70017.0,14646.0,70017.0,49675.0,70017.0,71698.0,291.8287399084474,290.0569740407974,447.2771397718549
70017.0,14674.0,70017.0,49664.0,70017.0,71674.0,287.46917351641395,283.104306010512,436.6536952281433
70027.0,14660.0,70027.0,49646.0,70027.0,71651.0,282.9849647813712,276.04160266413277,425.8492083045687
70027.0,14670.0,70027.0,49688.0,70027.0,71675.0,278.38185907361446,268.8786198608022,414.87619363818317
70027.0,14673.0,70027.0,49671.0,70027.0,71638.0,273.6657824679357,261.62550731728004,403.74711267918235
70027.0,14630.0,70027.0,49599.0,70027.0,71611.0,268.843046228862,254.2931480009683,392.4745126167901
70027.0,14614.0,70027.0,49573.0,70027.0,71595.0,263.92026156338716,246.89290349009354,381.0709154381203
70027.0,14618.0,70027.0,49578.0,70027.0,71579.0,258.90395027057866,239.43577304564266,369.5485234951666
70038.0,14608.0,70038.0,49558.0,70038.0,71566.0,253.8002335584604,231.9317492124082,357.91902651845584
70038.0,14617.0,70038.0,49539.0,70038.0,71579.0,248.61481738018261,224.38961244577828,346.19359872503924
70038.0,14589.0,70038.0,49578.0,70038.0,71527.0,243.35310612238897,216.81689326606352,334.3830370706045
70038.0,14585.0,70038.0,49591.0,70038.0,71565.0,238.02022589742046,209.22012510080228,322.49789861952786
70038.0,14597.0,70038.0,49549.0,70038.0,71530.0,232.62095321473515,201.60543815770293,310.54864882006984
70038.0,14589.0,70038.0,49540.0,70038.0,71490.0,227.15976540118544,193.97893151583088,298.5458304558952
70048.0,14604.0,70048.0,49588.0,70048.0,71509.0,221.6410915372343,186.34666740339966,286.5000242508781
70048.0,14585.0,70048.0,49556.0,70048.0,71521.0,216.06961805161495,178.71486826579823,274.4218051771983
70048.0,14563.0,70048.0,49536.0,70048.0,71459.0,210.4504646671846,171.0903386832063,262.322021961908
70048.0,14558.0,70048.0,49497.0,70048.0,71409.0,204.78910507193433,163.48050279291093,250.21188542104085
70048.0,14544.0,70048.0,49448.0,70048.0,71415.0,199.09114345241065,155.892880931213,238.1024321931048
70048.0,14524.0,70048.0,49443.0,70048.0,71405.0,193.36212075258197,148.334278461239,226.00394229342191
70058.0,14518.0,70058.0,49470.0,70058.0,71388.0,187.60732416973778,140.8101439109955,213.92584034852808
70058.0,14521.0,70058.0,49496.0,70058.0,71389.0,181.83161792249595,133.32459808851334,201.8768595926323
70058.0,14527.0,70058.0,49481.0,70058.0,71370.0,176.03945701682838,125.88109554468397,189.86520928101658
70058.0,14509.0,70058.0,49445.0,70058.0,71364.0,170.2350878978494,118.48304636824372,177.89873511306217
70058.0,14500.0,70058.0,49438.0,70058.0,71341.0,164.42271120681508,111.13388416849088,165.9850379906166
70058.0,14508.0,70058.0,49464.0,70058.0,71331.0,158.606503292428,103.83684523721703,154.1315124016984
70069.0,14496.0,70069.0,49441.0,70069.0,71323.0,152.79065621064981,96.59501327514494,142.34535072520958
70069.0,14480.0,70069.0,49412.0,70069.0,71285.0,146.97947857297342,89.41154660351731,130.6335476165347
70069.0,14457.0,70069.0,49401.0,70069.0,71276.0,141.17736282823938,82.28962230348981,119.00281317137467
70069.0,14460.0,70069.0,49366.0,70069.0,71254.0,135.38857229191228,75.23207289567392,107.4593703548752
70069.0,14443.0,70069.0,49391.0,70069.0,71241.0,129.61704003381303,68.2410190162559,96.00877611442127
70069.0,14431.0,70069.0,49335.0,70069.0,71212.0,123.8662665067645,61.317663945663696,84.65579632963141
70079.0,14433.0,70079.0,49403.0,70079.0,71237.0,118.13923888775503,54.46225194608172,73.40432025282172
70079.0,14432.0,70079.0,49374.0,70079.0,71244.0,112.4384084441796,47.674285481712104,62.25752474828403
70079.0,14423.0,70079.0,49376.0,70079.0,71188.0,106.76579665642558,40.952989165940664,51.21830641233788
70079.0,14408.0,70079.0,49340.0,70079.0,71191.0,101.1231106151865,34.29760760679562,40.289505890468604
70079.0,14406.0,70079.0,49353.0,70079.0,71193.0,95.5117421545464,27.707334798359568,29.47380286878706
70079.0,14411.0,70079.0,49366.0,70079.0,71171.0,89.93274173015709,21.18123125381362,18.773720789555227
70089.0,14403.0,70089.0,49382.0,70089.0,71154.0,84.38691472620269,14.718495195560592,8.191781675126435
70089.0,14393.0,70089.0,49375.0,70089.0,71159.0,78.87498551352479,8.31902913921283,-2.2694379430673735
70089.0,14379.0,70089.0,49304.0,70089.0,71129.0,73.39766126073624,1.9838242923209464,-12.60728329386427
70089.0,14365.0,70089.0,49275.0,70089.0,71074.0,67.95554690291198,-4.285345186979441,-22.819076466814067
70089.0,14364.0,70089.0,49273.0,70089.0,71068.0,62.54899421612413,-10.48679263086342,-32.90251553649148
70089.0,14356.0,70089.0,49292.0,70089.0,71072.0,57.178004377065804,-16.61958504025671,-42.856203282448405
70100.0,14366.0,70100.0,49289.0,70100.0,71070.0,51.84225887294423,-22.683547689886552,-52.67978952916394
70100.0,14359.0,70100.0,49266.0,70100.0,71059.0,46.54128078273254,-28.678930984501562,-62.37371703406245
70100.0,14344.0,70100.0,49273.0,70100.0,71031.0,41.2746292976272,-34.60622324450952,-71.93897163547285
70100.0,14332.0,70100.0,49272.0,70100.0,71040.0,36.04195952357287,-40.466117512652886,-81.37703700001214
70100.0,14333.0,70100.0,49282.0,70100.0,71071.0,30.842933411163642,-46.25936523980374,-90.68980097906433
70100.0,14334.0,70100.0,49315.0,70100.0,71034.0,25.677172051522632,-51.98639136198409,-99.8791322356667
70110.0,14326.0,70110.0,49275.0,70110.0,71026.0,20.544354580408765,-57.6467436060222,-108.94642052838816
70110.0,14304.0,70110.0,49190.0,70110.0,70998.0,15.444326087290335,-63.23887385199589,-117.89249950873182
70110.0,14288.0,70110.0,49204.0,70110.0,70949.0,10.377020260412849,-68.76076356948658,-126.71793175465848
70110.0,14289.0,70110.0,49204.0,70110.0,70966.0,5.3422210565070145,-74.21086923051121,-135.4234799494592
70110.0,14289.0,70110.0,49193.0,70110.0,70952.0,0.3394001723050337,-79.5885155352077,-144.01046872304795
70110.0,14285.0,70110.0,49224.0,70110.0,70950.0,-4.632236110143481,-84.8937547090062,-152.480786189088
70120.0,14298.0,70120.0,49206.0,70120.0,70945.0,-9.573561519747386,-90.12703390343665,-160.83668298697427
70120.0,14283.0,70120.0,49166.0,70120.0,70934.0,-14.485286761746067,-95.2889135505664,-169.080583286616
70120.0,14261.0,70120.0,49186.0,70120.0,70927.0,-19.36778632321773,-100.38012200529982,-177.21494209274397
70120.0,14250.0,70120.0,49180.0,70120.0,70906.0,-24.221171162805717,-105.40175825414667,-185.2421750833688
70120.0,14265.0,70120.0,49218.0,70120.0,70933.0,-29.0454979934766,-110.3551670951822,-193.16461436260403
70120.0,14264.0,70120.0,49211.0,70120.0,70928.0,-33.84078124235447,-115.24142604661137,-200.98429375407528
70131.0,14226.0,70131.0,49127.0,70131.0,70887.0,-38.606819829915196,-120.06090940241143,-208.70259189783565
70131.0,14223.0,70131.0,49141.0,70131.0,70845.0,-43.3432151818015,-124.81352235408588,-216.3202005697691
70131.0,14211.0,70131.0,49120.0,70131.0,70842.0,-48.0496513111421,-129.49942505527605,-223.8376245997153
70131.0,14212.0,70131.0,49102.0,70131.0,70825.0,-52.726129378981284,-134.119560586769,-231.25576612310778
70131.0,14201.0,70131.0,49172.0,70131.0,70822.0,-57.373023176854076,-138.6757702741312,-238.576204592105
70131.0,14217.0,70131.0,49154.0,70131.0,70849.0,-61.99102231491935,-143.17042549771838,-245.8011623973336
70141.0,14206.0,70141.0,49120.0,70141.0,70805.0,-66.58097120131742,-147.60578438483185,-252.93323902437942
70141.0,14196.0,70141.0,49111.0,70141.0,70803.0,-71.14366855363437,-151.9837795919923,-259.9751889044178
70141.0,14197.0,70141.0,49098.0,70141.0,70795.0,-75.67977110337415,-156.30634234225448,-266.929965488647
70141.0,14191.0,70141.0,49144.0,70141.0,70834.0,-80.18977516305222,-160.57564542185844,-273.80072588085693
70141.0,14182.0,70141.0,49124.0,70141.0,70796.0,-84.6739748518761,-164.7938825920897,-280.5904903558786
70141.0,14183.0,70141.0,49116.0,70141.0,70806.0,-89.13241922736569,-168.96282517182692,-287.3017237995649
70151.0,14156.0,70151.0,49079.0,70151.0,70769.0,-93.56491688508004,-173.08367379702725,-293.93619313015415
70151.0,14156.0,70151.0,49033.0,70151.0,70738.0,-97.97113052456098,-177.1574339825293,-300.4951411006099
70151.0,14137.0,70151.0,49059.0,70151.0,70725.0,-102.35075744083167,-181.18560902525087,-306.97971571417236
70151.0,14137.0,70151.0,49130.0,70151.0,70760.0,-106.7037048848494,-185.17054036122863,-313.3913698662087
70151.0,14155.0,70151.0,49071.0,70151.0,70727.0,-111.03014495081072,-189.1149055877433,-319.7318405977319
70151.0,14139.0,70151.0,49083.0,70151.0,70733.0,-115.33036197522762,-193.02101559886773,-326.00286171764606
70162.0,14130.0,70162.0,49088.0,70162.0,70702.0,-119.60452803482929,-196.89062108067998,-332.20603877070494
70162.0,14109.0,70162.0,49057.0,70162.0,70694.0,-123.85267569226585,-200.72494902513483,-338.34295915301414
70162.0,14110.0,70162.0,49040.0,70162.0,70704.0,-128.07487810505063,-204.52477695553557,-344.4153531673543
70162.0,14122.0,70162.0,49093.0,70162.0,70696.0,-132.27138758023494,-208.29060351164497,-350.4250894312904
70162.0,14115.0,70162.0,49074.0,70162.0,70704.0,-136.44254032044836,-212.02253491221325,-356.37395601555556
70162.0,14102.0,70162.0,49038.0,70162.0,70693.0,-140.5885406840057,-215.71989942460783,-362.2633790370106
70172.0,14076.0,70172.0,49028.0,70172.0,70654.0,-144.7094183907276,-219.38122731254333,-368.09426888325515
70172.0,14076.0,70172.0,48995.0,70172.0,70653.0,-148.80524366501714,-223.00471568440173,-373.86715592496193
70172.0,14086.0,70172.0,48998.0,70172.0,70609.0,-152.8763574693645,-226.58877556691874,-379.5825691413178
70172.0,14064.0,70172.0,49018.0,70172.0,70599.0,-156.9233881457875,-230.13235769999233,-385.2414997897413
70172.0,14066.0,70172.0,49006.0,70172.0,70649.0,-160.947173854327,-233.63490329914475,-390.8457416560975
70172.0,14079.0,70172.0,48962.0,70172.0,70616.0,-164.9487243559127,-237.09616873755692,-396.39777394006865
70183.0,14054.0,70183.0,48978.0,70183.0,70605.0,-168.92911890615886,-240.51636736134714,-401.9003567130678
70183.0,14066.0,70183.0,48980.0,70183.0,70605.0,-172.88937463392352,-243.8964685729261,-407.3563812301186
70183.0,14051.0,70183.0,49019.0,70183.0,70627.0,-176.8303946537735,-247.23813205671723,-412.768871802876
70183.0,14053.0,70183.0,49021.0,70183.0,70606.0,-180.75293719473962,-250.54316783883917,-418.14075463901156
70183.0,14042.0,70183.0,48979.0,70183.0,70601.0,-184.65757941043927,-253.81292890155953,-423.474543310641
70183.0,14039.0,70183.0,49012.0,70183.0,70613.0,-188.54470822773266,-257.0480875914008,-428.7721836091757
70193.0,14026.0,70193.0,48956.0,70193.0,70538.0,-192.41454226470313,-260.2487451896823,-434.0350475915833
70193.0,14016.0,70193.0,48935.0,70193.0,70558.0,-196.26720302028144,-263.41471272723675,-439.2641921095086
70193.0,13997.0,70193.0,48959.0,70193.0,70531.0,-200.1028636610347,-266.5459812506303,-444.4608311819228
70193.0,14013.0,70193.0,48988.0,70193.0,70560.0,-203.92192885544029,-269.64296263314617,-449.62659314748544
70193.0,14007.0,70193.0,48890.0,70193.0,70554.0,-207.72508172906754,-272.7062985583861,-454.76337435095957
70193.0,14004.0,70193.0,48958.0,70193.0,70552.0,-211.51314531232214,-275.73686703940456,-459.8729775203908
70203.0,13989.0,70203.0,48934.0,70203.0,70503.0,-215.28694666716785,-278.7360431178615,-464.9568808353638
70203.0,13997.0,70203.0,48930.0,70203.0,70533.0,-219.04730306868157,-281.7056673120275,-470.0163501229308
70203.0,13991.0,70203.0,49008.0,70203.0,70545.0,-222.79501688933556,-284.6477177239594,-475.0525581992846
70203.0,13986.0,70203.0,48966.0,70203.0,70524.0,-226.53079416588662,-287.5637282506833,-480.0663308604911
70203.0,13966.0,70203.0,48940.0,70203.0,70509.0,-230.25519408230718,-290.4541754536198,-485.05782304642037
70203.0,13962.0,70203.0,48908.0,70203.0,70489.0,-233.96872267584752,-293.3185018702614,-490.026544065195
70214.0,13953.0,70214.0,48874.0,70214.0,70462.0,-237.67201003735443,-296.15580408538335,-494.9716691405456
70214.0,13957.0,70214.0,48880.0,70214.0,70457.0,-241.36592730534454,-298.96564321782074,-499.8924430193474
70214.0,13950.0,70214.0,48927.0,70214.0,70453.0,-245.05158272225697,-301.7484901278122,-504.7885178137053
70214.0,13948.0,70214.0,48896.0,70214.0,70467.0,-248.7302473190303,-304.50554024833826,-509.66004701206293
70214.0,13945.0,70214.0,48859.0,70214.0,70464.0,-252.40328102470534,-307.23835538635456,-514.5074931744608
70214.0,13941.0,70214.0,48901.0,70214.0,70438.0,-256.07207130497795,-309.9489294550613,-519.3313496582764
70224.0,13934.0,70224.0,48903.0,70224.0,70440.0,-259.73798024102064,-312.6398178677565,-524.1320515903808
70224.0,13945.0,70224.0,48911.0,70224.0,70458.0,-263.4022898876384,-315.31382662571417,-528.910009290842
70224.0,13950.0,70224.0,48963.0,70224.0,70453.0,-267.0660608737164,-317.9734229201687,-533.6654403433854
70224.0,13926.0,70224.0,48918.0,70224.0,70393.0,-270.7299062310699,-320.6200776334731,-538.3981257735697
70224.0,13918.0,70224.0,48818.0,70224.0,70393.0,-274.3939010063723,-323.25400309958525,-543.107584117696
70224.0,13898.0,70224.0,48854.0,70224.0,70390.0,-278.05775108527246,-325.8748709320284,-547.793588511387
70234.0,13885.0,70234.0,48853.0,70234.0,70376.0,-281.7210977793325,-328.48286838826124,-552.4564945734394
70234.0,13898.0,70234.0,48829.0,70234.0,70354.0,-285.3837881908347,-331.0790915320188,-557.0973365910972
70234.0,13900.0,70234.0,48823.0,70234.0,70397.0,-289.04593732587756,-333.6655483825013,-561.7178943661983
70234.0,13889.0,70234.0,48857.0,70234.0,70387.0,-292.70775767685126,-336.2452394914317,-566.3205343901611
70234.0,13877.0,70234.0,48838.0,70234.0,70387.0,-296.3694051903432,-338.8220649438709,-570.9077585127835
70234.0,13877.0,70234.0,48903.0,70234.0,70353.0,-300.0310035140038,-341.4004059103609,-575.481874896374
70245.0,13862.0,70245.0,48835.0,70245.0,70375.0,-303.6927412858259,-343.9845789552401,-580.045007717831
70245.0,13880.0,70245.0,48923.0,70245.0,70359.0,-307.3549129448373,-346.5783795052855,-584.59917032205
70245.0,13871.0,70245.0,48863.0,70245.0,70361.0,-311.0178342519909,-349.1847042291762,-589.1461852221291
70245.0,13855.0,70245.0,48833.0,70245.0,70302.0,-314.68168715460763,-351.80532304154525,-593.6876593259386
70245.0,13852.0,70245.0,48847.0,70245.0,70327.0,-318.3464862399528,-354.4411224116432,-598.2252592000634
70245.0,13828.0,70245.0,48805.0,70245.0,70302.0,-322.012219390345,-357.09262361703946,-602.761079899
70255.0,13838.0,70255.0,48793.0,70255.0,70305.0,-325.6790432399967,-359.76041568737776,-607.2977996981698
70255.0,13827.0,70255.0,48783.0,70255.0,70291.0,-329.3474099863991,-362.44560420037715,-611.8386935156485
70255.0,13837.0,70255.0,48791.0,70255.0,70314.0,-333.0180526971623,-365.15020709898056,-616.3876040986895
70255.0,13824.0,70255.0,48853.0,70255.0,70291.0,-336.69186957342396,-367.87714131656566,-620.9487878992959
70255.0,13822.0,70255.0,48777.0,70255.0,70294.0,-340.36981845301835,-370.62975562484934,-625.526712419228
70255.0,13813.0,70255.0,48822.0,70255.0,70280.0,-344.0528883096212,-373.4114297100712,-630.1259708352325
70265.0,13812.0,70265.0,48843.0,70265.0,70286.0,-347.7421214104961,-376.2254437707882,-634.7512753123859
70265.0,13824.0,70265.0,48854.0,70265.0,70309.0,-351.4385869403978,-379.07460046264003,-639.4073426774631
70265.0,13824.0,70265.0,48833.0,70265.0,70312.0,-355.1432109455104,-381.96058290147687,-644.0985245733095
70265.0,13794.0,70265.0,48793.0,70265.0,70274.0,-358.8565556572494,-384.88368004073004,-648.8283478919775
70265.0,13787.0,70265.0,48762.0,70265.0,70235.0,-362.57881934704204,-387.8431647161543,-653.5994530674645
70265.0,13774.0,70265.0,48753.0,70265.0,70235.0,-366.3100971691912,-390.838063285509,-658.4140859413898
70276.0,13755.0,70276.0,48765.0,70276.0,70235.0,-370.0506904936098,-393.8678129730515,-663.2746574204381
70276.0,13785.0,70276.0,48743.0,70276.0,70233.0,-373.8013129438267,-396.9325155272995,-668.1839236070649
70276.0,13768.0,70276.0,48790.0,70276.0,70245.0,-377.56306968244644,-400.03287422631513,-673.1448389395442
70276.0,13754.0,70276.0,48775.0,70276.0,70249.0,-381.3372767047286,-403.1698951769814,-678.1602562948327
70276.0,13748.0,70276.0,48758.0,70276.0,70219.0,-385.1254256877905,-406.3444884794721,-683.2326055049209
70276.0,13751.0,70276.0,48767.0,70276.0,70200.0,-388.9293105441881,-409.55729504767334,-688.3638112586419
70286.0,13766.0,70286.0,48774.0,70286.0,70245.0,-392.75103028846485,-412.80869251438344,-693.5554401941587
70286.0,13758.0,70286.0,48774.0,70286.0,70187.0,-396.5927609034088,-416.0986564088738,-698.8086946385589
70286.0,13748.0,70286.0,48732.0,70286.0,70199.0,-400.4564823235652,-419.42657980614706,-704.1242994903793
70286.0,13733.0,70286.0,48713.0,70286.0,70156.0,-404.3438952205619,-422.7914339323681,-709.5026424279781
70286.0,13708.0,70286.0,48684.0,70286.0,70142.0,-408.2565841923102,-426.19233247897216,-714.9441532533137
70286.0,13720.0,70286.0,48697.0,70286.0,70142.0,-412.19630992458286,-429.62916573918085,-720.4497280776789
70296.0,13719.0,70296.0,48713.0,70296.0,70158.0,-416.165193496658,-433.102907940123,-726.0209575090761
70296.0,13721.0,70296.0,48705.0,70296.0,70163.0,-420.1656409943107,-436.6154723001537,-731.6599523916275
70296.0,13710.0,70296.0,48691.0,70296.0,70128.0,-424.20014799917953,-440.1694153146504,-737.3689714431771
70296.0,13711.0,70296.0,48711.0,70296.0,70130.0,-428.2711781562397,-443.7678018637864,-743.1502716598694
70296.0,13709.0,70296.0,48696.0,70296.0,70100.0,-432.38110967037926,-447.4141258297591,-749.0062643898507
70296.0,13719.0,70296.0,48703.0,70296.0,70114.0,-436.53213430299263,-451.1121525616298,-754.9397361802426
70307.0,13692.0,70307.0,48721.0,70307.0,70109.0,-440.72609867559805,-454.86572152798874,-760.9539198041713
70307.0,13688.0,70307.0,48740.0,70307.0,70125.0,-444.96445173291124,-458.6784038067121,-767.0523243103968
70307.0,13671.0,70307.0,48693.0,70307.0,70099.0,-449.24838937394463,-462.55304262508935,-773.2384170845438
70307.0,13664.0,70307.0,48666.0,70307.0,70050.0,-453.57907882791255,-466.4916402709704,-779.515499820173
70307.0,13653.0,70307.0,48642.0,70307.0,70053.0,-457.9578554770903,-470.49584627135715,-785.8870413711132
70307.0,13653.0,70307.0,48636.0,70307.0,70047.0,-462.3863657783418,-474.5676723811849,-792.3571820313097
70317.0,13656.0,70317.0,48686.0,70317.0,70103.0,-466.8666076695763,-478.70988184654885,-798.9308222483845
70317.0,13656.0,70317.0,48679.0,70317.0,70057.0,-471.40082995761253,-482.9257553869635,-805.6131479051901
70317.0,13651.0,70317.0,48669.0,70317.0,70045.0,-475.99134728872275,-487.2184908215359,-812.409124252955
70317.0,13641.0,70317.0,48636.0,70317.0,70034.0,-480.6403940786938,-491.59087370934424,-819.3234642625064
70317.0,13648.0,70317.0,48656.0,70317.0,70025.0,-485.35006185194226,-496.0454091342602,-826.360868863277
70317.0,13633.0,70317.0,48700.0,70317.0,70051.0,-490.12224908933956,-500.5843924265632,-833.5260957228384
70327.0,13624.0,70327.0,48662.0,70327.0,70050.0,-494.9586194711065,-505.20949780904726,-840.823694517609
70327.0,13635.0,70327.0,48636.0,70327.0,70019.0,-499.86060892860706,-509.9213301149068,-848.2575744889799
70327.0,13617.0,70327.0,48604.0,70327.0,69986.0,-504.829398479798,-514.7195830682583,-855.8308554303743
70327.0,13598.0,70327.0,48584.0,70327.0,69978.0,-509.86587506357756,-519.6036887540655,-863.5461922095778
70327.0,13588.0,70327.0,48593.0,70327.0,69963.0,-514.9707584218264,-524.5734503276491,-871.4062286901044
70327.0,13595.0,70327.0,48591.0,70327.0,69981.0,-520.1448251929456,-529.6293382267263,-879.4138106212731
70338.0,13588.0,70338.0,48606.0,70338.0,69980.0,-525.3889792512625,-534.7724013188113,-887.5718521748058
70338.0,13583.0,70338.0,48647.0,70338.0,69989.0,-530.7041520767707,-540.0038597524216,-895.8829369864901
70338.0,13567.0,70338.0,48587.0,70338.0,69963.0,-536.0912213324237,-545.3245130491172,-904.3488822929521
70338.0,13569.0,70338.0,48592.0,70338.0,69949.0,-541.5510346397934,-550.7344005262912,-912.9705230975337
70338.0,13579.0,70338.0,48621.0,70338.0,69967.0,-547.0844150786936,-556.2328658081801,-921.7477122621347
70338.0,13579.0,70338.0,48596.0,70338.0,69946.0,-552.6919864873639,-561.8185093781848,-930.6792531793054
70348.0,13559.0,70348.0,48574.0,70348.0,69943.0,-558.3738974641149,-567.4889563411955,-939.762692176908
70348.0,13544.0,70348.0,48560.0,70348.0,69893.0,-564.1297152312284,-573.2409109676905,-948.9942459209125
70348.0,13519.0,70348.0,48529.0,70348.0,69881.0,-569.958604709373,-579.0705304747407,-958.3690601954789
70348.0,13531.0,70348.0,48504.0,70348.0,69872.0,-575.8596329413234,-584.9739097030024,-967.88165447196
70348.0,13516.0,70348.0,48524.0,70348.0,69890.0,-581.8319479480958,-590.9475594311464,-977.5261658889701
70348.0,13528.0,70348.0,48533.0,70348.0,69849.0,-587.8747409783042,-596.9885890567415,-987.2962410384229
70358.0,13509.0,70358.0,48553.0,70358.0,69852.0,-593.9870994354138,-603.09439340674,-997.1848833520861
70358.0,13518.0,70358.0,48507.0,70358.0,69827.0,-600.1678678863074,-609.262139236399,-1007.1844890215989
70358.0,13503.0,70358.0,48485.0,70358.0,69777.0,-606.4155414675669,-615.4885999327951,-1017.2870453695008
70358.0,13487.0,70358.0,48505.0,70358.0,69828.0,-612.728209941906,-621.7704437495256,-1027.484427154916
70358.0,13500.0,70358.0,48559.0,70358.0,69806.0,-619.1035767389606,-628.1043321342624,-1037.7684612041226
70358.0,13489.0,70358.0,48545.0,70358.0,69791.0,-625.5389397144999,-634.486308163283,-1048.1305977311727
70369.0,13485.0,70369.0,48472.0,70369.0,69822.0,-632.0310547783413,-640.9110519561452,-1058.5615488366884
70369.0,13497.0,70369.0,48516.0,70369.0,69762.0,-638.5759674761193,-647.3718410231093,-1069.0510381497666
70369.0,13444.0,70369.0,48447.0,70369.0,69751.0,-645.1688956044197,-653.8609890631867,-1079.5877185803647
70369.0,13453.0,70369.0,48464.0,70369.0,69736.0,-651.8043086957662,-660.3702190463796,-1090.159418387958
70369.0,13447.0,70369.0,48471.0,70369.0,69764.0,-658.4761802423841,-666.8909040404031,-1100.7533799938774
70369.0,13443.0,70369.0,48473.0,70369.0,69737.0,-665.1780971358772,-673.4140323623571,-1111.356097304707
70379.0,13432.0,70379.0,48471.0,70379.0,69711.0,-671.9031779470557,-679.9298750738052,-1121.9530069475977
70379.0,13430.0,70379.0,48419.0,70379.0,69729.0,-678.6440006012936,-686.4277547854479,-1132.5284102674743
70379.0,13407.0,70379.0,48427.0,70379.0,69721.0,-685.3925983604918,-692.8962075026404,-1143.0654383535768
70379.0,13412.0,70379.0,48470.0,70379.0,69716.0,-692.1405122095268,-699.3232383460721,-1153.5457914499173
70379.0,13426.0,70379.0,48477.0,70379.0,69730.0,-698.8787946713712,-705.696052260633,-1163.949374721275
70379.0,13390.0,70379.0,48419.0,70379.0,69722.0,-705.5978540206534,-712.0003997400083,-1174.2539119197168
70390.0,13391.0,70390.0,48418.0,70390.0,69676.0,-712.2873354867132,-718.2203677094029,-1184.4346145077702
70390.0,13368.0,70390.0,48400.0,70390.0,69637.0,-718.936229986302,-724.338755665751,-1194.4642550404988
70390.0,13369.0,70390.0,48377.0,70390.0,69598.0,-725.5330670360457,-730.3375093971601,-1204.3137892890882
70390.0,13359.0,70390.0,48371.0,70390.0,69604.0,-732.0660303012215,-736.1980408158595,-1213.9531596619747
70390.0,13355.0,70390.0,48433.0,70390.0,69625.0,-738.5229799602148,-741.9013596059513,-1223.3517304018496
70390.0,13371.0,70390.0,48368.0,70390.0,69626.0,-744.8913761952231,-747.4277845588797,-1232.4780883942547
70400.0,13366.0,70400.0,48387.0,70400.0,69608.0,-751.1580536102513,-752.7565650787344,-1241.2995060417284
70400.0,13355.0,70400.0,48334.0,70400.0,69595.0,-757.3089117440279,-757.8659315678883,-1249.7815873191348
70400.0,13331.0,70400.0,48358.0,70400.0,69584.0,-763.3287649527682,-762.7334498930286,-1257.8882417569762
70400.0,13345.0,70400.0,48413.0,70400.0,69620.0,-769.2014269980849,-767.3361483960069,-1265.5816920035832
70400.0,13344.0,70400.0,48394.0,70400.0,69602.0,-774.9097717956099,-771.6500296212073,-1272.8221963880474
70400.0,13333.0,70400.0,48360.0,70400.0,69550.0,-780.4355968081381,-775.649366179851,-1279.5676941266877
70410.0,13308.0,70410.0,48302.0,70410.0,69558.0,-785.7595021280314,-779.3066679202202,-1285.773890508216
70410.0,13299.0,70410.0,48302.0,70410.0,69524.0,-790.861022612667,-782.5934548004651,-1291.3947125859806
70410.0,13294.0,70410.0,48312.0,70410.0,69518.0,-795.7189104891154,-785.4811138784034,-1296.3827219428053
70410.0,13292.0,70410.0,48318.0,70410.0,69507.0,-800.3113262408315,-787.9412160006063,-1300.6894232763543
70410.0,13297.0,70410.0,48323.0,70410.0,69496.0,-804.6158494172578,-789.9453376324228,-1304.2655128313486
70410.0,13291.0,70410.0,48329.0,70410.0,69510.0,-808.6093626886061,-791.4647530173877,-1307.0610176498558
70421.0,13261.0,70421.0,48303.0,70421.0,69500.0,-812.2679656977386,-792.4702222208035,-1309.0252887809515
70421.0,13267.0,70421.0,48309.0,70421.0,69488.0,-815.5670914727158,-792.9319933646125,-1310.106924942173
70421.0,13281.0,70421.0,48318.0,70421.0,69474.0,-818.4816926064414,-792.8199390501778,-1310.2538326655524
70421.0,13272.0,70421.0,48352.0,70421.0,69488.0,-820.9862005103168,-792.1035041363498,-1309.4134428020268
70421.0,13257.0,70421.0,48266.0,70421.0,69443.0,-823.0543556900503,-790.7514820369079,-1307.5329393582306
70421.0,13253.0,70421.0,48279.0,70421.0,69455.0,-824.6592194996332,-788.7321891893996,-1304.559563071935
70431.0,13231.0,70431.0,48259.0,70431.0,69459.0,-825.7733904830109,-786.0141742893497,-1300.4409975001022
70431.0,13215.0,70431.0,48250.0,70431.0,69423.0,-826.3693310567222,-782.5669128552258,-1295.125665279481
70431.0,13222.0,70431.0,48290.0,70431.0,69430.0,-826.4197568452722,-778.3611785028774,-1288.5630536213039
70431.0,13218.0,70431.0,48286.0,70431.0,69424.0,-825.8979296805164,-773.3690635780303,-1280.7041921233595
70431.0,13220.0,70431.0,48279.0,70431.0,69431.0,-824.7777539571847,-767.5637694894998,-1271.5020679881522
70431.0,13219.0,70431.0,48268.0,70431.0,69406.0,-823.0337844634553,-760.9195703652115,-1260.9119336774963
70441.0,13208.0,70441.0,48259.0,70441.0,69422.0,-820.6412679520964,-753.4121249357577,-1248.891694698038
70441.0,13222.0,70441.0,48291.0,70441.0,69422.0,-817.5762455818995,-745.0188784374895,-1235.40235264908
70441.0,13217.0,70441.0,48318.0,70441.0,69447.0,-813.8156461980063,-735.719184976925,-1220.408308585506
70441.0,13211.0,70441.0,48303.0,70441.0,69484.0,-809.3373408681443,-725.4940782295641,-1203.8774146228286
70441.0,13208.0,70441.0,48295.0,70441.0,69433.0,-804.1202707228674,-714.3261221916998,-1185.780898378691
70441.0,13198.0,70441.0,48268.0,70441.0,69437.0,-798.1447034524825,-702.1997412695123,-1166.0936226931717
70452.0,13202.0,70452.0,48269.0,70452.0,69444.0,-791.392552354328,-689.101943242899,-1144.7948657090647
70452.0,13209.0,70452.0,48316.0,70452.0,69481.0,-783.8476634482683,-675.0230126405459,-1121.8690878516213
70452.0,13214.0,70452.0,48277.0,70452.0,69505.0,-775.4959882676499,-659.9568369749458,-1097.306231029327
70452.0,13225.0,70452.0,48342.0,70452.0,69538.0,-766.3256509388389,-643.9010037562064,-1071.101657806264
70452.0,13217.0,70452.0,48312.0,70452.0,69517.0,-756.3270030915057,-626.8568951332052,-1043.2560890642908
70452.0,13231.0,70452.0,48352.0,70452.0,69571.0,-745.4927519768019,-608.8297822602254,-1013.7758155256076
70462.0,13235.0,70462.0,48380.0,70462.0,69600.0,-733.8181438883825,-589.828895055724,-982.6730151377144
70462.0,13259.0,70462.0,48436.0,70462.0,69667.0,-721.3010897898937,-569.8672729033768,-949.9657572007403
70462.0,13283.0,70462.0,48455.0,70462.0,69691.0,-707.9421381846574,-548.9612664796349,-915.6776442701715
70462.0,13295.0,70462.0,48477.0,70462.0,69725.0,-693.7442932696929,-527.1299796804694,-879.8374231380083
70462.0,13285.0,70462.0,48466.0,70462.0,69733.0,-678.7128604903282,-504.39503158060535,-842.478883875868
70462.0,13307.0,70462.0,48480.0,70462.0,69766.0,-662.8555379583246,-480.78077137232196,-803.6411188592763
70472.0,13309.0,70472.0,48493.0,70472.0,69820.0,-646.1826807045654,-456.31477356287803,-763.3689079447071
70472.0,13326.0,70472.0,48507.0,70472.0,69872.0,-628.7075371638601,-431.0283252655582,-721.7128723508548
70472.0,13351.0,70472.0,48564.0,70472.0,69925.0,-610.4464029102812,-404.9567225476331,-678.729284483649
70472.0,13382.0,70472.0,48662.0,70472.0,69991.0,-591.4186385929083,-378.1391076856601,-634.4796919367298
70472.0,13402.0,70472.0,48653.0,70472.0,70036.0,-571.6465090437863,-350.6176883365041,-589.0304833637614
70472.0,13430.0,70472.0,48697.0,70472.0,70076.0,-551.154952211296,-322.4368918609292,-542.4525136307108
70483.0,13455.0,70483.0,48693.0,70483.0,70141.0,-529.9713824317877,-293.643090910701,-494.82090549790786
70483.0,13493.0,70483.0,48806.0,70483.0,70225.0,-508.12549485337365,-264.28464183188015,-446.2148514979282
70483.0,13525.0,70483.0,48814.0,70483.0,70293.0,-485.6489932240228,-234.41157869940656,-396.71710799569144
70483.0,13535.0,70483.0,48820.0,70483.0,70333.0,-462.5752825820404,-204.0750403436994,-346.4132841027771
70483.0,13563.0,70483.0,48845.0,70483.0,70388.0,-438.93929783942133,-173.3271168148038,-295.391345726777
70483.0,13593.0,70483.0,48856.0,70483.0,70448.0,-414.7774914609927,-142.2212229075884,-243.74144531405943
70493.0,13617.0,70493.0,48912.0,70493.0,70513.0,-390.12780709088497,-110.81250529265833,-191.55580123587617
70493.0,13643.0,70493.0,48961.0,70493.0,70581.0,-365.0295893747666,-79.15793141306835,-138.92842557240795
70493.0,13677.0,70493.0,49032.0,70493.0,70635.0,-339.52349755393857,-47.31592883993062,-85.95474182993769
70493.0,13717.0,70493.0,49076.0,70493.0,70715.0,-313.65137703438427,-15.345658240707508,-32.73119073338091
70493.0,13739.0,70493.0,49088.0,70493.0,70762.0,-287.4560309498848,16.693725751196098,20.645160781195727
70493.0,13776.0,70493.0,49130.0,70493.0,70841.0,-260.9809773843482,48.743447215662286,74.07700847119088
70503.0,13813.0,70503.0,49200.0,70503.0,70914.0,-234.27024955588655,80.74521624799434,127.46722299221119
70503.0,13849.0,70503.0,49274.0,70503.0,71003.0,-207.3681586294918,112.64162121178208,180.71941806869438
70503.0,13875.0,70503.0,49268.0,70503.0,71046.0,-180.31900761500248,144.3769110353387,233.73867574750273
70503.0,13907.0,70503.0,49291.0,70503.0,71089.0,-153.16686217354214,175.89752788724797,286.4321141274522
70503.0,13932.0,70503.0,49279.0,70503.0,71156.0,-125.95542142029905,207.15192657857006,338.7090699316709
70503.0,13963.0,70503.0,49325.0,70503.0,71195.0,-98.72794682179273,238.08994753698505,390.4810891604852
70514.0,13980.0,70514.0,49362.0,70514.0,71255.0,-71.52722955772344,268.66229750605305,441.6619453018749
70514.0,14010.0,70514.0,49371.0,70514.0,71322.0,-44.395617204819246,298.82039054418647,492.1677122526678
70514.0,14050.0,70514.0,49450.0,70514.0,71391.0,-17.375049784963835,328.51640521833053,541.9169939077003
70514.0,14103.0,70514.0,49496.0,70514.0,71426.0,9.493070235642449,357.7035595675635,590.8313212303917
70514.0,14112.0,70514.0,49475.0,70514.0,71476.0,36.16822594768257,386.33660335971103,638.8354523100891
70514.0,14137.0,70514.0,49555.0,70514.0,71531.0,62.6110801382755,414.3720981019942,685.8574484297226
70524.0,14188.0,70524.0,49620.0,70524.0,71617.0,88.78354891155595,441.7685631697897,731.8287936890945
70524.0,14214.0,70524.0,49621.0,70524.0,71646.0,114.64890700500689,468.4870075286708,776.6847952653188
70524.0,14233.0,70524.0,49644.0,70524.0,71670.0,140.17204138700936,494.49150840480297,820.3649933276154
70524.0,14247.0,70524.0,49630.0,70524.0,71723.0,165.31958719469492,519.7492209303389,862.8131941477698
70524.0,14283.0,70524.0,49631.0,70524.0,71748.0,190.05984394096686,544.2298604032825,903.9772599092371
70524.0,14303.0,70524.0,49685.0,70524.0,71807.0,214.36268151669572,567.9050366693979,943.8089767873221
70534.0,14319.0,70534.0,49699.0,70534.0,71830.0,238.19953415677173,590.747888858358,982.2640515642997
70534.0,14361.0,70534.0,49814.0,70534.0,71918.0,261.5434024004468,612.7333168628409,1019.3022363215816
70534.0,14380.0,70534.0,49769.0,70534.0,71915.0,284.36890040042715,633.8387072203154,1054.8876210958535
70534.0,14400.0,70534.0,49771.0,70534.0,71942.0,306.6523858837488,654.0444964975629,1088.9888630763414
70534.0,14411.0,70534.0,49823.0,70534.0,71972.0,328.372019785682,673.3340386459342,1121.5790600694768
70534.0,14458.0,70534.0,49835.0,70534.0,72036.0,349.50772192115323,691.6933051520605,1152.6355242391169
70545.0,14492.0,70545.0,49881.0,70545.0,72070.0,370.0412622013255,709.1110236176432,1182.1399143578515
70545.0,14482.0,70545.0,49896.0,70545.0,72096.0,389.9565426868902,725.5790730896447,1210.0786564770194
70545.0,14508.0,70545.0,49852.0,70545.0,72080.0,409.2397310843837,741.0927297373689,1236.443182083243
70545.0,14505.0,70545.0,49865.0,70545.0,72093.0,427.87908026373134,755.6503988713566,1261.229664436455
70545.0,14527.0,70545.0,49848.0,70545.0,72096.0,445.86463864462326,769.2528800088987,1284.438384915726
70545.0,14526.0,70545.0,49866.0,70545.0,72099.0,463.18798742758315,781.9026426459593,1306.073065445869
70555.0,14544.0,70555.0,49884.0,70555.0,72167.0,479.84199285677175,793.6033940185416,1326.1404118783778
70555.0,14573.0,70555.0,49954.0,70555.0,72149.0,495.8206203388977,804.3600804417927,1344.6500382085003
70555.0,14601.0,70555.0,49900.0,70555.0,72186.0,511.11895231422034,814.1793119907327,1361.6146257097794
70555.0,14596.0,70555.0,49927.0,70555.0,72160.0,525.7333938876739,823.0696801472272,1377.049932172014
70555.0,14629.0,70555.0,49930.0,70555.0,72194.0,539.6618255579922,831.0416282142687,1390.9745658401857
70555.0,14635.0,70555.0,49993.0,70555.0,72199.0,552.9036444739088,838.1073639594351,1403.4097421111405
70565.0,14654.0,70565.0,49933.0,70565.0,72214.0,565.4598278523836,844.2811521115707,1414.3792045261898
70565.0,14656.0,70565.0,49971.0,70565.0,72208.0,577.3330023902474,849.5795370504538,1423.909238547751
70565.0,14647.0,70565.0,49902.0,70565.0,72182.0,588.5273921456582,854.021114769527,1432.0285304626223
70565.0,14657.0,70565.0,49913.0,70565.0,72178.0,599.0485820728798,857.6259446484917,1438.7677228359107
70565.0,14660.0,70565.0,49915.0,70565.0,72200.0,608.9031982649929,860.4148635263052,1444.1588538013482
70565.0,14668.0,70565.0,49925.0,70565.0,72179.0,618.0986706749645,862.4090737993449,1448.2350272852452
70576.0,14681.0,70576.0,49953.0,70576.0,72204.0,626.6431145334157,863.6301809408742,1451.0303252771716
70576.0,14698.0,70576.0,49939.0,70576.0,72192.0,634.5453241556502,864.1005036939926,1452.5797931123914
70576.0,14685.0,70576.0,49903.0,70576.0,72172.0,641.8148464983326,863.8432899450693,1452.9194136938268
70576.0,14690.0,70576.0,49920.0,70576.0,72172.0,648.4619682384925,862.8825380448916,1452.085933933931
70576.0,14695.0,70576.0,49953.0,70576.0,72201.0,654.497547262243,861.2427324559376,1450.1166474893953
70576.0,14721.0,70576.0,49948.0,70576.0,72192.0,659.9328906054283,858.9490353070225,1447.0494766346667
70586.0,14711.0,70586.0,49882.0,70586.0,72190.0,664.7798343239655,856.0276477187563,1442.923295404184
70586.0,14712.0,70586.0,49865.0,70586.0,72117.0,669.0508650559926,852.5055730971126,1437.778015178735
70586.0,14715.0,70586.0,49858.0,70586.0,72128.0,672.7590865935521,848.4098017890756,1431.6541359977853
70586.0,14705.0,70586.0,49855.0,70586.0,72097.0,675.9180796309772,843.7666285841293,1424.5920436093174
70586.0,14695.0,70586.0,49841.0,70586.0,72075.0,678.54171498112,838.6013936131915,1416.6314759378447
70586.0,14711.0,70586.0,49852.0,70586.0,72090.0,680.6439178009892,832.9384312867238,1407.8111940999643
70597.0,14717.0,70597.0,49873.0,70597.0,72084.0,682.2385382086346,826.8011778845031,1398.168878949033
70597.0,14729.0,70597.0,49847.0,70597.0,72075.0,683.3394593851355,820.2125037909803,1387.741316656281
70597.0,14709.0,70597.0,49825.0,70597.0,72041.0,683.9607949830557,813.1949903418575,1376.5645989071477
70597.0,14713.0,70597.0,49827.0,70597.0,72022.0,684.1169365935016,805.7708631724438,1364.674045107431
70597.0,14724.0,70597.0,49850.0,70597.0,72061.0,683.82246498181,797.9618646569132,1352.1040174480504
70597.0,14722.0,70597.0,49853.0,70597.0,72026.0,683.0921512838731,789.7894977946561,1338.888052667707
70607.0,14710.0,70607.0,49794.0,70607.0,72025.0,681.9410618586392,781.2754526322653,1325.0592608312527
70607.0,14696.0,70607.0,49758.0,70607.0,71974.0,680.3845396638065,772.4415649101342,1310.6505205340923
70607.0,14693.0,70607.0,49762.0,70607.0,71972.0,678.4379928629384,763.3091807635665,1295.6943197045978
70607.0,14674.0,70607.0,49748.0,70607.0,71936.0,676.1166217129777,753.8985561539175,1280.2224615280882
70607.0,14683.0,70607.0,49716.0,70607.0,71931.0,673.4351824008444,744.2286303316162,1264.2658347930737
70607.0,14695.0,70607.0,49734.0,70607.0,71913.0,670.4078865037303,734.3169156692175,1247.8543083460806
70617.0,14685.0,70617.0,49752.0,70617.0,71907.0,667.0485246414821,724.1795174196261,1231.0167608003214
70617.0,14662.0,70617.0,49718.0,70617.0,71873.0,663.3706276797341,713.8314811559466,1213.7811898919106
70617.0,14671.0,70617.0,49691.0,70617.0,71848.0,659.3874120731914,703.287109170963,1196.1747305565561
70617.0,14662.0,70617.0,49732.0,70617.0,71874.0,655.1116283118205,692.5599478602767,1178.2235929637177
70617.0,14676.0,70617.0,49743.0,70617.0,71877.0,650.5555589376944,681.6629353629743,1159.9532859215333
70617.0,14669.0,70617.0,49730.0,70617.0,71816.0,645.7311839343337,670.609040906806,1141.3891713467212
70628.0,14642.0,70628.0,49648.0,70628.0,71777.0,640.6503430985441,659.4117761758646,1122.5567074514859
70628.0,14654.0,70628.0,49615.0,70628.0,71725.0,635.32471894328,648.0848558110126,1103.480993295622
70628.0,14629.0,70628.0,49626.0,70628.0,71720.0,629.7657024845834,636.6412555271334,1084.1860145812334
70628.0,14622.0,70628.0,49605.0,70628.0,71702.0,623.9842730784711,625.0925538006825,1064.6941423612009
70628.0,14639.0,70628.0,49655.0,70628.0,71684.0,617.9909061080284,613.4489533645022,1045.0260437661511
70628.0,14633.0,70628.0,49629.0,70628.0,71704.0,611.7956336375186,601.7197939305414,1025.2008724871268
70638.0,14622.0,70638.0,49616.0,70638.0,71677.0,605.4082779315448,589.9141712985434,1005.2366675124695
70638.0,14630.0,70638.0,49609.0,70638.0,71672.0,598.8386409754972,578.0412638690613,985.1508562840586
70638.0,14607.0,70638.0,49598.0,70638.0,71664.0,592.0965930136678,566.1103885219507,964.9606714531307
70638.0,14621.0,70638.0,49618.0,70638.0,71664.0,585.1921346642463,554.1311134026641,944.6835272102329
70638.0,14612.0,70638.0,49585.0,70638.0,71646.0,578.1354849079595,542.1135426638039,924.3374740240109
70638.0,14596.0,70638.0,49568.0,70638.0,71609.0,570.9372108157811,530.0685623829464,903.9415895589987
70648.0,14584.0,70648.0,49531.0,70648.0,71561.0,563.6082711903637,518.0077761492975,883.5160360291367
70648.0,14581.0,70648.0,49527.0,70648.0,71529.0,556.1599191393275,505.94317448935334,863.0817024207131
70648.0,14565.0,70648.0,49507.0,70648.0,71518.0,548.6036008398821,493.8868190562258,842.6596960427902
70648.0,14560.0,70648.0,49493.0,70648.0,71491.0,540.9509027492409,481.8506808349689,822.2710389091013
70648.0,14545.0,70648.0,49515.0,70648.0,71485.0,533.2134942756359,469.84663197613264,801.9366391027241
70648.0,14553.0,70648.0,49515.0,70648.0,71465.0,525.4030857735991,457.88669407887033,781.6774109733345
70659.0,14532.0,70659.0,49473.0,70659.0,71455.0,517.5314581508013,445.98347575312084,761.5144686117319
70659.0,14524.0,70659.0,49446.0,70659.0,71436.0,509.6105070439377,434.15033563627975,741.4693473993235
70659.0,14531.0,70659.0,49477.0,70659.0,71401.0,501.65223844740683,422.40116724476917,721.5641679500369
70659.0,14525.0,70659.0,49453.0,70659.0,71414.0,493.6688307615145,410.75033746506966,701.8217073415708
70659.0,14525.0,70659.0,49424.0,70659.0,71366.0,485.6728337007693,399.2129077525731,682.2654841746062
70659.0,14481.0,70659.0,49401.0,70659.0,71377.0,477.6773174846933,387.8046559277979,662.9198992189148
70669.0,14482.0,70669.0,49382.0,70669.0,71295.0,469.6957553667919,376.54176249378,643.8102750570865
70669.0,14475.0,70669.0,49342.0,70669.0,71249.0,461.74174228986055,365.4404038130348,624.9625288297901
70669.0,14452.0,70669.0,49330.0,70669.0,71251.0,453.82881838906854,354.51631436130367,606.4024509595313
70669.0,14450.0,70669.0,49336.0,70669.0,71255.0,445.97038274016865,343.7843964659312,588.1551718516484
70669.0,14461.0,70669.0,49394.0,70669.0,71228.0,438.1796341815071,333.2587534339731,570.2452589368088
70669.0,14430.0,70669.0,49330.0,70669.0,71209.0,430.469639962683,322.9532933172716,552.6970546881913
70679.0,14442.0,70679.0,49307.0,70679.0,71194.0,422.85344477261293,312.88225526276483,535.5348136449854
70679.0,14425.0,70679.0,49292.0,70679.0,71162.0,415.3441043715469,303.06005290156406,518.7826761013546
70679.0,14417.0,70679.0,49318.0,70679.0,71143.0,407.95470816306295,293.5008734616868,502.464568742446
70679.0,14403.0,70679.0,49318.0,70679.0,71119.0,400.6983700463545,284.21873032148324,486.6040294229589
70679.0,14402.0,70679.0,49272.0,70679.0,71092.0,393.588154746302,275.2278491448442,471.22399983744435
70679.0,14366.0,70679.0,49218.0,70679.0,71054.0,386.6369756249581,266.54268896009626,456.34656710987815
70690.0,14364.0,70690.0,49225.0,70690.0,71045.0,379.8574008186665,258.17732654516334,441.9926090414333
70690.0,14365.0,70690.0,49184.0,70690.0,71024.0,373.26140371281826,250.14470553883262,428.18146575262017
70690.0,14347.0,70690.0,49223.0,70690.0,71009.0,366.8602496035073,242.45623147536972,414.9307665654917
70690.0,14338.0,70690.0,49262.0,70690.0,71046.0,360.6644817339058,235.1218985104628,402.25646007050244
70690.0,14351.0,70690.0,49202.0,70690.0,71012.0,354.6838808714799,228.15091103994342,390.17313787307205
70690.0,14343.0,70690.0,49173.0,70690.0,70981.0,348.9275154604425,221.55210574704222,378.6944268661996
70700.0,14337.0,70700.0,49194.0,70700.0,70977.0,343.4039204825439,215.33367391811825,367.833012429717
70700.0,14311.0,70700.0,49182.0,70700.0,70976.0,338.12118616995144,209.50278478478864,357.600433773286
70700.0,14316.0,70700.0,49203.0,70700.0,70988.0,333.0868389179034,204.06565400905083,348.00711849028943
70700.0,14321.0,70700.0,49169.0,70700.0,70939.0,328.30769627059954,199.02782232802963,339.062639758037
70700.0,14310.0,70700.0,49159.0,70700.0,70931.0,323.7899001332108,194.394259648624,330.7757789589984
70700.0,14297.0,70700.0,49161.0,70700.0,70902.0,319.5390187089251,190.16920739120957,323.1542274674838
70710.0,14292.0,70710.0,49117.0,70710.0,70859.0,315.560008519271,186.35592486720668,316.20409933628787
70710.0,14278.0,70710.0,49114.0,70710.0,70869.0,311.8570606125838,182.95636181757715,309.9293699924202
70710.0,14284.0,70710.0,49104.0,70710.0,70874.0,308.4334542486804,179.97072260850493,304.3314552648337
70710.0,14285.0,70710.0,49147.0,70710.0,70890.0,305.29150494576686,177.39721748844946,299.4092382241966
70710.0,14283.0,70710.0,49137.0,70710.0,70894.0,302.43264321101486,175.23227612713399,295.15947902914115
70710.0,14275.0,70710.0,49166.0,70710.0,70892.0,299.8575307882795,173.47106766514494,291.57729413377297
70721.0,14272.0,70721.0,49129.0,70721.0,70879.0,297.56609295267015,172.10796109070694,288.6564762738569
70721.0,14288.0,70721.0,49173.0,70721.0,70905.0,295.5575133752135,171.1367540771845,286.3896351472081
70721.0,14288.0,70721.0,49160.0,70721.0,70897.0,293.83034738538953,170.55083640308743,284.7683573086379
70721.0,14274.0,70721.0,49130.0,70721.0,70863.0,292.3827273479545,170.34337314779674,283.78338956272563
70721.0,14260.0,70721.0,49107.0,70721.0,70854.0,291.2124153294857,170.50718205720793,283.4245223306629
70721.0,14255.0,70721.0,49107.0,70721.0,70833.0,290.3166039527798,171.0341980459002,283.680118651375
70731.0,14258.0,70731.0,49103.0,70731.0,70869.0,289.6916516955188,171.9149358880767,284.5366655632638
70731.0,14258.0,70731.0,49130.0,70731.0,70858.0,289.3329490275471,173.1382731356119,285.97867608945336
70731.0,14277.0,70731.0,49157.0,70731.0,70892.0,289.2349600283228,174.69162440258535,287.98892809890145
70731.0,14275.0,70731.0,49141.0,70731.0,70884.0,289.3914133249109,176.56140821189456,290.54883007464554
70731.0,14268.0,70731.0,49169.0,70731.0,70888.0,289.7955271755092,178.73348705790025,293.63873423056543
70731.0,14269.0,70731.0,49115.0,70731.0,70883.0,290.4400948594267,181.19332815437275,297.23807007890616
70741.0,14272.0,70741.0,49164.0,70741.0,70914.0,291.31743868637136,183.92588532227208,301.32535776940205
70741.0,14286.0,70741.0,49218.0,70741.0,70918.0,292.4194089212883,186.91558901659727,305.87834470874697
70741.0,14283.0,70741.0,49208.0,70741.0,70915.0,293.7375088213362,190.14691447805038,310.87428234263405
70741.0,14276.0,70741.0,49190.0,70741.0,70907.0,295.26303271938303,193.60513590549076,316.2900665677384
70741.0,14292.0,70741.0,49147.0,70741.0,70883.0,296.9870980282408,197.27642932587307,322.1020603738178
70741.0,14273.0,70741.0,49131.0,70741.0,70901.0,298.90062203943796,201.14721535607308,328.2856864847428
70752.0,14272.0,70752.0,49135.0,70752.0,70914.0,300.99425797027186,205.20325633490233,334.8150882539627
70752.0,14281.0,70752.0,49177.0,70752.0,70926.0,303.25824400888735,209.42909515287684,341.66310650630703
70752.0,14289.0,70752.0,49215.0,70752.0,70939.0,305.6823073215286,213.80819849206006,348.8014861431158
70752.0,14286.0,70752.0,49189.0,70752.0,70999.0,308.25572857193004,218.32361069798003,356.20120815337395
70752.0,14300.0,70752.0,49191.0,70752.0,70949.0,310.96745193312347,222.95844086693478,363.83296412850865
70752.0,14306.0,70752.0,49182.0,70752.0,70967.0,313.8061903441221,227.69581739900133,371.66744637190266
70762.0,14309.0,70762.0,49232.0,70762.0,71005.0,316.7605708889812,232.51868292487595,379.6752683653646
70762.0,14331.0,70762.0,49271.0,70762.0,71023.0,319.81930851886375,237.4100048873608,387.82703056221703
70762.0,14318.0,70762.0,49247.0,70762.0,71032.0,322.97139229260245,242.35345089438775,396.09377125324085
70762.0,14300.0,70762.0,49201.0,70762.0,71004.0,326.2061650993651,247.33382918213707,404.4473218076398
70762.0,14287.0,70762.0,49219.0,70762.0,71002.0,329.5130928242918,252.33674426181153,412.86018069206364
70762.0,14296.0,70762.0,49182.0,70762.0,71020.0,332.88131032482863,257.3478588215644,421.3050731245052
70772.0,14304.0,70772.0,49258.0,70772.0,71013.0,336.2992906190581,262.35240994589077,429.7546181895383
70772.0,14320.0,70772.0,49236.0,70772.0,71054.0,339.754817752487,267.33524725259326,438.1812682220138
70772.0,14331.0,70772.0,49276.0,70772.0,71019.0,343.235188839491,272.2812598594165,446.5573938521397
70772.0,14332.0,70772.0,49241.0,70772.0,71069.0,346.72748782245094,277.1757676855519,454.8553476338842
70772.0,14331.0,70772.0,49232.0,70772.0,71073.0,350.2187755298784,282.00454770644455,463.04753952794584
70772.0,14357.0,70772.0,49269.0,70772.0,71092.0,353.69617216381664,286.7535583707514,471.10668702817725
70783.0,14361.0,70783.0,49293.0,70783.0,71137.0,357.14699857732046,291.40884630859614,479.0062185588707
70783.0,14352.0,70783.0,49284.0,70783.0,71118.0,360.5590050881659,295.9569008917764,486.7207439984964
70783.0,14345.0,70783.0,49261.0,70783.0,71110.0,363.92044741443584,300.38498354408415,494.2263786690711
70783.0,14351.0,70783.0,49230.0,70783.0,71075.0,367.219925131344,304.6809182127795,501.5005715056611
70783.0,14351.0,70783.0,49266.0,70783.0,71101.0,370.4461894493919,308.83249316986667,508.5215130576322
70783.0,14365.0,70783.0,49261.0,70783.0,71117.0,373.5880805581369,312.82704927804116,515.2676562938215
70793.0,14357.0,70793.0,49281.0,70793.0,71145.0,376.6345726394818,316.65151213269746,521.7177334039739
70793.0,14360.0,70793.0,49309.0,70793.0,71185.0,379.5748135831736,320.29267623657404,527.8512207231915
70793.0,14381.0,70793.0,49290.0,70793.0,71154.0,382.39812738100807,323.7375716338297,533.6489549746717
70793.0,14379.0,70793.0,49301.0,70793.0,71146.0,385.09410299635135,326.97373331432783,539.0934542449451
70793.0,14371.0,70793.0,49305.0,70793.0,71151.0,387.65275183927145,329.9892503570534,544.168721698115
70793.0,14384.0,70793.0,49345.0,70793.0,71184.0,390.06455204786045,332.7728380587631,548.859951502917
70804.0,14387.0,70804.0,49327.0,70804.0,71221.0,392.3204244192658,335.3141540148762,553.1536818699861
70804.0,14392.0,70804.0,49371.0,70804.0,71155.0,394.41179612356876,337.6042188764044,557.0382762757121
70804.0,14377.0,70804.0,49292.0,70804.0,71142.0,396.3306816631129,339.63567093355596,560.5039926238592
70804.0,14379.0,70804.0,49276.0,70804.0,71181.0,398.06962755141353,341.40251685312364,563.5424383481802
70804.0,14387.0,70804.0,49291.0,70804.0,71169.0,399.62156549174097,342.8993545265127,566.1461747145364
70804.0,14405.0,70804.0,49316.0,70804.0,71160.0,400.97978881093366,344.1207704588719,568.3087802256312
70814.0,14393.0,70814.0,49352.0,70814.0,71179.0,402.1381252301609,345.0614866145821,570.0249180326794
70814.0,14402.0,70814.0,49335.0,70814.0,71172.0,403.0911200054875,345.71699785693016,571.2903205399251
70814.0,14407.0,70814.0,49354.0,70814.0,71162.0,403.83411630691614,346.0841395753077,572.1018330320875
70814.0,14382.0,70814.0,49259.0,70814.0,71128.0,404.36328157918734,346.1611910134441,572.4573161134774
70814.0,14397.0,70814.0,49303.0,70814.0,71177.0,404.6755395598028,345.9473767863105,572.3553463497626
70814.0,14400.0,70814.0,49389.0,70814.0,71157.0,404.76845462371034,345.4423879251459,571.7950956401235
70824.0,14393.0,70824.0,49334.0,70824.0,71168.0,404.640240569957,344.64680481684616,570.7765370963452
70824.0,14389.0,70824.0,49305.0,70824.0,71142.0,404.28981905112033,343.56284528412635,569.3006273494768
70824.0,14389.0,70824.0,49293.0,70824.0,71144.0,403.716779971017,342.19427616850686,567.3692467197471
70824.0,14367.0,70824.0,49268.0,70824.0,71122.0,402.92126816975644,340.54570488076763,564.9849943552482
70824.0,14375.0,70824.0,49252.0,70824.0,71112.0,401.9038125998379,338.6219246999605,562.1509313703073
70824.0,14383.0,70824.0,49296.0,70824.0,71122.0,400.66517691473626,336.42749581475687,558.8703366590036
70835.0,14392.0,70835.0,49236.0,70835.0,71139.0,399.2064135875711,333.96664897599203,555.1466614679744
70835.0,14368.0,70835.0,49290.0,70835.0,71124.0,397.5290648694011,331.2433618594521,550.9837817816103
70835.0,14369.0,70835.0,49264.0,70835.0,71135.0,395.6352272303281,328.261446102497,546.3863298415123
70835.0,14372.0,70835.0,49301.0,70835.0,71135.0,393.5274367334981,325.02478654240105,541.3599366998441
70835.0,14370.0,70835.0,49298.0,70835.0,71108.0,391.2086059770147,321.5377588356864,535.9114160057718
70835.0,14372.0,70835.0,49288.0,70835.0,71118.0,388.6820954933495,317.80566545184973,530.0488301495004
70845.0,14366.0,70845.0,49261.0,70845.0,71085.0,385.9518142770356,313.8349510943299,523.781418303068
70845.0,14368.0,70845.0,49235.0,70845.0,71086.0,383.0222906415927,309.63300916761614,517.1194670434544
70845.0,14330.0,70845.0,49198.0,70845.0,71058.0,379.898658636762,305.207637770706,510.0741333771063
70845.0,14323.0,70845.0,49204.0,70845.0,71029.0,376.5864303614011,300.5663615211936,502.65718340598994
70845.0,14326.0,70845.0,49229.0,70845.0,71047.0,373.09110864819604,295.7159872807669,494.8806665133648
70845.0,14337.0,70845.0,49286.0,70845.0,71039.0,369.417971834042,290.6628205456686,486.7567513448232
70855.0,14328.0,70855.0,49217.0,70855.0,71046.0,365.57218019415916,285.4134491860061,478.29789723368
70855.0,14329.0,70855.0,49199.0,70855.0,71000.0,361.558987329729,279.9752463840013,469.51711377908254
70855.0,14322.0,70855.0,49212.0,70855.0,71001.0,357.3838640853705,274.35612304887843,460.427964137005
70855.0,14315.0,70855.0,49198.0,70855.0,70990.0,353.05253887041073,268.5641467013826,451.0443601689602
70855.0,14318.0,70855.0,49225.0,70855.0,70993.0,348.57100682105244,262.60756488163867,441.38047077890394
70855.0,14311.0,70855.0,49178.0,70855.0,70956.0,343.9455602326967,256.49504258866295,431.45079964992794
70866.0,14285.0,70866.0,49149.0,70866.0,70956.0,339.1828097108638,250.2356844541849,421.2701910973966
70866.0,14272.0,70866.0,49155.0,70866.0,70918.0,334.2895420337124,243.83865721087582,410.85367047568616
70866.0,14273.0,70866.0,49117.0,70866.0,70902.0,329.27242463149526,237.31271369653052,400.2161834161426
70866.0,14261.0,70866.0,49115.0,70866.0,70899.0,324.13778514499353,230.66585892404518,389.37230424042525
70866.0,14262.0,70866.0,49149.0,70866.0,70882.0,318.89155286836785,223.90517007955336,378.33606282166653
70866.0,14256.0,70866.0,49168.0,70866.0,70882.0,313.53927687543285,217.0370332723528,367.1209582269586
70876.0,14272.0,70876.0,49152.0,70876.0,70871.0,308.086216588171,210.06783120462762,355.7400736884015
70876.0,14242.0,70876.0,49127.0,70876.0,70827.0,302.5375147233057,203.00451490447813,344.206160920037
70876.0,14237.0,70876.0,49111.0,70876.0,70840.0,296.89828852234064,195.85465051641074,332.531553717228
70876.0,14252.0,70876.0,49126.0,70876.0,70836.0,291.1735723132774,188.62618174239628,320.7280581542916
70876.0,14238.0,70876.0,49110.0,70876.0,70836.0,285.3683419398708,181.32734885795742,308.80712051174385
70876.0,14237.0,70876.0,49094.0,70876.0,70800.0,279.48768565187453,173.96679035354845,296.780147075315
70886.0,14205.0,70886.0,49070.0,70886.0,70765.0,273.536880470171,166.55352337559086,284.6585646163701
70886.0,14208.0,70886.0,49062.0,70886.0,70776.0,267.5212544606053,159.09670554809483,272.4535463032338
70886.0,14206.0,70886.0,49023.0,70886.0,70737.0,261.44599461884144,151.60530537832972,260.17574063330756
70886.0,14194.0,70886.0,49037.0,70886.0,70750.0,255.31609649437934,144.08775987771443,247.835197300877
70886.0,14202.0,70886.0,49042.0,70886.0,70710.0,249.1364351479321,136.5517810078418,235.44137632688773
70886.0,14181.0,70886.0,49036.0,70886.0,70741.0,242.91185002124857,129.00449281258304,223.00319357653717
70897.0,14174.0,70897.0,48997.0,70897.0,70701.0,236.6471767763037,121.4526703044449,210.52917520785854
70897.0,14166.0,70897.0,48995.0,70897.0,70708.0,230.34718142344062,113.90268726987395,198.0276721884959
70897.0,14162.0,70897.0,49009.0,70897.0,70672.0,224.01647145826138,106.36028812458048,185.5069747248108
70897.0,14169.0,70897.0,49043.0,70897.0,70700.0,217.6595052748428,98.83068953989067,172.97534858915458
70897.0,14153.0,70897.0,49012.0,70897.0,70688.0,211.280713870137,91.319139143901,160.4412237752391
70897.0,14153.0,70897.0,48943.0,70897.0,70641.0,204.88463350629007,83.83131793566804,147.91351294655243
70907.0,14123.0,70907.0,48948.0,70907.0,70606.0,198.47592573759036,76.37298924136738,135.401616206298
70907.0,14113.0,70907.0,48920.0,70907.0,70583.0,192.05922596568726,68.94923199081828,122.91492773916411
70907.0,14098.0,70907.0,48927.0,70907.0,70566.0,185.63886287052918,61.56393607896172,110.46223257715434
70907.0,14103.0,70907.0,48951.0,70907.0,70563.0,179.21861046600807,54.21973571604366,98.05135138663854
70907.0,14113.0,70907.0,48943.0,70907.0,70573.0,172.8016527518905,46.91832195257848,85.68911799083264
70907.0,14083.0,70907.0,48939.0,70907.0,70576.0,166.3907507200959,39.66092584507166,73.38168937130479
70917.0,14088.0,70917.0,48905.0,70917.0,70511.0,159.9883687633115,32.44859174209299,61.13494305095469
70917.0,14081.0,70917.0,48935.0,70917.0,70523.0,153.59665516006777,25.282159696108806,48.95452655334719
70917.0,14092.0,70917.0,48946.0,70917.0,70530.0,147.21747285420278,18.162329327201178,36.845661952762896
70917.0,14071.0,70917.0,48959.0,70917.0,70549.0,140.85256747601002,11.090114734911594,24.813302324751987
70917.0,14061.0,70917.0,48920.0,70917.0,70487.0,134.50369040693718,4.067435439843678,12.862643969401802
70917.0,14063.0,70917.0,48876.0,70917.0,70451.0,128.17256754739728,-2.902725350024923,0.9992940344280328
70928.0,14042.0,70928.0,48844.0,70928.0,70442.0,121.8608290807631,-9.816834012093409,-10.77119602584986
70928.0,14039.0,70928.0,48831.0,70928.0,70442.0,115.56995886428717,-16.671663570957662,-22.44387886200832
70928.0,14038.0,70928.0,48848.0,70928.0,70403.0,109.30123303756753,-23.464938133621217,-34.014594446926026
70928.0,14037.0,70928.0,48867.0,70928.0,70416.0,103.055730771441,-30.195414693334214,-45.479986582631625
70928.0,14019.0,70928.0,48875.0,70928.0,70418.0,96.83443330350886,-36.86243070818574,-56.83747020905156
70928.0,14020.0,70928.0,48856.0,70928.0,70380.0,90.63827563377683,-43.46529188907351,-68.08503832330035
70938.0,14002.0,70938.0,48798.0,70938.0,70388.0,84.46811037178603,-50.00301627478649,-79.22109478052641
70938.0,14012.0,70938.0,48812.0,70938.0,70374.0,78.3246666754628,-56.47466330102924,-90.24443244532426
70938.0,14006.0,70938.0,48894.0,70938.0,70389.0,72.20859127211082,-62.87965899441275,-101.15412199984723
70938.0,14001.0,70938.0,48834.0,70938.0,70376.0,66.12058570121397,-69.21735640573365,-111.9492021723388
70938.0,13983.0,70938.0,48820.0,70938.0,70354.0,60.061518331811044,-75.48632509415813,-122.62835153428165
70938.0,13964.0,70938.0,48779.0,70938.0,70322.0,54.03236744501481,-81.6843532162045,-133.18980701090726
70948.0,13969.0,70948.0,48779.0,70948.0,70317.0,48.03402166070575,-87.80904084562263,-143.63158986325766
70948.0,13956.0,70948.0,48744.0,70948.0,70282.0,42.06712183498365,-93.85837747715095,-153.9518287335718
70948.0,13959.0,70948.0,48765.0,70948.0,70287.0,36.132045585451266,-99.8311196273255,-164.14901994331984
70948.0,13955.0,70948.0,48766.0,70948.0,70290.0,30.228979781838632,-105.72690585859917,-174.22213808422737
70948.0,13935.0,70948.0,48756.0,70948.0,70266.0,24.358000038483624,-111.54607891130948,-184.17052409897343
70948.0,13935.0,70948.0,48768.0,70948.0,70261.0,18.519068156506876,-117.28941530682755,-193.99371885740084
70959.0,13924.0,70959.0,48737.0,70959.0,70225.0,12.711949534934377,-122.95794859755853,-203.69147295719046
70959.0,13936.0,70959.0,48788.0,70959.0,70259.0,6.936186139603649,-128.55283969835438,-213.2638619376212
70959.0,13936.0,70959.0,48747.0,70959.0,70249.0,1.191226221009913,-134.07513844472652,-222.71120538382286
70959.0,13933.0,70959.0,48758.0,70959.0,70227.0,-4.523319563604616,-139.52549503323962,-232.03373325981755
70959.0,13896.0,70959.0,48736.0,70959.0,70174.0,-10.207497982517907,-144.9040601137758,-241.2314467068531
70959.0,13899.0,70959.0,48690.0,70959.0,70178.0,-15.861115426157426,-150.21065041676286,-250.30447888447213
70969.0,13885.0,70969.0,48706.0,70969.0,70171.0,-21.484013186897187,-155.44515157782894,-259.2535834898306
70969.0,13873.0,70969.0,48681.0,70969.0,70190.0,-27.07627298136447,-160.6079578145247,-268.0802470440708
70969.0,13882.0,70969.0,48733.0,70969.0,70163.0,-32.638316292400816,-165.70009835282298,-276.7864228989604
70969.0,13886.0,70969.0,48705.0,70969.0,70183.0,-38.17087729132135,-170.72294940531077,-285.37420464457045
70969.0,13886.0,70969.0,48703.0,70969.0,70150.0,-43.6747886181285,-175.67781499266613,-293.84560075901277
70969.0,13872.0,70969.0,48683.0,70969.0,70142.0,-49.15071558941713,-180.56576714726265,-302.20244079492716
70979.0,13867.0,70979.0,48689.0,70979.0,70120.0,-54.59903308884145,-185.387757603156,-310.44646768225687
70979.0,13861.0,70979.0,48714.0,70979.0,70136.0,-60.01984512245997,-190.14465286094048,-318.57950073835195
70979.0,13862.0,70979.0,48705.0,70979.0,70114.0,-65.41301144038931,-194.83696391925497,-326.6034467219812
70979.0,13834.0,70979.0,48651.0,70979.0,70086.0,-70.77814479623385,-199.4645398037078,-334.52023577596174
70979.0,13822.0,70979.0,48637.0,70979.0,70087.0,-76.11471646262194,-204.02675306982633,-342.33193313974095
70979.0,13816.0,70979.0,48618.0,70979.0,70081.0,-81.42231858452587,-208.52315704685424,-350.04093752775236
70990.0,13827.0,70990.0,48611.0,70990.0,70073.0,-86.70087089629726,-212.9541089077723,-357.65001719079123
70990.0,13820.0,70990.0,48633.0,70990.0,70064.0,-91.95058360982162,-217.32106715856298,-365.1622301303415
70990.0,13811.0,70990.0,48629.0,70990.0,70068.0,-97.17178373518311,-221.626523057923,-372.5808518262079
70990.0,13817.0,70990.0,48632.0,70990.0,70058.0,-102.3647970835734,-225.87369139266605,-379.909271932161
70990.0,13792.0,70990.0,48618.0,70990.0,70052.0,-107.5299082064503,-230.066237782168,-387.150853766977
70990.0,13792.0,70990.0,48637.0,70990.0,70045.0,-112.66739219179598,-234.20814562283584,-394.30883339686966
71000.0,13795.0,71000.0,48652.0,71000.0,70047.0,-117.77759807267526,-238.30352828213307,-401.38625011035424
71000.0,13799.0,71000.0,48652.0,71000.0,70058.0,-122.86092396714696,-242.35622856917018,-408.38579688038294
71000.0,13797.0,71000.0,48658.0,71000.0,70030.0,-127.91762120571923,-246.36934499212197,-415.3095704843154
71000.0,13764.0,71000.0,48603.0,71000.0,70023.0,-132.94762373777542,-250.34498217205362,-422.1589174998966
71000.0,13756.0,71000.0,48580.0,71000.0,69979.0,-137.9506375630193,-254.28448839967643,-428.93457039044506
71000.0,13758.0,71000.0,48576.0,71000.0,69995.0,-142.92643150313836,-258.1891195537004,-435.6370068537507
71010.0,13754.0,71010.0,48582.0,71010.0,69969.0,-147.87501969377445,-262.060623402146,-442.2667693267739
71010.0,13737.0,71010.0,48639.0,71010.0,69936.0,-152.7966589024436,-265.90127473898025,-448.8246697506729
71010.0,13745.0,71010.0,48584.0,71010.0,69990.0,-157.6918428071827,-269.71338558475645,-455.31197671618906
71010.0,13735.0,71010.0,48582.0,71010.0,69940.0,-162.56131751395446,-273.498877261368,-461.73041497126826
71010.0,13731.0,71010.0,48572.0,71010.0,69961.0,-167.40604544514014,-277.25936758381414,-468.08195094439395
71010.0,13735.0,71010.0,48583.0,71010.0,69963.0,-172.22714793290447,-280.9964412197299,-474.368617197047
71020.0,13736.0,71020.0,48613.0,71020.0,69956.0,-177.02581232310627,-284.71160735407955,-480.592315035487
71020.0,13733.0,71020.0,48628.0,71020.0,69956.0,-181.80312308271812,-288.4058373536603,-486.7545446296016
71020.0,13727.0,71020.0,48575.0,71020.0,69928.0,-186.55989175386634,-292.07897785224804,-492.85625685936964
71020.0,13709.0,71020.0,48555.0,71020.0,69914.0,-191.2965929802064,-295.72963420462116,-498.89793207801995
71020.0,13706.0,71020.0,48528.0,71020.0,69900.0,-196.01344300885654,-299.3557104986635,-504.87984933556436
71020.0,13689.0,71020.0,48509.0,71020.0,69891.0,-200.71056398932393,-302.95517106700333,-510.80239022017804
71030.0,13684.0,71030.0,48538.0,71030.0,69852.0,-205.38815918452917,-306.52659655400134,-516.6663084996678
71030.0,13688.0,71030.0,48543.0,71030.0,69896.0,-210.04664647262314,-310.0692937756388,-522.4729878100487
71030.0,13685.0,71030.0,48545.0,71030.0,69888.0,-214.6866712081611,-313.5829735837962,-528.2244586858387
71030.0,13685.0,71030.0,48503.0,71030.0,69859.0,-219.3089923595457,-317.06742983663725,-533.9231060840765
71030.0,13659.0,71030.0,48534.0,71030.0,69859.0,-223.91438558835404,-320.52256149679135,-539.5715105338435
71030.0,13674.0,71030.0,48534.0,71030.0,69872.0,-228.50367657665618,-323.94847478360765,-545.1725381905507
71041.0,13675.0,71041.0,48534.0,71041.0,69901.0,-233.07777708505358,-327.34531325818716,-550.7292183074292
71041.0,13675.0,71041.0,48548.0,71041.0,69809.0,-237.6375436062587,-330.7129352402613,-556.2443877987596
71041.0,13655.0,71041.0,48499.0,71041.0,69865.0,-242.18357596344464,-334.0507097350553,-561.7206593234673
71041.0,13647.0,71041.0,48444.0,71041.0,69838.0,-246.71619665128213,-337.35772836376754,-567.1606743489775
71041.0,13639.0,71041.0,48460.0,71041.0,69815.0,-251.23561292591734,-340.63357497525874,-572.5671716101201
71041.0,13635.0,71041.0,48465.0,71041.0,69799.0,-255.74208961773599,-343.8790984622722,-577.9430651536873
71051.0,13644.0,71051.0,48509.0,71051.0,69842.0,-260.2360071894188,-347.09651084410893,-583.2916715168102
71051.0,13637.0,71051.0,48503.0,71051.0,69818.0,-264.71777467587793,-350.2888429668646,-588.6166467991355
71051.0,13630.0,71051.0,48494.0,71051.0,69832.0,-269.18768249229146,-353.45928392276824,-593.9216092403359
71051.0,13619.0,71051.0,48513.0,71051.0,69812.0,-273.6458448550626,-356.6108027717792,-599.2098458620014
71051.0,13616.0,71051.0,48482.0,71051.0,69810.0,-278.09226216433296,-359.74600794804877,-604.4842204385106
71051.0,13624.0,71051.0,48522.0,71051.0,69810.0,-282.5268778753834,-362.8670540305512,-609.7471734137506
71061.0,13608.0,71061.0,48511.0,71061.0,69773.0,-286.9495306980108,-365.9754642552341,-615.0007610567015
71061.0,13600.0,71061.0,48475.0,71061.0,69800.0,-291.3598952184468,-369.0719031060037,-620.246764133629
71061.0,13591.0,71061.0,48431.0,71061.0,69757.0,-295.75754653964214,-372.15631379913935,-625.4868174615872
71061.0,13585.0,71061.0,48427.0,71061.0,69749.0,-300.1421024057761,-375.2286128903259,-630.7225542141442
71061.0,13572.0,71061.0,48447.0,71061.0,69762.0,-304.5133517572764,-378.2894158331611,-635.9558317079423
71061.0,13572.0,71061.0,48386.0,71061.0,69743.0,-308.8713697281726,-381.34036243231634,-641.1888645771938
71072.0,13578.0,71072.0,48447.0,71072.0,69769.0,-313.2165786181574,-384.3842526323761,-646.4241296871882
71072.0,13560.0,71072.0,48489.0,71072.0,69758.0,-317.5497022211015,-387.4249419954711,-651.6641297375259
71072.0,13554.0,71072.0,48429.0,71072.0,69754.0,-321.8717268259595,-390.466723579876,-656.9111126184288
71072.0,13573.0,71072.0,48449.0,71072.0,69737.0,-326.1839316034451,-393.5137809558451,-662.1669103648943
71072.0,13564.0,71072.0,48486.0,71072.0,69737.0,-330.48781026163624,-396.57010482810176,-667.4329725174435
71072.0,13561.0,71072.0,48440.0,71072.0,69738.0,-334.78485559985944,-399.6393328028999,-672.7104359822828
71082.0,13559.0,71082.0,48466.0,71082.0,69726.0,-339.07640726402155,-402.7244676526025,-678.000097779727
71082.0,13544.0,71082.0,48443.0,71082.0,69696.0,-343.3636213462647,-405.8278200186517,-683.3024059973188
71082.0,13531.0,71082.0,48403.0,71082.0,69713.0,-347.64753750298394,-408.95114510197345,-688.6176166537396
71082.0,13530.0,71082.0,48410.0,71082.0,69687.0,-351.9292435540066,-412.09600159656827,-693.9459788462365
71082.0,13517.0,71082.0,48376.0,71082.0,69664.0,-356.21004646130416,-415.26427006966986,-699.2878631757819
71082.0,13525.0,71082.0,48455.0,71082.0,69713.0,-360.49156263125224,-418.45844015560954,-704.6438982001413
71092.0,13525.0,71092.0,48417.0,71092.0,69687.0,-364.7756991661485,-421.6813710380887,-710.0148922942665
71092.0,13525.0,71092.0,48434.0,71092.0,69666.0,-369.06451791937775,-424.93575179966274,-715.4015409005292
71092.0,13519.0,71092.0,48391.0,71092.0,69658.0,-373.3600632440481,-428.2238261685161,-720.8043886475782
71092.0,13504.0,71092.0,48449.0,71092.0,69655.0,-377.6642788419741,-431.5474483629663,-726.2240766727933
71092.0,13518.0,71092.0,48461.0,71092.0,69664.0,-381.9790278152677,-434.9079336794277,-731.6614784821121
71092.0,13511.0,71092.0,48431.0,71092.0,69658.0,-386.3060782466853,-438.30551353878144,-737.1175927845363
71103.0,13508.0,71103.0,48368.0,71103.0,69644.0,-390.64698342014225,-441.73905873282513,-742.593361243518
71103.0,13499.0,71103.0,48356.0,71103.0,69609.0,-395.0029800731647,-445.20664357649684,-748.0896681270603
71103.0,13476.0,71103.0,48388.0,71103.0,69622.0,-399.3750260559799,-448.7064410205815,-753.6076068227812
71103.0,13480.0,71103.0,48373.0,71103.0,69604.0,-403.7639793813762,-452.23708869968317,-759.1487703413839
71103.0,13480.0,71103.0,48333.0,71103.0,69598.0,-408.1707769733067,-455.7976048935238,-764.7153714943033
71103.0,13457.0,71103.0,48421.0,71103.0,69621.0,-412.5964896387225,-459.38735834987466,-770.3102372139289
71113.0,13477.0,71113.0,48355.0,71113.0,69615.0,-417.0423341806031,-463.00590784489293,-775.9366344483356
71113.0,13459.0,71113.0,48353.0,71113.0,69622.0,-421.5096709502088,-466.6527013859178,-781.597917424011
71113.0,13466.0,71113.0,48339.0,71113.0,69577.0,-425.9999301364761,-470.3271652866839,-787.2972673536307
71113.0,13474.0,71113.0,48377.0,71113.0,69620.0,-430.51449305888775,-474.0289949274146,-793.0376924526566
71113.0,13469.0,71113.0,48405.0,71113.0,69602.0,-435.0545081833449,-477.7579834394753,-798.8220230571806
71113.0,13449.0,71113.0,48342.0,71113.0,69594.0,-439.62070455503476,-481.51345106243326,-804.6527054475408
71123.0,13441.0,71123.0,48327.0,71123.0,69580.0,-444.21340093801933,-485.2940381261182,-810.5316593948675
71123.0,13424.0,71123.0,48322.0,71123.0,69588.0,-448.8327207571763,-489.0981692861489,-816.4603329187751
71123.0,13422.0,71123.0,48326.0,71123.0,69544.0,-453.4788509333493,-492.9245920575028,-822.4397983688741
71123.0,13423.0,71123.0,48312.0,71123.0,69525.0,-458.15221508733225,-496.7725525687813,-828.4709788246298
71123.0,13402.0,71123.0,48275.0,71123.0,69549.0,-462.85353277287646,-500.64187570399764,-834.5550492977138
71123.0,13402.0,71123.0,48324.0,71123.0,69530.0,-467.58387400479666,-504.5331823811983,-840.6936484339345
71134.0,13403.0,71134.0,48321.0,71134.0,69555.0,-472.3447535802968,-508.4479222016434,-846.8887286590851
71134.0,13422.0,71134.0,48261.0,71134.0,69487.0,-477.13809719073083,-512.3881202636503,-853.142360416242
71134.0,13390.0,71134.0,48313.0,71134.0,69518.0,-481.9660266597509,-516.3563399772802,-859.4568142272062
71134.0,13428.0,71134.0,48297.0,71134.0,69501.0,-486.8306463830072,-520.3558152697071,-865.8347970641211
71134.0,13403.0,71134.0,48319.0,71134.0,69508.0,-491.7338612603895,-524.3902623600212,-872.2794888062034
71134.0,13387.0,71134.0,48330.0,71134.0,69492.0,-496.67721189038303,-528.4634398081184,-878.7943989304896
71144.0,13384.0,71144.0,48302.0,71144.0,69482.0,-501.6619111251781,-532.5787380189624,-885.3832922517543
71144.0,13370.0,71144.0,48278.0,71144.0,69478.0,-506.68905562852876,-536.7390389083273,-892.050234191626
71144.0,13365.0,71144.0,48286.0,71144.0,69457.0,-511.759803952853,-540.9469629970733,-898.7996846251175
71144.0,13368.0,71144.0,48278.0,71144.0,69464.0,-516.8754745525761,-545.2051780206007,-905.6365956495354
71144.0,13364.0,71144.0,48270.0,71144.0,69455.0,-522.0375454818178,-549.5164937397903,-912.5664584901731
71144.0,13344.0,71144.0,48271.0,71144.0,69497.0,-527.2475941846758,-553.8838642880596,-919.5951597459149
71154.0,13350.0,71154.0,48273.0,71154.0,69464.0,-532.5073149434932,-558.3103789111616,-926.7285759693486
71154.0,13343.0,71154.0,48287.0,71154.0,69448.0,-537.8185856024262,-562.7991418429535,-933.9721917399386
71154.0,13356.0,71154.0,48266.0,71154.0,69442.0,-543.183425661932,-567.3530391952173,-941.3310870985515
71154.0,13368.0,71154.0,48301.0,71154.0,69443.0,-548.6037728311838,-571.97450204453,-948.8101241751616
71154.0,13326.0,71154.0,48267.0,71154.0,69443.0,-554.0811852332749,-576.6652797924228,-956.4139685751016
71154.0,13314.0,71154.0,48233.0,71154.0,69425.0,-559.6167950219356,-581.4263491931558,-964.146951436875
71165.0,13313.0,71165.0,48229.0,71165.0,69429.0,-565.2116185929269,-586.2582160040511,-972.0129642640878
71165.0,13309.0,71165.0,48222.0,71165.0,69411.0,-570.866857058502,-591.1614230409181,-980.0154288905547
71165.0,13302.0,71165.0,48209.0,71165.0,69406.0,-576.5839582689076,-596.1368679678327,-988.1572959070379
71165.0,13313.0,71165.0,48198.0,71165.0,69414.0,-582.3645516450404,-601.185957106434,-996.4410329881999
71165.0,13298.0,71165.0,48202.0,71165.0,69347.0,-588.210326606209,-606.3107470105032,-1004.868631355758
71165.0,13307.0,71165.0,48244.0,71165.0,69401.0,-594.1228828743244,-611.5139159089084,-1013.4417517191383
71175.0,13282.0,71175.0,48225.0,71175.0,69361.0,-600.1036295030698,-616.7983625799038,-1022.1618558248539
71175.0,13289.0,71175.0,48231.0,71175.0,69376.0,-606.1537750798507,-622.1666592310817,-1031.030094879562
71175.0,13285.0,71175.0,48238.0,71175.0,69365.0,-612.2743503677482,-627.6207003052195,-1040.047114673032
71175.0,13270.0,71175.0,48286.0,71175.0,69384.0,-618.4661783525239,-633.1613710717495,-1049.2128542665137
71175.0,13279.0,71175.0,48216.0,71175.0,69368.0,-624.7298260648014,-638.7880295297745,-1058.5262289484995
71175.0,13270.0,71175.0,48162.0,71175.0,69326.0,-631.065554341195,-644.4983520489432,-1067.9848795971816
71186.0,13253.0,71186.0,48164.0,71186.0,69322.0,-637.47324729351,-650.2890325071855,-1077.5852859718582
71186.0,13244.0,71186.0,48186.0,71186.0,69313.0,-643.9524348060622,-656.1566631190524,-1087.3231165140298
71186.0,13239.0,71186.0,48197.0,71186.0,69287.0,-650.5024343725363,-662.097902569998,-1097.193468711774
71186.0,13258.0,71186.0,48211.0,71186.0,69295.0,-657.1224139623553,-668.1089963220909,-1107.1909799258096
71186.0,13235.0,71186.0,48145.0,71186.0,69293.0,-663.8112464204386,-674.1852907202602,-1117.3098493070124
71186.0,13243.0,71186.0,48133.0,71186.0,69277.0,-670.567299112412,-680.3212955224897,-1127.5437001477962
71196.0,13224.0,71196.0,48165.0,71196.0,69276.0,-677.38833289353,-686.5111877467509,-1137.885402254702
71196.0,13223.0,71196.0,48145.0,71196.0,69288.0,-684.2714962895581,-692.7490487070772,-1148.3269253796007
71196.0,13240.0,71196.0,48182.0,71196.0,69287.0,-691.2132975872341,-699.0285956259169,-1158.8590620454297
71196.0,13201.0,71196.0,48188.0,71196.0,69300.0,-698.2094800497366,-705.3426791938853,-1169.4709734839926
71196.0,13204.0,71196.0,48121.0,71196.0,69236.0,-705.2549541733553,-711.6828184640217,-1180.1497977869362
71196.0,13201.0,71196.0,48100.0,71196.0,69229.0,-712.343898427635,-718.0392529362234,-1190.8806727501137
71206.0,13184.0,71206.0,48116.0,71206.0,69203.0,-719.4698424610363,-724.4015687682765,-1201.6471819203894
71206.0,13172.0,71206.0,48095.0,71206.0,69207.0,-726.6256985558823,-730.7591951698573,-1212.4317952922302
71206.0,13179.0,71206.0,48097.0,71206.0,69204.0,-733.8038467736942,-737.1014798940723,-1223.2160056687144
71206.0,13179.0,71206.0,48163.0,71206.0,69196.0,-740.9961445015329,-743.417506062985,-1233.9802057719307
71206.0,13155.0,71206.0,48133.0,71206.0,69207.0,-748.1937979105567,-749.6955312752696,-1244.7034483615394
71206.0,13168.0,71206.0,48123.0,71206.0,69187.0,-755.3872736778691,-755.9222760122645,-1255.3631729698586
71217.0,13156.0,71217.0,48109.0,71217.0,69199.0,-762.566271494259,-762.0826607491242,-1265.9349444561826
71217.0,13154.0,71217.0,48129.0,71217.0,69183.0,-769.7196382677628,-768.1599132796355,-1276.3922243494212
71217.0,13137.0,71217.0,48089.0,71217.0,69153.0,-776.835285068473,-774.1356055726646,-1286.7062243413666
71217.0,13141.0,71217.0,48077.0,71217.0,69152.0,-783.9001901480951,-779.9897016495929,-1296.8459621879924
71217.0,13124.0,71217.0,48070.0,71217.0,69159.0,-790.9004277138117,-785.7008336135359,-1306.7784035735795
71217.0,13120.0,71217.0,48035.0,71217.0,69098.0,-797.8211884739068,-791.2466749325683,-1316.468500707746
71227.0,13094.0,71227.0,48010.0,71227.0,69103.0,-804.6468571633584,-796.60435904509,-1325.879351329642
71227.0,13103.0,71227.0,48042.0,71227.0,69096.0,-811.361169787529,-801.7509500731608,-1334.9725581735347
71227.0,13117.0,71227.0,48055.0,71227.0,69132.0,-817.9472851424939,-806.663591990055,-1343.708340820086
71227.0,13097.0,71227.0,48037.0,71227.0,69070.0,-824.3876153113006,-811.3191649658011,-1352.0452574897768
71227.0,13082.0,71227.0,48041.0,71227.0,69060.0,-830.6636261484024,-815.6939049682674,-1359.940068278063
71227.0,13090.0,71227.0,48051.0,71227.0,69070.0,-836.7558572394576,-819.7632565252618,-1367.3480163977724
71237.0,13082.0,71237.0,48064.0,71237.0,69083.0,-842.643998015265,-823.5017024076933,-1374.223030990584
71237.0,13095.0,71237.0,48078.0,71237.0,69073.0,-848.3068061350499,-826.8823888966731,-1380.5175028496913
71237.0,13070.0,71237.0,48058.0,71237.0,69055.0,-853.7219376028454,-829.8766931716211,-1386.181976552323
71237.0,13051.0,71237.0,47995.0,71237.0,69019.0,-858.8659078662931,-832.4541161742469,-1391.165177428447
71237.0,13056.0,71237.0,47958.0,71237.0,69015.0,-863.7142878296211,-834.5828823312559,-1395.4144174614976
71237.0,13022.0,71237.0,47966.0,71237.0,68996.0,-868.2419857827153,-836.2310467651077,-1398.876124761247
71248.0,13035.0,71248.0,47968.0,71248.0,68978.0,-872.4234966329294,-837.3673662792436,-1401.4962898617582
71248.0,13033.0,71248.0,48017.0,71248.0,68996.0,-876.2330787726203,-837.9614696841611,-1403.2208164028184
71248.0,13027.0,71248.0,47994.0,71248.0,68989.0,-879.6447683373457,-837.9834660832678,-1403.9957030573933
71248.0,13046.0,71248.0,47975.0,71248.0,68962.0,-882.6322681131771,-837.4035324348581,-1403.767082735224
71248.0,13006.0,71248.0,48003.0,71248.0,68976.0,-885.1688414512175,-836.1918982457355,-1402.4813818644761
71248.0,13016.0,71248.0,47970.0,71248.0,68979.0,-887.2273557238586,-834.3190320610113,-1400.0855751816716
71258.0,13012.0,71258.0,48042.0,71258.0,69007.0,-888.7804863047827,-831.7556725132638,-1396.5272281299199
71258.0,13016.0,71258.0,48049.0,71258.0,68957.0,-889.8008532678239,-828.4725146568028,-1391.7543731002281
71258.0,13002.0,71258.0,48003.0,71258.0,68981.0,-890.2610309745104,-824.4396759828669,-1385.7156077384598
71258.0,12997.0,71258.0,47953.0,71258.0,68949.0,-890.1336176156285,-819.6266857704961,-1378.3605141338114
71258.0,12983.0,71258.0,47962.0,71258.0,68958.0,-889.3914505875516,-814.0033690760014,-1369.6401718635798
71258.0,12998.0,71258.0,47954.0,71258.0,68944.0,-888.0078754948818,-807.5409220823528,-1359.5076673532367
71268.0,12979.0,71268.0,47991.0,71268.0,68963.0,-885.9569421594853,-800.2124836117482,-1347.918572791733
71268.0,12982.0,71268.0,48002.0,71268.0,68995.0,-883.21355480201,-791.9931592009362,-1334.8312382605293
71268.0,12994.0,71268.0,48027.0,71268.0,68995.0,-879.7536440139895,-782.8597272845727,-1320.2067932731165
71268.0,12984.0,71268.0,47967.0,71268.0,68980.0,-875.5542824039463,-772.7904188697665,-1304.009107985371
71268.0,12985.0,71268.0,47994.0,71268.0,68985.0,-870.593760882558,-761.7651883374748,-1286.2051018586296
71268.0,12994.0,71268.0,48029.0,71268.0,69008.0,-864.8517335822391,-749.766265603606,-1266.765319988175
71279.0,13004.0,71279.0,48052.0,71279.0,69044.0,-858.3093471140648,-736.7783022181666,-1245.664332939687
71279.0,13011.0,71279.0,48040.0,71279.0,69026.0,-850.9492516077021,-722.788087688271,-1222.8808436615655
71279.0,13002.0,71279.0,48025.0,71279.0,69032.0,-842.7555953275817,-707.7844922038258,-1198.3978928650467
71279.0,12997.0,71279.0,47984.0,71279.0,69051.0,-833.7141794871131,-691.7590247428593,-1172.2034124693196
71279.0,13003.0,71279.0,48026.0,71279.0,69073.0,-823.8128021012528,-674.7068106056456,-1144.2908423048423
71279.0,13008.0,71279.0,48036.0,71279.0,69079.0,-813.0416294330086,-656.6274058075167,-1114.6595676065135
71289.0,13033.0,71289.0,48071.0,71289.0,69116.0,-801.3934294768655,-637.5250619447114,-1083.3152888009572
71289.0,13027.0,71289.0,48126.0,71289.0,69190.0,-788.8636495780293,-617.4085508204475,-1050.2702649094363
71289.0,13055.0,71289.0,48150.0,71289.0,69193.0,-775.4504476979043,-596.2907105896162,-1015.5432037182783
71289.0,13062.0,71289.0,48158.0,71289.0,69251.0,-761.1547361575377,-574.1879276550237,-979.1590027104813
71289.0,13084.0,71289.0,48187.0,71289.0,69275.0,-745.9801913702644,-551.1199019818605,-941.1486679918929
71289.0,13109.0,71289.0,48245.0,71289.0,69355.0,-729.9332072704833,-527.1096204233307,-901.5492808851396
71299.0,13113.0,71299.0,48220.0,71299.0,69423.0,-713.0228145783636,-502.1832318379165,-860.4036995319132
71299.0,13132.0,71299.0,48279.0,71299.0,69441.0,-695.2606527113015,-476.3699649118678,-817.7599943029824
71299.0,13146.0,71299.0,48274.0,71299.0,69468.0,-676.6610588059381,-449.7022558059509,-773.6710810834372
71299.0,13170.0,71299.0,48295.0,71299.0,69512.0,-657.241186450411,-422.21596325242206,-728.1948868122442
71299.0,13186.0,71299.0,48339.0,71299.0,69586.0,-637.021068662291,-393.9506194527387,-681.3946833114594
71299.0,13225.0,71299.0,48420.0,71299.0,69640.0,-616.0236144344268,-364.94947883424044,-633.3390856404644
71310.0,13250.0,71310.0,48458.0,71310.0,69703.0,-594.2744997468192,-335.259019352276,-584.1017169681788
71310.0,13291.0,71310.0,48500.0,71310.0,69765.0,-571.8019300408411,-304.92811957282714,-533.7608089177387
71310.0,13308.0,71310.0,48517.0,71310.0,69839.0,-548.6363461786224,-274.0074523932449,-482.3988159487876
71310.0,13324.0,71310.0,48559.0,71310.0,69913.0,-524.8102227301463,-242.54927595827849,-430.1019481544589
71310.0,13375.0,71310.0,48629.0,71310.0,69980.0,-500.3580162899664,-210.6073428832181,-376.95959552081604
71310.0,13408.0,71310.0,48664.0,71310.0,70057.0,-475.3160624232596,-178.23656182343092,-323.0637238324474
71320.0,13434.0,71320.0,48702.0,71320.0,70108.0,-449.7222845358955,-145.49246024461763,-268.50833040101134
71320.0,13454.0,71320.0,48711.0,71320.0,70157.0,-423.6159280062029,-112.43084326689439,-213.38907401621952
71320.0,13485.0,71320.0,48707.0,71320.0,70232.0,-397.03749846118313,-79.10791593937404,-157.80313881103064
71320.0,13504.0,71320.0,48771.0,71320.0,70302.0,-370.0288179287481,-45.58078213733745,-101.84913061712109
71320.0,13555.0,71320.0,48812.0,71320.0,70370.0,-342.6330579147473,-11.907834585559272,-45.62678612335333
71320.0,13597.0,71320.0,48874.0,71320.0,70447.0,-314.89461448248915,21.851366544431926,10.763453716645472
71330.0,13623.0,71330.0,48929.0,71330.0,70537.0,-286.8587875089319,55.636610980379714,67.2209485449905
71330.0,13665.0,71330.0,48983.0,71330.0,70584.0,-258.57144279158484,89.387700599465,123.64545914402856
71330.0,13693.0,71330.0,49008.0,71330.0,70660.0,-230.07878505851568,123.04508246276384,179.9376829995997
71330.0,13719.0,71330.0,49035.0,71330.0,70715.0,-201.42721004117567,156.55022589788348,235.99958444305344
71330.0,13770.0,71330.0,49104.0,71330.0,70794.0,-172.66320173377153,189.84572936572692,291.73463793895337
71330.0,13806.0,71330.0,49124.0,71330.0,70859.0,-143.83316810269554,222.87546054037955,347.0481374486327
71341.0,13835.0,71341.0,49155.0,71341.0,70916.0,-114.9831570764801,255.5847962201168,401.84756690126426
71341.0,13868.0,71341.0,49162.0,71341.0,70968.0,-86.15860714004202,287.9206603314161,456.0428911557224
71341.0,13887.0,71341.0,49219.0,71341.0,71025.0,-57.40425044134486,319.83130108615455,509.54667128846836
71341.0,13928.0,71341.0,49254.0,71341.0,71083.0,-28.764122415959378,351.2661388814305,562.2740880748279
71341.0,13959.0,71341.0,49272.0,71341.0,71169.0,-0.2815631501957796,382.17585054340077,614.143056609792
71341.0,13989.0,71341.0,49369.0,71341.0,71228.0,28.000863799763465,412.5125802512407,665.07458052532
71351.0,14040.0,71351.0,49350.0,71351.0,71276.0,56.0415203484896,442.23028885691645,714.9932513241308
71351.0,14060.0,71351.0,49407.0,71351.0,71322.0,83.79990791344278,471.28511363077325,763.8275857590017
71351.0,14110.0,71351.0,49435.0,71351.0,71383.0,111.23692562600434,499.6355011243638,811.5101146561453
71351.0,14141.0,71351.0,49511.0,71351.0,71437.0,138.31513355787672,527.2423675347975,857.9774460852618
71351.0,14160.0,71351.0,49574.0,71351.0,71506.0,164.99900401467926,554.0696724203544,903.1704831514219
71351.0,14199.0,71351.0,49567.0,71351.0,71517.0,191.25507711277817,580.0852714387368,947.0347175149259
71361.0,14216.0,71361.0,49554.0,71361.0,71586.0,217.05200762465915,605.2613875135535,989.5203678276566
71361.0,14234.0,71361.0,49517.0,71361.0,71598.0,242.36055679510048,629.5741530414632,1030.5823183088653
71361.0,14257.0,71361.0,49560.0,71361.0,71642.0,267.153487648804,653.0024810606992,1070.179970382251
71361.0,14285.0,71361.0,49592.0,71361.0,71687.0,291.4054011679002,675.5271080354084,1108.277061459213
71361.0,14314.0,71361.0,49630.0,71361.0,71706.0,315.0926558864156,697.1303533336577,1144.8415311153105
71361.0,14347.0,71361.0,49685.0,71361.0,71766.0,338.1934243450255,717.7964563941357,1179.8454641735066
71372.0,14344.0,71372.0,49654.0,71372.0,71811.0,360.68779003617055,737.5120530079428,1213.2651420936213
71372.0,14372.0,71372.0,49699.0,71372.0,71819.0,382.5577013910047,756.2663723146957,1245.0812379793028
71372.0,14407.0,71372.0,49717.0,71372.0,71860.0,403.7868077414764,774.0511306607214,1275.2789272936545
71372.0,14444.0,71372.0,49764.0,71372.0,71917.0,424.3604692612139,790.8605577691608,1303.8478622965267
71372.0,14456.0,71372.0,49760.0,71372.0,71932.0,444.26601629470815,806.6916991755006,1330.7823142436741
71372.0,14462.0,71372.0,49765.0,71372.0,71936.0,463.49295903966765,821.5446429888498,1356.081392619279
71382.0,14473.0,71382.0,49703.0,71382.0,71910.0,482.03290717193477,835.4222764518029,1379.7488538757357
71382.0,14499.0,71382.0,49738.0,71382.0,71936.0,499.87931106068095,848.3294832595116,1401.7923843660406
71382.0,14499.0,71382.0,49754.0,71382.0,71964.0,517.0272555550237,860.272275344063,1422.2228228155304
71382.0,14510.0,71382.0,49745.0,71382.0,71971.0,533.4732984657933,871.2574053823741,1441.0537754102602
71382.0,14551.0,71382.0,49831.0,71382.0,72021.0,549.2152972435358,881.2924193679894,1458.3015847116953
71382.0,14561.0,71382.0,49812.0,71382.0,72028.0,564.2523919374441,890.386035702244,1473.985477923501
71393.0,14574.0,71393.0,49832.0,71393.0,72038.0,578.5851667686022,898.5486967556171,1488.1277806555136
71393.0,14575.0,71393.0,49824.0,71393.0,72014.0,592.2157232168929,905.7928534666983,1500.7539203397082
71393.0,14598.0,71393.0,49854.0,71393.0,72041.0,605.147569490385,912.1329462120123,1511.8920829912008
71393.0,14617.0,71393.0,49920.0,71393.0,72063.0,617.3855185656348,917.5855591400216,1521.5728462927227
71393.0,14628.0,71393.0,49849.0,71393.0,72058.0,628.935736349119,922.1699316587965,1529.8291159404407
71393.0,14622.0,71393.0,49813.0,71393.0,72018.0,639.8058183837845,925.9081485934701,1536.6961032075797
71403.0,14612.0,71403.0,49775.0,71403.0,72020.0,650.004658129403,928.8243425916537,1542.2108853080053
71403.0,14635.0,71403.0,49795.0,71403.0,72023.0,659.5420924097261,930.9434140023102,1546.4116992079987
71403.0,14641.0,71403.0,49781.0,71403.0,71997.0,668.4285989706889,932.2901599229256,1549.337400773567
71403.0,14654.0,71403.0,49805.0,71403.0,72034.0,676.6752259482882,932.888989710674,1551.0271406434888
71403.0,14657.0,71403.0,49829.0,71403.0,72029.0,684.2936314885617,932.7640258148035,1551.5202474842004
71403.0,14660.0,71403.0,49837.0,71403.0,72032.0,691.2960773387379,931.9395000971297,1550.856359861642
71413.0,14660.0,71413.0,49818.0,71413.0,72041.0,697.6953375844791,930.4402283190634,1549.0756152298509
71413.0,14664.0,71413.0,49792.0,71413.0,71995.0,703.5045444009436,928.291757263901,1546.2186984539778
71413.0,14693.0,71413.0,49817.0,71413.0,72036.0,708.7370796891023,925.5201229794031,1542.3267101197823
71413.0,14700.0,71413.0,49851.0,71413.0,72034.0,713.4066680014841,922.1517252448907,1537.4410840199464
71413.0,14678.0,71413.0,49809.0,71413.0,72003.0,717.5275812820976,918.2136493111093,1531.6037548609647
71413.0,14680.0,71413.0,49735.0,71413.0,71984.0,721.1146190405266,913.7338350381731,1524.857218677413
71424.0,14687.0,71424.0,49729.0,71424.0,71955.0,724.1828311215022,908.7403963997328,1517.24417699491
71424.0,14683.0,71424.0,49771.0,71424.0,71962.0,726.7472881768688,903.2606206716234,1508.8070264555815
71424.0,14688.0,71424.0,49729.0,71424.0,71945.0,728.8229944726766,897.3206157660918,1499.5875365641198
71424.0,14685.0,71424.0,49772.0,71424.0,71918.0,730.424829219801,890.9455340059922,1489.6267202603544
71424.0,14701.0,71424.0,49758.0,71424.0,71932.0,731.5675078506056,884.1598898498585,1478.9647118137852
71424.0,14704.0,71424.0,49720.0,71424.0,71906.0,732.2656396634472,876.9878311142193,1467.6406770244635
71434.0,14710.0,71434.0,49702.0,71434.0,71882.0,732.5338854072472,869.4530957676365,1455.6927949087951
71434.0,14713.0,71434.0,49718.0,71434.0,71891.0,732.3871273133768,861.5786312558276,1443.1581699692822
71434.0,14705.0,71434.0,49754.0,71434.0,71893.0,731.8405762225286,853.3864746129127,1430.0728013085595
71434.0,14695.0,71434.0,49707.0,71434.0,71853.0,730.9097606850197,844.8981637951881,1416.4717652384104
71434.0,14696.0,71434.0,49667.0,71434.0,71822.0,729.610383378328,836.1350602652705,1402.3892803532267
71434.0,14686.0,71434.0,49646.0,71434.0,71817.0,727.9581374336949,827.1179992985723,1387.85841513642
71444.0,14675.0,71444.0,49639.0,71444.0,71791.0,725.9685388319969,817.866585048702,1372.9107344826973
71444.0,14664.0,71444.0,49613.0,71444.0,71763.0,723.6567136542742,808.3986882516984,1357.5760904910396
71444.0,14677.0,71444.0,49654.0,71444.0,71784.0,721.0371659980367,798.7302714132176,1341.882483658023
71444.0,14664.0,71444.0,49660.0,71444.0,71769.0,718.1236677343431,788.8756137571074,1325.8561189787156
71444.0,14672.0,71444.0,49634.0,71444.0,71741.0,714.9292797581909,778.847882799576,1309.5216924758402
71444.0,14670.0,71444.0,49614.0,71444.0,71742.0,711.4664111973572,768.6595441287743,1292.9025976790535
71455.0,14651.0,71455.0,49621.0,71455.0,71727.0,707.7468655649877,758.3223438525683,1276.0209945893662
71455.0,14674.0,71455.0,49640.0,71455.0,71740.0,703.7818390521364,747.8472822185408,1258.8979892870088
71455.0,14679.0,71455.0,49627.0,71455.0,71690.0,699.5819859308602,737.2449362226506,1241.553935606057
71455.0,14669.0,71455.0,49601.0,71455.0,71674.0,695.1576680807183,726.5258778830912,1224.0085728467436
71455.0,14646.0,71455.0,49561.0,71455.0,71634.0,690.5191515179564,715.7007264263216,1206.2808268505516
71455.0,14645.0,71455.0,49540.0,71455.0,71628.0,685.6765067458855,704.7797369052407,1188.3884518895563
71465.0,14644.0,71465.0,49517.0,71465.0,71632.0,680.6393785408186,693.7722021601815,1170.347830485434
71465.0,14645.0,71465.0,49517.0,71465.0,71591.0,675.4168980527103,682.6859794514056,1152.1740560572453
71465.0,14638.0,71465.0,49585.0,71465.0,71603.0,670.0177531006804,671.5274450259286,1133.8811116867262
71465.0,14636.0,71465.0,49563.0,71465.0,71612.0,664.4502787562582,660.3021212336183,1115.4820797518287
71465.0,14630.0,71465.0,49522.0,71465.0,71575.0,658.7225051981567,649.0155469514141,1096.9895377984265
71465.0,14643.0,71465.0,49528.0,71465.0,71563.0,652.8422172092522,637.6735958079216,1078.4159378509416
71475.0,14629.0,71475.0,49525.0,71475.0,71597.0,646.8170938620718,626.2823371382766,1059.773808876581
71475.0,14640.0,71475.0,49575.0,71475.0,71544.0,640.6548937367651,614.8481680150787,1041.0760835294193
71475.0,14638.0,71475.0,49555.0,71475.0,71541.0,634.3636388760367,603.3784670962852,1022.3364921002661
71475.0,14609.0,71475.0,49485.0,71475.0,71485.0,627.9517668684874,591.8822479572713,1003.5696225548656
71475.0,14601.0,71475.0,49477.0,71475.0,71462.0,621.4281010453471,580.3700952669388,984.7906158595256
71475.0,14603.0,71475.0,49425.0,71475.0,71449.0,614.8016324478996,568.853448275768,966.0147349248289
71486.0,14577.0,71486.0,49436.0,71486.0,71430.0,608.081339939341,557.3438626805764,947.2570758367395
71486.0,14585.0,71486.0,49383.0,71486.0,71435.0,601.276092695468,545.8525196600433,928.5325605218106
71486.0,14582.0,71486.0,49439.0,71486.0,71420.0,594.3945922882842,534.3899715967309,909.8561577419817
71486.0,14593.0,71486.0,49432.0,71486.0,71407.0,587.4454633573474,522.9662860239209,891.2432084865695
71486.0,14566.0,71486.0,49379.0,71486.0,71371.0,580.437468302189,511.59151864770797,872.7096589725267
71486.0,14572.0,71486.0,49403.0,71486.0,71366.0,573.3796332251916,500.27595656838304,854.272079330783
71496.0,14572.0,71496.0,49413.0,71496.0,71373.0,566.2812605557009,489.03010708765277,835.9476516189762
71496.0,14570.0,71496.0,49428.0,71496.0,71337.0,559.152012220771,477.86501661873484,817.7543593507216
71496.0,14559.0,71496.0,49378.0,71496.0,71318.0,552.0020772268566,466.79285661939497,799.7112100140175
71496.0,14519.0,71496.0,49328.0,71496.0,71251.0,544.8422027540681,455.8270840742038,781.838131798435
71496.0,14523.0,71496.0,49325.0,71496.0,71265.0,537.6834427267393,444.9819170952426,764.1555236795277
71496.0,14522.0,71496.0,49308.0,71496.0,71246.0,530.53682386385,434.27164328204424,746.6838568925574
71506.0,14509.0,71506.0,49282.0,71506.0,71217.0,523.4132283656504,423.710231914472,729.4436124832853
71506.0,14510.0,71506.0,49330.0,71506.0,71235.0,516.3234443131713,413.31122928495256,712.4553842829
71506.0,14523.0,71506.0,49268.0,71506.0,71204.0,509.2782559349178,403.0878982690172,695.7400312913537
71506.0,14497.0,71506.0,49275.0,71506.0,71144.0,502.2886138646634,393.0533993229202,679.3187897562118
71506.0,14480.0,71506.0,49268.0,71506.0,71137.0,495.3657413561954,383.22074129940984,663.2130144063833
71506.0,14474.0,71506.0,49265.0,71506.0,71148.0,488.5209858711724,373.60271819243115,647.4437221953369
71517.0,14489.0,71517.0,49301.0,71517.0,71138.0,481.76561805011056,364.21211673270864,632.0315389094569
71517.0,14481.0,71517.0,49258.0,71517.0,71089.0,475.1108792346465,355.0621478709954,616.9969751082706
71517.0,14450.0,71517.0,49242.0,71517.0,71083.0,468.56815575375686,346.1667637693743,602.3604600394463
71517.0,14448.0,71517.0,49193.0,71517.0,71050.0,462.1489355781249,337.5404834586808,588.1420498919074
71517.0,14425.0,71517.0,49146.0,71517.0,71037.0,455.86453078551295,329.1977145705704,574.3611092377269
71517.0,14421.0,71517.0,49141.0,71517.0,70999.0,449.72578403011397,321.151825671528,561.0360318006196
71527.0,14422.0,71527.0,49179.0,71527.0,71016.0,443.7428679348573,313.41444836455696,548.1839675486565
71527.0,14420.0,71527.0,49159.0,71527.0,71010.0,437.9252337228761,305.9954600225726,535.8207376526852
71527.0,14412.0,71527.0,49188.0,71527.0,70980.0,432.28169054674265,298.9034525014024,523.961005562547
71527.0,14412.0,71527.0,49170.0,71527.0,70978.0,426.8204897389552,292.1462210526566,512.6184102476657
71527.0,14407.0,71527.0,49134.0,71527.0,70959.0,421.54937119962847,285.73103840060645,501.8055093475922
71527.0,14408.0,71527.0,49183.0,71527.0,70944.0,416.47561819906616,279.6646530147014,491.533675473398
71537.0,14404.0,71537.0,49146.0,71537.0,70973.0,411.60613653362026,273.95329061283877,481.8130687009684
71537.0,14400.0,71537.0,49149.0,71537.0,70921.0,406.9475355373284,268.60282057286713,472.65275166932145
71537.0,14377.0,71537.0,49101.0,71537.0,70899.0,402.50614191878674,263.6187389705024,464.06072434564743
71537.0,14385.0,71537.0,49094.0,71537.0,70894.0,398.2878875219149,259.0057717543994,456.04359889088795
71537.0,14354.0,71537.0,49111.0,71537.0,70907.0,394.29812140038416,254.76737715727168,448.6062280457085
71537.0,14361.0,71537.0,49095.0,71537.0,70868.0,390.5413986332181,250.9055296776997,441.7516409759085
71548.0,14366.0,71548.0,49081.0,71548.0,70918.0,387.02130439939816,247.4207490969758,435.4811366665514
71548.0,14366.0,71548.0,49124.0,71548.0,70881.0,383.74045280253677,244.3121255506225,429.7944517924923
71548.0,14363.0,71548.0,49081.0,71548.0,70883.0,380.70063604528667,241.57742563233398,424.6899807590443
71548.0,14366.0,71548.0,49052.0,71548.0,70899.0,377.9029538755158,239.21316015911174,420.1648799495731
71548.0,14367.0,71548.0,49139.0,71548.0,70894.0,375.3478989598254,237.21440927436856,416.2151736042883
71548.0,14377.0,71548.0,49134.0,71548.0,70868.0,373.0354750482354,235.57497771215083,412.83593832033756
71558.0,14370.0,71558.0,49136.0,71558.0,70879.0,370.9653641019339,234.28815560251792,410.0213113117591
71558.0,14352.0,71558.0,49112.0,71558.0,70881.0,369.1370310776401,233.347322069651,407.76436508507516
71558.0,14353.0,71558.0,49098.0,71558.0,70853.0,367.54963281283545,232.7459223303874,406.0570672817421
71558.0,14349.0,71558.0,49066.0,71558.0,70836.0,366.20180995513624,232.47703301999502,404.89014984913695
71558.0,14345.0,71558.0,49061.0,71558.0,70847.0,365.09153802870304,232.53275071345925,404.25274411838376
71558.0,14345.0,71558.0,49084.0,71558.0,70879.0,364.216049826317,232.90365481487822,404.13214028974784
71568.0,14353.0,71568.0,49099.0,71568.0,70903.0,363.57179681468324,233.5786729191232,404.51405213637827
71568.0,14346.0,71568.0,49095.0,71568.0,70880.0,363.1544759513199,234.5453550232438,405.3832092468503
71568.0,14363.0,71568.0,49102.0,71568.0,70864.0,362.95910583779846,235.79019065089838,406.7236964556691
71568.0,14347.0,71568.0,49133.0,71568.0,70893.0,362.98011389703197,237.29881548577055,408.5188325083357
71568.0,14376.0,71568.0,49150.0,71568.0,70924.0,363.211426639583,239.05633864945756,410.75109035517295
71568.0,14352.0,71568.0,49172.0,71568.0,70906.0,363.6465733164185,241.04790036314694,413.40242792882975
71579.0,14367.0,71579.0,49137.0,71579.0,70916.0,364.2787606551561,243.25919333658592,416.454667723171
71579.0,14359.0,71579.0,49129.0,71579.0,70873.0,365.1008642480522,245.67656587659454,419.8894947019201
71579.0,14359.0,71579.0,49093.0,71579.0,70869.0,366.10537930940166,248.28659991957142,423.6880387215048
71579.0,14350.0,71579.0,49114.0,71579.0,70883.0,367.2843411522192,251.07544775474074,427.8302808637335
71579.0,14353.0,71579.0,49130.0,71579.0,70888.0,368.62918122530164,254.02837714481745,432.29467689612756
71579.0,14376.0,71579.0,49159.0,71579.0,70937.0,370.13062420333983,257.12981671224054,437.05821302560116
71589.0,14370.0,71589.0,49167.0,71589.0,70898.0,371.7787721155089,260.36380290519594,442.09674488686244
71589.0,14384.0,71589.0,49136.0,71589.0,70927.0,373.56331105286426,263.7144060855753,447.3852501665235
71589.0,14382.0,71589.0,49132.0,71589.0,70948.0,375.4736768513798,267.16573150750673,452.8978762403288
71589.0,14387.0,71589.0,49172.0,71589.0,70958.0,377.4991497261336,270.7016070050447,458.6080952826365
71589.0,14396.0,71589.0,49254.0,71589.0,71005.0,379.62891867090593,274.30567834645257,464.48911338736224
71589.0,14401.0,71589.0,49207.0,71589.0,71001.0,381.85216251416557,277.9622547821755,470.5144090824875
71600.0,14388.0,71600.0,49231.0,71600.0,70964.0,384.15813179015254,281.65717272086255,476.6581309187935
71600.0,14393.0,71600.0,49169.0,71600.0,70967.0,386.5361164227746,285.37792116190917,482.8949623857065
71600.0,14385.0,71600.0,49160.0,71600.0,70981.0,388.9752874282127,289.11307993254695,489.19959058007333
71600.0,14398.0,71600.0,49153.0,71600.0,70975.0,391.46453845489896,292.85145969397723,495.546335973301
71600.0,14400.0,71600.0,49134.0,71600.0,70999.0,393.99242465133136,296.5813245557007,501.9090695703383
71600.0,14406.0,71600.0,49192.0,71600.0,71010.0,396.54720529309634,300.28995265845083,508.2612725857093
71610.0,14420.0,71610.0,49222.0,71610.0,71049.0,399.1169439933011,303.96374152987903,514.5762718589476
71610.0,14418.0,71610.0,49190.0,71610.0,71063.0,401.6896425900957,307.588803982203,520.8276963846105
71610.0,14431.0,71610.0,49203.0,71610.0,71042.0,404.25338278695546,311.1514134677201,526.9899574884176
71610.0,14439.0,71610.0,49250.0,71610.0,71063.0,406.79645771809425,314.6380605367723,533.0384297016988
71610.0,14438.0,71610.0,49266.0,71610.0,71081.0,409.307514059313,318.03571176208345,538.9493979165911
71610.0,14447.0,71610.0,49234.0,71610.0,71109.0,411.7756706575286,321.3323747705716,544.7001804066439
71620.0,14434.0,71620.0,49213.0,71620.0,71065.0,414.19055535670327,324.5172898302618,550.2694244297433
71620.0,14438.0,71620.0,49216.0,71620.0,71059.0,416.54223811060996,327.58049743714184,555.6370833812566
71620.0,14438.0,71620.0,49221.0,71620.0,71069.0,418.8210910742832,330.5122902061466,560.783940599675
71620.0,14449.0,71620.0,49208.0,71620.0,71082.0,421.01768932471373,333.3029318761469,565.6911742628314
71620.0,14446.0,71620.0,49236.0,71620.0,71095.0,423.12281930568747,335.9425587514882,570.3403100561
71620.0,14457.0,71620.0,49233.0,71620.0,71119.0,425.1275406611489,338.42120116097897,574.7134468695139
71631.0,14452.0,71631.0,49226.0,71631.0,71078.0,427.0232430663434,340.72890703881285,578.7935051773258
71631.0,14458.0,71631.0,49264.0,71631.0,71116.0,428.8016781075362,342.8558485488582,582.5642578534364
71631.0,14460.0,71631.0,49234.0,71631.0,71111.0,430.45496648784075,344.792444450731,586.01022289711
71631.0,14472.0,71631.0,49300.0,71631.0,71125.0,431.97562939429224,346.52958351844524,589.1167120318264
71631.0,14453.0,71631.0,49281.0,71631.0,71152.0,433.3566503510317,348.05898979110873,591.8700559125591
71631.0,14472.0,71631.0,49283.0,71631.0,71127.0,434.5914787560898,349.3736550665353,594.2578829656908
71641.0,14458.0,71641.0,49240.0,71641.0,71104.0,435.67397532804273,350.4679645124601,596.2692175478321
71641.0,14441.0,71641.0,49224.0,71641.0,71121.0,436.59831991169744,351.3372808694833,597.894199497965
71641.0,14460.0,71641.0,49230.0,71641.0,71103.0,437.3588170837378,351.97725051438454,599.1236986403424
71641.0,14471.0,71641.0,49255.0,71641.0,71148.0,437.9497555741934,352.38333949352284,599.9491827573248
71641.0,14470.0,71641.0,49271.0,71641.0,71113.0,438.36553013092055,352.5509072764863,600.362849446122
71641.0,14475.0,71641.0,49263.0,71641.0,71139.0,438.60087220768435,352.4756301697594,600.3578096425002
71651.0,14479.0,71651.0,49232.0,71651.0,71106.0,438.6509953771334,352.1537807490772,599.9281267601124
71651.0,14467.0,71651.0,49257.0,71651.0,71138.0,438.51166575441016,351.5821165525833,599.0687440444273
71651.0,14491.0,71651.0,49280.0,71651.0,71128.0,438.1792340109254,350.7577343279942,597.7754824659638
71651.0,14479.0,71651.0,49258.0,71651.0,71127.0,437.6507019671322,349.6782703957622,596.0451659780297
71651.0,14472.0,71651.0,49268.0,71651.0,71137.0,436.92381983295354,348.3421922310537,593.8757528474653
71651.0,14470.0,71651.0,49252.0,71651.0,71098.0,435.9970624125444,346.74885551880925,591.2663719720239
71662.0,14456.0,71662.0,49228.0,71662.0,71091.0,434.8694701795697,344.89836315567493,588.2171630619401
71662.0,14461.0,71662.0,49246.0,71662.0,71112.0,433.54046657755447,342.7913051451334,584.728959164686
71662.0,14448.0,71662.0,49252.0,71662.0,71097.0,432.00970419448174,340.428579731636,580.8031515132074
71662.0,14457.0,71662.0,49257.0,71662.0,71127.0,430.27696006860407,337.81151633998627,576.4418682109526
71662.0,14460.0,71662.0,49266.0,71662.0,71085.0,428.34211454028525,334.94218493607013,571.6482400487093
71662.0,14461.0,71662.0,49245.0,71662.0,71096.0,426.2052440116754,331.8236610574022,566.4265166039519
71672.0,14463.0,71672.0,49226.0,71672.0,71066.0,423.8667749991165,328.46007644938425,560.7819596638009
71672.0,14452.0,71672.0,49234.0,71672.0,71088.0,421.3275982869169,324.8564147314109,554.7206757293303
71672.0,14471.0,71672.0,49256.0,71672.0,71117.0,418.589128999587,321.01835146873543,548.249682891417
71672.0,14452.0,71672.0,49228.0,71672.0,71089.0,415.65338541478764,316.95239752387175,541.3773393702681
71672.0,14438.0,71672.0,49200.0,71672.0,71055.0,412.52303789966845,312.66603789688617,534.1137348119934
71672.0,14428.0,71672.0,49168.0,71672.0,71039.0,409.2012680305513,308.16743074364894,526.4705523028429
71682.0,14435.0,71682.0,49162.0,71682.0,71008.0,405.69151471115543,303.46475739966576,518.4605383853902
71682.0,14416.0,71682.0,49153.0,71682.0,70991.0,401.99732372531435,298.56563396583675,510.09694699494054
71682.0,14424.0,71682.0,49148.0,71682.0,70993.0,398.12229656645604,293.47679668808564,501.393098568359
71682.0,14420.0,71682.0,49213.0,71682.0,71001.0,394.0700696225246,288.2041337409242,492.36220163114496
71682.0,14412.0,71682.0,49172.0,71682.0,70975.0,389.8443458593589,282.7531522374755,483.0174789292999
71682.0,14429.0,71682.0,49160.0,71682.0,70953.0,385.4489707879944,277.12952814183615,473.37229209388187
71693.0,14412.0,71693.0,49150.0,71693.0,70956.0,380.8880566406717,271.3391884474129,463.4400337031466
71693.0,14434.0,71693.0,49167.0,71693.0,70962.0,376.1661627223276,265.38810554389664,453.23402308183427
71693.0,14407.0,71693.0,49187.0,71693.0,71002.0,371.28847918367956,259.28236617233574,442.76777169296713
71693.0,14394.0,71693.0,49183.0,71693.0,70920.0,366.26089668899453,253.0286240516549,432.0555326877
71693.0,14390.0,71693.0,49113.0,71693.0,70902.0,361.0898646699681,246.63448873224803,421.1124886032163
71693.0,14361.0,71693.0,49110.0,71693.0,70891.0,355.782129042398,240.10830810057982,409.95427925577786
71703.0,14366.0,71703.0,49096.0,71703.0,70863.0,350.3444645305202,233.4584859492715,398.59641776636647
71703.0,14354.0,71703.0,49101.0,71703.0,70847.0,344.7834499521696,226.6929839603385,387.05395646126226
71703.0,14364.0,71703.0,49094.0,71703.0,70851.0,339.10538338513277,219.81923246693012,375.34127667804535
71703.0,14366.0,71703.0,49091.0,71703.0,70828.0,333.31638152291566,212.84423319891263,363.47201413243505
71703.0,14342.0,71703.0,49068.0,71703.0,70836.0,327.4225638511921,205.77464330318145,351.45913961490254
71703.0,14362.0,71703.0,49075.0,71703.0,70782.0,321.4301656170651,198.6167513657091,339.31502862790614
71713.0,14336.0,71713.0,49061.0,71713.0,70828.0,315.3455814131666,191.3764221191426,327.0514345435398
71713.0,14329.0,71713.0,49148.0,71713.0,70827.0,309.1753857174128,184.059288902241,314.67962391252075
71713.0,14332.0,71713.0,49104.0,71713.0,70812.0,302.9262755393331,176.67144866289854,302.210881979547
71713.0,14321.0,71713.0,49050.0,71713.0,70778.0,296.6050159073439,169.22019588123229,289.6569832886521
71713.0,14288.0,71713.0,49040.0,71713.0,70741.0,290.21841226371043,161.71395131705475,277.0301575027075
71713.0,14285.0,71713.0,49008.0,71713.0,70742.0,283.773117294947,154.16152700414835,264.3426714753972
71724.0,14279.0,71724.0,48984.0,71724.0,70717.0,277.2753165001148,146.5714193350677,251.60645013751707
71724.0,14285.0,71724.0,49006.0,71724.0,70710.0,270.7305735796153,138.95133030734456,238.83292400710604
71724.0,14269.0,71724.0,49050.0,71724.0,70696.0,264.14389210856814,131.30811498465587,226.03299568061482
71724.0,14270.0,71724.0,48998.0,71724.0,70676.0,257.5198172495669,123.64829253421684,213.21702374681303
71724.0,14269.0,71724.0,48988.0,71724.0,70652.0,250.86249639115277,115.97852159217865,200.39475900907428
71724.0,14268.0,71724.0,48984.0,71724.0,70660.0,244.1757774864353,108.30553381021056,187.57522053582636
71734.0,14251.0,71734.0,48999.0,71734.0,70676.0,237.46334495404375,100.6359321313546,174.7667358534007
71734.0,14270.0,71734.0,48992.0,71734.0,70659.0,230.72881813572022,92.97631700633843,161.97732307104923
71734.0,14250.0,71734.0,48998.0,71734.0,70656.0,223.9758648040015,85.3336249815257,149.21518193301836
71734.0,14233.0,71734.0,48917.0,71734.0,70562.0,217.208313409436,77.7152949335719,136.48884224097503
71734.0,14225.0,71734.0,48898.0,71734.0,70595.0,210.43009395368628,70.12887317056499,123.8067508154707
71734.0,14224.0,71734.0,48922.0,71734.0,70582.0,203.64505997992566,62.581210964518164,111.17673384356038
71744.0,14204.0,71744.0,48899.0,71744.0,70570.0,196.8568838059159,55.077988886149626,98.60592121810305
71744.0,14207.0,71744.0,48912.0,71744.0,70532.0,190.06900868515496,47.62378021473933,86.10091000617717
71744.0,14212.0,71744.0,48902.0,71744.0,70555.0,183.28463551519934,40.22226063747047,73.66773576048985
71744.0,14195.0,71744.0,48925.0,71744.0,70533.0,176.50682088063968,32.87644063903281,61.31184370929532
71744.0,14188.0,71744.0,48898.0,71744.0,70525.0,169.7385891857084,25.588979143868357,49.038253901880466
71744.0,14176.0,71744.0,48873.0,71744.0,70504.0,162.98291104341695,18.36238200752865,36.85170561458517
71755.0,14192.0,71755.0,48977.0,71755.0,70514.0,156.24264495932144,11.199089312881881,24.756685735140763
71755.0,14175.0,71755.0,48878.0,71755.0,70482.0,149.5206142274718,4.1018804120096775,12.757484650746278
71755.0,14155.0,71755.0,48891.0,71755.0,70487.0,142.81972989974676,-2.925658360653699,0.8582835378399523
71755.0,14147.0,71755.0,48830.0,71755.0,70449.0,136.1429290308912,-9.879327889264118,-10.936834346629439
71755.0,14139.0,71755.0,48827.0,71755.0,70435.0,129.49296250698646,-16.755016681385143,-22.624003151263878
71755.0,14122.0,71755.0,48799.0,71755.0,70431.0,122.87221854423663,-23.549387511596592,-34.1997904245585
71765.0,14124.0,71765.0,48841.0,71765.0,70436.0,116.28260200687777,-30.260295441504752,-45.661299277336525
71765.0,14135.0,71765.0,48813.0,71765.0,70406.0,109.72549982226951,-36.88676732812172,-57.00604349879541
71765.0,14125.0,71765.0,48840.0,71765.0,70424.0,103.20193361515015,-43.42867443344352,-68.2317738115205
71765.0,14101.0,71765.0,48807.0,71765.0,70390.0,96.71275785235969,-49.88641791883754,-79.33635653715658
71765.0,14107.0,71765.0,48819.0,71765.0,70367.0,90.25866061523749,-56.26076889518896,-90.31773713020493
71765.0,14116.0,71765.0,48829.0,71765.0,70384.0,83.84009041579782,-62.552776000735605,-101.17405138811182
71775.0,14110.0,71775.0,48858.0,71775.0,70369.0,77.4573842571877,-68.76348145152929,-111.90367191652331
71775.0,14083.0,71775.0,48824.0,71775.0,70345.0,71.11098156857605,-74.89339494428617,-122.50506646732754
71775.0,14077.0,71775.0,48784.0,71775.0,70315.0,64.80141234770025,-80.9421867929392,-132.9767879525573
71775.0,14080.0,71775.0,48754.0,71775.0,70292.0,58.52910199268598,-86.90902729076373,-143.31779046313136
71775.0,14070.0,71775.0,48745.0,71775.0,70299.0,52.29427612547494,-92.79334969784031,-153.52784265899913
71775.0,14052.0,71775.0,48744.0,71775.0,70276.0,46.09697955840437,-98.59548439938698,-163.60774512428355
71786.0,14056.0,71786.0,48751.0,71786.0,70281.0,39.93703130835041,-104.31689104509292,-173.55932943393202
71786.0,14054.0,71786.0,48776.0,71786.0,70297.0,33.81396017700615,-109.96000484675403,-183.3853198578896
71786.0,14047.0,71786.0,48790.0,71786.0,70290.0,27.727056490212988,-115.52775770229101,-193.08899896098336
71786.0,14041.0,71786.0,48735.0,71786.0,70286.0,21.675473226396036,-121.02303108760975,-202.67375796800582
71786.0,14033.0,71786.0,48773.0,71786.0,70253.0,15.658265249657518,-126.44845346742551,-212.14281916357578
71786.0,14042.0,71786.0,48758.0,71786.0,70277.0,9.674405122511075,-131.80644499949648,-221.49920914963212
71796.0,14036.0,71796.0,48751.0,71796.0,70249.0,3.7228787353412827,-137.09912899203533,-230.74575418129575
71796.0,14033.0,71796.0,48729.0,71796.0,70231.0,-2.197143265223076,-142.3282415800569,-239.88501653848698
71796.0,14002.0,71796.0,48694.0,71796.0,70210.0,-8.086216069983664,-147.49533501606317,-248.91938838220176
71796.0,14002.0,71796.0,48694.0,71796.0,70205.0,-13.944746864063518,-152.6022421382345,-257.85136527530835
71796.0,13996.0,71796.0,48708.0,71796.0,70169.0,-19.77322927281392,-157.65149435734287,-266.68381715564703
71796.0,14002.0,71796.0,48701.0,71796.0,70207.0,-25.5723472849607,-162.64638144797868,-275.4201737078191
71807.0,13980.0,71807.0,48701.0,71807.0,70192.0,-31.342918281899813,-167.5907421060213,-284.0643742870791
71807.0,13998.0,71807.0,48716.0,71807.0,70219.0,-37.08582288439851,-172.4887401577094,-292.6204851502157
71807.0,13973.0,71807.0,48695.0,71807.0,70182.0,-42.80195397274616,-177.34465058596174,-301.09221660172454
71807.0,13972.0,71807.0,48698.0,71807.0,70170.0,-48.49218283116761,-182.16269369499997,-309.48267991611124
71807.0,13974.0,71807.0,48752.0,71807.0,70206.0,-54.15738084056295,-186.94687478154287,-317.7943920188685
71807.0,13974.0,71807.0,48729.0,71807.0,70187.0,-59.79839753173661,-191.7005377671179,-326.0291352294962
71817.0,13968.0,71817.0,48699.0,71817.0,70149.0,-65.41592414374293,-196.42581682798806,-334.1876477063487
71817.0,13947.0,71817.0,48657.0,71817.0,70134.0,-71.01038837083536,-201.12364362867305,-342.26965249327304
71817.0,13955.0,71817.0,48617.0,71817.0,70081.0,-76.58199563057616,-205.7944537746664,-350.2743587111669
71817.0,13934.0,71817.0,48631.0,71817.0,70092.0,-82.130829821428,-210.4391269928671,-358.2011293193194
71817.0,13929.0,71817.0,48674.0,71817.0,70065.0,-87.6569386867082,-215.0595194981861,-366.05002405111713
71817.0,13929.0,71817.0,48671.0,71817.0,70109.0,-93.16042806731468,-219.65820805496134,-373.8219929079685
71827.0,13934.0,71827.0,48672.0,71827.0,70119.0,-98.64148814156164,-224.23780589816533,-381.5185866451276
71827.0,13925.0,71827.0,48652.0,71827.0,70072.0,-104.10027677337081,-228.80050410006652,-389.14137647812504
71827.0,13919.0,71827.0,48634.0,71827.0,70013.0,-109.53677734144117,-233.3480447245729,-396.69177710238137
71827.0,13910.0,71827.0,48663.0,71827.0,70053.0,-114.95075854201201,-237.88189904594788,-404.17159272592266
71827.0,13917.0,71827.0,48671.0,71827.0,70095.0,-120.34179367070175,-242.40324603363854,-411.58343610848965
71827.0,13906.0,71827.0,48703.0,71827.0,70096.0,-125.70922808905101,-246.91252845015435,-418.93022725277365
71838.0,13878.0,71838.0,48665.0,71838.0,70053.0,-131.0521515558858,-251.40882735381655,-426.21431402709516
71838.0,13878.0,71838.0,48566.0,71838.0,70006.0,-136.3695474619895,-255.8897106834752,-433.4372406593426
71838.0,13857.0,71838.0,48576.0,71838.0,70019.0,-141.6605785231789,-260.3520537902907,-440.60029152652294
71838.0,13858.0,71838.0,48562.0,71838.0,70001.0,-146.92483289992668,-264.79328558383975,-447.7051018875318
71838.0,13873.0,71838.0,48602.0,71838.0,70027.0,-152.1624275598968,-269.21203233395954,-454.75382553766167
71838.0,13871.0,71838.0,48653.0,71838.0,70009.0,-157.3738798541155,-273.60783541036363,-461.74893623233686
71848.0,13860.0,71848.0,48608.0,71848.0,70014.0,-162.55983027899634,-277.98029311140783,-468.69293601673166
71848.0,13856.0,71848.0,48586.0,71848.0,69980.0,-167.72087342429182,-282.3284118093071,-475.5881990668852
71848.0,13848.0,71848.0,48580.0,71848.0,70018.0,-172.8575598258093,-286.650706765739,-482.4369752513784
71848.0,13840.0,71848.0,48581.0,71848.0,70009.0,-177.97045335456022,-290.9456357672057,-489.24128418643704
71848.0,13853.0,71848.0,48586.0,71848.0,70004.0,-183.06015710634279,-295.21178279614054,-496.0025782943418
71848.0,13845.0,71848.0,48579.0,71848.0,69983.0,-188.12723087436984,-299.44777357320606,-502.72147431559597
71858.0,13824.0,71858.0,48571.0,71858.0,69945.0,-193.17205887616478,-303.6521537215497,-509.3978365536241
71858.0,13810.0,71858.0,48535.0,71858.0,69945.0,-198.19489437546372,-307.8234319716018,-516.031179453978
