c_ts,c_val,d_ts,d_val,e_ts,e_val,c_val_filtered,d_val_filtered,e_val_filtered
35154,11704,35154.0,31234.0,35154.0,32326.0,-376.5766059819821,-193.58173246466197,-325.7932305649026
35154,11704,35154.0,31325.0,35154.0,32464.0,-362.95663307720577,-134.85972634088046,-245.9886431771613
35154,11731,35154.0,31456.0,35154.0,32602.0,-348.7667418747635,-75.34638038521973,-165.00022272953652
35154,11770,35154.0,31554.0,35154.0,32734.0,-334.01941936096796,-15.205400409186382,-83.03753352490617
35164,11775,35164.0,31661.0,35164.0,32868.0,-318.72841964145516,45.397854013338815,-0.31295950295429975
35164,11791,35164.0,31768.0,35164.0,33003.0,-302.90854550688107,106.29786300431351,82.95988683988298
35164,11843,35164.0,31909.0,35164.0,33159.0,-286.5755466672123,167.3304170561372,166.5677575841803
35164,11854,35164.0,32009.0,35164.0,33299.0,-269.74594394550786,228.3342766814891,250.29949896703852
35164,11861,35164.0,32060.0,35164.0,33393.0,-252.43675261249842,289.1528280113997,333.9478150125474
35164,11862,35164.0,32111.0,35164.0,33510.0,-234.6654503812565,349.6351202877223,417.3106794310669
35175,11869,35175.0,32191.0,35175.0,33592.0,-216.45030485926884,409.6361102004254,500.19222035135203
35175,11883,35175.0,32248.0,35175.0,33722.0,-197.81084132316727,469.01662590837236,582.4033029808031
35175,11916,35175.0,32314.0,35175.0,33824.0,-178.76821344031464,527.6434318550462,663.7621281848506
35175,11922,35175.0,32406.0,35175.0,33922.0,-159.3453670155559,585.3893948424061,744.0949644113839
35175,11985,35175.0,32499.0,35175.0,34037.0,-139.5670203564335,642.1338690073235,823.2368873023499
35175,12009,35175.0,32575.0,35175.0,34150.0,-119.45943420256651,697.7634252382734,901.0325083291675
35185,12025,35185.0,32627.0,35185.0,34228.0,-99.05001291678803,752.1726678747418,977.3367726652534
35185,12074,35185.0,32731.0,35185.0,34332.0,-78.36698095870616,805.264852964631,1052.0156754967072
35185,12114,35185.0,32821.0,35185.0,34439.0,-57.4391175654618,856.9525118341553,1124.9468367055863
35185,12132,35185.0,32841.0,35185.0,34479.0,-36.295360522060776,907.1582652313291,1196.0200455195527
35185,12139,35185.0,32860.0,35185.0,34551.0,-14.964476415226216,955.8153168465938,1265.1375605290668
35185,12160,35185.0,32870.0,35185.0,34565.0,6.524928340806525,1002.8671106451006,1332.2138752066044
35196,12165,35196.0,32871.0,35196.0,34618.0,28.144141637320388,1048.2663403649672,1397.175008767544
35196,12210,35196.0,32889.0,35196.0,34652.0,49.86406267034971,1091.973713726987,1459.9575599099153
35196,12221,35196.0,32942.0,35196.0,34690.0,71.65506666398619,1133.9567946813936,1520.5077525057482
35196,12258,35196.0,32984.0,35196.0,34764.0,93.48702838426198,1174.1892771119794,1578.780625073758
35196,12287,35196.0,33026.0,35196.0,34833.0,115.32941636312029,1212.6507699888848,1634.7395479280544
35196,12335,35196.0,33063.0,35196.0,34879.0,137.15148107070695,1249.3268135352632,1688.356158516654
35206,12351,35206.0,33098.0,35206.0,34905.0,158.92257647544488,1284.2088902993921,1739.6103842563293
35206,12406,35206.0,33165.0,35206.0,34976.0,180.61252087184602,1317.2944599365976,1788.4902239252592
35206,12436,35206.0,33194.0,35206.0,35029.0,202.19197368169642,1348.587169758669,1834.9914946912377
35206,12452,35206.0,33175.0,35206.0,35028.0,223.6328372980725,1378.0970812615114,1879.117739450534
35206,12453,35206.0,33180.0,35206.0,35035.0,244.90846635936498,1405.8404086115931,1920.8798959512533
35206,12474,35206.0,33171.0,35206.0,35037.0,265.99350727730746,1431.8386554466936,1960.295387616181
35216,12499,35216.0,33174.0,35216.0,35091.0,286.86356721087463,1456.117546129886,1997.3869797616471
35216,12498,35216.0,33148.0,35216.0,35089.0,307.494962231283,1478.7059794607312,2032.1819146937537
35216,12540,35216.0,33190.0,35216.0,35129.0,327.86452928595554,1499.635022244886,2064.71136139152
35216,12566,35216.0,33233.0,35216.0,35162.0,347.9495189243895,1518.93722714906,2095.00999677663
35216,12605,35216.0,33254.0,35216.0,35191.0,367.72771322415065,1536.6465834770822,2123.115758047401
35216,12621,35216.0,33267.0,35216.0,35204.0,387.17771299139315,1552.7988306650543,2149.069744726908
35227,12654,35227.0,33297.0,35227.0,35222.0,406.2791986549315,1567.431671989595,2172.9160526679893
35227,12698,35227.0,33336.0,35227.0,35266.0,425.0131554273878,1580.5849217351035,2194.7015305978666
35227,12705,35227.0,33337.0,35227.0,35280.0,443.3621706473841,1592.3007950656056,2214.475678367711
35227,12723,35227.0,33292.0,35227.0,35264.0,461.31069058966796,1602.6240762297273,2232.2906327810138
35227,12721,35227.0,33258.0,35227.0,35265.0,478.8450126750837,1611.6016294747265,2248.200867042023
35227,12728,35227.0,33244.0,35227.0,35244.0,495.9530034689468,1619.2812370650754,2262.2624928663777
35237,12755,35237.0,33252.0,35237.0,35248.0,512.6237149341825,1625.710372044974,2274.5324002794346
35237,12761,35237.0,33238.0,35237.0,35282.0,528.8471037355912,1630.9353858621582,2285.067530789047
35237,12790,35237.0,33254.0,35237.0,35278.0,544.61391669235,1635.0010708817556,2293.924535070083
35237,12817,35237.0,33292.0,35237.0,35301.0,559.9156981875312,1637.950501185623,2301.1597566634973
35237,12833,35237.0,33315.0,35237.0,35299.0,574.7449238847956,1639.8252898477435,2306.8292707080523
35237,12850,35237.0,33315.0,35237.0,35318.0,589.095182102539,1640.6661803418078,2310.9888969597714
35247,12880,35247.0,33344.0,35247.0,35342.0,602.9613019042301,1640.5136024126782,2313.694282425233
35247,12905,35247.0,33392.0,35247.0,35349.0,616.3395110854084,1639.4081789442712,2315.0011469186043
35247,12905,35247.0,33335.0,35247.0,35320.0,629.2276626756296,1637.391342381517,2314.9655460574154
35247,12893,35247.0,33291.0,35247.0,35307.0,641.625297351041,1634.5055777425248,2313.6437977686282
35247,12903,35247.0,33255.0,35247.0,35287.0,653.5333516009755,1630.7937545965715,2311.0920037126416
35247,12915,35247.0,33261.0,35247.0,35265.0,664.9537059466805,1626.2979837654013,2307.3654208237713
35258,12910,35258.0,33212.0,35258.0,35272.0,675.8888504394575,1621.0587198426235,2302.517887582078
35258,12921,35258.0,33240.0,35258.0,35276.0,686.3416390538108,1615.1142012751266,2296.60146918393
35258,12960,35258.0,33276.0,35258.0,35286.0,696.3151005226105,1608.5002428970856,2289.6664493943495
35258,12972,35258.0,33274.0,35258.0,35272.0,705.8124977795499,1601.2506144339177,2281.7615520475456
35258,12990,35258.0,33284.0,35258.0,35278.0,714.8376318652937,1593.3977670388024,2272.9341497465493
35258,13011,35258.0,33268.0,35258.0,35277.0,723.3951473451178,1584.9733846433232,2263.2304035439465
35268,13017,35268.0,33322.0,35268.0,35292.0,731.4907581646478,1576.0087408509162,2252.695469682417
35268,13029,35268.0,33270.0,35268.0,35279.0,739.1314099819617,1566.5351315196392,2241.3738366584967
35268,13012,35268.0,33259.0,35268.0,35245.0,746.3253018903711,1556.584214048858,2229.309598892814
35268,12995,35268.0,33201.0,35268.0,35210.0,753.0816458870528,1546.1878273750672,2216.5463599855248
35268,13001,35268.0,33180.0,35268.0,35178.0,759.4101537100568,1535.377303798475,2203.1267094930377
35268,13016,35268.0,33137.0,35268.0,35162.0,765.3205199087428,1524.1825974382173,2189.0915409778945
35278,13012,35278.0,33133.0,35278.0,35136.0,770.8221740440965,1512.631479256492,2174.479487213287
35278,13023,35278.0,33154.0,35278.0,35145.0,775.9242187396071,1500.7490486352406,2159.326582533313
35278,13055,35278.0,33168.0,35278.0,35160.0,780.6354338823717,1488.5578156019649,2143.6662542943272
35278,13061,35278.0,33161.0,35278.0,35160.0,784.9644579856948,1476.0782699200417,2127.5297272784424
35278,13049,35278.0,33167.0,35278.0,35144.0,788.920073574988,1463.3295133524557,2110.9466274632505
35278,13087,35278.0,33203.0,35278.0,35149.0,792.5113453757559,1450.3298066961063,2093.945452251447
35289,13095,35289.0,33176.0,35289.0,35128.0,795.7477283941665,1437.09721511724,2076.5538697683714
35289,13092,35289.0,33149.0,35289.0,35107.0,798.6393317778416,1423.65017917227,2058.798917131201
35289,13063,35289.0,33111.0,35289.0,35074.0,801.1970568539327,1410.0075758247056,2040.7070097729752
35289,13059,35289.0,33035.0,35289.0,35049.0,803.4323115326797,1396.1881717227259,2022.3037144018463
35289,13062,35289.0,33021.0,35289.0,35013.0,805.3564869109154,1382.2096401508309,2003.6133778357662
35289,13043,35289.0,33013.0,35289.0,34992.0,806.9805276040499,1368.0875478284663,1984.6587080294657
35299,13058,35299.0,33023.0,35299.0,34975.0,808.3146379444629,1353.8348553768333,1965.460401627553
35299,13063,35299.0,33012.0,35299.0,34983.0,809.3680933431046,1339.462024048407,1946.0369731403555
35299,13078,35299.0,33025.0,35299.0,34975.0,810.1492495792947,1324.9773984347917,1926.4049105457061
35299,13092,35299.0,33047.0,35299.0,34946.0,810.665749720131,1310.387708983079,1906.579033269557
35299,13085,35299.0,33027.0,35299.0,34943.0,810.924798880502,1295.6987243980975,1886.5727565456962
35299,13117,35299.0,33064.0,35299.0,34960.0,810.9334053884274,1280.9159444224974,1866.3982798842776
35309,13125,35309.0,33052.0,35309.0,34934.0,810.6986549025374,1266.0452700617634,1846.066970388568
35309,13109,35309.0,32975.0,35309.0,34903.0,810.228051655069,1251.0935195247798,1825.5898049309296
35309,13084,35309.0,32941.0,35309.0,34855.0,809.5296371975368,1236.0682898256373,1804.9774357167767
35309,13075,35309.0,32882.0,35309.0,34824.0,808.6116698696259,1220.977048477179,1784.2397898374734
35309,13082,35309.0,32878.0,35309.0,34804.0,807.4821217480605,1205.8260338238538,1763.3854999579717
35309,13066,35309.0,32851.0,35309.0,34792.0,806.1483388710574,1190.6194697156557,1742.4215037857193
35320,13086,35320.0,32908.0,35320.0,34794.0,804.6169009139484,1175.3593189645667,1721.3529779911642
35320,13096,35320.0,32893.0,35320.0,34796.0,802.8936416315197,1160.0456887779442,1700.1836104036088
35320,13087,35320.0,32889.0,35320.0,34781.0,800.9838399737248,1144.6776229930888,1678.916099006526
35320,13106,35320.0,32895.0,35320.0,34766.0,798.8924440723454,1129.2537650520376,1657.5526469022038
35320,13111,35320.0,32918.0,35320.0,34794.0,796.6242611432627,1113.7728593569814,1636.0953701781095
35320,13131,35320.0,32931.0,35320.0,34781.0,794.184236588304,1098.2344370949406,1614.5468371566174
35330,13106,35330.0,32879.0,35330.0,34723.0,791.577787734822,1082.6396015650296,1592.910676215232
35330,13093,35330.0,32826.0,35330.0,34690.0,788.810928967357,1066.991324112469,1571.1917238972942
35330,13080,35330.0,32788.0,35330.0,34650.0,785.8900464159404,1051.2939288593127,1549.3955735567579
35330,13078,35330.0,32777.0,35330.0,34643.0,782.8215122392174,1035.552197192071,1527.5279938862886
35330,13061,35330.0,32734.0,35330.0,34626.0,779.6113690052285,1019.7706706589659,1505.594623920291
35330,13063,35330.0,32732.0,35330.0,34604.0,776.2650940882414,1003.9532270094721,1483.6009746855093
35340,13077,35340.0,32750.0,35340.0,34605.0,772.7874540093799,988.1028907846512,1461.552571372058
35340,13084,35340.0,32768.0,35340.0,34587.0,769.1825780641187,972.2221009421638,1439.4551710841697
35340,13076,35340.0,32726.0,35340.0,34572.0,765.4542187028347,956.3133686303868,1417.3150539635371
35340,13084,35340.0,32740.0,35340.0,34568.0,761.6059779438224,940.3798089767065,1395.1393085682143
35340,13102,35340.0,32789.0,35340.0,34595.0,757.6414733863562,924.4255103721582,1372.9362003408105
35340,13102,35340.0,32779.0,35340.0,34555.0,753.5646116727501,908.4562632598384,1350.7157767302747
35351,13068,35351.0,32722.0,35351.0,34509.0,749.3798721409464,892.4804742432741,1328.4903909671848
35351,13057,35351.0,32664.0,35351.0,34448.0,745.0922605551644,876.5093789290229,1306.2746078754076
35351,13056,35351.0,32616.0,35351.0,34416.0,740.7069347948159,860.5562901451804,1284.0844953676906
35351,13048,35351.0,32585.0,35351.0,34386.0,736.2288686366838,844.6354498432955,1261.9367888755592
35351,13029,35351.0,32551.0,35351.0,34375.0,731.662678939087,828.7610306697791,1239.8483288984135
35351,13066,35351.0,32588.0,35351.0,34367.0,727.0125229800746,812.9465417469113,1217.835886488087
35361,13049,35361.0,32568.0,35361.0,34356.0,722.2821730587316,797.2048142748515,1195.916311366048
35361,13060,35361.0,32558.0,35361.0,34326.0,717.4752904850609,781.5484167617842,1174.106809873964
35361,13051,35361.0,32563.0,35361.0,34329.0,712.5956640828504,765.9900562675139,1152.4251599535623
35361,13064,35361.0,32588.0,35361.0,34324.0,707.6473503487915,750.5429429845366,1130.889925328011
35361,13068,35361.0,32601.0,35361.0,34322.0,702.634850731512,735.22143748272,1109.5208484129016
35361,13052,35361.0,32552.0,35361.0,34264.0,697.563340062625,720.0418567317838,1088.3392817117726
35371,13032,35371.0,32465.0,35371.0,34201.0,692.4387557626716,705.0227442914857,1067.368189572054
35371,13009,35371.0,32429.0,35371.0,34163.0,687.2675796859095,690.1841224936286,1046.6314828343754
35371,13005,35371.0,32388.0,35371.0,34131.0,682.0564075296005,675.5461550508139,1026.1530539539935
35371,12983,35371.0,32351.0,35371.0,34125.0,676.8115282125689,661.1279581151108,1005.9560562094654
35371,12999,35371.0,32352.0,35371.0,34079.0,671.5386344386986,646.9467898532232,986.0625699170371
35371,13010,35371.0,32380.0,35371.0,34071.0,666.2427613844152,633.0177069733554,966.4934282488642
35382,13007,35382.0,32378.0,35382.0,34077.0,660.9285120143873,619.3538556158512,947.2681068266378
35382,12998,35382.0,32378.0,35382.0,34054.0,655.6003685122975,605.967159340076,928.4048484294273
35382,12985,35382.0,32380.0,35382.0,34060.0,650.2628144490403,592.8689504592325,909.920997896372
35382,13012,35382.0,32423.0,35382.0,34049.0,644.9203100391408,580.0705281349083,891.8333644916909
35382,13011,35382.0,32385.0,35382.0,34021.0,639.5774097301821,567.5838553423824,874.1585464033467
35382,12988,35382.0,32301.0,35382.0,34002.0,634.2390503108293,555.4220158946429,856.9130933770268
35392,12966,35392.0,32252.0,35392.0,33938.0,628.9106390475667,543.5987127136959,840.1133531409293
35392,12960,35392.0,32230.0,35392.0,33908.0,623.5977696740485,532.1269627565052,823.7749464450119
35392,12951,35392.0,32225.0,35392.0,33882.0,618.3058392624432,521.01792312169,807.9120037553264
35392,12933,35392.0,32194.0,35392.0,33867.0,613.0397803142971,510.2803093366649,792.5365091601107
35392,12952,35392.0,32229.0,35392.0,33872.0,607.8038896869947,499.92022131403957,777.6579918584321
35392,12943,35392.0,32224.0,35392.0,33869.0,602.6017987202155,489.94128765266163,763.2835830584297
35402,12938,35402.0,32228.0,35402.0,33865.0,597.4365945419895,480.34511796258727,749.4183307161919
35402,12948,35402.0,32245.0,35402.0,33854.0,592.3109447043087,471.1318384557992,736.0655634348279
35402,12951,35402.0,32255.0,35402.0,33870.0,587.2272250459702,462.30062574388717,723.2272001419014
35402,12967,35402.0,32305.0,35402.0,33875.0,582.1877741398731,453.8504027476093,710.9041308991679
35402,12956,35402.0,32239.0,35402.0,33840.0,577.1952418640888,445.7806501860723,699.0966809148895
35402,12921,35402.0,32207.0,35402.0,33821.0,572.2528013128638,438.0917913123946,687.8048379740019
35413,12908,35413.0,32157.0,35413.0,33804.0,567.3639730186792,430.7847046891846,677.0280773249667
35413,12905,35413.0,32156.0,35413.0,33781.0,562.5321625702231,423.8597333095621,666.7650228199195
35413,12881,35413.0,32113.0,35413.0,33751.0,557.760253525216,417.3158153731258,657.0131021760803
35413,12886,35413.0,32138.0,35413.0,33752.0,553.050338485747,411.14991885059277,647.7681680732167
35413,12896,35413.0,32142.0,35413.0,33778.0,548.4035639621411,405.35682237582364,639.0242754011474
35413,12912,35413.0,32176.0,35413.0,33777.0,543.8202285951633,399.92935993923095,630.7738981100349
35423,12912,35423.0,32169.0,35423.0,33778.0,539.3001488631604,394.85902431246836,623.0084563318967
35423,12904,35423.0,32200.0,35423.0,33782.0,534.8430494136124,390.13663598705807,615.7187877146193
35423,12923,35423.0,32240.0,35423.0,33795.0,530.4488060032755,385.75302932016854,608.8955025237079
35423,12927,35423.0,32216.0,35423.0,33787.0,526.1176604498148,381.6998614034409,602.5293523162696
35423,12883,35423.0,32179.0,35423.0,33759.0,521.8504460451105,377.9701999064216,596.6115112961423
35423,12873,35423.0,32124.0,35423.0,33723.0,517.6485117678067,374.55833161040715,591.1334893468162
35434,12863,35434.0,32111.0,35434.0,33726.0,513.5132703915492,371.458842450091,586.0866507172423
35434,12871,35434.0,32104.0,35434.0,33698.0,509.44577519253045,368.66558648970243,581.4616705267835
35434,12854,35434.0,32108.0,35434.0,33708.0,505.4465680609996,366.171053996132,577.2481722182915
35434,12851,35434.0,32117.0,35434.0,33715.0,501.5156391117984,363.96620559769104,573.4345766188521
35434,12856,35434.0,32136.0,35434.0,33704.0,497.6523561169227,362.040625041237,570.0081669900251
35434,12860,35434.0,32140.0,35434.0,33691.0,493.8554588748104,360.38287548396335,566.9552004464903
35444,12867,35444.0,32159.0,35444.0,33731.0,490.12320960268056,358.9809402500795,564.2609325847267
35444,12889,35444.0,32192.0,35444.0,33747.0,486.45367712865533,357.82271400978954,561.9098350333754
35444,12895,35444.0,32222.0,35444.0,33754.0,482.8451529107017,356.8966742757531,559.886180433537
35444,12867,35444.0,32177.0,35444.0,33740.0,479.2965714439395,356.19263038651445,558.1746351192782
35444,12850,35444.0,32119.0,35444.0,33706.0,475.8076092876325,355.7019391765462,556.7604350161126
35444,12832,35444.0,32103.0,35444.0,33690.0,472.3783575111677,355.4167869631053,555.6290501329927
35454,12826,35454.0,32088.0,35454.0,33683.0,469.00883470262215,355.3290359696367,554.7655728767547
35454,12822,35454.0,32081.0,35454.0,33686.0,465.6986076726489,355.42934172677684,554.1542050503682
35454,12818,35454.0,32070.0,35454.0,33685.0,462.44658664034847,355.7066469584375,553.7780241313654
35454,12826,35454.0,32115.0,35454.0,33703.0,459.2509625381076,356.1479409570061,553.6189787489968
35454,12819,35454.0,32124.0,35454.0,33714.0,456.1092500439586,356.73841229988886,553.6580673587464
35454,12835,35454.0,32141.0,35454.0,33711.0,453.0184040189244,357.46198520475434,553.8756440278664
35465,12844,35465.0,32173.0,35465.0,33738.0,449.9750215689791,358.3019546490931,554.2517264682195
35465,12851,35465.0,32219.0,35465.0,33765.0,446.9756642287764,359.2416863583646,554.766353488621
35465,12846,35465.0,32209.0,35465.0,33744.0,444.01720930417406,360.26548742182007,555.4000774989429
35465,12843,35465.0,32170.0,35465.0,33732.0,441.0970726292031,361.3592696249064,556.1342972393614
35465,12809,35465.0,32136.0,35465.0,33711.0,438.2132077195946,362.5104494741071,556.9511197043984
35465,12796,35465.0,32118.0,35465.0,33705.0,435.3638186705329,363.7071420325901,557.8328975683226
35475,12816,35475.0,32139.0,35475.0,33713.0,432.5469244800239,364.93727430837777,558.7617806530147
35475,12794,35475.0,32102.0,35475.0,33678.0,429.76011282025803,366.1880719005164,559.7194196241024
35475,12802,35475.0,32131.0,35475.0,33723.0,427.0005217740699,367.44582216164133,560.6867557114834
35475,12809,35475.0,32154.0,35475.0,33736.0,424.26486140915677,368.69580298741647,561.6440144220843
35475,12809,35475.0,32172.0,35475.0,33734.0,421.54950361282476,369.92256385558346,562.5710617063496
35475,12807,35475.0,32171.0,35475.0,33747.0,418.85065648054075,371.11047256426883,563.4478419134891
35485,12829,35485.0,32232.0,35485.0,33773.0,416.164538375974,372.24425900510994,564.2546856870322
35485,12824,35485.0,32240.0,35485.0,33778.0,413.48760844476743,373.30967181653506,564.9726786684794
35485,12812,35485.0,32201.0,35485.0,33765.0,410.8168253673705,374.2942018523821,565.5840754456433
35485,12798,35485.0,32161.0,35485.0,33744.0,408.14970780519343,375.18724556438417,566.072435554183
35485,12783,35485.0,32137.0,35485.0,33727.0,405.48412175898943,375.9794213316238,566.4223444881883
35485,12766,35485.0,32131.0,35485.0,33727.0,402.81792039135223,376.6615551324161,566.6189205984363
35496,12774,35496.0,32118.0,35496.0,33707.0,400.1485760222314,377.2238923938678,566.6473714621803
35496,12779,35496.0,32144.0,35496.0,33734.0,397.47297233870256,377.6556820321018,566.4927115122088
35496,12780,35496.0,32172.0,35496.0,33739.0,394.7874499929831,377.9451775238401,566.1397243758184
35496,12790,35496.0,32180.0,35496.0,33745.0,392.0880004546404,378.08007154367834,565.5731987364624
35496,12794,35496.0,32195.0,35496.0,33755.0,389.37049895076683,378.04811359765154,564.7782601160663
35496,12791,35496.0,32189.0,35496.0,33758.0,386.6309462628867,377.8375993878212,563.7406574011625
35506,12820,35506.0,32245.0,35506.0,33787.0,383.8657114137869,377.43774848283374,562.447065295757
35506,12800,35506.0,32256.0,35506.0,33788.0,381.07181988958416,376.8392600533228,560.8854982666998
35506,12775,35506.0,32178.0,35506.0,33753.0,378.2471559675183,376.03492761026575,559.0457008131233
35506,12770,35506.0,32168.0,35506.0,33726.0,375.3903161593241,375.0195905718204,556.9191279092606
35506,12749,35506.0,32141.0,35506.0,33715.0,372.50020085855954,373.78928932480494,554.4984208339306
35506,12749,35506.0,32126.0,35506.0,33695.0,369.57562351320234,372.3403282068187,551.7767530518342
35516,12735,35516.0,32098.0,35516.0,33689.0,366.61502033551517,370.6685804597121,548.7473276851414
35516,12745,35516.0,32130.0,35516.0,33695.0,363.61626261414733,368.7689624285129,545.403059178641
35516,12760,35516.0,32179.0,35516.0,33715.0,360.57664250996766,366.6353402256145,541.736520326484
35516,12759,35516.0,32168.0,35516.0,33720.0,357.4930890665838,364.2611078197446,537.7402236917056
35516,12762,35516.0,32133.0,35516.0,33699.0,354.3624910719801,361.6399045012969,533.4070352786512
35516,12775,35516.0,32200.0,35516.0,33719.0,351.1819690147483,358.76588302494844,528.7304272518036
35527,12784,35527.0,32226.0,35527.0,33746.0,347.9491508692797,355.63398598440807,523.7046792027869
35527,12756,35527.0,32193.0,35527.0,33719.0,344.66246393906147,352.24070212332254,518.325295296852
35527,12747,35527.0,32123.0,35527.0,33689.0,341.3212080785353,348.5845580072135,512.5893541536036
35527,12723,35527.0,32115.0,35527.0,33665.0,337.92529296659603,344.66560245938405,506.4953423344492
35527,12717,35527.0,32105.0,35527.0,33644.0,334.4748155187817,340.48438771508995,500.0425949743202
35527,12706,35527.0,32059.0,35527.0,33640.0,330.9696717214995,336.04120417018413,493.23074632736586
35537,12702,35537.0,32070.0,35537.0,33634.0,327.4092797900862,331.33555050152995,486.05940476409626
35537,12718,35537.0,32094.0,35537.0,33643.0,323.7924571543595,326.36577237231995,478.52809675291167
35537,12737,35537.0,32112.0,35537.0,33643.0,320.1175484281192,321.1291996041857,470.6364454313202
35537,12707,35537.0,32113.0,35537.0,33610.0,316.38276999384516,315.62275555538974,462.3844218772749
35537,12720,35537.0,32118.0,35537.0,33623.0,312.58645959821945,309.84359356305913,453.77244242849406
35537,12745,35537.0,32185.0,35537.0,33638.0,308.72717029896853,303.7896714919623,444.80141120494113
35547,12720,35547.0,32155.0,35547.0,33622.0,304.8038941553859,297.46053969237255,435.47300125171523
35547,12697,35547.0,32096.0,35547.0,33616.0,300.8162821392275,290.8580449320775,425.790046769373
35547,12676,35547.0,32048.0,35547.0,33569.0,296.76446364702883,283.9861630811921,415.7566780517544
35547,12682,35547.0,32029.0,35547.0,33544.0,292.6485830007474,276.8499766782411,405.37805534837935
35547,12680,35547.0,32035.0,35547.0,33515.0,288.4684799392159,269.45464924046973,394.659804725449
35547,12666,35547.0,31966.0,35547.0,33501.0,284.2236314735061,261.804841381173,383.60741884291997
35558,12681,35558.0,31987.0,35558.0,33494.0,279.9131830953878,253.90427108778306,372.22585114804804
35558,12667,35558.0,32022.0,35558.0,33512.0,275.5360025708292,245.75538968117905,360.51942270667314
35558,12681,35558.0,32016.0,35558.0,33497.0,271.09079681718333,237.3596327175386,348.4920738869905
35558,12676,35558.0,31998.0,35558.0,33487.0,266.5762777306698,228.71806968311148,336.1477603991625
35558,12675,35558.0,32065.0,35558.0,33498.0,261.9913486691827,219.83193435279009,323.4907588014496
35558,12694,35558.0,32064.0,35558.0,33486.0,257.3353035320796,210.70326444364946,310.5259501398433
35568,12692,35568.0,32017.0,35568.0,33468.0,252.60809917798224,201.3357577652547,297.2591443070813
35568,12645,35568.0,31963.0,35568.0,33422.0,247.81060608272446,191.73508791786935,283.6972102021273
35568,12632,35568.0,31940.0,35568.0,33385.0,242.94448106066136,181.9082969295157,269.84779091052917
35568,12622,35568.0,31904.0,35568.0,33384.0,238.01164785495575,171.86282521985186,255.71873926978617
35568,12604,35568.0,31881.0,35568.0,33362.0,233.01379433732882,161.60569674228157,241.31768236369624
35568,12615,35568.0,31874.0,35568.0,33335.0,227.95208660738643,151.14292787847683,226.65186849382292
35578,12621,35578.0,31892.0,35578.0,33326.0,222.827106010244,140.47923878756023,211.72807377028914
35578,12632,35578.0,31892.0,35578.0,33326.0,217.63905153107027,129.6182106987003,196.55252356125243
35578,12613,35578.0,31900.0,35578.0,33327.0,212.38808207247234,118.56277970749034,181.13103297090845
35578,12622,35578.0,31887.0,35578.0,33299.0,207.07455373223922,107.31577553470572,165.46934994660933
35578,12621,35578.0,31930.0,35578.0,33312.0,201.69913183295404,95.88041204915771,149.57347618403332
35578,12621,35578.0,31928.0,35578.0,33298.0,196.26293351291065,84.26091967884156,133.4499474198583
35589,12588,35589.0,31855.0,35589.0,33268.0,190.7676583542501,72.46320221727171,117.10613564174764
35589,12570,35589.0,31797.0,35589.0,33222.0,185.21547225797292,60.49481969531996,100.55034229085913
35589,12568,35589.0,31810.0,35589.0,33185.0,179.60863439175307,48.36412915627193,83.791457579611
35589,12566,35589.0,31782.0,35589.0,33182.0,173.9491727231229,36.079439125330396,66.83839004940523
35589,12547,35589.0,31722.0,35589.0,33132.0,168.23877603505912,23.648612608736926,49.69963035002388
35589,12551,35589.0,31748.0,35589.0,33137.0,162.47875665092533,11.078697425350015,32.38300561710389
35599,12548,35599.0,31759.0,35599.0,33136.0,156.6700129825532,-1.6243495999948436,14.895595838770078
35599,12564,35599.0,31745.0,35599.0,33139.0,150.81311732669627,-14.455403641941984,-2.756028174292169
35599,12540,35599.0,31751.0,35599.0,33101.0,144.908545066434,-27.409621124635578,-20.565334497378217
35599,12557,35599.0,31770.0,35599.0,33120.0,138.95688538021324,-40.48194749608365,-38.525459592725156
35599,12569,35599.0,31798.0,35599.0,33100.0,132.95902938977605,-53.66648739664606,-56.62892770804547
35599,12537,35599.0,31733.0,35599.0,33071.0,126.91644297857869,-66.95571716276493,-74.8673308883615
35609,12514,35609.0,31663.0,35609.0,33002.0,120.83129354272654,-80.34020162475315,-93.23125317313452
35609,12503,35609.0,31635.0,35609.0,32993.0,114.70618373051485,-93.80929304508993,-111.71070233952287
35609,12488,35609.0,31602.0,35609.0,32963.0,108.54371875695688,-107.35229240383501,-130.29573177438488
35609,12476,35609.0,31576.0,35609.0,32947.0,102.34617838965767,-120.95935292314596,-148.9768136510304
35609,12479,35609.0,31561.0,35609.0,32909.0,96.11531173778832,-134.6220330763515,-167.74499004094173
35609,12467,35609.0,31601.0,35609.0,32919.0,89.85225274733881,-148.33351760925302,-186.59198035838222
35620,12485,35620.0,31593.0,35620.0,32897.0,83.55757455814023,-162.08830852450205,-205.51015841326148
35620,12483,35620.0,31559.0,35620.0,32888.0,77.23149280101762,-175.88158458202452,-224.49232649329588
35620,12459,35620.0,31570.0,35620.0,32885.0,70.87413686242252,-189.70879412120019,-243.53141422554404
35620,12497,35620.0,31611.0,35620.0,32888.0,64.48573934861633,-203.56541458957793,-262.62011865081536
35620,12487,35620.0,31610.0,35620.0,32865.0,58.06686313795319,-217.44631432024948,-281.75043313557694
35620,12459,35620.0,31543.0,35620.0,32821.0,51.618738860834355,-231.34491099447916,-300.9132798839157
35630,12426,35630.0,31493.0,35630.0,32762.0,45.14332220625613,-245.25300526068054,-320.098596421559
35630,12415,35630.0,31466.0,35630.0,32736.0,38.642874712343314,-259.1615103133922,-339.2959289666412
35630,12419,35630.0,31430.0,35630.0,32719.0,32.11945046165397,-273.0614260577254,-358.4951444584808
35630,12406,35630.0,31390.0,35630.0,32689.0,25.57466097511815,-286.9446109032958,-377.6868588603061
35630,12410,35630.0,31420.0,35630.0,32673.0,19.009687883712672,-300.80433325747754,-396.86259622900457
35630,12398,35630.0,31449.0,35630.0,32674.0,12.425361189592536,-314.6353338241606,-416.0148184945492
35640,12414,35640.0,31430.0,35640.0,32645.0,5.822264624137119,-328.4331945351188,-435.13679587354693
35640,12404,35640.0,31404.0,35640.0,32646.0,-0.799075264583962,-342.193564745823,-454.2223667378397
35640,12399,35640.0,31420.0,35640.0,32640.0,-7.437954769905446,-355.91180946856025,-473.2656681138794
35640,12416,35640.0,31431.0,35640.0,32645.0,-14.09329440178874,-369.58280456987677,-492.26074595603427
35640,12399,35640.0,31412.0,35640.0,32608.0,-20.7634233915644,-383.2004783965032,-511.20106563288005
35640,12368,35640.0,31339.0,35640.0,32578.0,-27.445912125721975,-396.75744201292343,-530.0792122224252
35651,12341,35651.0,31289.0,35651.0,32529.0,-34.13773386299897,-410.24533155787753,-548.8870095171308
35651,12337,35651.0,31275.0,35651.0,32495.0,-40.83574771859833,-423.65580224631924,-567.6159972714945
35651,12331,35651.0,31245.0,35651.0,32474.0,-47.53713267065018,-436.98148419271774,-586.2580220868101
35651,12310,35651.0,31237.0,35651.0,32462.0,-54.23958448185397,-450.2165117633441,-604.8056649558623
35651,12314,35651.0,31258.0,35651.0,32449.0,-60.941413238851624,-463.35667526041414,-623.25236002378
35651,12325,35651.0,31254.0,35651.0,32431.0,-67.64157598797453,-476.39918096347355,-641.5922898043054
35661,12308,35661.0,31242.0,35661.0,32407.0,-74.3395311967787,-489.34213502330874,-659.820249323506
35661,12314,35661.0,31234.0,35661.0,32417.0,-81.0350162652968,-502.18411153007173,-677.931544145358
35661,12329,35661.0,31271.0,35661.0,32413.0,-87.72785334330592,-514.9238412546013,-695.9217605588024
35661,12312,35661.0,31259.0,35661.0,32395.0,-94.41768025901035,-527.5597054200584,-713.7863271393971
35661,12308,35661.0,31199.0,35661.0,32334.0,-101.10367537776597,-540.0891640741261,-731.5201875860942
35661,12259,35661.0,31155.0,35661.0,32306.0,-107.78453746738717,-552.5087667120918,-749.1179735430824
35672,12264,35672.0,31130.0,35672.0,32264.0,-114.45880357134274,-564.8148868959929,-766.5746067433174
35672,12250,35672.0,31145.0,35672.0,32267.0,-121.12527422730386,-577.004519222294,-783.8859036419026
35672,12224,35672.0,31076.0,35672.0,32224.0,-127.78329918226933,-589.0756631759741,-801.0489034281834
35672,12244,35672.0,31084.0,35672.0,32233.0,-134.43295197296294,-601.027563118444,-818.0619681208998
35672,12281,35672.0,31098.0,35672.0,32221.0,-141.07498815966193,-612.8609744647108,-834.9247317467316
35672,12251,35672.0,31104.0,35672.0,32220.0,-147.71037877296692,-624.578065498961,-851.637852116035
35682,12240,35682.0,31111.0,35682.0,32213.0,-154.33979334419143,-636.1818596950588,-868.2026178332283
35682,12241,35682.0,31116.0,35682.0,32212.0,-160.96348783218673,-647.6755706087354,-884.6205279066921
35682,12255,35682.0,31145.0,35682.0,32203.0,-167.58134648998595,-659.0619486563501,-900.8928702366795
35682,12230,35682.0,31108.0,35682.0,32159.0,-174.19273363537195,-670.3426032634627,-917.0203940584734
35682,12201,35682.0,31036.0,35682.0,32134.0,-180.7963759176347,-681.5176564804397,-933.0032928458047
35682,12201,35682.0,31006.0,35682.0,32093.0,-187.39056247145078,-692.586209663302,-948.8415482480143
35692,12175,35692.0,30996.0,35692.0,32074.0,-193.9735011021054,-703.547343940654,-964.5354326837344
35692,12169,35692.0,30966.0,35692.0,32047.0,-200.5436038994584,-714.4009097600679,-980.085966194441
35692,12158,35692.0,30965.0,35692.0,32037.0,-207.0997104313418,-725.1479112587315,-995.4952324323931
35692,12165,35692.0,30968.0,35692.0,32053.0,-213.6412242822674,-735.7906473564526,-1010.7664606592823
35692,12158,35692.0,30956.0,35692.0,32035.0,-220.1680840508501,-746.332623705383,-1025.9037846485517
35692,12163,35692.0,30981.0,35692.0,32029.0,-226.68060525486032,-756.7782718533294,-1040.9118200546604
35703,12163,35703.0,30975.0,35703.0,32016.0,-233.17927005164,-767.1325261073562,-1055.7953313031956
35703,12177,35703.0,31021.0,35703.0,32017.0,-239.6644607221258,-777.4002134427346,-1070.5590080993352
35703,12168,35703.0,30981.0,35703.0,32018.0,-246.13611869627306,-787.5853069029781,-1085.2071895122792
35703,12132,35703.0,30952.0,35703.0,31977.0,-252.59349101171256,-797.6904005452527,-1099.7435395402151
35703,12110,35703.0,30894.0,35703.0,31914.0,-259.0352434851379,-807.7168429339683,-1114.171011983364
35703,12092,35703.0,30874.0,35703.0,31908.0,-265.45993859764303,-817.6654886252907,-1128.4923635454943
35713,12092,35713.0,30856.0,35713.0,31863.0,-271.86654017342767,-827.5375778533803,-1142.7108953191293
35713,12084,35713.0,30828.0,35713.0,31864.0,-278.2546818112029,-837.3353740417449,-1156.830991508636
35713,12087,35713.0,30846.0,35713.0,31879.0,-284.62469909984077,-847.0625186179063,-1170.8583176679583
35713,12087,35713.0,30855.0,35713.0,31867.0,-290.97752276976996,-856.7240625811221,-1184.7996054586854
35713,12078,35713.0,30844.0,35713.0,31850.0,-297.3145096739843,-866.3261322097117,-1198.6622058858754
35713,12081,35713.0,30850.0,35713.0,31845.0,-303.63728645064725,-875.875481715464,-1212.453783166246
35723,12100,35723.0,30888.0,35723.0,31865.0,-309.9475754726517,-885.3790682448405,-1226.18211459685
35723,12111,35723.0,30912.0,35723.0,31856.0,-316.2468411402857,-894.8433717703558,-1239.8546986986878
35723,12076,35723.0,30875.0,35723.0,31822.0,-322.53582122775333,-904.2734677552924,-1253.4782604366112
35723,12051,35723.0,30787.0,35723.0,31785.0,-328.81435405777347,-913.6725748616223,-1267.0585924281825
35723,12034,35723.0,30780.0,35723.0,31747.0,-335.08169980831303,-923.0426421597328,-1280.600912039543
35723,12014,35723.0,30729.0,35723.0,31724.0,-341.3370706115629,-932.3855123006774,-1294.110495381712
35734,12013,35734.0,30725.0,35734.0,31708.0,-347.58006185986903,-941.7038996589606,-1307.5932642391288
35734,11996,35734.0,30714.0,35734.0,31698.0,-353.8109139096681,-951.0019850497822,-1321.0561375492498
35734,12014,35734.0,30744.0,35734.0,31708.0,-360.03061026566684,-960.2856066885267,-1334.5070905755108
35734,12011,35734.0,30742.0,35734.0,31701.0,-366.2407818824489,-969.5619784503501,-1347.9549276232672
35734,12005,35734.0,30733.0,35734.0,31693.0,-372.4434539820288,-978.83914571274,-1361.4088894695753
35734,12007,35734.0,30742.0,35734.0,31688.0,-378.64080533187996,-988.1255327065642,-1374.8782955780982
35744,12019,35744.0,30788.0,35744.0,31692.0,-384.83497837419077,-997.4295305319097,-1388.3722531881317
35744,12013,35744.0,30760.0,35744.0,31670.0,-391.02781467139107,-1006.7588382088418,-1401.89935203565
35744,11979,35744.0,30713.0,35744.0,31641.0,-397.2206127426779,-1016.119860059513,-1415.4674516758469
35744,11958,35744.0,30688.0,35744.0,31614.0,-403.414207745982,-1025.5177743899317,-1429.0837574346906
35744,11957,35744.0,30656.0,35744.0,31582.0,-409.6093709403534,-1034.9571923166209,-1442.7551665233154
35744,11947,35744.0,30634.0,35744.0,31562.0,-415.8071707018172,-1044.4428884936967,-1456.4887140881679
35754,11921,35754.0,30605.0,35754.0,31531.0,-422.00914733351067,-1053.9804093055,-1470.292001594393
35754,11933,35754.0,30633.0,35754.0,31559.0,-428.2174615072205,-1063.5765118169495,-1484.1734838644284
35754,11935,35754.0,30639.0,35754.0,31547.0,-434.4349818830527,-1073.2392025944448,-1498.1424040586526
35754,11943,35754.0,30646.0,35754.0,31526.0,-440.6651276807652,-1082.9772952313976,-1512.2084168019178
35754,11928,35754.0,30657.0,35754.0,31520.0,-446.9115551572926,-1092.7997696464095,-1526.3812816452505
35754,11945,35754.0,30670.0,35754.0,31549.0,-453.17789632816414,-1102.7151433457784,-1540.6706751263207
35765,11970,35765.0,30676.0,35765.0,31538.0,-459.4674729197626,-1112.730826039335,-1555.085768993744
35765,11922,35765.0,30632.0,35765.0,31505.0,-465.7828781850801,-1122.8525706732225,-1569.6346451205409
35765,11912,35765.0,30577.0,35765.0,31456.0,-472.12576241867635,-1133.0844092008215,-1584.3240891739601
35765,11895,35765.0,30532.0,35765.0,31446.0,-478.4970811262417,-1143.4293137287777,-1599.1599509898117
35765,11881,35765.0,30534.0,35765.0,31412.0,-484.8975062849412,-1153.8902307736714,-1614.1476869241874
35765,11862,35765.0,30510.0,35765.0,31403.0,-491.3277476958302,-1164.4708530747957,-1629.2927419804964
35775,11859,35775.0,30515.0,35775.0,31387.0,-497.7888248771293,-1175.1759102962828,-1644.6007472463102
35775,11872,35775.0,30527.0,35775.0,31392.0,-504.2822267379206,-1186.0111221784239,-1660.0775385334994
35775,11867,35775.0,30541.0,35775.0,31389.0,-510.8098173390995,-1196.982850413426,-1675.7289474718582
35775,11864,35775.0,30519.0,35775.0,31358.0,-517.3735686446637,-1208.0975360863379,-1691.5604599862513
35775,11866,35775.0,30544.0,35775.0,31347.0,-523.9753225793271,-1219.361189613965,-1707.5769969622577
35775,11863,35775.0,30571.0,35775.0,31382.0,-530.6166106658552,-1230.7788985794339,-1723.7827966905786
35785,11872,35785.0,30555.0,35785.0,31369.0,-537.2984482151803,-1242.3541185269494,-1740.1810164543092
35785,11847,35785.0,30506.0,35785.0,31315.0,-544.0211151667907,-1254.0880420249607,-1756.7731361013423
35785,11814,35785.0,30467.0,35785.0,31294.0,-550.7841117560126,-1265.979620628453,-1773.5587908586479
35785,11807,35785.0,30442.0,35785.0,31266.0,-557.5864508976127,-1278.0262174412885,-1790.5361385768629
35785,11802,35785.0,30427.0,35785.0,31255.0,-564.4270829045975,-1290.2243540211991,-1807.702271675923
35785,11779,35785.0,30392.0,35785.0,31230.0,-571.3051571080568,-1302.5702279086954,-1825.0534148116415
35796,11791,35796.0,30429.0,35796.0,31227.0,-578.2201386225986,-1315.0599867186143,-1842.5849690661548
35796,11782,35796.0,30406.0,35796.0,31207.0,-585.1718329006188,-1327.6896698705198,-1860.2914533771084
35796,11783,35796.0,30418.0,35796.0,31198.0,-592.1602755960294,-1340.45482820236,-1878.1663676406033
35796,11788,35796.0,30402.0,35796.0,31199.0,-599.1855403630726,-1353.350098849472,-1896.201997905182
35796,11773,35796.0,30431.0,35796.0,31198.0,-606.2475313757244,-1366.368826606672,-1914.3890991125172
35796,11785,35796.0,30458.0,35796.0,31191.0,-613.3457949728793,-1379.502499227455,-1932.716425284544
35806,11768,35806.0,30416.0,35806.0,31157.0,-620.4793605552468,-1392.7399442686885,-1951.1702794791274
35806,11762,35806.0,30367.0,35806.0,31123.0,-627.6466188472496,-1406.0668119086035,-1969.7343469673162
35806,11744,35806.0,30326.0,35806.0,31093.0,-634.8453083881082,-1419.4658581287888,-1988.3898970741036
35806,11717,35806.0,30292.0,35806.0,31076.0,-642.0726629219072,-1432.9177939704061,-2007.1161538610384
35806,11693,35806.0,30267.0,35806.0,31054.0,-649.3257399956208,-1446.402157032971,-2025.8905751934476
35806,11702,35806.0,30247.0,35806.0,31040.0,-656.6018418075134,-1459.8979629814085,-2044.6889639595681
35816,11724,35816.0,30285.0,35816.0,31056.0,-663.8987025791724,-1473.3840162908382,-2063.4854000272335
35816,11715,35816.0,30284.0,35816.0,31040.0,-671.2142260003317,-1486.8386825802227,-2082.2519107504827
35816,11695,35816.0,30291.0,35816.0,31019.0,-678.5460642383014,-1500.2391981013438,-2100.9579921740233
35816,11717,35816.0,30288.0,35816.0,31007.0,-685.8914048780252,-1513.560929929743,-2119.5702833801524
35816,11714,35816.0,30341.0,35816.0,31031.0,-693.2468262376005,-1526.7767070045388,-2138.052356520271
35816,11708,35816.0,30306.0,35816.0,31013.0,-700.6080025935976,-1539.85601438338,-2156.364299821148
35827,11677,35827.0,30262.0,35827.0,30963.0,-707.9694698978088,-1552.7643065911718,-2174.4622101025943
35827,11667,35827.0,30232.0,35827.0,30930.0,-715.3247050929574,-1565.463005674213,-2192.2981161976954
35827,11649,35827.0,30172.0,35827.0,30915.0,-722.6664301609161,-1577.9101607928849,-2209.8203913612533
35827,11644,35827.0,30149.0,35827.0,30891.0,-729.9869083845598,-1590.0613638259833,-2226.9741846888487
35827,11627,35827.0,30121.0,35827.0,30855.0,-737.2781379408342,-1601.8706531766782,-2243.701668815943
35827,11647,35827.0,30150.0,35827.0,30861.0,-744.5319329545486,-1613.291117812569,-2259.9422412558088
35837,11625,35837.0,30166.0,35837.0,30851.0,-751.7398477498898,-1624.274899461614,-2275.6326144617424
35837,11622,35837.0,30148.0,35837.0,30840.0,-758.8930255146863,-1634.7726551926103,-2290.7066589610317
35837,11626,35837.0,30150.0,35837.0,30826.0,-765.9821153368373,-1644.7329757207476,-2305.095157435723
35837,11623,35837.0,30175.0,35837.0,30829.0,-772.9971830245818,-1654.1020140069108,-2318.7256256952805
35837,11624,35837.0,30188.0,35837.0,30838.0,-779.9275188775537,-1662.8230283352684,-2331.5220833846524
35837,11605,35837.0,30149.0,35837.0,30799.0,-786.7614459427676,-1670.8357748363742,-2343.404718089152
35847,11586,35847.0,30076.0,35847.0,30760.0,-793.4862869546708,-1678.0763300802641,-2354.2897609972856
35847,11571,35847.0,30060.0,35847.0,30736.0,-800.0885510494091,-1684.477778763812,-2364.089862047792
35847,11562,35847.0,30045.0,35847.0,30696.0,-806.5542334048553,-1689.971321310807,-2372.714785131531
35847,11562,35847.0,30018.0,35847.0,30670.0,-812.8690440816733,-1694.4871134486125,-2380.0721549866066
35847,11544,35847.0,30011.0,35847.0,30659.0,-819.0184997332648,-1697.9547873572717,-2386.068171674537
35847,11560,35847.0,30014.0,35847.0,30658.0,-824.9879312623445,-1700.3038448464636,-2390.608153955124
35858,11549,35858.0,30022.0,35858.0,30659.0,-830.7624099168723,-1701.463845905741,-2393.596778997364
35858,11547,35858.0,30024.0,35858.0,30646.0,-836.326594325406,-1701.3643463365815,-2394.938110528319
35858,11552,35858.0,30027.0,35858.0,30642.0,-841.664585977048,-1699.9347385234043,-2394.535637062867
35858,11545,35858.0,30067.0,35858.0,30631.0,-846.7597997163308,-1697.1040623832414,-2392.292438667947
35858,11566,35858.0,30017.0,35858.0,30635.0,-851.5947789402586,-1692.8007685436687,-2388.1114368114527
35858,11528,35858.0,29998.0,35858.0,30615.0,-856.150982345719,-1686.952747698252,-2381.8956717391197
35868,11511,35868.0,29945.0,35868.0,30563.0,-860.408757308433,-1679.4880170040956,-2373.548758245009
35868,11492,35868.0,29928.0,35868.0,30555.0,-864.3476704852158,-1670.3359363253908,-2362.9757617611212
35868,11487,35868.0,29930.0,35868.0,30553.0,-867.9470019949028,-1659.428491179454,-2350.0843278779057
35868,11469,35868.0,29894.0,35868.0,30529.0,-871.1861367025423,-1646.701328951106,-2334.785653488277
35868,11475,35868.0,29911.0,35868.0,30541.0,-874.0448269630708,-1632.094599126645,-2316.995274193928
35868,11476,35868.0,29930.0,35868.0,30541.0,-876.5033315348711,-1615.553654254492,-2296.633792254572
35878,11470,35878.0,29943.0,35878.0,30559.0,-878.5424070318137,-1597.0294334461028,-2273.6274749457143
35878,11480,35878.0,29964.0,35878.0,30556.0,-880.1432294535238,-1576.4785645802053,-2247.908731952733
35878,11483,35878.0,30021.0,35878.0,30604.0,-881.2872909393294,-1553.8633426188876,-2219.416551077284
35878,11506,35878.0,30090.0,35878.0,30620.0,-881.9561995032861,-1529.151405327238,-2188.0968074135108
35878,11486,35878.0,30043.0,35878.0,30632.0,-882.1313884234411,-1502.3151238086748,-2153.902443912468
35878,11478,35878.0,30013.0,35878.0,30595.0,-881.7939463501873,-1473.3315123202449,-2116.7938933934397
35889,11465,35889.0,29999.0,35889.0,30604.0,-880.9247508703563,-1442.1832754897105,-2076.740101709507
35889,11440,35889.0,30021.0,35889.0,30628.0,-879.5048454255218,-1408.8604310684266,-2033.7199347668206
35889,11428,35889.0,30012.0,35889.0,30659.0,-877.5159549643406,-1373.3616770076844,-1987.7233915959284
35889,11435,35889.0,30054.0,35889.0,30678.0,-874.9410377248347,-1335.6953756623811,-1938.7524258115461
35889,11461,35889.0,30124.0,35889.0,30748.0,-871.7646126709129,-1295.8801915707527,-1886.8215578990203
35889,11457,35889.0,30180.0,35889.0,30803.0,-867.9727012326217,-1253.9451599175375,-1831.9582600354543
35899,11463,35899.0,30209.0,35899.0,30851.0,-863.5526003876831,-1209.9293024457045,-1774.20303606261
35899,11464,35899.0,30301.0,35899.0,30916.0,-858.4927769293693,-1163.881243187958,-1713.609412251046
35899,11491,35899.0,30374.0,35899.0,31044.0,-852.7828529772036,-1115.858804543049,-1650.243859799153
35899,11502,35899.0,30436.0,35899.0,31090.0,-846.4134746617714,-1065.9283271378417,-1584.1853457971033
35899,11497,35899.0,30462.0,35899.0,31140.0,-839.3760683681843,-1014.1639908804297,-1515.5247412067606
35899,11480,35899.0,30490.0,35899.0,31220.0,-831.6627661386885,-960.6476450357892,-1444.3646742253509
35910,11478,35910.0,30542.0,35910.0,31297.0,-823.2666907402561,-905.4691975364403,-1370.8197188301615
35910,11476,35910.0,30614.0,35910.0,31384.0,-814.1824488683687,-848.7271156519903,-1295.0164375777817
35910,11481,35910.0,30659.0,35910.0,31472.0,-804.4065797376275,-790.5286384477131,-1217.0932041111532
35910,11500,35910.0,30774.0,35910.0,31606.0,-793.93784387417,-730.98967557472,-1137.199839722909
35910,11521,35910.0,30882.0,35910.0,31731.0,-782.7773016234642,-670.2343180864694,-1055.4968773604828
35910,11550,35910.0,30962.0,35910.0,31849.0,-770.9281551027959,-608.3938340855385,-972.1543895394834
35920,11557,35920.0,31090.0,35920.0,31969.0,-758.3954405846341,-545.605406251603,-887.3506623452992
35920,11570,35920.0,31186.0,35920.0,32120.0,-745.1857675098859,-482.0108356940049,-801.270908353519
35920,11602,35920.0,31341.0,35920.0,32255.0,-731.3071909900409,-417.755074138507,-714.1058589087387
35920,11617,35920.0,31387.0,35920.0,32365.0,-716.7690759254842,-352.9845818990119,-626.0501994247488
35920,11605,35920.0,31435.0,35920.0,32474.0,-701.5819403376396,-287.84603110138687,-537.3011835544208
35920,11615,35920.0,31500.0,35920.0,32598.0,-685.7575346229353,-222.48588571415053,-448.05762433475854
35930,11630,35930.0,31579.0,35930.0,32704.0,-669.3091806696204,-157.05056627257818,-358.5190697485183
35930,11636,35930.0,31669.0,35930.0,32851.0,-652.2520952261141,-91.68648422599733,-268.8849336636624
35930,11652,35930.0,31753.0,35930.0,32969.0,-634.6036019685882,-26.53969022218098,-179.3534623688131
35930,11681,35930.0,31883.0,35930.0,33100.0,-616.383280338754,38.24480567667604,-90.12053025715795
35930,11715,35930.0,31992.0,35930.0,33229.0,-597.6129595200946,102.52409513861562,-1.3783877689027122
35930,11747,35930.0,32099.0,35930.0,33361.0,-578.3164739450942,166.15880256107016,86.68559616821767
35941,11768,35941.0,32184.0,35941.0,33480.0,-558.5192889086424,229.014576859949,173.89022769676353
35941,11824,35941.0,32334.0,35941.0,33620.0,-538.2481189660427,290.96345629084226,260.06178721246283
35941,11839,35941.0,32384.0,35941.0,33747.0,-517.5305018686465,351.88525634246923,345.0353622860007
35941,11848,35941.0,32420.0,35941.0,33808.0,-496.39440003040744,411.66875614997275,428.65613089168323
35941,11848,35941.0,32430.0,35941.0,33856.0,-474.868120051433,470.21201948352063,510.78010850906844
35941,11882,35941.0,32502.0,35941.0,33945.0,-452.9805837954523,527.4218195106241,591.2740524558253
35951,11903,35951.0,32555.0,35951.0,34026.0,-430.7616040448947,583.2129356071116,670.0150117875553
35951,11910,35951.0,32597.0,35951.0,34091.0,-408.2419776099633,637.5078311777481,746.8900917068438
35951,11949,35951.0,32664.0,35951.0,34181.0,-385.45353860571004,690.2365574074529,821.7964040942077
35951,11997,35951.0,32716.0,35951.0,34276.0,-362.4291506599077,741.3367154691987,894.6411147340445
35951,12022,35951.0,32799.0,35951.0,34331.0,-339.20243262498195,790.7535867155405,965.3416715215112
35951,12056,35951.0,32822.0,35951.0,34392.0,-315.8073199410344,838.4404429955118,1033.826018336616
35961,12090,35961.0,32890.0,35961.0,34495.0,-292.2777013870194,884.3588223324505,1100.0326171525062
35961,12133,35961.0,32937.0,35961.0,34538.0,-268.64710179314125,928.4786743383281,1163.910519514437
35961,12140,35961.0,32952.0,35961.0,34560.0,-244.9483428379015,970.7784514897262,1225.4194610561776
35961,12155,35961.0,32949.0,35961.0,34607.0,-221.21335488602784,1011.2449509423079,1284.5295354936825
35961,12167,35961.0,32942.0,35961.0,34609.0,-197.47329665425391,1049.8725939150272,1341.2204008432304
35961,12192,35961.0,32921.0,35961.0,34653.0,-173.75885012611823,1086.6621835618419,1395.4802960988764
35972,12205,35972.0,32951.0,35972.0,34664.0,-150.10047923475844,1121.6194531867368,1447.3050228522088
35972,12234,35972.0,32971.0,35972.0,34716.0,-126.52860274488751,1154.753827758049,1496.6970177273738
35972,12280,35972.0,33044.0,35972.0,34732.0,-103.07364796323361,1186.0777688987737,1543.664610903209
35972,12313,35972.0,33076.0,35972.0,34765.0,-79.76586691454611,1215.6067880582302,1588.2214220927185
35972,12336,35972.0,33106.0,35972.0,34843.0,-56.63496256753882,1243.3598481948463,1630.3858917027628
35972,12361,35972.0,33127.0,35972.0,34855.0,-33.709775074183824,1269.3597001558355,1670.1811187612593
35982,12421,35982.0,33194.0,35982.0,34927.0,-11.018067537441539,1293.6330479063379,1707.6349746681299
35982,12443,35982.0,33188.0,35982.0,34935.0,11.413818303694427,1316.2107867407944,1742.7802471580949
35982,12447,35982.0,33168.0,35982.0,34937.0,33.56139082236365,1337.1281598106673,1775.6546152533733
35982,12458,35982.0,33131.0,35982.0,34929.0,55.4021400535529,1356.4242896174242,1806.3002052356405
35982,12468,35982.0,33145.0,35982.0,34925.0,76.9152777245223,1374.141061080205,1834.7626778608528
35982,12493,35982.0,33150.0,35982.0,34978.0,98.08137184346151,1390.3219843053516,1861.090236048513
35992,12495,35992.0,33097.0,35992.0,34966.0,118.88207485060042,1405.0113716584756,1885.3329887080326
35992,12521,35992.0,33142.0,35992.0,34987.0,139.29991358846576,1418.2535626422516,1907.5426286833426
35992,12564,35992.0,33196.0,35992.0,35003.0,159.3181599042985,1430.0923347969708,1927.7721156007574
35992,12572,35992.0,33203.0,35992.0,35030.0,178.92091601925324,1440.571041553657,1946.0753963597808
35992,12603,35992.0,33210.0,35992.0,35041.0,198.09333021135234,1449.7332004001958,1962.5073214341755
35992,12635,35992.0,33243.0,35992.0,35068.0,216.82177535834916,1457.6228783179833,1977.1236864370812
36002,12662,36002.0,33286.0,36002.0,35088.0,235.0940697451777,1464.2849884285238,1989.981334443683
36002,12677,36002.0,33239.0,36002.0,35083.0,252.8997749788415,1469.7657473606089,2001.1382970308687
36002,12668,36002.0,33202.0,36002.0,35055.0,270.2303568900653,1474.1127960726842,2010.6537556596027
36002,12682,36002.0,33179.0,36002.0,35053.0,287.07902964967695,1477.374509088382,2018.5875968952528
36002,12687,36002.0,33168.0,36002.0,35055.0,303.44038456594706,1479.5988913103215,2024.9997437182383
36002,12699,36002.0,33134.0,36002.0,35050.0,319.3100365167073,1480.8326295272873,2029.9496353864297
36012,12702,36012.0,33143.0,36012.0,35024.0,334.68435295774566,1481.1203577899369,2033.4958701113633
36012,12722,36012.0,33183.0,36012.0,35041.0,349.56021911084736,1480.5042120588512,2035.6958123344907
36012,12762,36012.0,33199.0,36012.0,35061.0,363.93492647427604,1479.0239782689098,2036.6052962809904
36012,12777,36012.0,33193.0,36012.0,35061.0,377.8063365382434,1476.7177090001367,2036.278695118869
36012,12784,36012.0,33215.0,36012.0,35066.0,391.1732044414023,1473.6222934389152,2034.7692223774998
36012,12846,36012.0,33269.0,36012.0,35104.0,404.0354582404178,1469.7739470114334,2032.1292493514852
36022,12844,36022.0,33241.0,36022.0,35088.0,416.39455120529476,1465.208933163698,2028.4107237847093
36022,12818,36022.0,33199.0,36022.0,35063.0,428.2538163094921,1459.964188266249,2023.665570760852
36022,12830,36022.0,33151.0,36022.0,35000.0,439.61837157818434,1454.0771644499541,2017.9456005688194
36022,12812,36022.0,33131.0,36022.0,35005.0,450.494590356264,1447.5849337033299,2011.3018004445316
36022,12822,36022.0,33128.0,36022.0,34997.0,460.88953905783296,1440.5232218810484,2003.783538736503
36022,12832,36022.0,33097.0,36022.0,34985.0,470.8105521929839,1432.9258065376166,1995.4381857863245
36033,12841,36033.0,33100.0,36033.0,34970.0,480.2649950444047,1424.824196492829,1986.311040654744
36033,12861,36033.0,33119.0,36033.0,34977.0,489.2602218569623,1416.247490857639,1976.4452889638083
36033,12882,36033.0,33153.0,36033.0,34972.0,497.80368478278297,1407.2226350641763,1965.8820450319727
36033,12890,36033.0,33109.0,36033.0,34976.0,505.90316501201823,1397.7750689082293,1954.6605740437735
36033,12901,36033.0,33150.0,36033.0,34963.0,513.567018589776,1387.9293103896698,1942.8186018551455
36033,12916,36033.0,33181.0,36033.0,34995.0,520.8043415510723,1377.709427974381,1930.3926565209326
36043,12921,36043.0,33121.0,36043.0,34952.0,527.625094576391,1367.1396918909163,1917.4184848412888
36043,12900,36043.0,33064.0,36043.0,34909.0,534.0401544938186,1356.2449159613238,1903.931307990456
36043,12905,36043.0,33035.0,36043.0,34888.0,540.0611385046993,1345.0498780178161,1889.9655588968967
36043,12897,36043.0,33006.0,36043.0,34855.0,545.7000372118071,1333.5782572563678,1875.5542742793086
36043,12879,36043.0,32975.0,36043.0,34830.0,550.9688200014664,1321.8517575892124,1860.7285368814742
36043,12888,36043.0,32979.0,36043.0,34826.0,555.8790265653502,1309.8895275489313,1845.5170720798753
36053,12900,36053.0,32996.0,36053.0,34822.0,560.441421083326,1297.7079306918997,1829.9460727432697
36053,12918,36053.0,33002.0,36053.0,34817.0,564.6659151186623,1285.3208156401115,1814.0393303431124
36053,12931,36053.0,33000.0,36053.0,34798.0,568.5617750694729,1272.740125355666,1797.8185277835694
36053,12930,36053.0,33006.0,36053.0,34801.0,572.1379236255463,1259.9765072324446,1781.3035049733571
36053,12953,36053.0,33040.0,36053.0,34814.0,575.4031811257036,1247.0398912299504,1764.5125551218473
36053,12960,36053.0,33026.0,36053.0,34784.0,578.3664809273222,1233.9402137822792,1747.462876583655
36064,12943,36064.0,32988.0,36064.0,34764.0,581.0370848084899,1220.688098945286,1730.1709772829117
36064,12935,36064.0,32932.0,36064.0,34731.0,583.4246038360341,1207.2949743346228,1712.6527458131834
36064,12935,36064.0,32874.0,36064.0,34687.0,585.538745476071,1193.7724191392206,1694.9231967733117
36064,12931,36064.0,32860.0,36064.0,34665.0,587.3890092487907,1180.1310797862457,1676.996015299729
36064,12909,36064.0,32854.0,36064.0,34648.0,588.9844439467353,1166.379743822085,1658.883078403314
36064,12933,36064.0,32855.0,36064.0,34654.0,590.3333952846599,1152.5249784446182,1640.5942218291636
36074,12950,36074.0,32870.0,36074.0,34651.0,591.4433853525439,1138.571307100547,1622.1373977657802
36074,12941,36074.0,32859.0,36074.0,34621.0,592.3212956195201,1124.5216891830578,1603.5190753533698
36074,12948,36074.0,32856.0,36074.0,34615.0,592.9736306360641,1110.3780517368516,1584.7445639828084
36074,12964,36074.0,32881.0,36074.0,34637.0,593.4066578145045,1096.1417577153782,1565.8182389342755
36074,12974,36074.0,32905.0,36074.0,34638.0,593.626584972408,1081.8142171383556,1546.7440111864016
36074,12981,36074.0,32870.0,36074.0,34597.0,593.6398766193447,1067.3977260912561,1527.5260270812662
36084,12965,36084.0,32846.0,36084.0,34563.0,593.4535387909274,1052.8960842456668,1508.1690674974718
36084,12943,36084.0,32754.0,36084.0,34531.0,593.0751455624863,1038.3144990564172,1488.678389380575
36084,12921,36084.0,32734.0,36084.0,34513.0,592.5125078547079,1023.658742111025,1469.0593191055798
36084,12906,36084.0,32694.0,36084.0,34474.0,591.7730976197306,1008.9339945965099,1449.3169172532007
36084,12916,36084.0,32684.0,36084.0,34466.0,590.8634902465503,994.1439402574762,1429.455740941012
36084,12939,36084.0,32723.0,36084.0,34470.0,589.7891143433021,979.2904052003473,1409.479748071117
36095,12946,36095.0,32729.0,36095.0,34461.0,588.5544402292682,964.3736779946599,1389.3925113157063
36095,12945,36095.0,32725.0,36095.0,34437.0,587.1634025646008,949.3933420394793,1369.197654689388
36095,12948,36095.0,32733.0,36095.0,34426.0,585.6197331745267,934.3491101987106,1348.8992009352194
36095,12966,36095.0,32768.0,36095.0,34446.0,583.9271614383092,919.2415240931068,1328.5018275775546
36095,12951,36095.0,32755.0,36095.0,34428.0,582.089625802644,904.0727750570828,1308.0113107778698
36095,12957,36095.0,32687.0,36095.0,34364.0,580.1114639168158,888.8474322164086,1287.4350232703632
36105,12935,36105.0,32670.0,36105.0,34337.0,577.9974497190891,873.5724907298097,1266.7819539476618
36105,12924,36105.0,32597.0,36105.0,34313.0,575.7526490021125,858.2567198081284,1246.0622326674618
36105,12919,36105.0,32591.0,36105.0,34292.0,573.3821438983867,842.9097716989982,1225.2866881828713
36105,12913,36105.0,32543.0,36105.0,34255.0,570.8907576676265,827.5413711120324,1204.466643268854
36105,12913,36105.0,32570.0,36105.0,34242.0,568.2828929538792,812.1607810837678,1183.6137665871127
36105,12921,36105.0,32587.0,36105.0,34232.0,565.5624975254677,796.7767756775968,1162.739962711286
36115,12919,36115.0,32579.0,36115.0,34227.0,562.7331553325148,781.398188024445,1141.857465879029
36115,12927,36115.0,32532.0,36115.0,34206.0,559.7982643030076,766.0345780772337,1120.9791411306096
36115,12928,36115.0,32563.0,36115.0,34234.0,556.7612400478783,750.6965098082427,1100.1188892232153
36115,12942,36115.0,32595.0,36115.0,34205.0,553.6257494096693,735.3957653745542,1079.2921852522231
36115,12932,36115.0,32559.0,36115.0,34169.0,550.3959798119888,720.1460099257056,1058.5166169553563
36115,12913,36115.0,32488.0,36115.0,34113.0,547.0768208411807,704.9633987109319,1037.811997210776
36126,12890,36126.0,32430.0,36126.0,34061.0,543.67376769401,689.866265958853,1017.1998740948055
36126,12884,36126.0,32406.0,36126.0,34035.0,540.1925524060423,674.8740123853033,996.7027090403928
36126,12876,36126.0,32366.0,36126.0,34005.0,536.6387414861484,660.0059698784266,976.3431271513443
36126,12874,36126.0,32340.0,36126.0,33985.0,533.017487982715,645.2806090405084,956.1434595394927
36126,12877,36126.0,32355.0,36126.0,33984.0,529.3334499479097,630.715046474501,936.1255708870647
36126,12885,36126.0,32352.0,36126.0,33958.0,525.5908528739536,616.3249524092308,916.3109269911042
36136,12884,36136.0,32357.0,36136.0,33947.0,521.7936817838836,602.1249026308205,896.7207882518503
36136,12887,36136.0,32349.0,36136.0,33923.0,517.9459239126961,588.1289050535497,877.3763624618089
36136,12895,36136.0,32377.0,36136.0,33932.0,514.0517970875426,574.3509223625252,858.2989303688739
36136,12894,36136.0,32375.0,36136.0,33896.0,510.1159879588025,560.805489426404,839.5100526031151
36136,12885,36136.0,32315.0,36136.0,33859.0,506.1438776810064,547.5083116892708,821.0317277561064
36136,12843,36136.0,32254.0,36136.0,33809.0,502.1415768023915,534.4762855180986,802.8862014022402
36147,12855,36147.0,32216.0,36147.0,33775.0,498.1156437188,521.7266748902804,785.0953828533677
36147,12824,36147.0,32208.0,36147.0,33753.0,494.0726706556316,509.2759842149986,767.6801482050597
36147,12813,36147.0,32180.0,36147.0,33732.0,490.01893529518816,497.1391783787025,750.6598183639811
36147,12823,36147.0,32170.0,36147.0,33736.0,485.960105699362,485.32931627370056,734.0519328093733
36147,12826,36147.0,32194.0,36147.0,33715.0,481.9011055854163,473.8574354335204,717.872304298664
36147,12825,36147.0,32186.0,36147.0,33701.0,477.8462450060547,462.7327541348178,702.1352082397319
36157,12833,36157.0,32184.0,36157.0,33696.0,473.79946247070717,451.963133939965,686.8535341982163
36157,12837,36157.0,32203.0,36157.0,33699.0,469.76456908448466,441.5555453625172,672.0389456179807
36157,12827,36157.0,32204.0,36157.0,33716.0,465.7454945731953,431.5165384156497,657.7022335136368
36157,12834,36157.0,32207.0,36157.0,33664.0,461.74647030839594,421.85279875676247,643.853813156931
36157,12821,36157.0,32149.0,36157.0,33635.0,457.7721249176695,412.5715483849257,630.5039465145778
36157,12792,36157.0,32084.0,36157.0,33592.0,453.8274700806408,403.6803474755418,617.6623986810965
36167,12780,36167.0,32069.0,36167.0,33579.0,449.91765696236564,395.18616760296516,605.3377748697038
36167,12779,36167.0,32058.0,36167.0,33548.0,446.04756990776167,387.0942906143374,593.5369241807389
36167,12768,36167.0,32042.0,36167.0,33555.0,442.22152436540955,379.407644103443,582.2645555830787
36167,12769,36167.0,32056.0,36167.0,33551.0,438.4431457879212,372.126583441172,571.5231185068644
36167,12779,36167.0,32082.0,36167.0,33563.0,434.7153646122968,365.24900087110564,561.3129863451627
36167,12775,36167.0,32079.0,36167.0,33549.0,431.04054136853443,358.7707920107691,551.6328375472085
36178,12782,36178.0,32075.0,36178.0,33543.0,427.4206853925995,352.6864511390472,542.4800076278534
36178,12785,36178.0,32147.0,36178.0,33572.0,423.8576800441463,346.9896051631686,533.850751416823
36178,12787,36178.0,32143.0,36178.0,33575.0,420.3535103124948,341.67377379894805,525.7406382346641
36178,12782,36178.0,32103.0,36178.0,33543.0,416.9104785798553,336.7332853269652,518.1450861789316
36178,12738,36178.0,32045.0,36178.0,33509.0,413.531260743261,332.1635426839366,511.0595762722417
36178,12738,36178.0,32027.0,36178.0,33485.0,410.2186326282005,327.9603142505675,504.479289604258
36188,12738,36188.0,32019.0,36188.0,33471.0,406.9750183890437,324.1186930320366,498.39846914906377
36188,12718,36188.0,31980.0,36188.0,33462.0,403.8022007952992,320.63232947039626,492.8098909252775
36188,12735,36188.0,32020.0,36188.0,33482.0,400.7012196375548,317.49297043757724,487.7046167060974
36188,12743,36188.0,32045.0,36188.0,33465.0,397.6723954616531,314.6903815208684,483.07205279899097
36188,12718,36188.0,32037.0,36188.0,33490.0,394.7154988335683,312.2127985741388,478.9001917349758
36188,12737,36188.0,32061.0,36188.0,33478.0,391.8298890590446,310.0475607799501,475.17589959200575
36198,12744,36198.0,32092.0,36198.0,33504.0,389.0145839122454,308.18164429654155,471.88523516808283
36198,12766,36198.0,32126.0,36198.0,33505.0,386.2685093079233,306.6023397334536,469.01382772956833
36198,12754,36198.0,32087.0,36198.0,33507.0,383.5909431101313,305.2980738645454,466.54728746908734
36198,12715,36198.0,32057.0,36198.0,33479.0,380.98180098007293,304.2588073140803,464.47147913790207
36198,12712,36198.0,32024.0,36198.0,33458.0,378.4414587019279,303.47564229176044,462.77244075148576
36198,12690,36198.0,32009.0,36198.0,33457.0,375.97025265081504,302.93995842766935,461.43598020373855
36209,12684,36209.0,31982.0,36209.0,33428.0,373.56800647508896,302.64255055363674,460.4472092796035
36209,12694,36209.0,32004.0,36209.0,33447.0,371.2337236244646,302.5729731162364,459.7901754029882
36209,12697,36209.0,32004.0,36209.0,33465.0,368.96550644508466,302.7192230685795,459.4477049323501
36209,12703,36209.0,32030.0,36209.0,33455.0,366.7607079453677,303.0678243171462,459.40156780025893
36209,12715,36209.0,32039.0,36209.0,33481.0,364.61619486870245,303.6041866154224,459.63279810365896
36209,12699,36209.0,32062.0,36209.0,33476.0,362.52861287358104,304.31308553138376,460.12198302250846
36219,12726,36219.0,32109.0,36219.0,33500.0,360.4945932064779,305.17925788026207,460.84955912376194
36219,12734,36219.0,32114.0,36219.0,33506.0,358.51098191997426,306.18818595706745,461.79615714544474
36219,12714,36219.0,32094.0,36219.0,33491.0,356.575164593956,307.32685653569615,462.94292505605245
36219,12686,36219.0,32035.0,36219.0,33468.0,354.68520738485097,308.5839466667013,464.2716114482864
36219,12666,36219.0,32028.0,36219.0,33449.0,352.8395412843755,309.9491999165325,465.7642439293803
36219,12676,36219.0,32011.0,36219.0,33449.0,351.036408214607,311.4124386375814,467.40256904484136
36229,12666,36229.0,31975.0,36229.0,33457.0,349.2734838773472,312.96271854067993,469.16759835300127
36229,12662,36229.0,32014.0,36229.0,33475.0,347.54776241542544,314.58769876439476,471.0394818293428
36229,12671,36229.0,32029.0,36229.0,33457.0,345.85553094729823,316.2733613678895,472.9976444558142
36229,12677,36229.0,32055.0,36229.0,33490.0,344.1924138346639,318.0042931380276,475.0209559302027
36229,12685,36229.0,32071.0,36229.0,33490.0,342.5535616786177,319.7643115978715,477.08790380045207
36229,12688,36229.0,32086.0,36229.0,33516.0,340.9339264945495,321.5370977447077,479.17689819525623
36240,12721,36240.0,32144.0,36240.0,33532.0,339.3285827432321,323.3068259105717,481.26670479189136
36240,12700,36240.0,32121.0,36240.0,33523.0,337.7331308019788,325.0589066122768,483.33689743023507
36240,12688,36240.0,32091.0,36240.0,33502.0,336.144008989229,326.78055349930673,485.36810641863104
36240,12671,36240.0,32033.0,36240.0,33497.0,334.5584451263825,328.4606001288949,487.3418709340352
36240,12659,36240.0,32053.0,36240.0,33471.0,332.97411048663366,330.08859531457057,489.24021149359294
36240,12640,36240.0,32038.0,36240.0,33486.0,331.3887028798518,331.653899884176,491.04516391974903
36250,12656,36250.0,32000.0,36250.0,33497.0,329.79958240040435,333.1451616067849,492.73848989765327
36250,12647,36250.0,32059.0,36250.0,33509.0,328.2035853867718,334.54995210278673,494.3017205330709
36250,12668,36250.0,32093.0,36250.0,33507.0,326.59707536773254,335.8547360993111,495.71642421707145
36250,12665,36250.0,32078.0,36250.0,33532.0,324.97615419474755,337.04546282094964,496.96448285158397
36250,12658,36250.0,32099.0,36250.0,33528.0,323.3369039566535,338.1082719925221,498.0283628586393
36250,12699,36250.0,32157.0,36250.0,33561.0,321.6755950392879,339.0299688416672,498.891448334269
36260,12675,36260.0,32157.0,36260.0,33549.0,319.98896973219684,339.7986753041846,499.53842678733565
36260,12667,36260.0,32120.0,36260.0,33544.0,318.2745347151989,340.40458296931195,499.9556004982377
36260,12651,36260.0,32067.0,36260.0,33510.0,316.5305589687107,340.8400472223561,500.1308973297314
36260,12645,36260.0,32048.0,36260.0,33499.0,314.75579337699594,341.0987820774706,500.0534964342771
36260,12624,36260.0,32031.0,36260.0,33497.0,312.949142785737,341.17472866669493,499.7132797161083
36260,12623,36260.0,32034.0,36260.0,33488.0,311.1093472220752,341.06119459682014,499.1004089118378
36271,12631,36271.0,32062.0,36271.0,33489.0,309.2347269563992,340.75047889435285,498.2051115921695
36271,12638,36271.0,32080.0,36271.0,33517.0,307.32314120345546,340.23401311405075,497.01764604738605
36271,12640,36271.0,32080.0,36271.0,33523.0,305.3721706349926,339.5028610067511,495.52853238920807
36271,12635,36271.0,32081.0,36271.0,33507.0,303.3793477067419,338.5482026279884,493.7289651812364
36271,12631,36271.0,32113.0,36271.0,33530.0,301.3422830951603,337.3616473410833,491.61110838646687
36271,12651,36271.0,32139.0,36271.0,33524.0,299.2587227233292,335.9356390740188,489.16826683727686
36281,12643,36281.0,32131.0,36281.0,33519.0,297.12668925248084,334.2640997990645,486.3950862525743
36281,12634,36281.0,32097.0,36281.0,33488.0,294.9446818002286,332.34293303417303,483.2876383290454
36281,12613,36281.0,32061.0,36281.0,33465.0,292.71170121894386,330.1699221003412,479.84317858551196
36281,12592,36281.0,32033.0,36281.0,33458.0,290.42698967733156,327.7440333848683,476.05964589366624
36281,12599,36281.0,32016.0,36281.0,33437.0,288.089618144658,325.0645112181894,471.93516282209407
36281,12596,36281.0,32005.0,36281.0,33437.0,285.6981828650695,322.1301104628359,467.46768257108033
36291,12588,36291.0,32025.0,36291.0,33461.0,283.25072823027216,318.93864291076636,462.6548412480681
36291,12612,36291.0,32055.0,36291.0,33443.0,280.74480098165475,315.4869812168585,457.4941045914604
36291,12616,36291.0,32052.0,36291.0,33453.0,278.17763985017496,311.7715325786336,451.9830756482226
36291,12613,36291.0,32059.0,36291.0,33447.0,275.5465189220889,307.7888584605273,446.11973480000586
36291,12627,36291.0,32089.0,36291.0,33473.0,272.84907684546505,303.53617333715533,439.90267494209587
36291,12613,36291.0,32128.0,36291.0,33470.0,270.083546963243,299.01193099745024,433.331495792598
36302,12612,36302.0,32050.0,36302.0,33434.0,267.2488985624863,294.2165490800485,426.4072238025588
36302,12582,36302.0,32019.0,36302.0,33395.0,264.34481036867925,289.15260607686025,419.1323448334037
36302,12573,36302.0,31970.0,36302.0,33381.0,261.371419653555,283.8240898549177,411.51030385716
36302,12572,36302.0,31971.0,36302.0,33373.0,258.3289562492058,278.23525211692686,403.54486824865876
36302,12553,36302.0,31961.0,36302.0,33332.0,255.2174537201474,272.38977900675616,395.23969657008894
36302,12567,36302.0,31970.0,36302.0,33354.0,252.0365923288084,266.2904760556264,386.5980479701197
36312,12569,36312.0,31963.0,36312.0,33337.0,248.78567581798882,259.939317597583,377.62263207952293
36312,12576,36312.0,31982.0,36312.0,33344.0,245.46379463550988,253.3376703315377,368.31571262330897
36312,12558,36312.0,31984.0,36312.0,33351.0,242.07006633932266,246.48663834299873,358.67938573112014
36312,12578,36312.0,31989.0,36312.0,33350.0,238.6037832157623,239.38750929551327,348.7159559630387
36312,12577,36312.0,32044.0,36312.0,33360.0,235.0645399887497,232.0423057932391,338.42839580659813
36312,12572,36312.0,32011.0,36312.0,33340.0,231.45245496638668,224.4545228090775,327.82079546810473
36322,12554,36322.0,31950.0,36322.0,33293.0,227.7683369023753,216.62970099705512,316.89859440896277
36322,12540,36322.0,31911.0,36322.0,33266.0,224.01361543064579,208.57516794150126,305.66835366562924
36322,12514,36322.0,31876.0,36322.0,33247.0,220.1900492122711,200.29902204152705,294.1371679378135
36322,12511,36322.0,31845.0,36322.0,33222.0,216.29932103123747,191.80902662905083,282.31210376486536
36322,12512,36322.0,31844.0,36322.0,33218.0,212.34268977796603,183.1117742920423,270.1998456985033
36322,12507,36322.0,31854.0,36322.0,33214.0,208.3208550950506,174.21224865533839,257.8065542917136
36333,12518,36333.0,31887.0,36333.0,33204.0,204.2340184551303,165.11393316344686,245.1379437799999
36333,12514,36333.0,31870.0,36333.0,33198.0,200.0820516025237,155.81939586954297,232.19948615938927
36333,12517,36333.0,31863.0,36333.0,33182.0,195.86471366005017,146.33092512742252,218.99660588011972
36333,12527,36333.0,31911.0,36333.0,33197.0,191.58187642573873,136.6509651506168,205.53486497120048
36333,12515,36333.0,31913.0,36333.0,33199.0,187.23375988545843,126.78267312308515,191.82028007189103
36333,12513,36333.0,31862.0,36333.0,33153.0,182.82112329981908,116.73065038651384,177.8597489194176
36343,12484,36343.0,31814.0,36343.0,33117.0,178.3452884074316,106.50116357512684,163.66118944095206
36343,12480,36343.0,31786.0,36343.0,33077.0,173.80795424347724,96.1015317496894,149.23313420924842
36343,12457,36343.0,31763.0,36343.0,33074.0,169.21088650378869,85.53920549740792,134.58408153923642
36343,12453,36343.0,31726.0,36343.0,33055.0,164.55559877723337,74.82102346117222,119.72205626486107
36343,12445,36343.0,31742.0,36343.0,33032.0,159.84309844583075,63.9526966581941,104.654477061134
36343,12462,36343.0,31752.0,36343.0,33055.0,155.07378017753837,52.93862560444501,89.38818838985992
36353,12466,36353.0,31756.0,36353.0,33020.0,150.24756411664097,41.78220183724926,73.92965075258962
36353,12458,36353.0,31769.0,36353.0,33023.0,145.36421601993197,30.486411552222307,58.28523842881532
36353,12460,36353.0,31775.0,36353.0,33014.0,140.4236287504696,19.054488268818375,42.46148663192321
36353,12480,36353.0,31787.0,36353.0,33025.0,135.4260226321734,7.490573939778301,26.46537286340788
36353,12467,36353.0,31761.0,36353.0,32983.0,130.37222453604704,-4.1996682777588035,10.30470307408234
36353,12435,36353.0,31697.0,36353.0,32957.0,125.26391842813541,-16.00878722120757,-6.011670804488517
36364,12407,36364.0,31661.0,36364.0,32916.0,120.10351724563466,-27.927950922459843,-22.474034945097173
36364,12407,36364.0,31626.0,36364.0,32868.0,114.89366414159645,-39.94787829263748,-39.07232271418388
36364,12396,36364.0,31612.0,36364.0,32852.0,109.63676776672227,-52.05976130822961,-55.796770990400205
36364,12382,36364.0,31577.0,36364.0,32847.0,104.33477792594044,-64.25589466889403,-72.6384649983421
36364,12398,36364.0,31607.0,36364.0,32841.0,98.9891003482089,-76.53002130016364,-89.58949067474009
36364,12389,36364.0,31613.0,36364.0,32837.0,93.60063633979325,-88.87728062067328,-106.64270902382725
36374,12390,36374.0,31617.0,36374.0,32818.0,88.1699594150895,-101.29369097485085,-123.79139961833346
36374,12394,36374.0,31617.0,36374.0,32823.0,82.6975135197406,-113.77546186061528,-141.02893538386195
36374,12414,36374.0,31640.0,36374.0,32822.0,77.18384901189344,-126.31837691623423,-158.348440325379
36374,12401,36374.0,31656.0,36374.0,32822.0,71.62998947166989,-138.91711626148907,-175.74231709313938
36374,12376,36374.0,31581.0,36374.0,32761.0,66.03774717973965,-151.56457500762298,-193.2017964007789
36374,12354,36374.0,31512.0,36374.0,32705.0,60.409683669174456,-164.25181154174197,-210.71695579189657
36385,12348,36385.0,31485.0,36385.0,32684.0,54.7487476697151,-176.968975920424,-228.27736993965448
36385,12336,36385.0,31468.0,36385.0,32672.0,49.05790403931866,-189.70655487559208,-245.87288889272543
36385,12315,36385.0,31440.0,36385.0,32617.0,43.33989120324827,-202.4561829407604,-263.49408724010937
36385,12318,36385.0,31446.0,36385.0,32618.0,37.59701796361725,-215.21099975867736,-281.13254439343063
36385,12311,36385.0,31462.0,36385.0,32639.0,31.831009710402554,-227.96567930828041,-298.7810089082386
36385,12326,36385.0,31451.0,36385.0,32611.0,26.04302538181679,-240.71608877808632,-316.4331496344855
36395,12313,36395.0,31450.0,36395.0,32589.0,20.233851186866673,-253.45877154259063,-334.083082143959
36395,12316,36395.0,31461.0,36395.0,32606.0,14.404135459259408,-266.1905033026725,-351.7250875347845
36395,12337,36395.0,31494.0,36395.0,32610.0,8.554607947593922,-278.9077839003146,-369.35332548973156
36395,12327,36395.0,31443.0,36395.0,32563.0,2.686394818885276,-291.60614957241035,-386.9613333410831
36395,12284,36395.0,31410.0,36395.0,32527.0,-3.1986920776117813,-304.27974491484565,-404.54174644016587
36395,12278,36395.0,31372.0,36395.0,32477.0,-9.098255996094508,-316.9215776653683,-422.0866043162803
36405,12261,36405.0,31322.0,36405.0,32453.0,-15.009753572276963,-329.52425614733795,-439.5880243030849
36405,12242,36405.0,31281.0,36405.0,32427.0,-20.93090639987838,-342.0808918703244,-457.0388543326924
36405,12235,36405.0,31275.0,36405.0,32422.0,-26.860005035123038,-354.58600966661174,-474.4330764681006
36405,12245,36405.0,31304.0,36405.0,32410.0,-32.79611966617415,-367.03610333205677,-491.76589866858137
36405,12249,36405.0,31312.0,36405.0,32409.0,-38.739077866010405,-379.4294787471289,-509.0335916494935
36405,12254,36405.0,31312.0,36405.0,32386.0,-44.68918922423239,-391.76555863571605,-526.2332025393744
36416,12246,36416.0,31287.0,36416.0,32378.0,-50.64689900328136,-404.04420554923865,-543.3622992654989
36416,12242,36416.0,31340.0,36416.0,32386.0,-56.61254080778383,-416.2652877397328,-560.418755890448
36416,12267,36416.0,31337.0,36416.0,32377.0,-62.58615992687413,-428.4281398594121,-577.4004191136291
36416,12241,36416.0,31309.0,36416.0,32338.0,-68.56725961328516,-440.5308011278264,-594.3047045851706
36416,12212,36416.0,31241.0,36416.0,32292.0,-74.5546079157491,-452.5696381144503,-611.1284995213725
36416,12193,36416.0,31186.0,36416.0,32275.0,-80.54642483116817,-464.5398662297845,-627.8685356312355
36426,12178,36426.0,31165.0,36426.0,32259.0,-86.54087089099312,-476.4367008845452,-644.5218904470714
36426,12174,36426.0,31133.0,36426.0,32234.0,-92.53648713300316,-488.2564746814643,-661.0862670604206
36426,12172,36426.0,31139.0,36426.0,32205.0,-98.53241854558814,-499.9973322281992,-677.5601252106756
36426,12175,36426.0,31171.0,36426.0,32221.0,-104.52842507765172,-511.65939947293475,-693.9427993910097
36426,12167,36426.0,31161.0,36426.0,32202.0,-110.52475309700043,-523.2443891724001,-710.2344461746657
36426,12171,36426.0,31156.0,36426.0,32186.0,-116.52197254173291,-534.754937957975,-726.4357762665061
36436,12175,36436.0,31166.0,36436.0,32183.0,-122.520806069456,-546.1940979120185,-742.5478080564733
36436,12192,36436.0,31197.0,36436.0,32200.0,-128.52186519514618,-557.5648935369245,-758.5716345648818
36436,12173,36436.0,31191.0,36436.0,32162.0,-134.525279234697,-568.8696485673137,-774.5080317396237
36436,12130,36436.0,31123.0,36436.0,32113.0,-140.53048214744064,-580.1093537172038,-790.357183303603
36436,12123,36436.0,31085.0,36436.0,32086.0,-146.536452739707,-591.283726932252,-806.11893294746
36436,12117,36436.0,31057.0,36436.0,32067.0,-152.54221801770132,-602.3920227803068,-821.7933837516393
36447,12114,36447.0,31037.0,36447.0,32057.0,-158.54717247826625,-613.4339595834452,-837.3813510533055
36447,12092,36447.0,30986.0,36447.0,32008.0,-164.55115670211904,-624.4104081313382,-852.8845716134651
36447,12103,36447.0,31030.0,36447.0,32037.0,-170.55450573509432,-635.3239026875884,-868.3058552387952
36447,12095,36447.0,31046.0,36447.0,32028.0,-176.55807333486996,-646.1787334343484,-883.6490695231241
36447,12104,36447.0,31048.0,36447.0,32020.0,-182.56312279388624,-656.9803774296911,-898.9187835830216
36447,12099,36447.0,31052.0,36447.0,32002.0,-188.5711106227925,-667.7346747147983,-914.1198357765861
36457,12111,36457.0,31065.0,36457.0,32020.0,-194.58342984109424,-678.4471764108055,-929.2570498991329
36457,12111,36457.0,31086.0,36457.0,32032.0,-200.60111081035018,-689.1225513016866,-944.3348649574816
36457,12083,36457.0,31038.0,36457.0,31967.0,-206.6245483774411,-699.7639718108494,-959.356813617623
36457,12069,36457.0,30981.0,36457.0,31937.0,-212.65346374238652,-710.3729042103724,-974.3253571433174
36457,12045,36457.0,30958.0,36457.0,31911.0,-218.68717591748737,-720.9496591374267,-989.2423418223618
36457,12040,36457.0,30934.0,36457.0,31873.0,-224.7249966036373,-731.4943219075356,-1004.1096599137891
36467,12023,36467.0,30890.0,36467.0,31873.0,-230.7665602969738,-742.0075323915214,-1018.9297568533248
36467,12022,36467.0,30906.0,36467.0,31852.0,-236.81204107582948,-752.4910618265379,-1033.7059178684494
36467,12018,36467.0,30919.0,36467.0,31862.0,-242.86225810189103,-762.948093442929,-1048.4422914247234
36467,12023,36467.0,30924.0,36467.0,31829.0,-248.9186516167993,-773.382980192349,-1063.1437222529137
36467,12025,36467.0,30928.0,36467.0,31839.0,-254.98312333875208,-783.8006616132448,-1077.8155638193907
36467,12024,36467.0,30933.0,36467.0,31829.0,-261.05778978588074,-794.2060877812542,-1092.463498420805
36478,12041,36478.0,30953.0,36478.0,31846.0,-267.1446929920318,-804.6036886461497,-1107.0932291473916
36478,12034,36478.0,30926.0,36478.0,31833.0,-273.2454564107931,-814.9968299181947,-1121.7099969935143
36478,12017,36478.0,30893.0,36478.0,31781.0,-279.3609668971,-825.3874739311229,-1136.3181678095414
36478,11981,36478.0,30832.0,36478.0,31753.0,-285.49132758895513,-835.776393457031,-1150.9212734384387
36478,11977,36478.0,30811.0,36478.0,31722.0,-291.63617880082535,-846.163954597645,-1165.5225271346992
36478,11954,36478.0,30791.0,36478.0,31699.0,-297.79515824348783,-856.5510579042078,-1180.125432689377
36488,11958,36488.0,30775.0,36488.0,31692.0,-303.968245589685,-866.9398167703771,-1194.734217997262
36488,11966,36488.0,30801.0,36488.0,31691.0,-310.15589020828816,-877.3338394951822,-1209.3540059291058
36488,11964,36488.0,30813.0,36488.0,31691.0,-316.3588876643817,-887.738062328494,-1223.9906818975808
36488,11951,36488.0,30809.0,36488.0,31690.0,-322.5781304439978,-898.1581839789221,-1238.6505368799826
36488,11944,36488.0,30803.0,36488.0,31661.0,-328.81446965679265,-908.6000555831858,-1253.3398820146108
36488,11965,36488.0,30849.0,36488.0,31673.0,-335.0686775731615,-919.0692040496208,-1268.064798495407
36498,11964,36498.0,30885.0,36498.0,31686.0,-341.34126407871514,-929.5701364712348,-1282.8308991210542
36498,11943,36498.0,30786.0,36498.0,31634.0,-347.63214500202685,-940.1054153234071,-1297.6429434585968
36498,11915,36498.0,30735.0,36498.0,31591.0,-353.9405144305271,-950.6754331965742,-1312.5046727386054
36498,11909,36498.0,30696.0,36498.0,31580.0,-360.2650930357405,-961.279388864176,-1327.4192043145097
36498,11888,36498.0,30678.0,36498.0,31567.0,-366.6045197056737,-971.9166531537178,-1342.3895848673667
36498,11864,36498.0,30657.0,36498.0,31527.0,-372.95770034028453,-982.587709073485,-1357.4190833413966
36509,11866,36509.0,30687.0,36509.0,31532.0,-379.3241462293416,-993.2945629924333,-1372.5113570732026
36509,11861,36509.0,30687.0,36509.0,31523.0,-385.70422919079954,-1004.040645065372,-1387.6705598137862
36509,11878,36509.0,30702.0,36509.0,31525.0,-392.0991875392727,-1014.8302838367272,-1402.9012154626596
36509,11875,36509.0,30684.0,36509.0,31515.0,-398.5108747791735,-1025.6680827612806,-1418.207885715146
36509,11882,36509.0,30699.0,36509.0,31511.0,-404.94138657607255,-1036.5584534994255,-1433.5948095691208
36509,11892,36509.0,30742.0,36509.0,31506.0,-411.3926792812052,-1047.505164187117,-1449.065579309377
36519,11886,36519.0,30705.0,36519.0,31486.0,-417.8661920910793,-1058.5106576777862,-1464.6228548626884
36519,11861,36519.0,30651.0,36519.0,31467.0,-424.3625598056459,-1069.5755099837006,-1480.2681831954542
36519,11840,36519.0,30608.0,36519.0,31414.0,-430.88162053853813,-1080.6986804798016,-1496.0020542126722
36519,11809,36519.0,30574.0,36519.0,31390.0,-437.4227649052442,-1091.878450639028,-1511.824282151411
36519,11806,36519.0,30569.0,36519.0,31379.0,-443.9854465805979,-1103.1133956385302,-1527.7345586464314
36519,11798,36519.0,30556.0,36519.0,31350.0,-450.5696032991905,-1114.4029719943928,-1543.7328556971972
36529,11797,36529.0,30580.0,36529.0,31370.0,-457.1758365331656,-1125.7476463849796,-1559.8195490237547
36529,11808,36529.0,30589.0,36529.0,31360.0,-463.80536401370966,-1137.1485980582497,-1575.9952577638535
36529,11817,36529.0,30561.0,36529.0,31348.0,-470.4597774581126,-1148.6071728990485,-1592.2604531188424
36529,11798,36529.0,30584.0,36529.0,31350.0,-477.1406803451109,-1160.124431133299,-1608.6150565190317
36529,11807,36529.0,30599.0,36529.0,31364.0,-483.8494080644789,-1171.700792680524,-1625.0580657508553
36529,11817,36529.0,30624.0,36529.0,31345.0,-490.58685063166797,-1183.3354360969051,-1641.5870552534655
36540,11809,36540.0,30592.0,36540.0,31330.0,-497.35319377134476,-1195.0254895555915,-1658.1976781192266
36540,11768,36540.0,30519.0,36540.0,31293.0,-504.1476896500403,-1206.7656048253762,-1674.8834532034712
36540,11758,36540.0,30485.0,36540.0,31242.0,-510.96878509668386,-1218.5484101552067,-1691.6359508155979
36540,11738,36540.0,30480.0,36540.0,31226.0,-517.8145628128128,-1230.365526532573,-1708.4453205348145
36540,11724,36540.0,30470.0,36540.0,31222.0,-524.6831778952821,-1242.2083319856297,-1725.3008497648752
36540,11720,36540.0,30449.0,36540.0,31207.0,-531.5731622342453,-1254.0682030116973,-1742.1911789526814
36550,11718,36550.0,30467.0,36550.0,31205.0,-538.4835887474497,-1265.9365126782777,-1759.104177861597
36550,11734,36550.0,30479.0,36550.0,31212.0,-545.4140327619361,-1277.804440315692,-1776.0266633787646
36550,11730,36550.0,30470.0,36550.0,31188.0,-552.3643103377533,-1289.6624979694311,-1792.9440138936714
36550,11737,36550.0,30498.0,36550.0,31196.0,-559.3341008088922,-1301.499931754024,-1809.839777818516
36550,11735,36550.0,30526.0,36550.0,31211.0,-566.3225911663046,-1313.3040490175777,-1826.695286848421
36550,11727,36550.0,30501.0,36550.0,31189.0,-573.3281969399884,-1325.0593866800561,-1843.4891328407762
36560,11699,36560.0,30451.0,36560.0,31156.0,-580.348432465259,-1336.7471036491881,-1860.1966870119893
36560,11700,36560.0,30416.0,36560.0,31130.0,-587.3800074881065,-1348.3451158920345,-1876.790024395031
36560,11675,36560.0,30374.0,36560.0,31098.0,-594.4190510279981,-1359.828859418335,-1893.2382260238348
36560,11664,36560.0,30377.0,36560.0,31073.0,-601.4613391558888,-1371.1721496437185,-1909.5077986854208
36560,11639,36560.0,30358.0,36560.0,31049.0,-608.5025591891244,-1382.3477392439409,-1925.563079668859
36560,11668,36560.0,30368.0,36560.0,31058.0,-615.5385598439148,-1393.3274802239898,-1941.3665223553296
36571,11656,36571.0,30379.0,36571.0,31055.0,-622.5653567794532,-1404.0821720291412,-1956.8786897601276
36571,11654,36571.0,30383.0,36571.0,31061.0,-629.5788795028151,-1414.5811573217143,-1972.0579127195927
36571,11657,36571.0,30383.0,36571.0,31055.0,-636.5747167786919,-1424.7917877969921,-1986.8597860192226
36571,11663,36571.0,30420.0,36571.0,31049.0,-643.5479173441748,-1434.6788743657557,-2001.2366940469658
36571,11675,36571.0,30405.0,36571.0,31045.0,-650.4926963212502,-1444.2040559861723,-2015.1374422929555
36571,11642,36571.0,30378.0,36571.0,31025.0,-657.4020879666199,-1453.3252218578405,-2028.506998265465
36581,11610,36581.0,30329.0,36581.0,30972.0,-664.2678545789863,-1461.9964273717612,-2041.2864446686124
36581,11607,36581.0,30270.0,36581.0,30950.0,-671.0808217823643,-1470.1685136212368,-2053.413332803416
36581,11596,36581.0,30270.0,36581.0,30934.0,-677.8313368916741,-1477.7901729158407,-2064.822318693966
36581,11587,36581.0,30230.0,36581.0,30918.0,-684.5095207870892,-1484.8089579693406,-2075.4456953974563
36581,11591,36581.0,30259.0,36581.0,30916.0,-691.1053399141167,-1491.1719024939214,-2085.2136637307594
36581,11592,36581.0,30293.0,36581.0,30910.0,-697.6085634870223,-1496.8256213228424,-2094.0544124053313
36591,11585,36591.0,30255.0,36591.0,30906.0,-704.0086062214741,-1501.7159039154017,-2101.8940725617003
36591,11590,36591.0,30257.0,36591.0,30890.0,-710.2943419260948,-1505.7872947374972,-2108.6566461650636
36591,11592,36591.0,30284.0,36591.0,30897.0,-716.4539247255819,-1508.9830184498405,-2114.2639976717555
36591,11610,36591.0,30322.0,36591.0,30912.0,-722.4745312595329,-1511.2447943416846,-2118.635816310969
36591,11581,36591.0,30308.0,36591.0,30881.0,-728.3420282923364,-1512.512214009549,-2121.689458419378
36591,11575,36591.0,30272.0,36591.0,30855.0,-734.0407847148167,-1512.7221981966711,-2123.339933486614
36602,11538,36602.0,30205.0,36602.0,30826.0,-739.5538125554418,-1511.8092187674463,-2123.50034621161
36602,11532,36602.0,30204.0,36602.0,30822.0,-744.8631707228078,-1509.7063384462335,-2122.0826536287377
36602,11524,36602.0,30158.0,36602.0,30787.0,-749.9504134630529,-1506.34650378605,-2118.998420356919
36602,11503,36602.0,30135.0,36602.0,30771.0,-754.7969161384644,-1501.6636887707211,-2114.1595484991103
36602,11513,36602.0,30154.0,36602.0,30766.0,-759.384087014096,-1495.5938831057829,-2107.479065988582
36602,11525,36602.0,30192.0,36602.0,30778.0,-763.6934433912279,-1488.0756966152912,-2098.871818369716
36612,11511,36612.0,30183.0,36612.0,30795.0,-767.7064656690751,-1479.0503450315832,-2088.254848254758
36612,11509,36612.0,30216.0,36612.0,30781.0,-771.4043979028255,-1468.4613611690356,-2075.5475259151945
36612,11523,36612.0,30238.0,36612.0,30805.0,-774.7681654518128,-1456.2543693219764,-2060.67169879325
36612,11523,36612.0,30272.0,36612.0,30802.0,-777.7782625958826,-1442.3768073410643,-2043.5519576520305
36612,11512,36612.0,30233.0,36612.0,30802.0,-780.4145480043879,-1426.7776406482108,-2024.115965223074
36612,11484,36612.0,30191.0,36612.0,30774.0,-782.6561915367795,-1409.4075859379172,-2002.2949732295135
36623,11470,36623.0,30179.0,36623.0,30766.0,-784.4819571845654,-1390.2201659558802,-1978.024706176855
36623,11466,36623.0,30148.0,36623.0,30784.0,-785.8706892596695,-1369.173220521674,-1951.2464785307707
36623,11453,36623.0,30164.0,36623.0,30765.0,-786.8017394271524,-1346.2303430386837,-1921.9082336666474
36623,11441,36623.0,30188.0,36623.0,30795.0,-787.2552785962583,-1321.3619746773556,-1889.9654437351135
36623,11474,36623.0,30234.0,36623.0,30826.0,-787.2125246883397,-1294.5459732324634,-1855.381892346973
36623,11463,36623.0,30268.0,36623.0,30848.0,-786.6557513314667,-1265.7676515277049,-1818.1302038902727
36633,11465,36633.0,30272.0,36633.0,30873.0,-785.5681064209577,-1235.0196098730032,-1778.1921914683637
36633,11478,36633.0,30316.0,36633.0,30922.0,-783.93348801396,-1202.3017455290128,-1735.5592206341962
36633,11495,36633.0,30405.0,36633.0,30972.0,-781.7364477495564,-1167.6213281110051,-1690.2324984321367
36633,11492,36633.0,30414.0,36633.0,30983.0,-778.9619705389346,-1130.9927179763956,-1642.2232232587396
36633,11493,36633.0,30411.0,36633.0,31000.0,-775.5952625693276,-1092.437010679741,-1591.5529132170893
36633,11458,36633.0,30402.0,36633.0,31042.0,-771.621786907609,-1051.9823800867396,-1538.2541392463788
36643,11461,36643.0,30438.0,36643.0,31097.0,-767.0276382478295,-1009.6651437391303,-1482.3713567335446
36643,11468,36643.0,30458.0,36643.0,31157.0,-761.8000670383353,-965.5308898095822,-1423.961433840073
36643,11459,36643.0,30518.0,36643.0,31216.0,-755.9278458264723,-919.6352394706396,-1363.0938528297268
36643,11464,36643.0,30618.0,36643.0,31310.0,-749.4014741794501,-872.0441055732618,-1299.850714087654
36643,11484,36643.0,30676.0,36643.0,31389.0,-742.2133459864715,-822.8333223796301,-1234.3265122433452
36643,11493,36643.0,30752.0,36643.0,31472.0,-734.3577904031661,-772.0878567065324,-1166.627675665835
36654,11516,36654.0,30832.0,36654.0,31581.0,-725.8309320428173,-719.901023010006,-1096.8719957899075
36654,11516,36654.0,30938.0,36654.0,31708.0,-716.630489997772,-666.3737037156895,-1025.1878821194466
36654,11558,36654.0,31040.0,36654.0,31804.0,-706.7555886718769,-611.6133046528166,-951.7132832746476
36654,11546,36654.0,31095.0,36654.0,31893.0,-696.2065481205157,-555.7324969776165,-876.594498615086
36654,11542,36654.0,31123.0,36654.0,31979.0,-684.9847652323986,-498.84826423975085,-799.9852888204275
36654,11546,36654.0,31175.0,36654.0,32075.0,-673.0928982323317,-441.0817062875111,-722.0463434345932
36664,11549,36664.0,31255.0,36664.0,32197.0,-660.5352654125047,-382.558341235939,-642.9448191022036
36664,11559,36664.0,31326.0,36664.0,32284.0,-647.3182070592106,-323.4082499345866,-562.8536984272499
36664,11577,36664.0,31416.0,36664.0,32412.0,-633.4503274561825,-263.765799829745,-481.950996424702
36664,11606,36664.0,31546.0,36664.0,32555.0,-618.9425783035568,-203.76898853033492,-400.41883123109835
36664,11620,36664.0,31643.0,36664.0,32690.0,-603.8081529155054,-143.55833190298097,-318.4421489245591
36664,11646,36664.0,31773.0,36664.0,32812.0,-588.062285956297,-83.27534283382113,-236.207116808436
36674,11672,36674.0,31849.0,36674.0,32942.0,-571.722053403344,-23.060897658795398,-153.8995131005745
36674,11714,36674.0,31976.0,36674.0,33089.0,-554.8061135582836,36.94627550098869,-71.70321832343689
36674,11731,36674.0,32065.0,36674.0,33194.0,-537.3343217735975,96.61099104076231,10.201319024865143
36674,11746,36674.0,32123.0,36674.0,33292.0,-519.3273518596777,155.80288526083734,91.63851084242015
36674,11730,36674.0,32144.0,36674.0,33358.0,-500.80658863910605,214.3972229610979,172.4385893506569
36674,11759,36674.0,32225.0,36674.0,33482.0,-481.79439216391785,272.27496023042966,252.43804961339515
36685,11777,36685.0,32268.0,36685.0,33573.0,-462.3144799346452,329.3224580484351,331.47998488474695
36685,11783,36685.0,32323.0,36685.0,33659.0,-442.3921471180951,385.4313018492884,409.4146013762165
36685,11826,36685.0,32425.0,36685.0,33765.0,-422.05435636990165,440.4982894223374,486.0997677676535
36685,11862,36685.0,32531.0,36685.0,33866.0,-401.3297004869728,494.4257970826054,561.4015415752338
36685,11885,36685.0,32587.0,36685.0,33941.0,-380.2481317830564,547.1227014899962,635.1947781618039
36685,11912,36685.0,32628.0,36685.0,34043.0,-358.8406110656277,598.5053563658648,707.3637194668918
36695,11950,36695.0,32735.0,36695.0,34139.0,-337.1388533339652,648.4981413576108,777.8025219841347
36695,11998,36695.0,32798.0,36695.0,34205.0,-315.17504575233016,697.0339196663776,846.4158349882632
36695,12012,36695.0,32820.0,36695.0,34250.0,-292.98142354658575,744.0546800836071,913.1192422078939
36695,12004,36695.0,32804.0,36695.0,34288.0,-270.58995574997584,789.5117868252469,977.8392199300565
36695,12036,36695.0,32820.0,36695.0,34304.0,-248.03244533665054,833.3653149032957,1040.5125454707113
36695,12059,36695.0,32818.0,36695.0,34370.0,-225.34085247615633,875.5827761802193,1101.085376967888
36705,12076,36705.0,32848.0,36705.0,34401.0,-202.54746953423557,916.137814179398,1159.5123667846906
36705,12113,36705.0,32890.0,36705.0,34469.0,-179.68493868547733,955.0091985927104,1215.7560490830706
36705,12147,36705.0,32968.0,36705.0,34519.0,-156.78618191956724,992.1803510614116,1269.786494957822
36705,12168,36705.0,32989.0,36705.0,34545.0,-133.8842079804068,1027.639469711857,1321.581110885853
36705,12201,36705.0,33007.0,36705.0,34601.0,-111.01188826359964,1061.379840149546,1371.1243851699055
36705,12253,36705.0,33053.0,36705.0,34646.0,-88.2017390554247,1093.3998577225248,1418.4075649047604
36716,12285,36716.0,33162.0,36716.0,34709.0,-65.48555524911109,1123.7030344751815,1463.4284865866134
36716,12318,36716.0,33140.0,36716.0,34731.0,-42.893900560464715,1152.2985068925834,1506.1916031552996
36716,12313,36716.0,33091.0,36716.0,34735.0,-20.455728443314285,1179.2014695857627,1546.707906012689
36716,12328,36716.0,33079.0,36716.0,34750.0,1.801622412687891,1204.432496459103,1584.994422134897
36716,12334,36716.0,33085.0,36716.0,34769.0,23.852087273206052,1228.015991727165,1621.0733668839744
36716,12369,36716.0,33113.0,36716.0,34761.0,45.67046333198016,1249.9788508010188,1654.9712514951002
36726,12368,36726.0,33095.0,36726.0,34798.0,67.23214183043092,1270.3497228778808,1686.7180356062577
36726,12416,36726.0,33155.0,36726.0,34838.0,88.51297502802277,1289.1585991550737,1716.3464474367406
36726,12447,36726.0,33173.0,36726.0,34850.0,109.48929299023263,1306.436654921274,1743.8916770784108
36726,12478,36726.0,33191.0,36726.0,34872.0,130.138153949703,1322.2164214607544,1769.3912779299067
36726,12507,36726.0,33204.0,36726.0,34914.0,150.43771770117058,1336.5320257040883,1792.8850322964618
36726,12540,36726.0,33241.0,36726.0,34933.0,170.3675828964994,1349.4193043197674,1814.4148993451408
36736,12550,36736.0,33294.0,36736.0,34969.0,189.90906263532628,1360.9160461296588,1834.0251432940572
36736,12576,36736.0,33259.0,36736.0,34968.0,209.04535044060606,1371.0624831095583,1851.7624907258596
36736,12577,36736.0,33213.0,36736.0,34952.0,227.7615266307979,1379.901470204277,1867.6760808444137
36736,12579,36736.0,33188.0,36736.0,34936.0,246.04439349256666,1387.4777718520209,1881.816996702019
36736,12595,36736.0,33185.0,36736.0,34946.0,263.88213974168036,1393.836791803353,1894.2374608134432
36736,12596,36736.0,33156.0,36736.0,34931.0,281.26394398683453,1399.023457152512,1904.990051715657
36747,12619,36747.0,33178.0,36747.0,34952.0,298.17964305676696,1403.0814494072486,1914.1271320508026
36747,12664,36747.0,33210.0,36747.0,34978.0,314.6195707809454,1406.0528115134803,1921.700539099896
36747,12680,36747.0,33223.0,36747.0,34984.0,330.5747051692481,1407.9780872781862,1927.7616150049425
36747,12697,36747.0,33229.0,36747.0,34975.0,346.0370129994137,1408.8968096963931,1932.3613969186185
36747,12717,36747.0,33243.0,36747.0,35000.0,360.99969461633395,1408.8479361709537,1935.5506740066853
36747,12750,36747.0,33302.0,36747.0,35040.0,375.4573170589657,1407.8702536249489,1937.3800634545178
36757,12766,36757.0,33266.0,36757.0,35011.0,389.4060198917027,1406.0029890145208,1937.900364893666
36757,12757,36757.0,33237.0,36757.0,35012.0,402.8437332035418,1403.2862920914479,1937.162888051565
36757,12759,36757.0,33200.0,36757.0,34951.0,415.77013672202463,1399.7610144079463,1935.2192925970194
36757,12766,36757.0,33173.0,36757.0,34958.0,428.1863196373961,1395.4678783837874,1932.120940549807
36757,12766,36757.0,33139.0,36757.0,34947.0,440.0943799515818,1390.4465066512616,1927.9181521937044
36757,12770,36757.0,33110.0,36757.0,34932.0,451.4970908182561,1384.7345006055439,1922.659730135425
36767,12798,36767.0,33151.0,36767.0,34941.0,462.3976419079744,1378.3667045061827,1916.3927417959876
36767,12817,36767.0,33173.0,36767.0,34953.0,472.79957511297596,1371.3750445008357,1909.1624798364214
36767,12833,36767.0,33172.0,36767.0,34942.0,482.7069671073684,1363.7890648935313,1901.012655660947
36767,12837,36767.0,33170.0,36767.0,34943.0,492.1246724659652,1355.6366425486895,1891.9856848949812
36767,12851,36767.0,33226.0,36767.0,34966.0,501.05844507419897,1346.9445384824253,1882.122937951353
36767,12881,36767.0,33243.0,36767.0,34955.0,509.51500040632584,1337.7391216660083,1871.4650939451667
36778,12878,36778.0,33195.0,36778.0,34924.0,517.5021743113323,1328.0473127337343,1860.052523761131
36778,12868,36778.0,33120.0,36778.0,34891.0,525.0290667844224,1317.896957483479,1847.9253225200591
36778,12860,36778.0,33089.0,36778.0,34860.0,532.1058972695456,1307.316099083412,1835.1228808588216
36778,12858,36778.0,33074.0,36778.0,34844.0,538.743583344432,1296.3317208044828,1821.6832709821897
36778,12838,36778.0,33039.0,36778.0,34824.0,544.9532468595049,1284.968775968525,1807.6427356127065
36778,12855,36778.0,33044.0,36778.0,34813.0,550.7457382532573,1273.2496459146323,1793.0353777774458
36788,12873,36788.0,33094.0,36788.0,34809.0,556.131310233803,1261.1940009012067,1777.8930340755167
36788,12889,36788.0,33093.0,36788.0,34803.0,561.1196246389284,1248.8192898773566,1762.2453262785189
36788,12898,36788.0,33059.0,36788.0,34804.0,565.7200172668788,1236.1415913510268,1746.119878091765
36788,12908,36788.0,33060.0,36788.0,34796.0,569.9417795414107,1223.176104337797,1729.5426374279311
36788,12931,36788.0,33119.0,36788.0,34814.0,573.7943878995987,1209.9373274316545,1712.5382769867197
36788,12923,36788.0,33105.0,36788.0,34792.0,577.2877392865435,1196.4396236812986,1695.1306824141143
36798,12908,36798.0,33043.0,36798.0,34740.0,580.4322851912747,1182.6980271112475,1677.343326888941
36798,12899,36798.0,32987.0,36798.0,34716.0,583.2388635557987,1168.7283352225886,1659.1991792342806
36798,12903,36798.0,32962.0,36798.0,34684.0,585.7183071472252,1154.5462643783908,1640.7201994364466
36798,12904,36798.0,32918.0,36798.0,34646.0,587.8811154153922,1140.1663617069285,1621.9267851035263
36798,12886,36798.0,32921.0,36798.0,34644.0,589.7372663924119,1125.6011931237108,1602.8373219640687
36798,12912,36798.0,32919.0,36798.0,34648.0,591.2960549709046,1110.8609405795717,1583.4679672705886
36809,12910,36809.0,32947.0,36809.0,34617.0,592.5660118815405,1095.9535052726176,1563.8327930102548
36809,12923,36809.0,32932.0,36809.0,34635.0,593.5550103275195,1080.8850537584785,1543.9441062648839
36809,12928,36809.0,32941.0,36809.0,34627.0,594.2704648850042,1065.6606889729774,1523.8128187666705
36809,12951,36809.0,32961.0,36809.0,34633.0,594.7195556301439,1050.285053705451,1503.4489664311716
36809,12973,36809.0,32977.0,36809.0,34634.0,594.9095723639571,1034.7630241966663,1482.8623501743582
36809,12948,36809.0,32924.0,36809.0,34598.0,594.8483483424069,1019.1004775105978,1462.0631276879617
36819,12931,36819.0,32884.0,36819.0,34545.0,594.5444554295688,1003.3046205128411,1441.0620785991275
36819,12907,36819.0,32833.0,36819.0,34513.0,594.0069155498005,987.3835584914557,1419.870320074192
36819,12904,36819.0,32812.0,36819.0,34504.0,593.2446204187582,971.3454310338675,1398.4987295327694
36819,12898,36819.0,32765.0,36819.0,34466.0,592.2658073482199,955.1975742920592,1376.957543620916
36819,12911,36819.0,32764.0,36819.0,34448.0,591.0777709557135,938.9458712822371,1355.2561836902275
36819,12920,36819.0,32823.0,36819.0,34464.0,589.6868469442664,922.5945045045996,1333.403194126973
36829,12934,36829.0,32804.0,36829.0,34448.0,588.0986292666765,906.1464486548944,1311.4064510760452
36829,12923,36829.0,32790.0,36829.0,34425.0,586.3182828545533,889.6043936576996,1289.2736190188907
36829,12932,36829.0,32814.0,36829.0,34418.0,584.3507675695379,872.971419969284,1267.012514960586
36829,12954,36829.0,32852.0,36829.0,34439.0,582.2009853486998,856.2515636636645,1244.6313880666469
36829,12959,36829.0,32811.0,36829.0,34427.0,579.8740547757548,839.450682004391,1222.1394362604588
36829,12938,36829.0,32757.0,36829.0,34362.0,577.3756704177549,822.5771437867477,1199.5474077277615
36840,12906,36840.0,32719.0,36840.0,34327.0,574.712174394795,805.6416804744817,1176.8676960987805
36840,12904,36840.0,32693.0,36840.0,34297.0,571.8901781014208,788.6566245168174,1154.1138378913547
36840,12911,36840.0,32655.0,36840.0,34278.0,568.9160718394993,771.6351517395908,1131.2999440553303
36840,12885,36840.0,32624.0,36840.0,34253.0,565.7957682100467,754.5906913430285,1108.4404071942954
36840,12916,36840.0,32620.0,36840.0,34258.0,562.5346284691351,737.5364322587317,1085.5498577037506
36840,12911,36840.0,32644.0,36840.0,34234.0,559.1375149943203,720.4851176903973,1062.6433319329135
36850,12899,36850.0,32639.0,36850.0,34237.0,555.6089858771182,703.4493682344855,1039.7365992767423
36850,12920,36850.0,32639.0,36850.0,34219.0,551.9534614902076,686.4423530527774,1016.8465444962269
36850,12937,36850.0,32671.0,36850.0,34210.0,548.1753932349081,669.4784950025646,993.9915521329276
36850,12936,36850.0,32650.0,36850.0,34192.0,544.2796387173927,652.5742092858518,971.1918499662125
36850,12913,36850.0,32599.0,36850.0,34164.0,540.2718549992912,635.7485213363871,948.4697522237982
36850,12902,36850.0,32542.0,36850.0,34098.0,536.1585576348405,619.0230534289535,925.8496642739354
36861,12891,36861.0,32492.0,36861.0,34042.0,531.946859476572,602.4212458297566,903.3576214206214
36861,12873,36861.0,32452.0,36861.0,34040.0,527.6441298636955,585.9672286824824,881.0204541083298
36861,12856,36861.0,32420.0,36861.0,34006.0,523.2576549165846,569.6847627948499,858.8651149869436
36861,12871,36861.0,32389.0,36861.0,33975.0,518.7943128703442,553.5964084330906,836.9184077983242
36861,12881,36861.0,32420.0,36861.0,33963.0,514.2604564686407,537.7230144578941,815.2068419914527
36861,12874,36861.0,32424.0,36861.0,33947.0,509.66210540594784,522.0837456383907,793.7565130375115
36871,12882,36871.0,32405.0,36871.0,33924.0,505.00523409683944,506.69661508846156,772.5931188909557
36871,12878,36871.0,32415.0,36871.0,33918.0,500.2959764869097,491.57905776698726,751.7420571098969
36871,12882,36871.0,32447.0,36871.0,33925.0,495.5407861588378,476.74840278921226,731.2285977531328
36871,12871,36871.0,32409.0,36871.0,33882.0,490.74657379314044,462.2224847965671,711.0781919383426
36871,12862,36871.0,32329.0,36871.0,33855.0,485.9207590375128,448.0200497832865,691.3166784634057
36871,12843,36871.0,32295.0,36871.0,33790.0,481.0711778726399,434.16029101979507,671.9700638691027
36881,12819,36881.0,32268.0,36881.0,33755.0,476.2058189275258,420.6617289848365,653.063858919063
36881,12824,36881.0,32235.0,36881.0,33722.0,471.3324431346572,407.5412016852607,634.6222155318127
36881,12801,36881.0,32228.0,36881.0,33713.0,466.4582443212187,394.8132197655709,616.6672033335979
36881,12805,36881.0,32236.0,36881.0,33707.0,461.58962941476386,382.4896271836883,599.2184618329323
36881,12818,36881.0,32247.0,36881.0,33699.0,456.7321200574609,370.57965805406906,582.2932254826007
36881,12821,36881.0,32244.0,36881.0,33698.0,451.8904664894572,359.0903568930496,565.9065651658175
36892,12823,36892.0,32235.0,36892.0,33673.0,447.0689492360098,348.0270705461529,550.0716694804868
36892,12839,36892.0,32307.0,36892.0,33685.0,442.2717065431538,337.3939265642918,534.8000641421492
36892,12829,36892.0,32296.0,36892.0,33680.0,437.50304694359426,327.1946054496279,520.101839902527
36892,12819,36892.0,32250.0,36892.0,33661.0,432.76769217348794,317.4332629405804,505.98596550587064
36892,12795,36892.0,32197.0,36892.0,33620.0,428.07078637629843,308.1147765295557,492.46046881288885
36892,12786,36892.0,32173.0,36892.0,33593.0,423.4176390610986,299.2440469208971,479.53221664458835
36902,12765,36902.0,32157.0,36902.0,33585.0,418.81334128800245,290.8249998423317,467.20641248603084
36902,12767,36902.0,32118.0,36902.0,33557.0,414.2623985975655,282.8598162525282,455.4861518160707
36902,12777,36902.0,32126.0,36902.0,33558.0,409.7685120654791,275.34837463909884,444.37215429807645
36902,12774,36902.0,32151.0,36902.0,33571.0,405.33460852498126,268.287937723105,433.86267475757376
36902,12779,36902.0,32163.0,36902.0,33578.0,400.9630388879256,261.67333654064237,423.9537082738933
36902,12769,36902.0,32180.0,36902.0,33583.0,396.65576233285515,255.4975852033242,414.63946312867944
36912,12783,36912.0,32182.0,36912.0,33576.0,392.4144636640543,249.75256627449068,405.91285686325483
36912,12796,36912.0,32224.0,36912.0,33595.0,388.2407171031401,244.42965138658502,397.76590003389526
36912,12788,36912.0,32226.0,36912.0,33575.0,384.13628347464163,239.52038282050998,390.1900184786772
36912,12770,36912.0,32180.0,36912.0,33576.0,380.103366690725,235.0170948916443,383.17629815757573
36912,12747,36912.0,32153.0,36912.0,33527.0,376.14456234442366,230.9129795974177,376.7154929646305
36912,12742,36912.0,32124.0,36912.0,33542.0,372.2625064350755,227.20146320758926,370.7977310400655
36923,12729,36923.0,32121.0,36923.0,33512.0,368.4594669912997,223.87536757285662,365.41211415974396
36923,12731,36923.0,32095.0,36923.0,33493.0,364.73705659807445,220.926255046019,360.5463724220956
36923,12729,36923.0,32140.0,36923.0,33519.0,361.09609409021795,218.34405641876407,356.1865523280138
36923,12749,36923.0,32121.0,36923.0,33533.0,357.5366295275647,216.11705905227274,352.316926858156
36923,12744,36923.0,32148.0,36923.0,33544.0,354.0581506375075,214.2321867204684,348.92033036897703
36923,12743,36923.0,32168.0,36923.0,33557.0,350.65985739184106,212.6753772633919,345.9786982252899
36933,12751,36933.0,32216.0,36933.0,33578.0,347.3408509277972,211.4321333433743,343.47358101194976
36933,12761,36933.0,32248.0,36933.0,33583.0,344.10028742798386,210.48841471624655,341.3866521122037
36933,12755,36933.0,32194.0,36933.0,33549.0,340.9376042412897,209.83159319965034,339.7000999596098
36933,12726,36933.0,32141.0,36933.0,33540.0,337.852672560964,209.45072200593626,338.39661615850497
36933,12712,36933.0,32123.0,36933.0,33518.0,334.8456318067285,209.33575759941422,337.45895981062205
36933,12714,36933.0,32119.0,36933.0,33521.0,331.9164704753845,209.47636786258607,336.8694102631308
36943,12704,36943.0,32096.0,36943.0,33515.0,329.06467320648704,209.86106556573128,336.6093577583889
36943,12697,36943.0,32106.0,36943.0,33522.0,326.2890433482635,210.47670188981954,336.6590851796073
36943,12705,36943.0,32146.0,36943.0,33541.0,323.58759176245417,211.30823336176354,336.997735424816
36943,12720,36943.0,32162.0,36943.0,33548.0,320.9575303580735,212.33895083435422,337.6034771881726
36943,12715,36943.0,32183.0,36943.0,33564.0,318.3954614843297,213.55111028133217,338.45381517838825
36943,12737,36943.0,32197.0,36943.0,33569.0,315.89767017863676,214.92660167012792,339.525920004272
36954,12752,36954.0,32254.0,36954.0,33605.0,313.46046271030934,216.44756945492963,340.79696023446513
36954,12732,36954.0,32244.0,36954.0,33607.0,311.08055558123397,218.09714716098554,342.24452438193
36954,12718,36954.0,32212.0,36954.0,33593.0,308.7552843936025,219.86007592237036,343.8470343815841
36954,12709,36954.0,32178.0,36954.0,33558.0,306.4824424585661,221.72265706027923,345.5837971294082
36954,12703,36954.0,32154.0,36954.0,33576.0,304.25993946176015,223.67198253118977,347.4345814508543
36954,12708,36954.0,32165.0,36954.0,33551.0,302.0855433430862,225.6949759330478,349.37907936839616
36964,12669,36964.0,32145.0,36964.0,33565.0,299.9567095089385,227.77771197655937,351.3965356476871
36964,12693,36964.0,32165.0,36964.0,33592.0,297.8703476968377,229.90506544683458,353.4655806863605
36964,12693,36964.0,32211.0,36964.0,33596.0,295.82260954934816,232.06066177819173,355.56435241294537
36964,12715,36964.0,32218.0,36964.0,33622.0,293.808956033735,234.2272632952359,357.6708613380851
36964,12711,36964.0,32233.0,36964.0,33619.0,291.8244785216049,236.38743176973412,359.7633788736308
36964,12733,36964.0,32267.0,36964.0,33639.0,289.864261180331,238.52411166703945,361.8207443900224
36974,12741,36974.0,32300.0,36974.0,33679.0,287.92373828303084,240.6211993938772,363.82267872703915
36974,12732,36974.0,32275.0,36974.0,33656.0,285.9990526603956,242.6642043211899,365.7502222101348
36974,12703,36974.0,32239.0,36974.0,33621.0,284.0872231834851,244.64057711310102,367.58601045309484
36974,12683,36974.0,32208.0,36974.0,33622.0,282.185900814741,246.53928691749599,369.31397167090233
36974,12679,36974.0,32188.0,36974.0,33606.0,280.2928205828431,248.34985829439555,370.91866867444
36974,12677,36974.0,32195.0,36974.0,33604.0,278.40529966573115,250.06140858193814,372.38474747960333
36985,12677,36985.0,32203.0,36985.0,33612.0,276.51998200870526,251.66206043765357,373.69658410337365
36985,12682,36985.0,32214.0,36985.0,33612.0,274.63278099844905,253.13879872104638,374.83810576245327
36985,12693,36985.0,32242.0,36985.0,33645.0,272.73894744799316,254.47764258521514,375.7928193595784
36985,12699,36985.0,32271.0,36985.0,33650.0,270.8332569514883,255.66406034090414,376.54406801154
36985,12714,36985.0,32258.0,36985.0,33668.0,268.91029247375707,256.68354456506825,377.07544936377224
36985,12721,36985.0,32327.0,36985.0,33677.0,266.9647818638878,257.522173874668,377.3712383721404
36995,12720,36995.0,32329.0,36995.0,33687.0,264.99193582149337,258.1672407487278,377.416744243708
36995,12714,36995.0,32291.0,36995.0,33672.0,262.98767719954037,258.607919529013,377.1985716812712
36995,12685,36995.0,32254.0,36995.0,33651.0,260.94864037162915,258.83538407659614,376.70464119340664
36995,12675,36995.0,32234.0,36995.0,33642.0,258.87188210694126,258.8421123493613,375.92387985757716
36995,12676,36995.0,32234.0,36995.0,33628.0,256.7544335821795,258.6209286427335,374.84573470705647
36995,12670,36995.0,32226.0,36995.0,33628.0,254.59296278422863,258.1643321740932,373.45972968864476
37004,12661,37004.0,32233.0,37004.0,33651.0,252.38361620961126,257.46418105799995,371.75521629108306
37004,12684,37004.0,32248.0,37004.0,33661.0,250.1219448557519,256.51162061423315,369.7214477012559
37004,12691,37004.0,32279.0,37004.0,33668.0,247.80298748190586,255.29727448472255,367.347934330819
37004,12695,37004.0,32300.0,37004.0,33687.0,245.42156996844517,253.81175550447142,364.6248665399038
37004,12708,37004.0,32340.0,37004.0,33668.0,242.97265903254024,252.04643186109024,361.5434733466994
37004,12717,37004.0,32341.0,37004.0,33712.0,240.45168141770893,249.99430110197238,358.0963073131251
37015,12716,37015.0,32322.0,37015.0,33673.0,237.85484514017065,247.65069905230428,354.2775125463488
37015,12689,37015.0,32273.0,37015.0,33654.0,235.1793475823415,245.01345530584751,350.08295462761333
37015,12676,37015.0,32225.0,37015.0,33639.0,232.42326818105155,242.0822971119673,345.5099576660797
37015,12657,37015.0,32224.0,37015.0,33623.0,229.58515996737907,238.8577607704275,340.5567821767271
37015,12650,37015.0,32203.0,37015.0,33598.0,226.6635585853392,235.3401812425824,335.2221312402547
37015,12653,37015.0,32200.0,37015.0,33613.0,223.656599070791,231.52908376822353,329.50473762210754
37025,12679,37025.0,32249.0,37025.0,33615.0,220.56188817299272,227.42297546095966,323.4031512945408
37025,12682,37025.0,32251.0,37025.0,33631.0,217.37672537005048,223.01962391792674,316.9158731094783
37025,12658,37025.0,32254.0,37025.0,33627.0,214.09847028026533,218.316703486795,310.0417213361945
37025,12676,37025.0,32249.0,37025.0,33613.0,210.72470644861562,213.31232963189493,302.78017409277663
37025,12715,37025.0,32303.0,37025.0,33641.0,207.25332301184199,208.00539444448452,295.1315723494963
37025,12702,37025.0,32327.0,37025.0,33620.0,203.68290893958542,202.3961445177826,287.0973211262717
37035,12678,37035.0,32253.0,37035.0,33608.0,200.01324742308114,196.48698097384334,278.68011315078877
37035,12647,37035.0,32198.0,37035.0,33579.0,196.24533369203442,190.2826114265412,269.8839280330027
37035,12636,37035.0,32192.0,37035.0,33551.0,192.38086769587903,183.789151081114,260.7137056802149
37035,12634,37035.0,32171.0,37035.0,33543.0,188.42165064887942,177.012976240206,251.17484762707838
37035,12605,37035.0,32126.0,37035.0,33519.0,184.36916668687215,169.95996750104348,241.2727525429418
37035,12624,37035.0,32143.0,37035.0,33523.0,180.2243030372873,162.63494614798165,231.01250716783548
37046,12633,37046.0,32179.0,37046.0,33524.0,175.98722687054914,155.04134605436158,220.39877904895295
37046,12642,37046.0,32194.0,37046.0,33529.0,171.65756653477376,147.1815337760051,209.43595543263558
37046,12643,37046.0,32173.0,37046.0,33515.0,167.2347919311719,139.0575783945224,198.1284451829896
37046,12647,37046.0,32213.0,37046.0,33536.0,162.71855523729585,130.6718861686973,186.48098977534767
37046,12662,37046.0,32268.0,37046.0,33535.0,158.10896365627613,122.02779907565005,174.4990196396816
37046,12633,37046.0,32193.0,37046.0,33503.0,153.40682669487654,113.13046677828979,162.18905973872495
37056,12627,37056.0,32153.0,37056.0,33471.0,148.6137383256854,103.98734835662881,149.5588725442683
37056,12601,37056.0,32097.0,37056.0,33435.0,143.73186853452438,94.60763937684081,136.61711963471424
37056,12596,37056.0,32072.0,37056.0,33421.0,138.76358360159549,85.00104296989954,123.37275010568197
37056,12597,37056.0,32067.0,37056.0,33386.0,133.71110551563424,75.17666578891811,109.83442312246996
37056,12571,37056.0,32059.0,37056.0,33415.0,128.5763075859505,65.14239471815418,96.01013432135653
37056,12592,37056.0,32073.0,37056.0,33390.0,123.36059154196482,54.90476214120912,81.90717529890685
37066,12598,37066.0,32094.0,37066.0,33398.0,118.06488046276046,44.469198327541164,67.53238342952824
37066,12592,37066.0,32088.0,37066.0,33399.0,112.68983272212476,33.84057560509035,52.892473326000754
37066,12595,37066.0,32079.0,37066.0,33387.0,107.23612311253079,23.02379116900505,37.99438697792675
37066,12601,37066.0,32133.0,37066.0,33405.0,101.7046332715163,12.024232531507835,22.84568055463984
37066,12598,37066.0,32131.0,37066.0,33376.0,96.09663233183592,0.8484047153922916,7.454919305978763
37066,12577,37066.0,32046.0,37066.0,33344.0,90.4139356199054,-10.495372062655576,-8.168061353041423
37077,12564,37077.0,31995.0,37077.0,33293.0,84.65886934230237,-21.997038327629355,-24.012304082376318
37077,12554,37077.0,31988.0,37077.0,33261.0,78.83402298689779,-33.64583539953054,-40.06634214180025
37077,12555,37077.0,31965.0,37077.0,33258.0,72.94198364106883,-45.43138909079755,-56.318942637936004
37077,12530,37077.0,31922.0,37077.0,33229.0,66.98517356776628,-57.34431728949471,-72.75959028153477
37077,12534,37077.0,31952.0,37077.0,33236.0,60.965712032059514,-69.37661674346663,-89.37863511393232
37077,12537,37077.0,31958.0,37077.0,33226.0,54.885291181580754,-81.52178684775896,-106.16721989551343
37087,12545,37087.0,31951.0,37087.0,33231.0,48.745219713903424,-93.77447820607136,-123.11702390006872
37087,12527,37087.0,31948.0,37087.0,33193.0,42.54662617864737,-106.12997581164655,-140.2199347133897
37087,12552,37087.0,31980.0,37087.0,33218.0,36.290651875785585,-118.58378011300687,-157.4678183055202
37087,12541,37087.0,32013.0,37087.0,33226.0,29.978643427084506,-131.1310048318552,-174.85224396382665
37087,12542,37087.0,31969.0,37087.0,33170.0,23.61240164248349,-143.7654884821187,-192.36402472272346
37087,12512,37087.0,31908.0,37087.0,33131.0,17.194324735661127,-156.47925723185938,-209.993020812662
37097,12488,37097.0,31852.0,37097.0,33097.0,10.727255598165527,-169.26296869045308,-227.72857879392205
37097,12478,37097.0,31830.0,37097.0,33073.0,4.214055315827011,-182.1070717693995,-245.56025255209101
37097,12470,37097.0,31818.0,37097.0,33054.0,-2.342858362560577,-195.00290175348766,-263.47836127733433
37097,12462,37097.0,31799.0,37097.0,33049.0,-8.941799249908797,-207.94328792236553,-281.4742795276329
37097,12464,37097.0,31812.0,37097.0,33037.0,-15.581929738019596,-220.92274482531695,-299.54047385433364
37097,12482,37097.0,31823.0,37097.0,33041.0,-22.2632188040578,-233.93734255482212,-317.67033079370003
37108,12484,37108.0,31833.0,37108.0,33041.0,-28.986176277511504,-246.98424203514418,-335.8578230199398
37108,12483,37108.0,31822.0,37108.0,32999.0,-35.75144634658898,-260.0610593832118,-354.0971251864556
37108,12495,37108.0,31855.0,37108.0,33032.0,-42.55944242933444,-273.1652739588194,-372.38234965131505
37108,12475,37108.0,31840.0,37108.0,33022.0,-49.410073988910455,-286.29364376685,-390.7072707425848
37108,12470,37108.0,31828.0,37108.0,32975.0,-56.30259968892071,-299.44164044707725,-409.06490824521495
37108,12432,37108.0,31744.0,37108.0,32928.0,-63.2357141522028,-312.60327430587233,-427.4474094647337
37118,12426,37118.0,31717.0,37118.0,32897.0,-70.20788656089064,-325.7716495237157,-445.8465437732873
37118,12426,37118.0,31697.0,37118.0,32870.0,-77.21777102675387,-338.93999069184156,-464.25444562107805
37118,12406,37118.0,31668.0,37118.0,32853.0,-84.26445605073494,-352.1025155627583,-482.66418534077843
37118,12427,37118.0,31683.0,37118.0,32863.0,-91.34752680492949,-365.25489114068387,-501.070026334525
37118,12411,37118.0,31691.0,37118.0,32834.0,-98.46699895472636,-378.3942854364079,-519.4673567248569
37118,12419,37118.0,31692.0,37118.0,32840.0,-105.62315439302657,-391.5190150282117,-537.8524494613309
37129,12406,37129.0,31703.0,37129.0,32836.0,-112.81638209938072,-404.6279767330177,-556.2221947221534
37129,12417,37129.0,31713.0,37129.0,32836.0,-120.04706459337243,-417.7200536818433,-574.5737420044171
37129,12436,37129.0,31749.0,37129.0,32849.0,-127.31538855114167,-430.79342704113526,-592.9040014200506
37129,12416,37129.0,31710.0,37129.0,32823.0,-134.6209986294099,-443.84477521631766,-611.2090812019222
37129,12387,37129.0,31635.0,37129.0,32749.0,-141.96273531903438,-456.86882606320137,-629.4839691352234
37129,12385,37129.0,31566.0,37129.0,32732.0,-149.33875028269085,-469.8588915961474,-647.722848623341
37139,12365,37139.0,31563.0,37139.0,32696.0,-156.7468474363538,-482.80821334224856,-665.9198653915098
37139,12346,37139.0,31525.0,37139.0,32689.0,-164.18479079671096,-495.7112159668292,-684.0697662281218
37139,12346,37139.0,31540.0,37139.0,32641.0,-171.6505832098045,-508.5641614214611,-702.1682541208587
37139,12341,37139.0,31548.0,37139.0,32664.0,-179.14267960393744,-521.365268544886,-720.212219827658
37139,12336,37139.0,31546.0,37139.0,32657.0,-186.6600376920265,-534.1144176366148,-738.1997630016149
37139,12347,37139.0,31586.0,37139.0,32645.0,-194.2020405773937,-546.8125797031512,-756.1298795272675
37149,12339,37149.0,31554.0,37149.0,32644.0,-201.76832975005465,-559.461124193484,-774.0020417926029
37149,12355,37149.0,31594.0,37149.0,32653.0,-209.35855861645962,-572.0611509121634,-791.8158318115187
37149,12347,37149.0,31578.0,37149.0,32636.0,-216.97210098301355,-584.6129088132436,-809.5705159190254
37149,12328,37149.0,31509.0,37149.0,32582.0,-224.60780557763616,-597.1154008122469,-827.2647067689774
37149,12313,37149.0,31493.0,37149.0,32554.0,-232.26396662644413,-609.566555072605,-844.8964870516176
37149,12285,37149.0,31467.0,37149.0,32540.0,-239.9385671886912,-621.9639405372674,-862.4639362890869
37160,12283,37160.0,31439.0,37160.0,32513.0,-247.6296637622387,-634.3054682206518,-879.9656094793734
37160,12276,37160.0,31393.0,37160.0,32497.0,-255.33571794481435,-646.5899467894175,-897.4007956310599
37160,12269,37160.0,31429.0,37160.0,32495.0,-263.05574974067764,-658.8176179621108,-914.769653371873
37160,12281,37160.0,31457.0,37160.0,32490.0,-270.7893287512947,-670.9903014216079,-932.0731852039929
37160,12287,37160.0,31434.0,37160.0,32484.0,-278.5364113783904,-683.1108638897499,-949.3130079063181
37160,12267,37160.0,31453.0,37160.0,32466.0,-286.2970584605122,-695.1824878857758,-966.4910586928336
37170,12283,37170.0,31481.0,37170.0,32479.0,-294.07120941288343,-707.2081023321722,-983.609346362005
37170,12284,37170.0,31498.0,37170.0,32486.0,-301.85852096872196,-719.1896835023261,-1000.6696259587106
37170,12281,37170.0,31442.0,37170.0,32460.0,-309.6581207740356,-731.1274484889296,-1017.672913919368
37170,12237,37170.0,31378.0,37170.0,32418.0,-317.46841953559226,-743.0196332501462,-1034.6191512565968
37170,12225,37170.0,31343.0,37170.0,32377.0,-325.28728733408997,-754.8632356879018,-1051.507383072124
37170,12210,37170.0,31321.0,37170.0,32349.0,-333.1125374889969,-766.655209784243,-1068.336379522166
37180,12194,37180.0,31297.0,37180.0,32327.0,-340.94238817405403,-778.3934207921508,-1085.1053258969644
37180,12190,37180.0,31309.0,37180.0,32325.0,-348.7757682839138,-790.0771693137052,-1101.8142924554963
37180,12198,37180.0,31319.0,37180.0,32323.0,-356.61247367725764,-801.7072903985602,-1118.4643646378956
37180,12204,37180.0,31324.0,37180.0,32337.0,-364.4530989529628,-813.2858337563486,-1135.0574255581757
37180,12199,37180.0,31321.0,37180.0,32318.0,-372.2987670293151,-824.8155395748834,-1151.5957040751416
37180,12204,37180.0,31337.0,37180.0,32301.0,-380.15083055124086,-836.2993466608579,-1168.081353494733
37191,12219,37191.0,31388.0,37191.0,32312.0,-388.01059771180337,-847.7398194960961,-1184.5162308314295
37191,12218,37191.0,31336.0,37191.0,32290.0,-395.87898126480616,-859.1383463942109,-1200.901728833905
37191,12185,37191.0,31285.0,37191.0,32273.0,-403.7561617599184,-870.4946085435779,-1217.2385777475122
37191,12162,37191.0,31266.0,37191.0,32244.0,-411.64158269894403,-881.8069067752294,-1233.526802954037
37191,12150,37191.0,31226.0,37191.0,32214.0,-419.53434034370537,-893.0730242928746,-1249.7659335813
37191,12145,37191.0,31201.0,37191.0,32180.0,-427.4336403485428,-904.2910425806559,-1265.9554013690683
37201,12127,37201.0,31183.0,37201.0,32166.0,-435.33907434890676,-915.4600174576774,-1282.0950326635466
37201,12134,37201.0,31211.0,37201.0,32184.0,-443.25075700260743,-926.5804303359519,-1298.1853967791849
37201,12144,37201.0,31213.0,37201.0,32167.0,-451.16933361448815,-937.6541576955259,-1314.2277597898283
37201,12141,37201.0,31222.0,37201.0,32161.0,-459.0957773938369,-948.6839931654214,-1330.2237590839313
37201,12117,37201.0,31213.0,37201.0,32148.0,-467.03112203477156,-959.67308035374,-1346.1751305366727
37201,12141,37201.0,31245.0,37201.0,32151.0,-474.9763501772956,-970.6244425269149,-1362.083546938922
37211,12139,37211.0,31253.0,37211.0,32173.0,-482.93230010670686,-981.5404451247997,-1377.950357165363
37211,12122,37211.0,31255.0,37211.0,32135.0,-490.8994267422252,-992.422099956273,-1393.7761349663124
37211,12100,37211.0,31169.0,37211.0,32097.0,-498.87766378453426,-1003.2685934905674,-1409.560369235065
37211,12094,37211.0,31141.0,37211.0,32073.0,-506.86658938115926,-1014.0775957380973,-1425.301670123184
