c_ts,c_val,d_ts,d_val,e_ts,e_val,c_val_filtered,d_val_filtered,e_val_filtered
104186,9941,104186,8656,104186.0,31529.0,-808.5399831204486,-341.23680915471664,-643.0710096507825
104186,9930,104186,8638,104186.0,31527.0,-816.7037568546936,-348.1136107917777,-657.4006742844424
104186,9912,104186,8635,104186.0,31495.0,-825.2902526781402,-355.14925004970013,-672.0112007718739
104186,9907,104186,8608,104186.0,31478.0,-834.3154756619768,-362.3312168443797,-686.8783421361061
104186,9908,104186,8620,104186.0,31438.0,-843.7941633621807,-369.64657881956066,-701.9768362349403
104186,10001,104186,8568,104186.0,31417.0,-853.7396760890883,-377.0821997204003,-717.2808637503774
104196,10136,104196,8589,104196.0,31401.0,-864.162879224796,-384.62501426605183,-732.7645535575228
104196,10115,104196,8619,104196.0,31404.0,-875.0697945636022,-392.2622000683473,-748.4023278572422
104196,10074,104196,8620,104196.0,31396.0,-886.4592730311053,-399.9808847727234,-764.1689421958573
104196,9999,104196,8620,104196.0,31413.0,-898.3222509206016,-407.7675163333755,-780.0392495290159
104196,9897,104196,8628,104196.0,31428.0,-910.6427414707675,-415.60735420528465,-795.9877316466378
104196,9802,104196,8592,104196.0,31400.0,-923.3999063791036,-423.4842114158731,-811.9878777027157
104206,9778,104206,8584,104206.0,31360.0,-936.5705560997096,-431.38046418606245,-828.0117769744411
104206,9771,104206,8554,104206.0,31365.0,-950.1312296010974,-439.27734986040946,-844.0302039606066
104206,9722,104206,8541,104206.0,31325.0,-964.059344324831,-447.1554080041474,-860.0129275666386
104206,9744,104206,8540,104206.0,31328.0,-978.3337348042609,-454.9948892039399,-875.9289356886109
104206,9786,104206,8567,104206.0,31264.0,-992.9347931513464,-462.7759257767208,-891.7466550934028
104206,9912,104206,8504,104206.0,31250.0,-1007.8437102129567,-470.47842050043863,-907.4343659159691
104217,9954,104217,8472,104217.0,31244.0,-1023.0404638923403,-478.0821316043632,-922.9607551231074
104217,9943,104217,8515,104217.0,31261.0,-1038.5012595226922,-485.5671995349089,-938.2952112897046
104217,9882,104217,8515,104217.0,31252.0,-1054.196791002539,-492.9144523677569,-953.4076249206137
104217,9796,104217,8565,104217.0,31254.0,-1070.0921026138103,-500.10498255327093,-968.2679381542871
104217,9681,104217,8589,104217.0,31302.0,-1086.1479108109518,-507.11922834721827,-982.8456330320754
104217,9651,104217,8496,104217.0,31236.0,-1102.3227981902796,-513.93609683367,-997.1091168141597
104227,9625,104227,8510,104227.0,31245.0,-1118.5753621110466,-520.532821292657,-1011.0252927032374
104227,9595,104227,8498,104227.0,31226.0,-1134.8655887139303,-526.8855414540094,-1024.5595800844567
104227,9593,104227,8476,104227.0,31203.0,-1151.1555224574795,-532.9698221666494,-1037.676100007796
104227,9595,104227,8464,104227.0,31194.0,-1167.4095441037086,-538.7609270888914,-1050.3378408459203
104227,9671,104227,8412,104227.0,31156.0,-1183.5941511172782,-544.2342164987839,-1062.5069064686825
104227,9806,104227,8449,104227.0,31137.0,-1199.676753918629,-549.3657104914267,-1074.144894670814
104237,9793,104237,8456,104237.0,31130.0,-1215.623308981819,-554.1324277754254,-1085.2133605253816
104237,9771,104237,8449,104237.0,31120.0,-1231.3958482633693,-558.5122296615004,-1095.6741817387929
104237,9705,104237,8486,104237.0,31132.0,-1246.9513449533551,-562.483424974681,-1105.4896815363663
104237,9613,104237,8464,104237.0,31175.0,-1262.2421818974753,-566.0243835033384,-1114.6224313831483
104237,9519,104237,8462,104237.0,31126.0,-1277.217748501192,-569.1132396399266,-1123.0347428546304
104237,9491,104237,8462,104237.0,31122.0,-1291.8266192040273,-571.7278326233651,-1130.6882869939263
104248,9474,104248,8446,104248.0,31109.0,-1306.0185096892396,-573.8458233790323,-1137.5442127162403
104248,9455,104248,8389,104248.0,31065.0,-1319.745427607669,-575.4449724804623,-1143.5635611022008
104248,9450,104248,8438,104248.0,31080.0,-1332.9621610800853,-576.5036892295967,-1148.707768386304
104248,9493,104248,8415,104248.0,31073.0,-1345.6263736483859,-577.001508535227,-1152.939121278365
104248,9634,104248,8376,104248.0,31009.0,-1357.6979529853515,-576.9192777190661,-1156.2210869311696
104248,9675,104248,8388,104248.0,31022.0,-1369.1370946479205,-576.2394869794775,-1158.518830416647
104258,9667,104258,8400,104258.0,31034.0,-1379.9017070493385,-574.9467684100631,-1159.799892549544
104258,9618,104258,8396,104258.0,31040.0,-1389.9456405640735,-573.0281027254962,-1160.0344908664852
104258,9528,104258,8460,104258.0,31051.0,-1399.2185597283124,-570.4726572859972,-1159.1953962338707
104258,9415,104258,8477,104258.0,31090.0,-1407.6673143208684,-567.2712801268987,-1157.2576713890653
104258,9375,104258,8445,104258.0,31074.0,-1415.2383029775665,-563.41579808035,-1154.1983188419563
104258,9379,104258,8449,104258.0,31072.0,-1421.8798778524863,-558.898712239729,-1149.9960129843441
104268,9362,104268,8436,104268.0,31057.0,-1427.5438469481446,-553.713495428075,-1144.6312126127273
104268,9355,104268,8455,104268.0,31073.0,-1432.1860777810814,-547.8550385966864,-1138.0865715770633
104268,9368,104268,8456,104268.0,31088.0,-1435.7667624703454,-541.3199104209453,-1130.3472940292381
104268,9460,104268,8437,104268.0,31064.0,-1438.250353763039,-534.106501081826,-1121.4013154243034
104268,9601,104268,8438,104268.0,31053.0,-1439.604515577817,-526.2153033024093,-1111.239599135773
104268,9614,104268,8451,104268.0,31084.0,-1439.7978301948824,-517.6493529452819,-1099.856700844132
104279,9586,104279,8470,104279.0,31102.0,-1438.7973863262735,-508.4145377320098,-1087.2512184975385
104279,9537,104279,8541,104279.0,31125.0,-1436.5677770131556,-498.5195068500536,-1073.425840643222
104279,9459,104279,8536,104279.0,31204.0,-1433.071799839498,-487.9751245917728,-1058.3870720940135
104279,9367,104279,8567,104279.0,31188.0,-1428.2723060967357,-476.7937834494654,-1042.1446975537583
104279,9369,104279,8558,104279.0,31213.0,-1422.134619265341,-464.9890174905283,-1024.7112764318542
104279,9386,104279,8569,104279.0,31222.0,-1414.6286517549245,-452.5754925158882,-1006.1020672030012
104289,9372,104289,8573,104289.0,31259.0,-1405.7300369736402,-439.5692167358301,-986.3352210292803
104289,9398,104289,8592,104289.0,31269.0,-1395.4205609951296,-425.9878055386422,-965.431896065391
104289,9443,104289,8605,104289.0,31290.0,-1383.688341837249,-411.85066019125475,-943.4163120895895
104289,9621,104289,8604,104289.0,31296.0,-1370.527366358418,-397.17907608549416,-920.315916783958
104289,9707,104289,8649,104289.0,31328.0,-1355.935691027232,-381.99635477435095,-896.1616851328084
104289,9707,104289,8668,104289.0,31389.0,-1339.9127580685806,-366.32780172932684,-870.9883324804543
104299,9700,104299,8701,104299.0,31437.0,-1322.457470333232,-350.2004896631639,-844.834136681243
104299,9660,104299,8749,104299.0,31494.0,-1303.5679558370646,-333.6428655240298,-817.7403479783799
104299,9586,104299,8746,104299.0,31552.0,-1283.242682020485,-316.68430147329343,-789.7504261970009
104299,9569,104299,8774,104299.0,31555.0,-1261.4824077669496,-299.354767016109,-760.909348791
104299,9576,104299,8787,104299.0,31576.0,-1238.2923660808444,-281.6847629954227,-731.2632979686778
104299,9616,104299,8807,104299.0,31646.0,-1213.68388204258,-263.7053808891018,-700.8597719857626
104310,9634,104310,8842,104310.0,31671.0,-1187.6751303776482,-245.44832047505963,-669.7476415091047
104310,9702,104310,8851,104310.0,31706.0,-1160.2913054536373,-226.94582235668088,-637.9769451126244
104310,9824,104310,8861,104310.0,31720.0,-1131.5642739365246,-208.23060943437042,-605.5987825399664
104310,10017,104310,8872,104310.0,31761.0,-1101.5311952683194,-189.33600626837983,-572.665488266838
104310,10056,104310,8937,104310.0,31817.0,-1070.2319065790389,-170.2961158699444,-539.2308408555098
104310,10064,104310,8957,104310.0,31846.0,-1037.7062587787132,-151.14568856937535,-505.3500453401759
104320,10065,104320,8994,104320.0,31922.0,-1003.9929446372655,-131.91965959518308,-471.0794970149158
104320,10031,104320,9063,104320.0,31992.0,-969.1299733986525,-112.65259506429976,-436.4763430481081
104320,9968,104320,9051,104320.0,32057.0,-933.1561734317584,-93.37809382706581,-401.5977328423935
104320,10036,104320,9053,104320.0,32079.0,-896.1132460852955,-74.12838285139725,-366.4999536189398
104320,10059,104320,9106,104320.0,32128.0,-858.0475356828587,-54.934386356554796,-331.2378824563182
104320,10107,104320,9101,104320.0,32145.0,-819.0108626391793,-35.825919571936026,-295.86486629174647
104331,10184,104331,9116,104331.0,32180.0,-779.0606731624708,-16.831741008261588,-260.4328601366084
104331,10270,104331,9127,104331.0,32211.0,-738.2597628888216,2.020288812548415,-224.99268820630164
104331,10458,104331,9118,104331.0,32234.0,-696.6752872431666,20.702856086366126,-189.5943412764782
104331,10593,104331,9174,104331.0,32282.0,-654.37668616401,39.188812721771626,-154.28725599306176
104331,10646,104331,9216,104331.0,32343.0,-611.432859001717,57.45106397888986,-119.1204571320535
104331,10650,104331,9258,104331.0,32397.0,-567.9099250476526,75.46296848039674,-84.14237501949185
104341,10654,104341,9281,104341.0,32457.0,-523.8706198173118,93.19902279007573,-49.40035878194192
104341,10601,104341,9333,104341.0,32520.0,-479.3751913839718,110.63547726539935,-14.940057899705948
104341,10620,104341,9318,104341.0,32537.0,-434.4831916454175,127.75080103115971,19.19517768845708
104341,10666,104341,9360,104341.0,32588.0,-389.25543605019857,144.52592803263747,52.96467398586424
104341,10727,104341,9313,104341.0,32575.0,-343.7553142629282,160.94417760827133,86.33044356413927
104341,10798,104341,9368,104341.0,32633.0,-298.0491745466053,176.9908805589476,119.25688030684944
104351,10862,104351,9358,104351.0,32649.0,-252.20610358760223,192.65295613116865,151.71036211886837
104351,11000,104351,9372,104351.0,32681.0,-206.29732221787685,207.9186569351416,183.65897323179854
104351,11225,104351,9416,104351.0,32729.0,-160.3947839872758,222.77743770693593,215.07233910979357
104351,11291,104351,9387,104351.0,32784.0,-114.56853110340012,237.21990377870844,245.9216195192455
104351,11308,104351,9423,104351.0,32796.0,-68.88379503479473,251.23774044069512,276.17972753415484
104351,11315,104351,9454,104351.0,32838.0,-23.3995880279424,264.8235769581107,305.82152649770705
104362,11293,104362,9524,104362.0,32903.0,21.8308644350534,277.9711619260579,334.82390261118155
104362,11253,104362,9494,104362.0,32934.0,66.75858676832672,290.67598376561125,363.16600538184696
104362,11283,104362,9508,104362.0,32958.0,111.33678849184548,302.93574968232497,390.8296546567085
104362,11355,104362,9515,104362.0,32987.0,155.5189875134156,314.7503124166467,417.79955672086555
104362,11387,104362,9517,104362.0,33012.0,199.2580495461225,326.12134841993895,444.0632612456991
104362,11450,104362,9509,104362.0,33043.0,242.50601972036407,337.0520586451993,469.6110558875837
104372,11535,104372,9520,104372.0,33048.0,285.21426021505863,347.5468129814093,494.4358576354425
104372,11725,104372,9503,104372.0,33048.0,327.3341322399024,357.61073014160377,518.5329575459316
104372,11847,104372,9535,104372.0,33087.0,368.8188452176187,367.2492839393892,541.8995523233514
104372,11911,104372,9562,104372.0,33136.0,409.6261731873715,376.46810376469,564.5343765841549
104372,11905,104372,9567,104372.0,33138.0,449.7206496244403,385.27311074665465,586.4377252978029
104372,11886,104372,9572,104372.0,33185.0,489.0741492160412,393.6707688383307,607.6116377719538
104382,11844,104382,9640,104382.0,33243.0,527.6648840485552,401.6682684967129,628.0600812786713
104382,11825,104382,9629,104382.0,33223.0,565.4754424890557,409.27388559296,647.7892759175172
104382,11865,104382,9613,104382.0,33262.0,602.4906324188084,416.4974242501696,666.8079339325845
104382,11901,104382,9604,104382.0,33249.0,638.6958862904357,423.35019693632694,685.127127941583
104382,11939,104382,9593,104382.0,33267.0,674.0765199476652,429.8444969764215,702.7599314852916
104382,11972,104382,9646,104382.0,33282.0,708.6174996459815,435.9930811966444,719.7210157073312
104393,12099,104393,9582,104393.0,33279.0,742.3034971775844,441.80896789274584,736.0262827008346
104393,12289,104393,9604,104393.0,33285.0,775.1198083261716,447.30524818353615,751.6925026790864
104393,12337,104393,9621,104393.0,33302.0,807.0546269006118,452.4946877262013,766.7368876842941
104393,12355,104393,9628,104393.0,33342.0,838.1016528244579,457.3895049058891,781.1767793894685
104393,12330,104393,9653,104393.0,33364.0,868.2613751923259,462.0015132966288,795.0296771012856
104393,12270,104393,9677,104393.0,33406.0,897.5405791981657,466.3424296752527,808.3135669567198
104403,12213,104403,9679,104403.0,33410.0,925.950552505524,470.4242662551028,821.0473453290219
104403,12236,104403,9675,104403.0,33441.0,953.5046728646669,474.25965497844527,833.2511517019368
104403,12264,104403,9694,104403.0,33409.0,980.216348035239,477.8619395558525,844.9464748118955
104403,12282,104403,9670,104403.0,33440.0,1006.097928899087,481.24512186361255,856.1559545086025
104403,12304,104403,9662,104403.0,33432.0,1031.160291798555,484.42368655482596,866.903008163705
104403,12359,104403,9635,104403.0,33424.0,1055.4126283101805,487.41217594257455,877.2114670858653
104413,12537,104413,9631,104413.0,33372.0,1078.862755786341,490.2245571931951,887.105048156639
104413,12636,104413,9655,104413.0,33420.0,1101.518703210825,492.87365052377993,896.6064980324836
104413,12631,104413,9679,104413.0,33393.0,1123.3912422331143,495.3709478268497,905.7367956910796
104413,12635,104413,9685,104413.0,33459.0,1144.495723887919,497.72688809438307,914.5148072253005
104413,12590,104413,9694,104413.0,33502.0,1164.8522613932223,499.95127154552085,922.9574691165458
104413,12528,104413,9729,104413.0,33541.0,1184.4846147056137,502.05359355536575,931.080513544307
104424,12482,104424,9713,104424.0,33505.0,1203.4182618955494,504.04338103619534,938.8993425780882
104424,12500,104424,9714,104424.0,33536.0,1221.6781686082481,505.9304581069532,946.4293950527065
104424,12515,104424,9662,104424.0,33520.0,1239.287050143693,507.72484325599385,953.6859813426552
104424,12534,104424,9695,104424.0,33544.0,1256.2645119095816,509.4362392323451,960.6840267101434
104424,12561,104424,9679,104424.0,33549.0,1272.626774095473,511.0735059261207,967.4379291572907
104424,12664,104424,9675,104424.0,33523.0,1288.3867897163107,512.6444012767047,973.9614503580156
104434,12844,104434,9659,104434.0,33520.0,1303.555277620302,514.1553835102256,980.2674085072058
104434,12888,104434,9697,104434.0,33539.0,1318.1431192937728,515.6113489907277,986.3671605088871
104434,12869,104434,9711,104434.0,33550.0,1332.164113303045,517.0156130850272,992.2702434385196
104434,12835,104434,9719,104434.0,33589.0,1345.6363344558263,518.3702694730712,997.9844056240565
104434,12758,104434,9737,104434.0,33603.0,1358.5815933175554,519.6766444740632,1003.5159481161795
104434,12666,104434,9742,104434.0,33631.0,1371.0235682205464,520.9356500159039,1008.8702184466629
104444,12686,104444,9737,104444.0,33611.0,1382.9852890605443,522.1480372247912,1014.052033859444
104444,12711,104444,9737,104444.0,33609.0,1394.4869941310137,523.3144919158528,1019.0657828993988
104444,12710,104444,9741,104444.0,33638.0,1405.5451424635028,524.4355739843897,1023.9152213947802
104444,12712,104444,9728,104444.0,33655.0,1416.1721742764203,525.5116099582966,1028.6033593442723
104444,12763,104444,9703,104444.0,33578.0,1426.3763613055285,526.542494175566,1033.1324912091775
104444,12934,104444,9714,104444.0,33616.0,1436.1621473149876,527.5273034671396,1037.503845377393
104455,13019,104455,9719,104455.0,33649.0,1445.531866927145,528.4639176083435,1041.7169842751557
104455,13045,104455,9744,104455.0,33637.0,1454.4885228600392,529.3489390135575,1045.7696897044877
104455,13014,104455,9732,104455.0,33681.0,1463.0380105898869,530.1778955561217,1049.6582828335108
104455,12986,104455,9769,104455.0,33657.0,1471.1897319141763,530.9455121092628,1053.3779114345234
104455,12888,104455,9816,104455.0,33751.0,1478.9557611400035,531.6461015426578,1056.9228368670665
104455,12835,104455,9781,104455.0,33723.0,1486.3490047795447,532.2742089050768,1060.2869719012556
104465,12849,104465,9791,104465.0,33716.0,1493.380933176047,532.8251285121718,1063.464475286546
104465,12839,104465,9766,104465.0,33716.0,1500.0598044694812,533.2949015107279,1066.4498730464613
104465,12872,104465,9777,104465.0,33712.0,1506.3898298265988,533.6800085858563,1069.2377410928516
104465,12884,104465,9781,104465.0,33735.0,1512.3709983919189,533.9771161412147,1071.8224249157722
104465,12970,104465,9763,104465.0,33703.0,1517.999357437216,534.1829691621281,1074.1979240256203
104465,13150,104465,9722,104465.0,33739.0,1523.2681382850888,534.294198146792,1076.357785510653
104475,13200,104475,9774,104475.0,33719.0,1528.1702077390328,534.3068803429461,1078.2949846483655
104475,13175,104475,9798,104475.0,33760.0,1532.7010256045533,534.2163289541172,1080.0019182542105
104475,13142,104475,9796,104475.0,33778.0,1536.8603235828775,534.0175050693452,1081.4706121836243
104475,13048,104475,9816,104475.0,33795.0,1540.651835816081,533.705633556218,1082.6931735886083
104475,12964,104475,9815,104475.0,33820.0,1544.0816011930572,533.2766041650817,1083.662360689615
104475,12985,104475,9808,104475.0,33807.0,1547.1556144295514,532.7271944204563,1084.3720740125214
104486,12985,104486,9814,104486.0,33821.0,1549.877908450541,532.0551447859233,1084.8176458742698
104486,12995,104486,9806,104486.0,33812.0,1552.2497316909648,531.2591165623455,1084.9959121233385
104486,12995,104486,9781,104486.0,33803.0,1554.2694134375552,530.338573068504,1084.905143188139
104486,13031,104486,9797,104486.0,33803.0,1555.9323970860191,529.2935335579782,1084.5448648955123
104486,13182,104486,9778,104486.0,33785.0,1557.2317267134877,528.124299056198,1083.915593405027
104486,13281,104486,9781,104486.0,33791.0,1558.1597480224773,526.8312755921747,1083.0185449925214
104496,13285,104496,9808,104496.0,33790.0,1558.7108761277152,525.4149008902085,1081.855389479353
104496,13257,104496,9794,104496.0,33789.0,1558.8839146391094,523.8757534350525,1080.4281201275799
104496,13201,104496,9815,104496.0,33806.0,1558.6827301792996,522.2148034215436,1078.7390419753972
104496,13114,104496,9859,104496.0,33866.0,1558.1153876000599,520.4337387846532,1076.7909939018264
104496,13051,104496,9828,104496.0,33855.0,1557.192304332127,518.5354715068296,1074.5879885017396
104496,13051,104496,9791,104496.0,33823.0,1555.9240712258998,516.524508442943,1072.1359114757263
104506,13044,104506,9806,104506.0,33823.0,1554.3197652554975,514.4067292065056,1069.4426469765529
104506,13050,104506,9801,104506.0,33810.0,1552.386140301343,512.1889150052691,1066.5177015751208
104506,13060,104506,9788,104506.0,33802.0,1550.127416462825,509.8785341701042,1063.3718163349258
104506,13113,104506,9781,104506.0,33787.0,1547.5454288920628,507.4836445263413,1060.0166719281406
104506,13286,104506,9729,104506.0,33779.0,1544.640518492912,505.01260274153316,1056.4645791959317
104506,13305,104506,9743,104506.0,33763.0,1541.4136743877611,502.473513611945,1052.7281466869877
104517,13296,104517,9775,104517.0,33782.0,1537.8691975525767,499.87373877201406,1048.8199996597737
104517,13231,104517,9779,104517.0,33798.0,1534.0162240876618,497.219946214327,1044.752728232583
104517,13168,104517,9782,104517.0,33818.0,1529.8684664491714,494.5185951491409,1040.5391998632872
104517,13074,104517,9797,104517.0,33809.0,1525.442700539152,491.77637838627066,1036.1930819462355
104517,13058,104517,9796,104517.0,33771.0,1520.7566842728056,489.00052893340995,1031.7291713860109
104517,13054,104517,9774,104517.0,33796.0,1515.8272680285713,486.1990371349307,1027.163295951982
104527,13024,104527,9763,104527.0,33774.0,1510.6692590287994,483.3806222888924,1022.5120560903418
104527,13048,104527,9771,104527.0,33752.0,1505.2949075855329,480.5544726504852,1017.7926616734397
104527,13044,104527,9779,104527.0,33730.0,1499.713721305802,477.7300712657227,1013.0226526876352
104527,13206,104527,9713,104527.0,33703.0,1493.9328658991599,474.9171498389704,1008.2193596256155
104527,13281,104527,9707,104527.0,33693.0,1487.9587856945407,472.1253413033944,1003.399264921304
104527,13277,104527,9713,104527.0,33711.0,1481.799865524568,469.3634822164014,998.5774996277
104537,13232,104537,9728,104537.0,33724.0,1475.4686078553573,466.6391596486617,993.7677237285307
104537,13175,104537,9764,104537.0,33734.0,1468.9821328959754,463.95885441275607,988.9824280475267
104537,13091,104537,9796,104537.0,33777.0,1462.3612198365101,461.32857312748547,984.2334792230635
104537,13001,104537,9756,104537.0,33755.0,1455.6284856703962,458.7546532005025,979.5327798429333
104537,12996,104537,9732,104537.0,33733.0,1448.8061846245375,456.244155671771,974.8927681215413
104537,12972,104537,9743,104537.0,33720.0,1441.914345917023,453.80459274371003,970.3264066263689
104548,12974,104548,9710,104548.0,33730.0,1434.9697429372338,451.44345117846,965.8468296431939
104548,12980,104548,9692,104548.0,33679.0,1427.9855292982138,449.16779666914954,961.4670292230661
104548,13037,104548,9695,104548.0,33673.0,1420.9713469500641,446.9838213376173,957.1994884250544
104548,13209,104548,9693,104548.0,33658.0,1413.9343025740645,444.8964454409968,953.0556217053135
104548,13238,104548,9693,104548.0,33671.0,1406.8812915486164,442.90916736886015,949.0452952578927
104548,13213,104548,9725,104548.0,33703.0,1399.821873905178,441.02413141864486,945.176740620333
104558,13151,104558,9742,104558.0,33681.0,1392.7699373363853,439.2424476381384,941.4568672974633
104558,13071,104558,9728,104558.0,33715.0,1385.743444696037,437.5647191390308,937.8916867668598
104558,12948,104558,9742,104558.0,33704.0,1378.7627734959865,435.99145304469636,934.4866493126432
104558,12939,104558,9748,104558.0,33689.0,1371.84831062095,434.523245766106,931.2468853934733
104558,12951,104558,9735,104558.0,33691.0,1365.0182689715102,433.16092067243085,928.1772420846603
104558,12929,104558,9739,104558.0,33670.0,1358.2876036986668,431.90561004002546,925.282106333276
104569,12922,104569,9679,104569.0,33706.0,1351.667772472014,430.75860316595947,922.5652354563597
104569,12942,104569,9714,104569.0,33676.0,1345.1666573139028,429.72090192449673,920.0297606865935
104569,13053,104569,9699,104569.0,33659.0,1338.7888358350156,428.7927630030169,917.6782179376737
104569,13134,104569,9679,104569.0,33640.0,1332.5369058611122,427.9734918974503,915.5122879660662
104569,13164,104569,9699,104569.0,33657.0,1326.4138147129847,427.26130652886667,913.5323267996182
104569,13125,104569,9700,104569.0,33673.0,1320.4250597444602,426.6532097948081,911.7371275536875
104579,13052,104579,9749,104579.0,33691.0,1314.5795801888266,426.14514633860836,910.1241200448538
104579,12953,104579,9763,104579.0,33714.0,1308.8890062105372,425.73255695852293,908.6898665789197
104579,12896,104579,9726,104579.0,33679.0,1303.3657040288485,425.4110535314933,907.4305645988368
104579,12870,104579,9734,104579.0,33680.0,1298.020488984832,425.1766944963491,906.3422223844923
104579,12881,104579,9718,104579.0,33690.0,1292.8608905468514,425.0257679435226,905.4204795928649
104579,12858,104579,9733,104579.0,33681.0,1287.8903068910008,424.9545033725167,904.6604350134205
104589,12897,104589,9733,104589.0,33685.0,1283.107789792372,424.9589712757756,904.0566253652689
104589,12933,104589,9729,104589.0,33650.0,1278.5082694924854,425.0351241272615,903.6029407826179
104589,13093,104589,9710,104589.0,33658.0,1274.083553480949,425.17879272131063,903.2923294360266
104589,13128,104589,9701,104589.0,33680.0,1269.8244676531217,425.3854720489581,903.1164675538972
104589,13114,104589,9711,104589.0,33674.0,1265.7234884417917,425.64997982170996,903.0657148227081
104589,13068,104589,9733,104589.0,33679.0,1261.7763888735878,425.9662832545168,903.1293007958135
104600,12988,104600,9761,104600.0,33716.0,1257.9821965417464,426.32771486185044,903.2955220358463
104600,12888,104600,9783,104600.0,33721.0,1254.341793495979,426.7275430554214,903.552065686788
104600,12853,104600,9728,104600.0,33720.0,1250.8557105741686,427.1595456254122,903.8864800859516
104600,12879,104600,9746,104600.0,33719.0,1247.521984351212,427.6181066958019,904.2864872271507
104600,12863,104600,9743,104600.0,33724.0,1244.33497726992,428.0978899695657,904.7400383110883
104600,12866,104600,9732,104600.0,33724.0,1241.2851185381892,428.5935761628834,905.235292888512
104610,12885,104610,9734,104610.0,33719.0,1238.3589426779047,429.0997417056651,905.7606069813716
104610,13015,104610,9719,104610.0,33687.0,1235.5394928162389,429.6106886539793,906.3044131901584
104610,13124,104610,9733,104610.0,33717.0,1232.8078399419487,430.1202462292423,906.8549182883414
104610,13154,104610,9725,104610.0,33722.0,1230.1457854324444,430.621645356524,907.3998736692057
104610,13125,104610,9745,104610.0,33706.0,1227.538478557873,431.1075129484061,907.9266254475086
104610,13064,104610,9772,104610.0,33741.0,1224.9755855320307,431.5700407930845,908.4222422404432
104620,12972,104620,9803,104620.0,33783.0,1222.4507373710926,432.0014405857732,908.873739247814
104620,12894,104620,9780,104620.0,33740.0,1219.9597284253337,432.39459023419784,909.2685872500022
104620,12900,104620,9761,104620.0,33740.0,1217.498242920156,432.74341432230585,909.5950779096249
104620,12898,104620,9773,104620.0,33756.0,1215.0600992690229,433.04275206414667,909.8421997223509
104620,12877,104620,9731,104620.0,33732.0,1212.636461587281,433.28798816975547,909.9994135477017
104620,12890,104620,9741,104620.0,33751.0,1210.2155774510622,433.4746532131421,910.0565648522222
104631,12927,104631,9742,104631.0,33753.0,1207.782714350225,433.59803210788186,910.00384396338
104631,13102,104631,9704,104631.0,33723.0,1205.3208132834554,433.6528800021225,909.831778472728
104631,13144,104631,9749,104631.0,33701.0,1202.8125196876558,433.6331951568617,909.5310476394995
104631,13121,104631,9749,104631.0,33735.0,1200.242946658147,433.5321339757551,909.0920401786071
104631,13096,104631,9770,104631.0,33732.0,1197.6014609458875,433.34228087018744,908.5045989315006
104631,13025,104631,9812,104631.0,33753.0,1194.8817757920892,433.0561800856277,907.758199625505
104641,12889,104641,9804,104641.0,33783.0,1192.0807233026421,432.66699817917515,906.8423677468902
104641,12876,104641,9808,104641.0,33781.0,1189.1960465660432,432.16914333961785,905.7472144616135
104641,12873,104641,9793,104641.0,33760.0,1186.2240454169564,431.55855237077975,904.4639097792227
104641,12871,104641,9755,104641.0,33771.0,1183.1581829203242,430.8325645654579,902.9848059049006
104641,12880,104641,9742,104641.0,33757.0,1179.9887114036933,429.9894291478019,901.3033041522365
104641,12907,104641,9748,104641.0,33768.0,1176.7027698297986,429.02764874759515,899.4137469593625
104651,13009,104651,9745,104651.0,33734.0,1173.284944726398,427.9455414527008,897.31134534071
104651,13138,104651,9765,104651.0,33730.0,1169.7188070754805,426.7411672008119,894.9919760130629
104651,13150,104651,9712,104651.0,33715.0,1165.989514676639,425.4123919103867,892.451811925655
104651,13103,104651,9753,104651.0,33731.0,1162.086324937556,423.95680002186066,889.6869846549762
104651,13049,104651,9779,104651.0,33757.0,1158.0035715811537,422.3716234859754,886.693543896457
104651,12953,104651,9815,104651.0,33790.0,1153.7398971576101,420.65417094254235,883.4678679785782
104662,12876,104662,9792,104662.0,33789.0,1149.2963911632726,418.8026539622852,880.0074202859095
104662,12848,104662,9768,104662.0,33753.0,1144.6743016601156,416.81672843644907,876.311396360624
104662,12856,104662,9753,104662.0,33741.0,1139.8730995205729,414.6973848717305,872.3808084425614
104662,12848,104662,9723,104662.0,33706.0,1134.889472041455,412.44641628082263,868.2180398493871
104662,12842,104662,9737,104662.0,33712.0,1129.7170698953148,410.06584005262334,863.8262435541591
104662,12907,104662,9734,104662.0,33703.0,1124.3466169531664,407.55753480994196,859.2088945171208
104672,13049,104672,9711,104672.0,33676.0,1118.7667251852222,404.9231346917498,854.3695523382122
104672,13126,104672,9717,104672.0,33668.0,1112.9660544141957,402.1639442262841,849.3116277013986
104672,13081,104672,9736,104672.0,33671.0,1106.936220259436,399.28082719695806,844.0380755961812
104672,13060,104672,9746,104672.0,33683.0,1100.6737486544669,396.27434265930333,838.551258052744
104672,12946,104672,9757,104672.0,33708.0,1094.1801928163277,393.14516652776143,832.8531644989916
104672,12843,104672,9755,104672.0,33713.0,1087.4607001399806,389.8945538379094,826.9459410880905
104682,12812,104682,9754,104682.0,33700.0,1080.5216401458708,386.52466761490365,820.8324820290107
104682,12806,104682,9731,104682.0,33686.0,1073.3683031770263,383.0387075185713,814.5167610694892
104682,12811,104682,9701,104682.0,33644.0,1066.0036066479756,379.44075926711946,808.0037512518943
104682,12789,104682,9719,104682.0,33652.0,1058.4277520280566,375.7354031872646,801.2990279258004
104682,12800,104682,9693,104682.0,33646.0,1050.6382192846172,371.92736508176245,794.4083705577941
104682,12904,104682,9689,104682.0,33604.0,1042.6300360413604,368.02134081096835,787.3375635079534
104693,13009,104693,9676,104693.0,33589.0,1034.3970136320745,364.02182444559475,780.0921446471182
104693,13040,104693,9678,104693.0,33603.0,1025.9341910077806,359.93290543695,772.6769883013728
104693,12988,104693,9684,104693.0,33623.0,1017.2403513569394,355.75817834381803,765.0961493495909
104693,12922,104693,9691,104693.0,33617.0,1008.3191443699473,351.5008439078444,757.3532071127954
104693,12827,104693,9708,104693.0,33639.0,999.1784397803077,347.1639932630531,749.4518235531059
104693,12758,104693,9707,104693.0,33599.0,989.8285151344968,342.75101445852704,741.3961999566017
104703,12742,104703,9671,104703.0,33623.0,980.2799356113786,338.26592286303753,733.1913085251397
104703,12713,104703,9681,104703.0,33583.0,970.5418966197013,333.71336844313885,724.8429392081708
104703,12681,104703,9656,104703.0,33587.0,960.6212575329268,329.0983966836404,716.3576546999323
104703,12677,104703,9662,104703.0,33553.0,950.5219384353063,324.4262301309576,707.7426453173128
104703,12724,104703,9623,104703.0,33533.0,940.2446189516623,319.7020886111253,699.0054552129942
104703,12904,104703,9589,104703.0,33500.0,929.7874149516167,314.93084356053055,690.1535655262755
104713,12913,104713,9604,104713.0,33508.0,919.1481321072961,310.1164476168411,681.1939111314277
104713,12905,104713,9661,104713.0,33496.0,908.3271917294162,305.26160679534564,672.1325715664702
104713,12853,104713,9650,104713.0,33499.0,897.3294399474703,300.36820105209426,662.9747553178947
104713,12784,104713,9656,104713.0,33530.0,886.1642512890874,295.4381070843581,653.7250286923115
104713,12651,104713,9663,104713.0,33519.0,874.8443534969537,290.47377570744027,644.3877931466997
104713,12629,104713,9625,104713.0,33494.0,863.3837679166107,285.47846862175834,634.96781866624
104724,12595,104724,9608,104724.0,33524.0,851.7956259841865,280.4561868645335,625.4705254321698
104724,12574,104724,9605,104724.0,33479.0,840.0907153938083,275.4112948871583,615.9021087310866
104724,12579,104724,9614,104724.0,33453.0,828.2768122020959,270.3481760677165,606.2695676355802
104724,12574,104724,9582,104724.0,33469.0,816.3584929474957,265.27115224687543,596.5804814264343
104724,12670,104724,9615,104724.0,33395.0,804.3374710524924,260.1845052484434,586.8426812599375
104724,12793,104724,9514,104724.0,33390.0,792.2139248259158,255.09238168239688,577.0638471920605
104734,12793,104734,9567,104734.0,33386.0,779.9889970931727,249.99840685293213,567.2509534079795
104734,12730,104734,9557,104734.0,33372.0,767.66730075033,244.90523429634456,557.4098973481694
104734,12673,104734,9594,104734.0,33412.0,755.2578597659274,239.81459747366011,547.5455472571202
104734,12581,104734,9623,104734.0,33439.0,742.7733255884705,234.7279363826408,537.6622281959405
104734,12470,104734,9609,104734.0,33402.0,730.2281891136385,229.6472448728253,527.7645512356669
104734,12482,104734,9566,104734.0,33376.0,717.6365868417231,224.57566707847042,517.8580068945719
104744,12453,104744,9537,104744.0,33368.0,705.010520386471,219.5173956547253,507.94891184493804
104744,12419,104744,9529,104744.0,33331.0,692.359004945784,214.47700932674604,498.044032500978
104744,12421,104744,9514,104744.0,33331.0,679.6877112581949,209.4588142379069,488.15022729123757
104744,12437,104744,9517,104744.0,33279.0,666.9987850561789,204.46647429969101,478.2740993034861
104744,12596,104744,9515,104744.0,33261.0,654.2913841593556,199.50288993371868,468.42154777781116
104744,12655,104744,9502,104744.0,33288.0,641.5636232070086,194.57021783089016,458.5972951381392
104755,12629,104755,9514,104755.0,33276.0,628.8154605688708,189.66992235144892,448.80476578342393
104755,12586,104755,9507,104755.0,33265.0,616.0508356272339,184.802852422066,439.04636707623797
104755,12488,104755,9532,104755.0,33303.0,603.2780060899316,179.96943292220868,429.3238364741974
104755,12371,104755,9542,104755.0,33291.0,590.5083057795292,175.17003326193077,419.6386709063378
104755,12328,104755,9497,104755.0,33287.0,577.7539216623528,170.40538765964965,409.99269094324734
104755,12310,104755,9523,104755.0,33249.0,565.0256105659819,165.6767514013568,400.38839162219745
104765,12307,104765,9496,104765.0,33235.0,552.3312820783552,160.9857991239512,390.8288572511003
104765,12274,104765,9486,104765.0,33213.0,539.6755059850701,156.3345139971077,381.31740402751666
104765,12283,104765,9463,104765.0,33224.0,527.0593955677475,151.7250070379971,371.8572559536898
104765,12385,104765,9475,104765.0,33183.0,514.4808261378503,147.15922197401756,362.4514097663266
104765,12497,104765,9450,104765.0,33153.0,501.9357233652064,142.6387198632949,353.1024843804355
104765,12481,104765,9446,104765.0,33160.0,489.4205813161926,138.1645596010074,343.81235237822204
104776,12474,104776,9450,104776.0,33149.0,476.93492118827635,133.73717105188814,334.58181249370125
104776,12393,104776,9459,104776.0,33177.0,464.48238754406214,129.35632803080586,325.41062682591166
104776,12256,104776,9461,104776.0,33168.0,452.0702250267575,125.02133849054388,316.297900489228
104776,12198,104776,9450,104776.0,33168.0,439.70737626258256,120.7313183544577,307.24258109052744
104776,12176,104776,9443,104776.0,33140.0,427.40203045903763,116.48533854463761,298.2438028260075
104776,12147,104776,9433,104776.0,33148.0,415.159804286258,112.2823926133645,289.30096391811776
104786,12171,104786,9431,104786.0,33123.0,402.98293525627764,108.12128416775312,280.41368514528494
104786,12150,104786,9428,104786.0,33126.0,390.8701777990357,104.00054542342701,271.581785068224
104786,12166,104786,9432,104786.0,33093.0,378.8170680476575,99.9184415651423,262.8052416054835
104786,12322,104786,9382,104786.0,33033.0,366.8166383114004,95.87296786919046,254.08395175594035
104786,12389,104786,9390,104786.0,33059.0,354.8612754937217,91.86161905795296,245.41716804603084
104786,12355,104786,9418,104786.0,33056.0,342.94556174895786,87.88106654117524,236.80300835552998
104796,12310,104796,9419,104796.0,33077.0,331.0684017089749,83.92722324571804,228.23853090951172
104796,12213,104796,9465,104796.0,33086.0,319.2332909988694,79.99578315758657,219.7202672352356
104796,12080,104796,9467,104796.0,33090.0,307.44695879292453,76.08298678205784,211.24487723147695
104796,12051,104796,9407,104796.0,33037.0,295.717003566901,72.1862726645852,202.80963705766828
104796,12032,104796,9417,104796.0,33052.0,284.0495094284647,68.30434355852151,194.41249280992213
104796,12016,104796,9410,104796.0,33013.0,272.4476141899354,64.43674648076234,186.051797441261
104807,12007,104807,9375,104807.0,33018.0,260.91100471922005,60.583517149172906,177.72605276119828
104807,12017,104807,9371,104807.0,33005.0,249.43583354374732,56.744894891050706,169.43374965790395
104807,12103,104807,9387,104807.0,32970.0,238.01507087887103,52.920992672756654,161.1732519493538
104807,12233,104807,9349,104807.0,32999.0,226.63985275951632,49.11163473467951,152.94265915121127
104807,12233,104807,9373,104807.0,32980.0,215.30201165560425,45.31631933048868,144.73976558672575
104807,12213,104807,9354,104807.0,32972.0,203.99670105894938,41.53416491544232,136.56221505770702
104817,12127,104817,9381,104817.0,32960.0,192.7236551675603,37.76395717342507,128.40762650971067
104817,12030,104817,9416,104817.0,32973.0,181.48668512830318,34.00445475704572,120.27361183668802
104817,11947,104817,9365,104817.0,32986.0,170.29188741899566,30.254921393665654,112.15793886016138
104817,11914,104817,9370,104817.0,32954.0,159.14535756119017,26.51545738525016,104.05889621649749
104817,11891,104817,9339,104817.0,32948.0,148.05127514225592,22.786824939056316,95.97554046910057
104817,11907,104817,9360,104817.0,32926.0,137.01084566311397,19.070087071533578,87.90762514537744
104827,11879,104827,9317,104827.0,32943.0,126.02202218669186,15.36637980950593,79.85543028560812
104827,11902,104827,9310,104827.0,32898.0,115.07962831397117,11.676692185952447,71.81970702218712
104827,12045,104827,9295,104827.0,32833.0,104.17593718584908,8.001492098664642,63.80147611879204
104827,12108,104827,9330,104827.0,32857.0,93.3024007932363,4.340412516036679,55.80137486437616
104827,12101,104827,9331,104827.0,32852.0,82.45236993895014,0.6923379998050905,47.81899953331936
104827,12035,104827,9310,104827.0,32864.0,71.62323063690269,-2.9442136796239424,39.85284038942007
104838,11970,104838,9336,104838.0,32868.0,60.816809683470865,-6.570817524605786,31.900665560351285
104838,11838,104838,9361,104838.0,32881.0,50.03820732183567,-10.188930325673027,23.960009790789172
104838,11784,104838,9324,104838.0,32858.0,39.29363775584943,-13.799489702703,16.02864468809969
104838,11789,104838,9298,104838.0,32875.0,28.588094953272503,-17.402669186774233,8.104917200589966
104838,11765,104838,9290,104838.0,32829.0,17.92384327824493,-20.998173822183162,0.18790377405889558
104838,11748,104838,9271,104838.0,32826.0,7.299898753356956,-24.58578284354155,-7.722646075219927
104848,11764,104848,9305,104848.0,32811.0,-3.2880839700385422,-28.165692192560357,-15.626556507965347
104848,11860,104848,9267,104848.0,32754.0,-13.847527000426908,-31.73853950364048,-23.523561237250988
104848,11993,104848,9269,104848.0,32786.0,-24.387524361630767,-35.3053402322646,-31.413724489334413
104848,11981,104848,9324,104848.0,32759.0,-34.9161790918663,-38.86746037845887,-39.29778111281166
104848,11954,104848,9256,104848.0,32775.0,-45.43798125864737,-42.426399120420626,-47.1771509651652
104848,11865,104848,9284,104848.0,32772.0,-55.95273231096189,-45.9835513109187,-55.05372469507802
104858,11793,104858,9314,104858.0,32809.0,-66.4562180171663,-49.540172401459245,-62.929497783611055
104858,11682,104858,9289,104858.0,32779.0,-76.94199050003886,-53.09716124820915,-70.8060183905161
104858,11664,104858,9264,104858.0,32756.0,-87.40360380275615,-56.65473564189688,-78.68394441557632
104858,11652,104858,9264,104858.0,32768.0,-97.8365462995148,-60.21251456070087,-86.56300114991404
104858,11627,104858,9256,104858.0,32734.0,-108.23930349737202,-63.76985536230126,-94.44212498881927
104858,11617,104858,9246,104858.0,32697.0,-118.61374968718587,-67.3260674916815,-102.31963941598315
104869,11650,104869,9210,104869.0,32697.0,-128.9652529961229,-70.88058974359143,-110.19364138122523
104869,11803,104869,9225,104869.0,32634.0,-139.30210118692548,-74.43331323464372,-118.06255360305795
104869,11860,104869,9229,104869.0,32679.0,-149.63353367825243,-77.9848618959258,-125.92563643573033
104869,11848,104869,9207,104869.0,32649.0,-159.96685512592217,-81.53660990363653,-133.78324888296186
104869,11793,104869,9248,104869.0,32666.0,-170.3053018976177,-85.09055542803327,-141.6367454555616
104869,11723,104869,9248,104869.0,32671.0,-180.64765893084132,-88.64906887382477,-149.488180882326
104879,11617,104879,9288,104879.0,32709.0,-190.98934558682754,-92.21435972845376,-157.33986311388173
104879,11557,104879,9247,104879.0,32674.0,-201.32436948832128,-95.78782384863854,-165.19370397229784
104879,11545,104879,9247,104879.0,32663.0,-211.64745635742838,-99.36968193825396,-173.05071344018177
104879,11531,104879,9208,104879.0,32629.0,-221.95555868000315,-102.9591075032942,-180.91098966450056
104879,11502,104879,9187,104879.0,32625.0,-232.24852883640438,-106.5547107125588,-188.77406703544966
104879,11512,104879,9194,104879.0,32629.0,-242.52937772267796,-110.15512522225629,-196.639237832576
104889,11591,104889,9195,104889.0,32574.0,-252.80417957986947,-113.7593944467971,-204.50570174594748
104889,11746,104889,9152,104889.0,32575.0,-263.0809166690267,-117.36708851000583,-212.37278614198783
104889,11742,104889,9189,104889.0,32562.0,-273.36690744810653,-120.9784251080207,-220.24033221486377
104889,11715,104889,9188,104889.0,32582.0,-283.66600797742785,-124.59434572918502,-228.10890908518786
104889,11643,104889,9201,104889.0,32545.0,-293.97726604174613,-128.21626795371748,-235.9797121692991
104889,11553,104889,9233,104889.0,32583.0,-304.2953881109372,-131.84558868596787,-243.85437043808406
104900,11433,104900,9196,104900.0,32582.0,-314.61246669752427,-135.48314874866827,-251.7346787237833
104900,11407,104900,9192,104900.0,32565.0,-324.9203894812174,-139.12892188626398,-259.6221619407514
104900,11405,104900,9173,104900.0,32548.0,-335.2130399939574,-142.78212243278233,-267.5177504445405
104900,11382,104900,9160,104900.0,32544.0,-345.48748466447705,-146.44154141743263,-275.4217870735323
104900,11392,104900,9143,104900.0,32516.0,-355.7442718766732,-150.10589661750902,-283.3341857376381
104900,11418,104900,9099,104900.0,32487.0,-365.98730251844177,-153.77425123425365,-291.2546605969202
104910,11543,104910,9117,104910.0,32456.0,-376.22309190151736,-157.4465558684882,-299.1831533268852
104910,11621,104910,9146,104910.0,32490.0,-386.4589068994468,-161.1240143116935,-307.1203249129561
104910,11592,104910,9118,104910.0,32441.0,-396.70010192120003,-164.8089493577607,-315.06776996655776
104910,11557,104910,9137,104910.0,32462.0,-406.9480701262861,-168.50445394289375,-323.0279899691076
104910,11475,104910,9167,104910.0,32490.0,-417.19981755123763,-172.21411693581945,-331.00427110377564
104910,11387,104910,9192,104910.0,32513.0,-427.44896381567617,-175.9415381424763,-339.0002055426562
104920,11292,104920,9174,104920.0,32483.0,-437.687641307926,-179.6895717078624,-347.0188763321314
104920,11292,104920,9117,104920.0,32468.0,-447.9087243710213,-183.4598725445332,-355.062302770192
104920,11283,104920,9110,104920.0,32430.0,-458.1075367344249,-187.2531969905885,-363.1314801002409
104920,11256,104920,9108,104920.0,32434.0,-468.28258409058947,-191.07011968230518,-371.22677668645883
104920,11261,104920,9126,104920.0,32408.0,-478.4357227733624,-194.91146438234102,-379.34831627493907
104920,11331,104920,9096,104920.0,32386.0,-488.57203778942255,-198.77828279630126,-387.49624009429624
104931,11463,104931,9067,104931.0,32384.0,-498.698845299954,-202.67183466292198,-395.6709661665051
104931,11474,104931,9070,104931.0,32382.0,-508.82342681113073,-206.593905020887,-403.8733952309466
104931,11443,104931,9143,104931.0,32355.0,-518.9504844696967,-210.54705589147198,-412.1049519653435
104931,11384,104931,9115,104931.0,32375.0,-529.0808289808829,-214.5342153246205,-420.3675626631788
104931,11307,104931,9130,104931.0,32411.0,-539.2116946453216,-218.55788502892136,-428.66348230681297
104931,11186,104931,9096,104931.0,32374.0,-549.3382140135507,-222.61969301500852,-436.99477063419715
104941,11181,104941,9107,104941.0,32361.0,-559.4555442797543,-226.72040450794822,-445.36278545300024
104941,11162,104941,9091,104941.0,32356.0,-569.5608198722928,-230.86007335627374,-453.76812622016394
104941,11149,104941,9075,104941.0,32331.0,-579.6541906962859,-235.03817403985585,-462.21081940659576
104941,11130,104941,9079,104941.0,32329.0,-589.7391444324064,-239.25375474873056,-470.69047445250214
104941,11167,104941,9054,104941.0,32266.0,-599.8225702441648,-243.50561357304798,-479.20650542799456
104941,11323,104941,9018,104941.0,32264.0,-609.9141813050364,-247.79254235551355,-487.75858840329977
104951,11359,104951,9043,104951.0,32268.0,-620.024573474893,-252.1137252624676,-496.34720681383226
104951,11364,104951,9040,104951.0,32265.0,-630.1624318448412,-256.4690270030094,-504.97386794282136
104951,11325,104951,9039,104951.0,32270.0,-640.3324572752288,-260.85890966207353,-513.6409156294412
104951,11217,104951,9048,104951.0,32278.0,-650.5348950190203,-265.2841805254229,-522.3511840286483
104951,11132,104951,9110,104951.0,32289.0,-660.7666025562507,-269.7456295749171,-531.1075672334662
104951,11062,104951,9022,104951.0,32279.0,-671.0231567647409,-274.2434594978639,-539.9125188446849
104962,11040,104962,9034,104962.0,32236.0,-681.3011100703516,-278.7769979321512,-548.767710084858
104962,11071,104962,9010,104962.0,32246.0,-691.5995214486311,-283.34504407147404,-557.674071017459
104962,11032,104962,9036,104962.0,32208.0,-701.920448695786,-287.9462971775695,-566.6320630426451
104962,11024,104962,9010,104962.0,32210.0,-712.268881614061,-292.5794157474087,-575.6419236048423
104962,11095,104962,8975,104962.0,32178.0,-722.6525875738414,-297.2429967678514,-584.7038750021625
104962,11252,104962,8990,104962.0,32138.0,-733.081225760623,-301.93582520395626,-593.8184187126785
104972,11257,104972,8968,104972.0,32138.0,-743.5640033650936,-306.65722174932785,-602.9867982010128
104972,11202,104972,8989,104972.0,32153.0,-754.1069358905413,-311.40717317623944,-612.2113974594386
104972,11161,104972,9001,104972.0,32162.0,-764.7115528986599,-316.1861947145377,-621.4956765708309
104972,11067,104972,8974,104972.0,32177.0,-775.3753809119783,-320.99501957776727,-630.8436523158298
104972,10956,104972,8981,104972.0,32179.0,-786.0935113138016,-325.8343706131502,-640.2592252559082
104972,10948,104972,9007,104972.0,32154.0,-796.8607473791956,-330.7048767918625,-649.7456101871676
104982,10919,104982,8976,104982.0,32122.0,-807.6735656060355,-335.6068714378014,-659.305118766769
104982,10923,104982,8939,104982.0,32123.0,-818.5311730725443,-340.5402360993022,-668.9393508786297
104982,10900,104982,8957,104982.0,32109.0,-829.4358066295058,-345.50465027642315,-678.6494769425688
104982,10926,104982,8943,104982.0,32081.0,-840.3927110724487,-350.499955591874,-688.4363783880053
104982,11053,104982,8878,104982.0,32050.0,-851.4096181403088,-355.52637740136936,-698.3008344599464
104982,11118,104982,8890,104982.0,32031.0,-862.4950887170592,-360.5849579945842,-708.2439313912055
104993,11111,104993,8922,104993.0,32037.0,-873.6559325297869,-365.67809209399024,-718.2675016605922
104993,11073,104993,8960,104993.0,32046.0,-884.8951075385016,-370.80943000642264,-728.3742593869745
104993,10994,104993,8961,104993.0,32071.0,-896.211122829387,-375.9830431202788,-738.5674820470335
104993,10901,104993,8979,104993.0,32041.0,-907.5988842185952,-381.2024628036519,-748.8504084281931
104993,10804,104993,8932,104993.0,32055.0,-919.0515535802149,-386.47007220623595,-759.2257210376499
104993,10804,104993,8925,104993.0,32039.0,-930.5628068317521,-391.7870228767649,-769.6952626281513
105002,10782,105002,8920,105002.0,32005.0,-942.1285942654833,-397.1535486283193,-780.2599078369794
105002,10752,105002,8905,105002.0,31978.0,-953.7479764046957,-402.56928805952816,-790.9196829740245
105002,10757,105002,8897,105002.0,31975.0,-965.4234422708394,-408.03345584768476,-801.674150121351
105002,10813,105002,8818,105002.0,31931.0,-977.1609185322661,-413.545123881873,-812.522798529912
105002,10986,105002,8850,105002.0,31919.0,-988.968811754236,-419.1038429605039,-823.465388684145
105002,10998,105002,8885,105002.0,31939.0,-1000.8555412251703,-424.71018414429614,-834.5022591670418
105013,10949,105013,8878,105013.0,31928.0,-1012.8265921957529,-430.36555218679564,-845.6343292024023
105013,10901,105013,8878,105013.0,31930.0,-1024.8829632590296,-436.07153208595946,-856.8627584158526
105013,10803,105013,8885,105013.0,31911.0,-1037.0215116249085,-441.8294244030716,-868.188593656741
105013,10687,105013,8879,105013.0,31935.0,-1049.2365446223723,-447.6399976382967,-879.6125242741814
105013,10670,105013,8852,105013.0,31899.0,-1061.5220767062376,-453.503330132733,-891.1346203502894
105013,10651,105013,8822,105013.0,31879.0,-1073.8739082355426,-459.4189134905839,-902.7541429182743
105023,10618,105023,8860,105023.0,31863.0,-1086.2907915830062,-465.3859871629446,-914.4696366339365
105023,10639,105023,8799,105023.0,31846.0,-1098.7748587346496,-471.4037541047203,-926.2791936219089
105023,10629,105023,8833,105023.0,31800.0,-1111.3316584934385,-477.47144514773856,-938.180724622136
105023,10773,105023,8780,105023.0,31774.0,-1123.969592755637,-483.5884466284689,-950.1723690371075
105023,10839,105023,8770,105023.0,31775.0,-1136.698229577091,-489.7545540291452,-962.2530378723297
105023,10856,105023,8779,105023.0,31764.0,-1149.5256162340113,-495.9703253409517,-974.4227536890794
105033,10798,105033,8816,105033.0,31781.0,-1162.455901351095,-502.2372123824514,-986.6825973735217
105033,10709,105033,8813,105033.0,31789.0,-1175.488538787528,-508.55714221411506,-999.0343305304689
105033,10614,105033,8835,105033.0,31799.0,-1188.6192168454209,-514.9317894304696,-1011.4797865656103
105033,10543,105033,8820,105033.0,31814.0,-1201.841867245062,-521.3619399734383,-1024.0201396911896
105033,10523,105033,8786,105033.0,31770.0,-1215.1508493816657,-527.8471548654073,-1036.6552420379048
105033,10499,105033,8760,105033.0,31755.0,-1228.542547091549,-534.3858977628681,-1049.383318237415
105044,10485,105044,8752,105044.0,31693.0,-1242.0161736933712,-540.9760393244642,-1062.2011895020632
105044,10490,105044,8736,105044.0,31696.0,-1255.5740424216333,-547.6153620271117,-1075.104859290307
105044,10539,105044,8745,105044.0,31662.0,-1269.2213994140486,-554.3018327659223,-1088.0901004340933
105044,10677,105044,8717,105044.0,31640.0,-1282.9654144426254,-561.0336817565126,-1101.1528475507932
105044,10701,105044,8734,105044.0,31659.0,-1296.8129710420476,-567.8094132746754,-1114.289425227607
105044,10664,105044,8737,105044.0,31618.0,-1310.7680248488102,-574.627742220225,-1127.4965858000855
105054,10614,105054,8735,105054.0,31656.0,-1324.8300538220903,-581.4873553699986,-1140.7713507737842
105054,10497,105054,8718,105054.0,31626.0,-1338.9942296174816,-588.3866228358881,-1154.1107207570028
105054,10396,105054,8746,105054.0,31617.0,-1353.2529782428105,-595.3234216719939,-1167.5113349555015
105054,10393,105054,8720,105054.0,31609.0,-1367.5982521887622,-602.2949543124275,-1180.9692644904824
105054,10343,105054,8715,105054.0,31593.0,-1382.0234760852552,-609.2975457224553,-1194.4799477482436
105054,10331,105054,8697,105054.0,31585.0,-1396.5246095963994,-616.3266176803667,-1208.0381282557987
105064,10326,105064,8679,105064.0,31568.0,-1411.100631307328,-623.3768585233778,-1221.6377911851696
105064,10356,105064,8655,105064.0,31524.0,-1425.7536137190443,-630.4425014843913,-1235.272191749266
105064,10456,105064,8637,105064.0,31522.0,-1440.4880736873745,-637.517701669069,-1248.9340768701088
105064,10547,105064,8662,105064.0,31496.0,-1455.3092137477029,-644.5968762662245,-1262.6159991503039
105064,10524,105064,8630,105064.0,31503.0,-1470.220317290949,-651.6747875920677,-1276.310484581714
105064,10499,105064,8637,105064.0,31474.0,-1485.22054002008,-658.7464500962798,-1290.0100117330953
105075,10418,105075,8666,105075.0,31498.0,-1500.3041438729113,-665.8070092317475,-1303.7068836082224
105075,10316,105075,8700,105075.0,31510.0,-1515.4611896421536,-672.8513333176887,-1317.3929134966734
105075,10212,105075,8646,105075.0,31476.0,-1530.6793282495917,-679.8732760625181,-1331.0588825747823
105075,10215,105075,8630,105075.0,31463.0,-1545.9461020711258,-686.8652575098859,-1344.694117608376
105075,10179,105075,8607,105075.0,31444.0,-1561.2507650619589,-693.8185359753935,-1358.2864602397353
105075,10165,105075,8625,105075.0,31422.0,-1576.5851323209858,-700.723695644929,-1371.8224339300853
105085,10183,105085,8590,105085.0,31406.0,-1591.94379738829,-707.5708664449095,-1385.2874207448078
105085,10213,105085,8588,105085.0,31395.0,-1607.3238976479797,-714.3497898132807,-1398.6658241310802
105085,10365,105085,8570,105085.0,31342.0,-1622.7240475601068,-721.049977581736,-1411.9412424435434
105085,10394,105085,8559,105085.0,31340.0,-1638.142083660794,-727.660933943279,-1425.0967791903686
105085,10352,105085,8573,105085.0,31360.0,-1653.5723054246275,-734.1723072768017,-1438.1153569616574
105085,10300,105085,8596,105085.0,31341.0,-1669.0037926171026,-740.5738021749671,-1450.9796470315075
105095,10206,105095,8581,105095.0,31349.0,-1684.4204995510795,-746.8547710638942,-1463.6716698281339
105095,10069,105095,8626,105095.0,31341.0,-1699.8027218593363,-753.0036699115452,-1476.1724068218764
105095,10052,105095,8586,105095.0,31335.0,-1715.1294040456148,-759.007542298262,-1488.461487154544
105095,10039,105095,8537,105095.0,31318.0,-1730.3803514407368,-764.8517750758833,-1500.5169415361086
105095,10024,105095,8560,105095.0,31301.0,-1745.537392022233,-770.5204093572094,-1512.3151029968333
105095,10004,105095,8535,105095.0,31279.0,-1760.5846344395309,-775.996647084557,-1523.8306754446448
105106,10040,105106,8526,105106.0,31278.0,-1775.5084056557546,-781.2630902576677,-1535.0368938920824
105106,10138,105106,8509,105106.0,31227.0,-1790.29668254117,-786.3018914465977,-1545.9057083631749
105106,10223,105106,8486,105106.0,31211.0,-1804.937416830401,-791.0950367338754,-1556.408097576113
105106,10222,105106,8504,105106.0,31193.0,-1819.4159481353415,-795.6246665448217,-1566.5145618733598
105106,10168,105106,8493,105106.0,31210.0,-1833.7127682365515,-799.8732366207837,-1576.1955109883213
105106,10115,105106,8524,105106.0,31212.0,-1847.8027421058084,-803.8234043594767,-1585.4212541598838
105116,10004,105116,8524,105116.0,31247.0,-1861.6558105883232,-807.4576795422382,-1594.1615793865744
105116,9913,105116,8528,105116.0,31201.0,-1875.2387202134332,-810.7579695318681,-1602.3851474189105
105116,9901,105116,8505,105116.0,31174.0,-1888.5172427736034,-813.7052522401053,-1610.0591689525884
105116,9897,105116,8479,105116.0,31182.0,-1901.4579730217877,-816.2796020863418,-1617.1496210283453
105116,9872,105116,8506,105116.0,31158.0,-1914.0291105969288,-818.4605027802323,-1623.6216212157428
105116,9846,105116,8445,105116.0,31153.0,-1926.2006481761678,-820.2271682965867,-1629.439626764388
105126,9930,105126,8442,105126.0,31120.0,-1937.9443878098873,-821.5589071039179,-1634.567623767777
105126,10052,105126,8463,105126.0,31081.0,-1949.2331691804732,-822.4356274507976,-1638.9695341410338
105126,10083,105126,8436,105126.0,31108.0,-1960.0387035983656,-822.8381605784816,-1642.6098112153747
105126,10055,105126,8465,105126.0,31100.0,-1970.3289293626738,-822.7482912006632,-1645.4538567923482
105126,10000,105126,8473,105126.0,31119.0,-1980.0664901932405,-822.1486638369705,-1647.4679956956174
105126,9892,105126,8491,105126.0,31119.0,-1989.208932764431,-821.022514998091,-1648.619199167578
105137,9770,105137,8459,105137.0,31128.0,-1997.710369558983,-819.3533410677942,-1648.874792953546
105137,9752,105137,8446,105137.0,31094.0,-2005.5240457986463,-817.1248849089664,-1648.2022907816308
105137,9736,105137,8456,105137.0,31097.0,-2012.6047352841078,-814.3215085094097,-1646.5695202408947
105137,9730,105137,8451,105137.0,31079.0,-2018.9100802355465,-810.9285818489751,-1643.9450097264103
105137,9731,105137,8446,105137.0,31052.0,-2024.4010222814575,-806.9326800455453,-1640.2984755886328
105137,9750,105137,8442,105137.0,31082.0,-2029.0418177182262,-802.3217551928357,-1635.6013416901874
105147,9864,105147,8455,105147.0,31044.0,-2032.7995715207612,-797.0853602214822,-1629.827172941709
105147,9964,105147,8440,105147.0,31034.0,-2035.6427630803746,-791.2148300545675,-1622.952060159388
105147,9971,105147,8429,105147.0,31071.0,-2037.5387890411723,-784.7034871738249,-1614.9551007746713
105147,9926,105147,8459,105147.0,31056.0,-2038.4517587520595,-777.5469528205635,-1605.8187353394342
105147,9842,105147,8493,105147.0,31076.0,-2038.3418709726704,-769.7432827463512,-1595.5288109784947
105147,9768,105147,8543,105147.0,31161.0,-2037.1665308518277,-761.2925856457421,-1584.0744613975016
105157,9676,105157,8505,105157.0,31128.0,-2034.8825386007347,-752.1963226616327,-1571.4476379599782
105157,9680,105157,8544,105157.0,31182.0,-2031.4485639814216,-742.4568748435369,-1557.6424905133244
105157,9682,105157,8509,105157.0,31125.0,-2026.8271005087,-732.0775889820267,-1542.655142607728
105157,9676,105157,8502,105157.0,31145.0,-2020.9854493835298,-721.0631317488686,-1526.4840150996292
105157,9684,105157,8521,105157.0,31164.0,-2013.8960621931813,-709.4200386997104,-1509.1304493416117
105157,9745,105157,8530,105157.0,31170.0,-2005.5366218608367,-697.1571969199364,-1490.5991908530386
105168,9932,105168,8544,105168.0,31163.0,-1995.8893790669806,-684.286026342968,-1470.8986565163818
105168,9975,105168,8565,105168.0,31205.0,-1984.9390608608708,-670.820480870764,-1450.0412563142927
105168,9947,105168,8598,105168.0,31236.0,-1972.6701433352005,-656.7769559441803,-1428.043643856773
105168,9940,105168,8620,105168.0,31286.0,-1959.0653203505863,-642.1740353288228,-1404.926591733717
105168,9870,105168,8658,105168.0,31326.0,-1944.1057455890982,-627.0321008722076,-1380.714533649915
105168,9775,105168,8680,105168.0,31354.0,-1927.7724899474138,-611.3728855830412,-1355.435007423454
105178,9772,105178,8698,105178.0,31401.0,-1910.0487979694915,-595.219052349778,-1329.1181822187145
105178,9774,105178,8706,105178.0,31414.0,-1890.9224052394961,-578.5939291403564,-1301.7965237663104
105178,9790,105178,8698,105178.0,31461.0,-1870.387045019801,-561.521519350036,-1273.5045864762797
105178,9836,105178,8713,105178.0,31496.0,-1848.443071649293,-544.0267966583441,-1244.2788706817348
105178,9863,105178,8762,105178.0,31520.0,-1825.0975287305328,-526.1360427903371,-1214.1576548496125
105178,9997,105178,8751,105178.0,31518.0,-1800.363712681341,-507.8769157157012,-1183.1809391872544
105188,10152,105188,8780,105188.0,31537.0,-1774.2598327558271,-489.2783688536423,-1151.3907483177773
105188,10194,105188,8787,105188.0,31595.0,-1746.8065687985309,-470.370709776777,-1118.831641965994
105188,10193,105188,8834,105188.0,31660.0,-1718.024592668556,-451.1856983118843,-1085.5509000477932
105188,10165,105188,8897,105188.0,31702.0,-1687.933521908095,-431.7563633072825,-1051.5981317974768
105188,10104,105188,8935,105188.0,31770.0,-1656.5525964113262,-412.1163609769959,-1017.024598817366
105188,10070,105188,8955,105188.0,31831.0,-1623.902514853117,-392.29910648625184,-981.8825074604581
105199,10121,105199,8945,105199.0,31828.0,-1590.0076288332236,-372.337211958009,-946.2243640073134
105199,10130,105199,8963,105199.0,31874.0,-1554.897569192777,-352.2625050489462,-910.1026884372114
105199,10172,105199,8985,105199.0,31906.0,-1518.6080021512098,-332.10637812083934,-873.5701579468459
105199,10214,105199,9012,105199.0,31954.0,-1481.1809250984334,-311.9000379436843,-836.6797838870492
105199,10323,105199,9036,105199.0,31975.0,-1442.6646324179906,-291.67450920099026,-799.4849301762561
105199,10535,105199,9021,105199.0,31997.0,-1403.1127853631338,-271.46059315472803,-762.0393799107629
105209,10628,105209,9060,105209.0,32071.0,-1362.58204410287,-251.2890212842974,-724.3975253388403
105209,10648,105209,9106,105209.0,32120.0,-1321.1290515011221,-231.19064504846142,-686.61436982282
105209,10653,105209,9144,105209.0,32178.0,-1278.8085456727042,-211.196249957874,-648.7451356291268
105209,10629,105209,9184,105209.0,32219.0,-1235.673323992604,-191.3359848649826,-610.84471861123
105209,10582,105209,9210,105209.0,32302.0,-1191.7755306181084,-171.63873129755848,-572.9671863243695
105209,10617,105209,9206,105209.0,32311.0,-1147.1686121311936,-152.13166887768392,-535.1652712525492
105219,10665,105219,9245,105219.0,32354.0,-1101.909152354696,-132.84016136516885,-497.4900031071782
105219,10717,105219,9246,105219.0,32388.0,-1056.0578661611255,-113.78783899882427,-459.990674790011
105219,10764,105219,9238,105219.0,32435.0,-1009.6798172021041,-94.99674881720199,-422.71495215935954
105219,10860,105219,9278,105219.0,32479.0,-962.8442764893404,-76.48764706572979,-385.7088629152456
105219,11012,105219,9263,105219.0,32498.0,-915.624090199473,-58.28033583139921,-349.0166994819274
105219,11215,105219,9283,105219.0,32537.0,-868.0939433054173,-40.39393192126988,-312.6810246221115
105230,11265,105230,9311,105230.0,32551.0,-820.3274661046096,-22.847124000487725,-276.74285726796916
105230,11303,105230,9352,105230.0,32619.0,-772.3944420335672,-5.658251420414729,-241.24190564199637
105230,11289,105230,9386,105230.0,32683.0,-724.3595573238617,11.154988123798262,-206.21655086999078
105230,11259,105230,9453,105230.0,32733.0,-676.2828906003216,27.57614603415277,-171.7033834963729
105230,11240,105230,9459,105230.0,32761.0,-628.2215514149171,43.590822469065415,-137.73654462443437
105230,11284,105230,9446,105230.0,32805.0,-580.2317432757864,59.187316737227036,-104.34728940876903
105240,11338,105240,9446,105240.0,32835.0,-532.3703973032232,74.35667557479934,-71.56382036529624
105240,11389,105240,9458,105240.0,32853.0,-484.69590718423035,89.09222670575616,-39.41125187262867
105240,11441,105240,9456,105240.0,32866.0,-437.26822866882355,103.38907557930571,-7.911747444706748
105240,11532,105240,9454,105240.0,32899.0,-390.1487140704817,117.2437152651201,22.915136642826837
105240,11760,105240,9466,105240.0,32911.0,-343.39933781949253,130.65363229888004,53.052061973413174
105240,11882,105240,9479,105240.0,32933.0,-297.0805420812435,143.61695312201624,82.48356861627906
105251,11916,105251,9504,105251.0,32973.0,-251.2481254385143,156.13227893555512,111.19577216513892
105251,11919,105251,9537,105251.0,33008.0,-205.9509920336077,168.19877379242052,139.17621102687576
105251,11903,105251,9571,105251.0,33082.0,-161.23082386120586,179.81651609299786,166.41401238488538
105251,11816,105251,9600,105251.0,33104.0,-117.12333666847621,190.9870588678114,192.90039747983747
105251,11854,105251,9579,105251.0,33116.0,-73.6604988324973,201.71396408858828,218.62923919110312
105251,11896,105251,9583,105251.0,33170.0,-30.872789207105825,212.00296085048143,243.59732209850006
105261,11925,105261,9563,105261.0,33151.0,11.20947649318714,221.86162612487595,267.8043558161751
105261,11976,105261,9580,105261.0,33182.0,52.555697147383626,231.298848962521,291.25284694016034
105261,12053,105261,9575,105261.0,33219.0,93.1349186849393,240.32437337344186,313.94784581582064
105261,12187,105261,9538,105261.0,33167.0,132.91628615604986,248.9484175818751,335.8966874515984
105261,12344,105261,9569,105261.0,33202.0,171.87049603469518,257.18116900261634,357.10854226783135
105261,12400,105261,9583,105261.0,33203.0,209.97220319164944,265.0323165147603,377.5936955072158
105271,12409,105271,9631,105271.0,33241.0,247.20233517577662,272.5110487379395,397.36299821770865
105271,12399,105271,9638,105271.0,33278.0,283.5490902531178,279.62653621307345,416.42775054643994
105271,12328,105271,9667,105271.0,33336.0,319.00734458824445,286.38855113135673,434.7999927156195
105271,12285,105271,9657,105271.0,33337.0,353.57683525668267,292.807940988308,452.4930920111685
105271,12314,105271,9688,105271.0,33327.0,387.25975473327776,298.89688501156184,469.5221902934121
105271,12347,105271,9647,105271.0,33357.0,420.0587728097332,304.6689694358637,485.90414125683014
105282,12371,105282,9635,105282.0,33351.0,451.97607885411344,310.1389759994506,501.657167656864
105282,12390,105282,9642,105282.0,33387.0,483.0130578206722,315.32233263495095,516.800614377021
105282,12480,105282,9654,105282.0,33373.0,513.170166878557,320.23459015392416,531.3548250871047
105282,12645,105282,9614,105282.0,33354.0,542.4474416482215,324.8911632331458,545.3409233129098
105282,12728,105282,9627,105282.0,33377.0,570.8462755668158,329.3070397448338,558.7803171573685
105282,12759,105282,9622,105282.0,33379.0,598.3719340541047,333.49633854009676,571.6941394908765
105292,12737,105292,9656,105292.0,33411.0,625.0353240725269,337.47204102583714,584.1029649371806
105292,12693,105292,9687,105292.0,33463.0,650.8531750044617,341.2461449999789,596.026902141246
105292,12601,105292,9720,105292.0,33476.0,675.8467418008436,344.83024032432365,607.4860647036203
105292,12565,105292,9681,105292.0,33449.0,700.0394589118889,348.2362045075665,618.5011044292771
105292,12606,105292,9677,105292.0,33456.0,723.4543619323372,351.47647141412676,629.0932537648152
105292,12622,105292,9695,105292.0,33460.0,746.1123548843229,354.5637695031181,639.2838909250031
105302,12643,105302,9654,105302.0,33487.0,768.0316016974739,357.510770368423,649.0941511719518
105302,12690,105302,9689,105302.0,33490.0,789.2274685175078,360.3298232377166,658.5448466469272
105302,12787,105302,9639,105302.0,33447.0,809.7128159157405,363.03266979387035,667.6564350421932
105302,12959,105302,9655,105302.0,33447.0,829.4991767848669,365.6300984514462,676.4486033714868
105302,12984,105302,9644,105302.0,33460.0,848.5990947153787,368.1315458104957,684.9395309462238
105302,12965,105302,9681,105302.0,33494.0,867.0285741691735,370.54484731710875,693.1454117393457
105313,12939,105313,9694,105313.0,33509.0,884.808106019851,372.87636550966374,701.0805310207647
105313,12846,105313,9683,105313.0,33580.0,901.9619502095427,375.1313761983847,708.7577581314176
105313,12808,105313,9724,105313.0,33590.0,918.516269845195,377.3144108361463,716.1893436258824
105313,12792,105313,9684,105313.0,33523.0,934.4968161863337,379.429469910486,723.3876439495266
105313,12798,105313,9711,105313.0,33563.0,949.9269671307607,381.4801072085569,730.365121613388
105313,12829,105313,9698,105313.0,33546.0,964.8265899249357,383.4693666126702,737.1337884383427
105323,12842,105323,9690,105323.0,33529.0,979.2116443944346,385.399670475701,743.7047471580777
105323,12882,105323,9702,105323.0,33546.0,993.094238697628,387.2726837658889,750.0878269558968
105323,13076,105323,9682,105323.0,33535.0,1006.4832605364993,389.0891498592266,756.2911992586507
105323,13156,105323,9708,105323.0,33527.0,1019.3862735109292,390.8487647121698,762.321076688519
105323,13140,105323,9726,105323.0,33570.0,1031.8123646295708,392.55019260331335,768.1814807510443
105323,13119,105323,9710,105323.0,33584.0,1043.7741375486332,394.19129023760445,773.874248057022
105333,13046,105333,9759,105333.0,33614.0,1055.2877988918785,395.7693996189357,779.3994267297192
105333,12942,105333,9776,105333.0,33661.0,1066.3717075855755,397.281719875986,784.7559091338721
105333,12933,105333,9733,105333.0,33618.0,1077.0440140606202,398.7257985972101,789.942088429651
105333,12942,105333,9751,105333.0,33610.0,1087.3203115796982,400.09973194754286,794.9561403112223
105333,12961,105333,9761,105333.0,33657.0,1097.2122644516198,401.4019886491951,799.7957822507053
105333,12965,105333,9722,105333.0,33613.0,1106.7272247977064,402.63126263331935,804.4580304059834
105344,13010,105344,9706,105344.0,33647.0,1115.8682830092323,403.7862532309608,808.9391525969602
105344,13103,105344,9719,105344.0,33639.0,1124.634694998609,404.8651564145413,813.2345847252257
105344,13256,105344,9688,105344.0,33636.0,1133.0232284949225,405.86517069727404,817.3388451661181
105344,13297,105344,9738,105344.0,33659.0,1141.0306651645328,406.78225250809203,821.2454857361265
105344,13268,105344,9778,105344.0,33663.0,1148.6564670113114,407.6112567264569,824.9470996545926
105344,13203,105344,9769,105344.0,33697.0,1155.9040387524765,408.3465859531119,828.4355142052004
105354,13148,105354,9775,105354.0,33734.0,1162.7800964357148,408.98292167296336,831.7022290484094
105354,13069,105354,9779,105354.0,33733.0,1169.2928504986544,409.51556393446026,834.7390721141039
105354,13087,105354,9778,105354.0,33743.0,1175.4498914931278,409.94051327803936,837.5388183556586
105354,13097,105354,9782,105354.0,33728.0,1181.2565735628013,410.2545237444275,840.0954781866262
105354,13077,105354,9778,105354.0,33724.0,1186.7152880576687,410.4551372113908,842.4042457137948
105354,13096,105354,9759,105354.0,33731.0,1191.8252244114933,410.540642501197,844.4612749322644
105364,13127,105364,9749,105364.0,33726.0,1196.582249899206,410.5098682737812,846.2634823677752
105364,13327,105364,9740,105364.0,33705.0,1200.979454706856,410.36181786051736,847.8084005817616
105364,13366,105364,9742,105364.0,33693.0,1205.0091516878674,410.095310003847,849.093894439816
105364,13377,105364,9761,105364.0,33733.0,1208.6657562696448,409.70880160422996,850.1177948714294
105364,13357,105364,9776,105364.0,33744.0,1211.947826569311,409.2005038206412,850.8778589869237
105364,13277,105364,9804,105364.0,33773.0,1214.8584422471395,408.5687935975885,851.3722124507296
105375,13189,105375,9793,105375.0,33778.0,1217.4041649868511,407.8127668697957,851.5999847898365
105375,13164,105375,9797,105375.0,33770.0,1219.593037880965,406.932670407902,851.5618219929743
105375,13159,105375,9785,105375.0,33779.0,1221.4325018324867,405.93005043245665,851.2601327403784
105375,13137,105375,9771,105375.0,33751.0,1222.9280301367387,404.80766453215216,850.6990905027951
105375,13162,105375,9750,105375.0,33750.0,1224.082468886262,403.56921552625175,849.8844521454616
105375,13181,105375,9775,105375.0,33743.0,1224.8958401917562,402.21900230142796,848.8232536189287
105385,13263,105385,9734,105385.0,33702.0,1225.3657093190864,400.76167976170143,847.5234594583824
105385,13418,105385,9762,105385.0,33721.0,1225.4884941720386,399.2021257336168,845.993537540322
105385,13433,105385,9724,105385.0,33732.0,1225.2619053865324,397.54529325693244,844.242104554708
105385,13429,105385,9769,105385.0,33715.0,1224.6876104974142,395.7960966752484,842.2778989370154
105385,13355,105385,9773,105385.0,33740.0,1223.7726327667767,393.9595135023804,840.1099393250081
105385,13260,105385,9795,105385.0,33758.0,1222.5289361770924,392.0410071373102,837.7477326689018
105395,13178,105395,9764,105395.0,33755.0,1220.9715909941083,390.04703146369496,835.2016571716754
105395,13174,105395,9776,105395.0,33768.0,1219.1163533109698,387.9852508595864,832.483412491566
105395,13165,105395,9746,105395.0,33744.0,1216.977722596041,385.8644450502183,829.6063041398767
105395,13140,105395,9723,105395.0,33722.0,1214.5679462681926,383.69421998037296,826.5852483655531
105395,13164,105395,9728,105395.0,33720.0,1211.8966005116356,381.48456490174385,823.4364768608697
105395,13194,105395,9734,105395.0,33666.0,1208.9705121941342,379.2454719085361,820.17706021071
105406,13352,105406,9693,105406.0,33645.0,1205.794452631688,376.98678152493113,816.8242657593445
105406,13407,105406,9683,105406.0,33658.0,1202.3731048488314,374.7179646346141,813.3947898285523
105406,13393,105406,9710,105406.0,33666.0,1198.7137678698207,372.4477250870496,809.9042786017742
105406,13358,105406,9718,105406.0,33654.0,1194.8282659048525,370.1838618246966,806.367345584682
105406,13292,105406,9726,105406.0,33705.0,1190.7332203062492,367.9335825042317,802.7978382456835
105406,13207,105406,9801,105406.0,33705.0,1186.4490178212818,365.7040841979018,799.2092987207508
105416,13129,105416,9718,105416.0,33702.0,1181.9979603115862,363.5032774871715,795.6155999152286
105416,13115,105416,9699,105416.0,33678.0,1177.4020830242096,361.34013563654923,792.0313659811213
105416,13095,105416,9687,105416.0,33633.0,1172.6813530736238,359.2241990873869,788.4718589942269
105416,13100,105416,9723,105416.0,33651.0,1167.8526704069304,357.1648663852854,784.9524406411105
105416,13114,105416,9703,105416.0,33659.0,1162.929553249546,355.1712422753065,781.4880920974197
105416,13183,105416,9676,105416.0,33612.0,1157.9223961880648,353.2522856534768,778.0932931413236
105426,13341,105426,9657,105426.0,33594.0,1152.8396566224822,351.4166378248768,774.7818593274341
105426,13336,105426,9606,105426.0,33608.0,1147.6902262446697,349.6720073356975,771.5664554618171
105426,13307,105426,9687,105426.0,33642.0,1142.4859814525676,348.02448751888477,768.458292889803
105426,13255,105426,9708,105426.0,33622.0,1137.2429480504231,346.47848040865017,765.4673886254526
105426,13169,105426,9718,105426.0,33652.0,1131.980782349422,345.0374696727184,762.603045974864
105426,13077,105426,9684,105426.0,33654.0,1126.721163129065,343.7048875665668,759.8742507433863
105437,13065,105437,9695,105437.0,33639.0,1121.4856503692467,342.4843614160444,757.2900130762499
105437,13065,105437,9676,105437.0,33624.0,1116.2938215927743,341.37951557604543,754.8595230966903
105437,13021,105437,9651,105437.0,33601.0,1111.162270002506,340.3936828995521,752.5919541049772
105437,13034,105437,9647,105437.0,33620.0,1106.1041420284673,339.52951751006276,750.4960870838462
105437,13057,105437,9669,105437.0,33590.0,1101.1288798458645,338.78860186661046,748.5800395391534
105437,13205,105437,9658,105437.0,33523.0,1096.2426561567395,338.1713394555393,746.8509628089054
105447,13273,105447,9653,105447.0,33583.0,1091.4501505329242,337.6770622303894,745.3144202180275
105447,13262,105447,9682,105447.0,33564.0,1086.7572299733854,337.30410387000666,743.9738667889497
105447,13217,105447,9690,105447.0,33596.0,1082.172979278486,337.04996029794535,742.8307301921539
105447,13135,105447,9706,105447.0,33624.0,1077.71002464671,336.9116872690189,741.8848843829959
105447,13057,105447,9737,105447.0,33652.0,1073.383348518799,336.8864217705735,741.1353215967268
105447,12987,105447,9693,105447.0,33630.0,1069.2082651269277,336.9718654295755,740.5809215105731
105457,12981,105457,9652,105457.0,33578.0,1065.198266617716,337.1663677677886,740.2208197631606
105457,12961,105457,9709,105457.0,33603.0,1061.3634091351837,337.46845557706644,740.0540682595579
105457,12982,105457,9658,105457.0,33601.0,1057.709513677798,337.8763933263342,740.0790891748875
105457,12987,105457,9664,105457.0,33588.0,1054.2380255929747,338.3880438080071,740.2934731441724
105457,13064,105457,9656,105457.0,33575.0,1050.946398959545,339.00064660259966,740.693917299552
105457,13212,105457,9641,105457.0,33562.0,1047.8293113854552,339.71048205535885,741.2759612289099
105468,13237,105468,9660,105468.0,33587.0,1044.8810270059341,340.51261715924204,742.0336504849362
105468,13197,105468,9684,105468.0,33594.0,1042.0980396484747,341.40085084380337,742.9594434928877
105468,13150,105468,9713,105468.0,33631.0,1039.4803975828904,342.36803489302133,744.0444895453893
105468,13058,105468,9697,105468.0,33632.0,1037.031234379128,343.4066634316126,745.2791607499593
105468,12965,105468,9732,105468.0,33656.0,1034.7550684692656,344.50936895905,746.6536297662506
105468,12987,105468,9698,105468.0,33626.0,1032.655587731409,345.66919362571093,748.1582892420782
105478,12962,105478,9717,105478.0,33642.0,1030.7338741738345,346.87967241221895,749.7838716010037
105478,12954,105478,9700,105478.0,33630.0,1028.987574555118,348.13475474412655,751.5213382969171
105478,12960,105478,9687,105478.0,33613.0,1027.4105899179267,349.4286295112499,753.3616966870443
105478,12998,105478,9665,105478.0,33609.0,1025.992996752348,350.755415240091,755.2957225585336
105478,13123,105478,9661,105478.0,33581.0,1024.7216107998343,352.10867716229393,757.313542059612
105478,13214,105478,9666,105478.0,33588.0,1023.5817179495859,353.4809575581363,759.4041482181328
105489,13212,105489,9683,105489.0,33602.0,1022.5596812133917,354.8635563643968,761.5550162954348
105489,13185,105489,9718,105489.0,33633.0,1021.6450966641465,356.24668169010823,763.7520652300743
105489,13108,105489,9764,105489.0,33666.0,1020.8314140400944,357.6200231358435,765.9800789054434
105489,13024,105489,9769,105489.0,33695.0,1020.115010199639,358.973665252415,768.2234682920043
105489,12959,105489,9726,105489.0,33678.0,1019.4932438405906,360.2988760063109,770.4670835313839
105489,12942,105489,9733,105489.0,33687.0,1018.9622181423312,361.5882363024543,772.6967081402643
105499,12955,105499,9713,105499.0,33666.0,1018.5150629577505,362.8352282196506,774.8991164179895
105499,12956,105499,9715,105499.0,33661.0,1018.1411556156029,364.0337861076955,777.0618564138845
105499,12969,105499,9713,105499.0,33658.0,1017.8260579609586,365.1779989687873,779.1729207820629
105499,13048,105499,9707,105499.0,33640.0,1017.551876541763,366.26192385023904,781.2204091413637
105499,13200,105499,9690,105499.0,33639.0,1017.2984126933327,367.2794213999082,783.192198524054
105499,13228,105499,9722,105499.0,33662.0,1017.0455260354346,368.2239672340634,785.0756688491981
105509,13210,105509,9719,105509.0,33690.0,1016.775845852506,369.08861740529056,786.8577246381567
105509,13182,105509,9739,105509.0,33693.0,1016.4763091401178,369.8662374620361,788.5252084944188
105509,13059,105509,9768,105509.0,33700.0,1016.1380118343319,370.54988806446624,790.065413327894
105509,12989,105509,9775,105509.0,33707.0,1015.7546549437158,371.133337025636,791.4664164938376
105509,12973,105509,9724,105509.0,33708.0,1015.3202031266392,371.61150371859554,792.7172625603255
105509,12973,105509,9741,105509.0,33695.0,1014.826868992023,371.98042725576454,793.8080557980832
105520,12977,105520,9745,105520.0,33675.0,1014.2641296235925,372.2368982407923,794.7298656078397
105520,12964,105520,9737,105520.0,33683.0,1013.6184821581348,372.3782763423295,795.4744188985437
105520,13006,105520,9726,105520.0,33688.0,1012.8734631916016,372.40248367770664,796.0338083887027
105520,13169,105520,9701,105520.0,33649.0,1012.0102198151513,372.3078361333705,796.4003486436118
105520,13225,105520,9696,105520.0,33684.0,1011.0093856218919,372.09264590951045,796.5664080915751
105520,13224,105520,9713,105520.0,33671.0,1009.8538595467035,371.7548159331395,796.5242476255974
105530,13193,105530,9742,105530.0,33690.0,1008.5308590392841,371.2917641588878,796.2660785286052
105530,13155,105530,9723,105530.0,33687.0,1007.032408253121,370.70075270326925,795.7842691414806
105530,13036,105530,9770,105530.0,33747.0,1005.3545692584253,369.97933047698575,795.0716580243679
105530,12971,105530,9768,105530.0,33687.0,1003.4956897487035,369.1257740452295,794.1220365874112
105530,12969,105530,9739,105530.0,33718.0,1001.4541207053319,368.13951869290577,792.9305039296275
105530,12953,105530,9729,105530.0,33676.0,999.2264078663702,367.02125595063296,791.4934269518574
105540,12966,105540,9709,105540.0,33702.0,996.8064731255486,365.7725781991722,789.8082163671808
105540,12968,105540,9725,105540.0,33672.0,994.185464216436,364.3955325780644,787.873155502542
105540,13030,105540,9694,105540.0,33656.0,991.3520097984708,362.8923533061003,785.6872313846541
105540,13195,105540,9672,105540.0,33631.0,988.2932485400391,361.2652306918876,783.2497921054385
105540,13199,105540,9695,105540.0,33649.0,984.9970716924436,359.51594879795357,780.5600810967153
105540,13190,105540,9719,105540.0,33669.0,981.4547579100185,357.6456952482371,777.6170227270643
105551,13135,105551,9708,105551.0,33653.0,977.6624181283714,355.6553365605978,774.4194373334192
105551,13045,105551,9743,105551.0,33695.0,973.6207529273063,353.5459019505441,770.9664448971018
105551,12955,105551,9731,105551.0,33688.0,969.3335454606998,351.3190226066636,767.2579137116677
105551,12922,105551,9714,105551.0,33668.0,964.8054545667457,348.97726163816407,763.2949115649653
105551,12915,105551,9676,105551.0,33634.0,960.0399538781062,346.5240958386889,759.079833614761
105551,12924,105551,9671,105551.0,33642.0,955.0381433223117,343.9634500215242,754.6160733556457
105561,12903,105561,9679,105561.0,33632.0,949.7984147041185,341.2991379685167,749.9076312257682
105561,12923,105561,9651,105561.0,33604.0,944.3164856490214,338.53455997460105,744.9589197825328
105561,13058,105561,9651,105561.0,33579.0,938.5858242184069,335.67255163600373,739.7745305698236
105561,13162,105561,9681,105561.0,33592.0,932.5992373808959,332.71525830407916,734.3588309955448
105561,13137,105561,9630,105561.0,33590.0,926.3516235237523,329.6641666549234,728.7157007024553
105561,13089,105561,9684,105561.0,33592.0,919.8422803466245,326.52021437954215,722.8486116875672
105571,13032,105571,9685,105571.0,33590.0,913.0754326192475,323.28396175420374,716.7608719321579
105571,12928,105571,9743,105571.0,33637.0,906.05921456481,319.95613265987737,710.4559474287406
105571,12876,105571,9685,105571.0,33616.0,898.8038292086455,316.53842788528425,703.9380041503958
105571,12849,105571,9672,105571.0,33563.0,891.3194976386135,313.0339691620633,697.2124128294123
105571,12815,105571,9654,105571.0,33577.0,883.6148373680026,309.4470460289997,690.2857003561162
105571,12816,105571,9637,105571.0,33560.0,875.6958921013869,305.7825499310365,683.1651479695773
105582,12807,105582,9639,105582.0,33560.0,867.5656547889505,302.04552647123074,675.8585965995859
105582,12881,105582,9615,105582.0,33521.0,859.2241040159847,298.24089423240684,668.3744186511918
105582,13026,105582,9619,105582.0,33480.0,850.669210984625,294.37324096583114,660.7212674255861
105582,13023,105582,9606,105582.0,33490.0,841.8992266964128,290.44665449213363,652.9075209365383
105582,13029,105582,9616,105582.0,33489.0,832.91531036351,286.46463268922423,644.9408164951736
105582,12956,105582,9625,105582.0,33502.0,823.723023780471,282.43014731223695,636.828054229789
105592,12877,105592,9636,105592.0,33525.0,814.3322362589685,278.345904027998,628.5758146514836
105592,12766,105592,9646,105592.0,33505.0,804.7557374287827,274.2147580884611,620.1909593311844
105592,12743,105592,9591,105592.0,33505.0,795.0070817443948,270.04005484557047,611.6811412632233
105592,12712,105592,9613,105592.0,33463.0,785.0985385551364,265.8256035952084,603.0549838623596
105592,12707,105592,9583,105592.0,33445.0,775.0398333658229,261.57537773164114,594.3218878671642
105592,12698,105592,9592,105592.0,33432.0,764.8376475290082,257.2932810750036,585.4916115783553
105602,12718,105602,9578,105602.0,33427.0,754.49557857479,252.98304500435395,576.5739034032702
105602,12814,105602,9559,105602.0,33383.0,744.0146398840866,248.64813889566832,567.5782936504692
105602,12915,105602,9543,105602.0,33373.0,733.3947630059655,244.2915783931629,558.5138287237285
105602,12893,105602,9565,105602.0,33346.0,722.6372458952794,239.9156678302049,549.388650271179
105602,12853,105602,9570,105602.0,33375.0,711.746908523779,235.52196609481067,540.2096658928186
105602,12779,105602,9611,105602.0,33391.0,700.7327395391289,231.1116640688344,530.9826389858882
105613,12679,105613,9615,105613.0,33410.0,689.6070155888912,226.68628656389916,521.7127926145738
105613,12609,105613,9566,105613.0,33388.0,678.3834677613512,222.24836455481756,512.4056175786047
105613,12569,105613,9536,105613.0,33344.0,667.0751281913734,217.80152517808028,503.0673502386448
105613,12571,105613,9546,105613.0,33349.0,655.692593046397,213.3499467944747,493.7048730185217
105613,12555,105613,9524,105613.0,33348.0,644.2431467102433,208.89780028291264,484.3254077193013
105613,12578,105613,9528,105613.0,33320.0,632.7306355289095,204.44901642009376,474.93644056844596
105623,12595,105623,9504,105623.0,33269.0,621.1558298235649,200.007180890608,465.5456622326063
105623,12785,105623,9504,105623.0,33256.0,609.5175027155226,195.57538883316073,456.1605218568734
105623,12795,105623,9492,105623.0,33262.0,597.8147539040256,191.15607499764275,446.7876174934497
105623,12754,105623,9492,105623.0,33269.0,586.0499065261199,186.75088822011344,437.43246301462636
105623,12683,105623,9519,105623.0,33242.0,574.2301355074992,182.36070929907103,428.09968593757674
105623,12586,105623,9535,105623.0,33259.0,562.3670765053678,177.9859619721335,418.7932815913892
105633,12472,105633,9530,105633.0,33255.0,550.475050656744,173.62719267375215,409.5168141898804
105633,12444,105633,9480,105633.0,33267.0,538.5686656931664,169.2854981192795,400.2737407369909
105633,12429,105633,9510,105633.0,33231.0,526.6606631858291,164.96246070728833,391.0677989540384
105633,12406,105633,9482,105633.0,33194.0,514.7607096570882,160.65987502279114,381.9031171019988
105633,12393,105633,9478,105633.0,33192.0,502.87496319446836,156.3796175175683,372.7838897481862
105633,12415,105633,9479,105633.0,33190.0,491.0059740902066,152.12357229103947,363.71396742303386
105644,12529,105644,9425,105644.0,33146.0,479.15313786493937,147.89346922778202,354.696679780233
105644,12626,105644,9446,105644.0,33136.0,467.3143481670413,143.69056562604487,345.7346675043572
105644,12599,105644,9445,105644.0,33137.0,455.4886815693899,139.51531090053643,336.8295710806248
105644,12576,105644,9451,105644.0,33138.0,443.6786956685866,135.36732216276857,327.98187989864215
105644,12491,105644,9459,105644.0,33165.0,431.8911768462532,131.24564840264654,319.1911561494297
105644,12390,105644,9500,105644.0,33169.0,420.1363639018821,127.14917554767771,310.4565788532358
105654,12291,105654,9473,105654.0,33154.0,408.42607434769656,123.07719670710026,301.7775995792151
105654,12294,105654,9434,105654.0,33142.0,396.77136445599996,119.02983799971392,293.1543800064321
105654,12269,105654,9458,105654.0,33120.0,385.1807264672655,115.00795952378493,284.58786765099376
105654,12257,105654,9464,105654.0,33125.0,373.65930629144145,111.01289977910619,276.07967974099654
105654,12251,105654,9392,105654.0,33073.0,362.20872657710515,107.04644599600394,267.63195305631376
105654,12301,105654,9386,105654.0,33057.0,350.8272073779908,103.1105729700098,259.2470564716106
105664,12470,105664,9417,105664.0,33053.0,339.51050040279733,99.20682487755283,250.92712363710302
105664,12481,105664,9406,105664.0,33030.0,328.2542197135416,95.33604426597469,242.67367285404896
105664,12443,105664,9382,105664.0,33025.0,317.0567028232275,91.49855947452463,234.48742942969926
105664,12386,105664,9411,105664.0,33020.0,305.92059309398394,87.69429619684396,226.36823106434065
105664,12294,105664,9439,105664.0,33029.0,294.85256265698183,83.92289209549901,218.31504862440386
105664,12149,105664,9409,105664.0,33060.0,283.86169586085134,80.18413826014,210.32627003401024
105675,12141,105675,9398,105675.0,33044.0,272.9570410042742,76.47837919839407,202.40027159493405
105675,12140,105675,9384,105675.0,33000.0,262.14531766144955,72.8064544754354,194.53593072172487
105675,12120,105675,9367,105675.0,33011.0,251.42980333441892,69.16936817123249,186.73265717912722
105675,12115,105675,9357,105675.0,32989.0,240.81018066869706,65.56794718983153,178.99012498784384
105675,12123,105675,9381,105675.0,32997.0,230.2826327809962,62.00260171968614,171.3081421389045
105675,12243,105675,9344,105675.0,32933.0,219.840310149566,58.47329102939139,163.6866034863047
105685,12348,105685,9353,105685.0,32942.0,209.4749118782919,54.97955090172837,156.12521517129022
105685,12334,105685,9359,105685.0,32930.0,199.1793977162498,51.52043497503172,148.62306748392012
105685,12285,105685,9341,105685.0,32943.0,188.95041446123048,48.09451571298524,141.17845079720894
105685,12215,105685,9354,105685.0,32940.0,178.7890547424298,44.699965268989786,133.78902995438364
105685,12114,105685,9408,105685.0,32985.0,168.69996244043227,41.33474664407936,126.45226585473563
105685,12028,105685,9393,105685.0,32963.0,158.68943635193966,37.99717220325749,119.16605394836654
105696,12019,105696,9379,105696.0,32929.0,148.76319170270745,34.686604974586544,111.9292984137245
105696,11983,105696,9335,105696.0,32900.0,138.9245766759475,31.40366328256124,104.74194043202658
105696,12008,105696,9304,105696.0,32900.0,129.1736849631892,28.149744574575323,97.60449320702298
105696,11969,105696,9321,105696.0,32878.0,119.50715579794098,24.92625495393287,90.51759370929074
105696,12023,105696,9299,105696.0,32862.0,109.9183194623372,21.73406447687472,83.48175528971501
105696,12194,105696,9280,105696.0,32827.0,100.39799192457929,18.573279242054582,76.49710662962184
105706,12218,105706,9296,105706.0,32866.0,90.9366513866903,15.443048951620256,69.56307856175044
105706,12181,105706,9296,105706.0,32852.0,81.5273433443806,12.34144232138783,62.67835445731248
105706,12147,105706,9328,105706.0,32842.0,72.1674465379632,9.265627141341156,55.84115502496957
105706,12042,105706,9345,105706.0,32850.0,62.858624069844836,6.212373257917534,49.04950745569147
105706,11917,105706,9336,105706.0,32868.0,53.60540296107922,3.1787105927356265,42.30144837103785
105706,11908,105706,9303,105706.0,32855.0,44.41286375331538,0.1623719524255307,35.595387286982714
105716,11895,105716,9322,105716.0,32828.0,35.284447846987064,-2.838226174706733,28.9304647040791
105716,11867,105716,9320,105716.0,32803.0,26.220803227564716,-5.824157160157881,22.306540599873983
105716,11872,105716,9249,105716.0,32777.0,17.21942361476124,-8.796083383778807,15.723795134948546
105716,11878,105716,9282,105716.0,32782.0,8.274575089577525,-11.754586533771828,9.182230970034425
105716,11998,105716,9280,105716.0,32749.0,-0.6222691390927366,-14.700629871467811,2.6813240849151043
105716,12104,105716,9249,105716.0,32751.0,-9.480852234704912,-17.63570115017535,-3.780191064449923
105727,12106,105727,9268,105727.0,32763.0,-18.309423348598898,-20.56181221838608,-10.204446554836068
105727,12055,105727,9270,105727.0,32773.0,-27.112222656541803,-23.48155358360566,-16.594310187285373
105727,11984,105727,9299,105727.0,32771.0,-35.888582233805096,-26.39793067236286,-22.95296844195127
105727,11873,105727,9335,105727.0,32793.0,-44.633784309434645,-29.31382790523344,-29.283431554910067
105727,11803,105727,9330,105727.0,32744.0,-53.34104349263009,-32.23120775609402,-35.58813061608214
105727,11783,105727,9305,105727.0,32765.0,-62.003811709496176,-35.15041303064697,-41.86875837819514
105737,11758,105737,9260,105737.0,32748.0,-70.6175560814736,-38.070058002326675,-48.12631322993025
105737,11736,105737,9250,105737.0,32700.0,-79.18071447217574,-40.98757113256835,-54.361190455731276
105737,11747,105737,9236,105737.0,32722.0,-87.69513441736899,-43.899950269420856,-60.57342193689078
105737,11791,105737,9212,105737.0,32668.0,-96.166082504982,-46.804347917171924,-66.76304606715439
105737,11962,105737,9204,105737.0,32666.0,-104.6013161999266,-49.69851095065502,-72.93046621974395
105737,11996,105737,9206,105737.0,32681.0,-113.00873227349996,-52.58115378528885,-79.07677347764673
105747,11962,105747,9203,105747.0,32675.0,-121.39338694394621,-55.45215579129615,-85.20381707569209
105747,11907,105747,9238,105747.0,32672.0,-129.7556785022697,-58.3124919254081,-91.31396585767527
105747,11819,105747,9254,105747.0,32684.0,-138.09144511085094,-61.16384194660202,-97.40982782432707
105747,11684,105747,9254,105747.0,32697.0,-146.39350826536202,-64.00794497436226,-103.49394591672433
105747,11653,105747,9243,105747.0,32670.0,-154.65409539703182,-66.84603932915354,-109.56840317645015
105747,11664,105747,9235,105747.0,32652.0,-162.86721698019483,-69.67865676194691,-115.63459422013727
105758,11651,105758,9209,105758.0,32640.0,-171.02993794199313,-72.50573056342773,-121.69335926711517
105758,11635,105758,9203,105758.0,32639.0,-179.1425941442875,-75.32689408957256,-127.74526009221313
105758,11651,105758,9194,105758.0,32639.0,-187.20871089850095,-78.14184018531216,-133.79070039100077
105758,11743,105758,9168,105758.0,32589.0,-195.23465588722308,-80.95063628133744,-139.82993910928758
105758,11865,105758,9183,105758.0,32571.0,-203.22830190239495,-83.75400528889239,-145.86333063783422
105758,11861,105758,9204,105758.0,32570.0,-211.19652720486215,-86.55345288872124,-151.8918485268731
105768,11829,105768,9186,105768.0,32578.0,-219.14274930357885,-89.35107119923686,-157.91746772595013
105768,11764,105768,9212,105768.0,32604.0,-227.06588630738577,-92.14919888928358,-163.94307342716115
105768,11650,105768,9211,105768.0,32630.0,-234.96098455655897,-94.95012183180208,-169.97191264207493
105768,11570,105768,9214,105768.0,32585.0,-242.82105722984772,-97.75575351786063,-176.00686365464503
105768,11543,105768,9188,105768.0,32594.0,-250.63946016848,-100.56739230141767,-182.0500069249283
105768,11535,105768,9194,105768.0,32575.0,-258.4118519447344,-103.3857294567315,-188.10264104347903
105778,11533,105778,9168,105778.0,32540.0,-266.13716970189057,-106.21103717811846,-194.16547654303827
105778,11519,105778,9147,105778.0,32506.0,-273.8178536202096,-109.04344340766829,-200.23900347803453
105778,11573,105778,9151,105778.0,32520.0,-281.4596984763234,-111.88330359766704,-206.32406512529576
105778,11707,105778,9107,105778.0,32517.0,-289.07105295232327,-114.7316005930517,-212.42225125653465
105778,11771,105778,9147,105778.0,32501.0,-296.66077357879976,-117.59028357442168,-218.53589643946748
105778,11732,105778,9173,105778.0,32510.0,-304.23545721777623,-120.46232544207373,-224.66794842438554
105789,11701,105789,9170,105789.0,32507.0,-311.7975566442103,-123.35126989991497,-230.82185629970638
105789,11615,105789,9169,105789.0,32515.0,-319.3451986467941,-126.26059599173425,-237.0013690459764
105789,11483,105789,9215,105789.0,32537.0,-326.8734192332879,-129.19326627703134,-243.2101856955606
105789,11449,105789,9166,105789.0,32497.0,-334.37638493621296,-132.15132497807912,-249.45152983860294
105789,11441,105789,9162,105789.0,32489.0,-341.84975646325086,-135.13564517164446,-255.72792561271865
105789,11436,105789,9139,105789.0,32488.0,-349.2921303789466,-138.1461184016415,-262.0413167379319
105799,11412,105799,9119,105799.0,32442.0,-356.70548001432394,-141.18211871537807,-268.39330388506687
105799,11427,105799,9111,105799.0,32467.0,-364.0952270419741,-144.24297601565195,-274.78538293905297
105799,11524,105799,9087,105799.0,32418.0,-371.4699861532098,-147.3284101737899,-281.21918208064244
105799,11631,105799,9103,105799.0,32409.0,-378.8403006816146,-150.43888139818478,-287.69670370836377
105799,11660,105799,9097,105799.0,32430.0,-386.2161827376483,-153.5757516305299,-294.22059543144394
105799,11618,105799,9129,105799.0,32416.0,-393.60456452217124,-156.74116588689787,-300.7942173414682
105809,11562,105809,9109,105809.0,32436.0,-401.0080528476485,-159.9377061191771,-307.4213840567545
105809,11428,105809,9144,105809.0,32450.0,-408.4254278337305,-163.16798954905266,-314.10594333385905
105809,11358,105809,9132,105809.0,32423.0,-415.85354570634547,-166.43428425215956,-320.8512943413307
105809,11338,105809,9134,105809.0,32416.0,-423.2898261128163,-169.73815203362466,-327.66006404173766
105809,11335,105809,9114,105809.0,32386.0,-430.7341826495946,-173.08025209316065,-334.53414395027744
105809,11326,105809,9089,105809.0,32393.0,-438.18986037713876,-176.4604309031592,-341.4749374331061
105820,11313,105820,9078,105820.0,32379.0,-445.6635891029425,-179.87807197016576,-348.4835483304445
105820,11356,105820,9079,105820.0,32351.0,-453.1654894486287,-183.33251727591062,-355.56086228982156
105820,11527,105820,9060,105820.0,32306.0,-460.70832877142084,-186.82334589977307,-362.70777576182684
105820,11573,105820,9044,105820.0,32333.0,-468.3053576205716,-190.35055840960553,-369.92567988506573
105820,11566,105820,9048,105820.0,32334.0,-475.9672646590586,-193.91481273948983,-377.21677424837185
105820,11497,105820,9068,105820.0,32324.0,-483.700052793915,-197.5175658451504,-384.5839028801388
105830,11393,105830,9100,105830.0,32336.0,-491.50488246160796,-201.16083374885102,-392.0301997646661
105830,11290,105830,9104,105830.0,32362.0,-499.3796289172092,-204.84654767095589,-399.5587239114866
105830,11265,105830,9064,105830.0,32308.0,-507.3213055363193,-208.57590891145213,-407.17201507886455
105830,11243,105830,9059,105830.0,32316.0,-515.328244173341,-212.34923823791024,-414.8718432622102
105830,11243,105830,9053,105830.0,32295.0,-523.4013202973657,-216.16627927053298,-422.6593259103121
105830,11242,105830,9013,105830.0,32276.0,-531.5443301994985,-220.02656527543502,-430.53513961286194
105840,11236,105840,9025,105840.0,32268.0,-539.7639350997368,-223.92977246901432,-438.4997027763462
105840,11302,105840,9019,105840.0,32246.0,-548.069325836099,-227.8760375831722,-446.5533798586124
105840,11450,105840,8998,105840.0,32245.0,-556.4711606907131,-231.86609601503523,-454.6966626262649
105840,11463,105840,9008,105840.0,32205.0,-564.9792782446196,-235.90134376444865,-462.9303344938759
105840,11412,105840,9009,105840.0,32197.0,-573.6000612200359,-239.9838878941199,-471.2557191140345
105840,11345,105840,9041,105840.0,32220.0,-582.3351772563349,-244.11638714457393,-479.6749362906028
105851,11247,105851,9002,105851.0,32218.0,-591.1822124809505,-248.30167252086113,-488.19083935445894
105851,11168,105851,9035,105851.0,32244.0,-600.1364996365181,-252.54242906696396,-496.8065388223997
105851,11145,105851,9025,105851.0,32219.0,-609.1933110975734,-256.8410095720387,-505.5247874806407
105851,11131,105851,9017,105851.0,32194.0,-618.3496296749719,-261.1992283479302,-514.3475748814842
105851,11104,105851,8980,105851.0,32187.0,-627.6050986659577,-265.61827868909677,-523.2761254484349
105851,11123,105851,8997,105851.0,32181.0,-636.9623799137466,-270.0989520444813,-532.3111018048777
105861,11134,105861,8976,105861.0,32158.0,-646.4271242794082,-274.64191803948677,-541.4527158011778
105861,11295,105861,8967,105861.0,32116.0,-656.0072286270936,-279.2478609248812,-550.7008544755837
105861,11357,105861,8945,105861.0,32106.0,-665.7108266836204,-283.9176262311783,-560.0554536682245
105861,11329,105861,8952,105861.0,32112.0,-675.5434101980188,-288.6524646242698,-569.5169432256876
105861,11266,105861,8987,105861.0,32100.0,-685.5057497423517,-293.45411996899,-579.086395479451
105861,11182,105861,8988,105861.0,32137.0,-695.5937280493764,-298.3244863360242,-588.7653021068735
105871,11068,105871,8998,105871.0,32121.0,-705.7997539802321,-303.26497151404305,-598.555082554683
105871,11005,105871,8962,105871.0,32091.0,-716.1150327496279,-308.2760061205946,-608.4565648074439
105871,11002,105871,8952,105871.0,32091.0,-726.5319033760125,-313.3569795697799,-618.469798684718
105871,10979,105871,8955,105871.0,32051.0,-737.0453936510162,-318.50649158105716,-628.5942036689069
105871,10959,105871,8929,105871.0,32073.0,-747.6538471471056,-323.7225934295197,-638.8287679433276
105871,10978,105871,8914,105871.0,32046.0,-758.3590979872279,-329.002964340013,-649.172112477381
105882,11052,105882,8888,105882.0,32010.0,-769.1662197380051,-334.345213314238,-659.6224768562618
105882,11202,105882,8884,105882.0,31988.0,-780.0822149546007,-339.74729836722855,-670.1779203389144
105882,11191,105882,8870,105882.0,31978.0,-791.1134226293564,-345.20788920611386,-680.8367624844225
105882,11172,105882,8894,105882.0,31968.0,-802.2627948491056,-350.7265317530323,-691.5979254458667
105882,11097,105882,8909,105882.0,31978.0,-813.5285764695755,-356.3034870600922,-702.4609918017826
105882,10986,105882,8928,105882.0,31984.0,-824.9047540253714,-361.939208207828,-713.4259799845752
105892,10896,105892,8922,105892.0,31984.0,-836.3828206179564,-367.63365553452087,-724.4928939885519
105892,10866,105892,8890,105892.0,31976.0,-847.9541527013466,-373.385812436483,-735.6612214045243
105892,10831,105892,8891,105892.0,31950.0,-859.6120579827927,-379.193632451306,-746.9295943031602
105892,10829,105892,8845,105892.0,31922.0,-871.3529685239023,-385.0543225445158,-758.2957506027127
105892,10818,105892,8847,105892.0,31930.0,-883.1769148299409,-390.9647683864898,-769.7567312091447
105892,10849,105892,8822,105892.0,31879.0,-895.0875036446898,-396.9219802816367,-781.3090883692325
105902,10997,105902,8816,105902.0,31853.0,-907.0911687502057,-402.92344854049,-792.9491336624723
105902,11051,105902,8829,105902.0,31836.0,-919.1951583875177,-408.9673395804427,-804.6733916846996
105902,11033,105902,8807,105902.0,31845.0,-931.4046841022671,-415.05249843089797,-816.4790268109381
105902,10987,105902,8818,105902.0,31844.0,-943.7208153884035,-421.1783366271821,-828.3638849492057
105902,10898,105902,8856,105902.0,31841.0,-956.1400832800316,-427.34462981745014,-840.326178709595
105902,10763,105902,8844,105902.0,31861.0,-968.6556350162184,-433.5510409484682,-852.3640326011033
105913,10725,105913,8844,105913.0,31845.0,-981.2594562091733,-439.7964985628094,-864.4749652235183
105913,10724,105913,8821,105913.0,31837.0,-993.9446933733304,-446.0788450881177,-876.6554016150166
105913,10707,105913,8793,105913.0,31767.0,-1006.7069882866465,-452.3948846763398,-888.9004991635297
105913,10672,105913,8779,105913.0,31756.0,-1019.5448345046609,-458.74072542989757,-901.204501714104
105913,10684,105913,8775,105913.0,31762.0,-1032.459680650096,-465.11220969548555,-913.5613407297376
105913,10752,105913,8758,105913.0,31715.0,-1045.4558108822805,-471.505205890164,-925.9649737102662
105923,10898,105923,8744,105923.0,31724.0,-1058.539219329808,-477.9157741322835,-938.4094782746192
105923,10903,105923,8734,105923.0,31704.0,-1071.7151120771377,-484.3403474679718,-950.8891368512614
105923,10867,105923,8752,105923.0,31696.0,-1084.9851354238506,-490.77587215445755,-963.3984453859414
105923,10788,105923,8776,105923.0,31697.0,-1098.345987707246,-497.21966224570724,-975.9320118496711
105923,10680,105923,8774,105923.0,31702.0,-1111.78991653724,-503.66887953897134,-988.4843487751403
105923,10586,105923,8756,105923.0,31716.0,-1125.306559191253,-510.11994860451483,-1001.0494669099701
105934,10564,105934,8743,105934.0,31673.0,-1138.885304767976,-516.5683016223146,-1013.6203652858867
105934,10562,105934,8736,105934.0,31664.0,-1152.5171827365227,-523.0084632643609,-1026.1887538414892
105934,10534,105934,8729,105934.0,31653.0,-1166.1957115581708,-529.4342086404995,-1038.7451160868056
105934,10534,105934,8700,105934.0,31636.0,-1179.9170456169527,-535.8386852027279,-1051.2788307827893
105934,10548,105934,8681,105934.0,31574.0,-1193.6798739771643,-542.2146343958234,-1063.7782983026564
105934,10680,105934,8676,105934.0,31557.0,-1207.4847958712478,-548.5547598178977,-1076.2313614069876
105944,10752,105944,8673,105944.0,31561.0,-1221.33251729164,-554.8520357023604,-1088.625919616656
105944,10722,105944,8693,105944.0,31547.0,-1235.221135826078,-561.0997475111358,-1100.9502417604754
105944,10677,105944,8685,105944.0,31580.0,-1249.1440254646084,-567.2912466527339,-1113.1928030461193
105944,10589,105944,8697,105944.0,31572.0,-1263.0894142746088,-573.4195693006116,-1125.3417846489983
105944,10472,105944,8731,105944.0,31575.0,-1277.0414973170866,-579.4770004814335,-1137.3844183339602
105944,10417,105944,8706,105944.0,31533.0,-1290.9825084125205,-585.4545189071999,-1149.3064901772345
105954,10374,105954,8675,105954.0,31514.0,-1304.8949963936986,-591.3413616070034,-1161.0922689155122
105954,10372,105954,8666,105954.0,31523.0,-1318.763490832009,-597.1250931611052,-1172.7247359376092
105954,10356,105954,8633,105954.0,31508.0,-1332.5752764809713,-602.7920544149977,-1184.1857045890843
105954,10371,105954,8627,105954.0,31487.0,-1346.320499533074,-608.3278551339386,-1195.455716011418
105954,10451,105954,8601,105954.0,31451.0,-1359.9917072854107,-613.7178179417597,-1206.5140379225488
105954,10589,105954,8596,105954.0,31414.0,-1373.5824006105145,-618.947367931396,-1217.3390037419917
105965,10585,105965,8608,105965.0,31435.0,-1387.0843951033037,-624.0022955625371,-1227.9085288062029
105965,10553,105965,8625,105965.0,31411.0,-1400.4850981230686,-628.8687293938391,-1238.2004016501792
105965,10485,105965,8631,105965.0,31427.0,-1413.7662117222608,-633.5327604225552,-1248.1922013113585
105965,10360,105965,8640,105965.0,31462.0,-1426.9042180625906,-637.979914785733,-1257.8609405373936
105965,10259,105965,8609,105965.0,31461.0,-1439.8722330437372,-642.1947484814656,-1267.1823992025386
105965,10252,105965,8615,105965.0,31404.0,-1452.642520579849,-646.1607406472103,-1276.130409744923
105975,10234,105975,8586,105975.0,31366.0,-1465.188516866158,-649.860449469943,-1284.676771336927
105975,10222,105975,8569,105975.0,31370.0,-1477.4857179156784,-653.2758037667531,-1292.7918705374825
105975,10221,105975,8609,105975.0,31367.0,-1489.511827857189,-656.3883972310687,-1300.4452848428364
105975,10236,105975,8532,105975.0,31307.0,-1501.2466200708936,-659.1796300992057,-1307.606022007258
105975,10384,105975,8511,105975.0,31316.0,-1512.6712488039723,-661.6309760777532,-1314.2428028784013
105975,10429,105975,8539,105975.0,31278.0,-1523.7664068441957,-663.7246422579797,-1320.3245607601866
105985,10424,105985,8544,105985.0,31323.0,-1534.5096617782938,-665.4440418030135,-1325.8208082063602
105985,10376,105985,8578,105985.0,31288.0,-1544.8734366637598,-666.7735942868231,-1330.701639517772
105985,10284,105985,8571,105985.0,31322.0,-1554.8246112973325,-667.6981557564309,-1334.9374933754154
105985,10165,105985,8615,105985.0,31365.0,-1564.3256822437916,-668.2024250836419,-1338.4987534809416
105985,10109,105985,8578,105985.0,31306.0,-1573.3370111548534,-668.2704242432299,-1341.355145669378
105985,10086,105985,8521,105985.0,31300.0,-1581.819282244108,-667.8853424102948,-1343.4753695814377
105996,10086,105996,8529,105996.0,31289.0,-1589.73520485413,-667.0300783068693,-1344.8273605023628
105996,10066,105996,8551,105996.0,31288.0,-1597.0502316577222,-665.6880381414614,-1345.3787594213052
105996,10079,105996,8525,105996.0,31265.0,-1603.7327166419316,-663.8434692431176,-1345.097209860408
105996,10137,105996,8502,105996.0,31212.0,-1609.7537244546027,-661.481536338703,-1343.9507314305147
105996,10304,105996,8491,105996.0,31229.0,-1615.0859902613954,-658.5887035708249,-1341.9084180454433
105996,10315,105996,8523,105996.0,31200.0,-1619.701561566284,-655.1532729755411,-1338.9412129017219
106005,10274,106005,8531,106005.0,31228.0,-1623.5690760791756,-651.1655678514626,-1335.0224070623221
106005,10206,106005,8560,106005.0,31228.0,-1626.652459460742,-646.6176602098618,-1330.127816029998
106005,10112,106005,8595,106005.0,31247.0,-1628.911592402815,-641.5028530875675,-1324.2357140949237
106005,10003,106005,8551,106005.0,31278.0,-1630.3043087095432,-635.815144641389,-1317.3265940208817
106005,10009,106005,8562,106005.0,31270.0,-1630.7889485419753,-629.5490445861451,-1309.382821581397
106005,9983,106005,8562,106005.0,31249.0,-1630.3265210549098,-622.6998544760911,-1300.388422354145
106015,9997,106015,8563,106015.0,31267.0,-1628.8818524134863,-615.2640133322159,-1290.329266451112
106015,9992,106015,8536,106015.0,31262.0,-1626.4239673230531,-607.2393590066469,-1279.1934675394878
106015,10021,106015,8527,106015.0,31244.0,-1622.9261281567906,-598.6255644279609,-1266.9717395918003
106015,10179,106015,8570,106015.0,31238.0,-1618.3653424529266,-589.4246961727437,-1253.6578594722946
106015,10232,106015,8569,106015.0,31284.0,-1612.7207325418176,-579.6414663385049,-1239.2492275555787
106015,10237,106015,8591,106015.0,31291.0,-1605.9710837690168,-569.2830926500112,-1223.7471278978576
106026,10198,106026,8620,106026.0,31305.0,-1598.0930675440864,-558.359054013181,-1207.15662327968
106026,10149,106026,8655,106026.0,31365.0,-1589.0610485710029,-546.8807675934777,-1189.4863643487138
106026,10070,106026,8689,106026.0,31404.0,-1578.8482058395368,-534.8610555749235,-1170.7482297272022
106026,10002,106026,8645,106026.0,31406.0,-1567.428486545361,-522.3136197971074,-1150.956709787782
106026,10012,106026,8688,106026.0,31419.0,-1554.7788858231954,-509.25293872112604,-1130.128470840138
106026,10019,106026,8690,106026.0,31424.0,-1540.8812699234454,-495.6945033091289,-1108.2824068663292
106036,10035,106036,8683,106036.0,31460.0,-1525.7232699980598,-481.6549967209918,-1085.4399354169773
106036,10062,106036,8712,106036.0,31483.0,-1509.298504075422,-467.15244160651974,-1061.6251849243272
106036,10159,106036,8698,106036.0,31481.0,-1491.6063664148915,-452.20642372887306,-1036.8650363059378
106036,10316,106036,8747,106036.0,31513.0,-1472.6509695885266,-436.8382699081484,-1011.1892528234744
106036,10360,106036,8723,106036.0,31564.0,-1452.4389135070492,-421.0711270300727,-984.6306730365516
106036,10349,106036,8792,106036.0,31585.0,-1430.9768040982024,-404.9299677343762,-957.2251562548219
106046,10339,106046,8817,106046.0,31639.0,-1408.2700007874778,-388.4414087041214,-929.0112773989573
106046,10262,106046,8880,106046.0,31692.0,-1384.3229932771749,-371.6331545678341,-900.0299259361218
106046,10200,106046,8848,106046.0,31726.0,-1359.140992581261,-354.5332669064312,-870.3237813358148
106046,10217,106046,8894,106046.0,31785.0,-1332.7321978359353,-337.1697613799847,-839.9367224145543
106046,10223,106046,8908,106046.0,31790.0,-1305.1098441997997,-319.5705826629814,-808.9133391845429
106046,10263,106046,8906,106046.0,31822.0,-1276.2933657425542,-301.7636243921221,-777.2987016150921
106057,10292,106057,8935,106057.0,31868.0,-1246.3088084590026,-283.7767729825863,-745.1383939815598
106057,10349,106057,8942,106057.0,31865.0,-1215.1888307266895,-265.6380472602737,-712.4786129917485
106057,10539,106057,8928,106057.0,31875.0,-1182.9721264396976,-247.37578241032213,-679.3663747535246
106057,10667,106057,8973,106057.0,31944.0,-1149.7016140863236,-229.01891804083343,-645.8499403845303
106057,10699,106057,9008,106057.0,32001.0,-1115.421538273078,-210.59720325703566,-611.9790135161802
106057,10719,106057,9062,106057.0,32032.0,-1080.175026433474,-192.1409454420972,-577.8043782586408
106067,10668,106067,9083,106067.0,32111.0,-1044.0033175934866,-173.68036047082745,-543.3773038593855
106067,10631,106067,9131,106067.0,32167.0,-1006.9466172837275,-155.2448674130511,-508.7489107158948
106067,10611,106067,9136,106067.0,32192.0,-969.045988346965,-136.86251900945297,-473.96944549625226
106067,10643,106067,9127,106067.0,32235.0,-930.3454567040756,-118.5597086338064,-439.0877207303833
106067,10704,106067,9126,106067.0,32239.0,-890.8934888494762,-100.36134306406291,-404.1509580709763
106067,10743,106067,9145,106067.0,32281.0,-850.7435077345255,-82.29137092290154,-369.2049526937645
106077,10805,106077,9184,106077.0,32314.0,-809.9537571067107,-64.37320861374417,-334.2943407653233
106077,10906,106077,9172,106077.0,32300.0,-768.5868505306582,-46.629824170876304,-299.4628531361254
106077,11124,106077,9198,106077.0,32341.0,-726.7086288223286,-29.08373122494538,-264.7537177253379
106077,11196,106077,9197,106077.0,32386.0,-684.385769387867,-11.757141253760722,-230.21017274405972
106077,11227,106077,9276,106077.0,32450.0,-641.6828941391623,5.327922914363967,-195.87563603554122
106077,11244,106077,9278,106077.0,32476.0,-598.6607989026807,22.14988900253985,-161.7933935371766
106088,11197,106088,9336,106088.0,32557.0,-555.3763810318908,38.68822473450666,-128.00610294388866
106088,11144,106088,9330,106088.0,32603.0,-511.8839050553845,54.924017563683606,-94.55521438406402
106088,11179,106088,9333,106088.0,32643.0,-468.23712082761904,70.84028225811221,-61.48027840016971
106088,11220,106088,9342,106088.0,32667.0,-424.491283269001,86.42188362334429,-28.818380719710603
106088,11290,106088,9354,106088.0,32678.0,-380.7041794638311,101.65522871799726,3.3960343776867603
106088,11328,106088,9354,106088.0,32701.0,-336.93621594519846,116.52798606938154,35.13095937025969
106098,11406,106098,9388,106098.0,32736.0,-293.25010664150557,131.0288910233037,66.35645514021246
106098,11586,106098,9389,106098.0,32734.0,-249.7101716707598,145.14766191694093,97.04432844381358
106098,11748,106098,9380,106098.0,32789.0,-206.3805589225958,158.8749626844051,127.1678582080342
106098,11792,106098,9387,106098.0,32829.0,-163.32234791856524,172.20217950462933,156.70164240470535
106098,11795,106098,9457,106098.0,32849.0,-120.59099705265919,185.12114738764132,185.62171815191687
106098,11768,106098,9461,106098.0,32912.0,-78.23554683895202,197.6243126733006,213.90583039758678
106108,11746,106108,9509,106108.0,32966.0,-36.299534880522856,209.70533777740707,241.53380139206877
106108,11730,106108,9533,106108.0,32993.0,5.177218885319803,221.35976796565598,268.4881230907438
106108,11745,106108,9509,106108.0,32992.0,46.156686642604996,232.58554786301664,294.754493863417
106108,11784,106108,9524,106108.0,32992.0,86.60107410474643,243.38317332379512,320.32183866829246
106108,11833,106108,9483,106108.0,33023.0,126.471927621325,253.7553714721398,345.18184553688695
106108,11888,106108,9483,106108.0,33031.0,165.72990620341716,263.70646068177405,369.3284599070603
106119,11990,106119,9502,106119.0,33062.0,204.3350942520035,273.2416332633553,392.7575900486298
106119,12186,106119,9489,106119.0,33065.0,242.2481072027416,282.3664642885842,415.4669387907925
106119,12257,106119,9476,106119.0,33079.0,279.43236575206174,291.08662413207355,437.4558099128086
106119,12256,106119,9567,106119.0,33103.0,315.85676887736213,299.407663016265,458.724846781629
106119,12260,106119,9509,106119.0,33126.0,351.49715592989253,307.3351284388283,479.27582671320715
106119,12198,106119,9594,106119.0,33166.0,386.33600429423586,314.8749768524359,499.1116587740578
106129,12140,106129,9575,106129.0,33199.0,420.36085111934824,322.03397788062307,518.2366193726614
106129,12154,106129,9576,106129.0,33179.0,453.5620124273065,328.8200703980925,536.6566656738125
106129,12185,106129,9559,106129.0,33217.0,485.93047023787403,335.24244966860203,554.3795109986245
106129,12198,106129,9585,106129.0,33223.0,517.4566606424014,341.3112982645332,571.4144620197992
106129,12227,106129,9615,106129.0,33251.0,548.1299729157088,347.03761783342986,587.7723251119389
106129,12330,106129,9555,106129.0,33192.0,577.938620006729,352.43333947217525,603.4653107309186
106139,12462,106139,9523,106139.0,33232.0,606.8702774044962,357.51113357335635,618.5065813299373
106139,12585,106139,9563,106139.0,33239.0,634.913958231351,362.2836293726991,632.9096124187622
106139,12612,106139,9584,106139.0,33251.0,662.0626331772041,366.76280876149576,646.6878601377139
106139,12591,106139,9580,106139.0,33266.0,688.3152801860538,370.96012441385096,659.8547207530796
106139,12572,106139,9589,106139.0,33318.0,713.6773987876954,374.8868601991636,672.4236035567417
106139,12461,106139,9636,106139.0,33345.0,738.1600052939277,378.5543712618713,684.4082826822103
106150,12439,106150,9612,106150.0,33367.0,761.7775336801001,381.9744138660079,695.8235395430497
106150,12456,106150,9585,106150.0,33344.0,784.5453663198555,385.15941892646185,706.6856947474623
106150,12463,106150,9608,106150.0,33330.0,806.4780282629447,388.122322316146,717.01262426466
106150,12482,106150,9570,106150.0,33318.0,827.5883602897459,390.8761498737505,726.823233009736
106150,12508,106150,9581,106150.0,33344.0,847.8872048385463,393.4336541858888,736.1367738309116
106150,12591,106150,9575,106150.0,33313.0,867.3834344085235,395.8069784448063,744.9723816393778
106160,12772,106160,9562,106160.0,33317.0,886.0848280173809,398.0073773312221,753.3487289787381
106160,12804,106160,9563,106160.0,33349.0,904.0002386078177,400.04498239290217,761.2836567167394
106160,12818,106160,9590,106160.0,33341.0,921.142209259878,401.928615607178,768.7940059186678
106160,12762,106160,9615,106160.0,33364.0,937.5284270168434,403.665893648233,775.8957110418271
106160,12699,106160,9616,106160.0,33383.0,953.1813946463092,405.2636873317475,782.6039616555961
106160,12605,106160,9608,106160.0,33380.0,968.1267103482198,406.7285879072439,788.9334099109233
106171,12592,106171,9582,106171.0,33381.0,982.3905962274284,408.06701367923074,794.8983423191662
106171,12601,106171,9613,106171.0,33396.0,995.997575294226,409.28498305148287,800.5126878725321
106171,12606,106171,9604,106171.0,33385.0,1008.9690591218557,410.3879322241635,805.7899612083304
106171,12633,106171,9604,106171.0,33404.0,1021.322829204423,411.3807594865201,810.7432253650268
106171,12666,106171,9597,106171.0,33386.0,1033.073022783464,412.26787129862396,815.3850392934451
106171,12803,106171,9595,106171.0,33366.0,1044.230677211816,413.0530863211403,819.7272945896684
106181,12907,106181,9602,106181.0,33386.0,1054.8053120099405,413.739508556998,823.7808681952426
106181,12911,106181,9617,106181.0,33367.0,1064.8074166951158,414.3295151911889,827.5552667502586
106181,12907,106181,9603,106181.0,33396.0,1074.250585295453,414.8248893852144,831.0584565312795
106181,12848,106181,9639,106181.0,33417.0,1083.1522225921076,415.22700283415975,834.2969211694406
106181,12769,106181,9654,106181.0,33474.0,1091.5328094996912,415.5370945720887,837.2760845045123
106181,12679,106181,9637,106181.0,33454.0,1099.4140670192326,415.7567066890857,840.0010902658926
106191,12696,106191,9627,106191.0,33444.0,1106.8165604865255,415.8879693110056,842.4774567535967
106191,12714,106191,9616,106191.0,33435.0,1113.7577816148412,415.9334858730092,844.7111631537146
106191,12706,106191,9599,106191.0,33406.0,1120.25137147552,415.8959845645255,846.7082826617516
106191,12724,106191,9594,106191.0,33426.0,1126.3070568648557,415.7779281199013,848.4744981635781
106191,12769,106191,9597,106191.0,33414.0,1131.9307754810384,415.5811729403822,850.0147431320324
106191,12954,106191,9573,106191.0,33382.0,1137.1254246938922,415.30673616169656,851.3329857766264
106202,13004,106202,9588,106202.0,33425.0,1141.89297033447,414.9546078770373,852.4319782067516
106202,12988,106202,9619,106202.0,33423.0,1146.2373143401433,414.5236752688308,853.3131263113307
106202,12961,106202,9626,106202.0,33430.0,1150.166168621296,414.0120014961647,853.9767049013274
106202,12866,106202,9637,106202.0,33465.0,1153.6911052779708,413.4173763985291,854.4222298639643
106202,12755,106202,9647,106202.0,33473.0,1156.826096593135,412.73781730177274,854.6489063678175
106202,12752,106202,9642,106202.0,33470.0,1159.5851090678927,411.971920829202,854.6561652715548
106212,12756,106212,9627,106212.0,33456.0,1161.9798317459122,411.1190475638624,854.4440125318629
106212,12761,106212,9630,106212.0,33466.0,1164.0185199106886,410.1792829416534,854.0130499662671
106212,12752,106212,9600,106212.0,33470.0,1165.70575749972,409.1532351085605,853.364408192944
106212,12780,106212,9619,106212.0,33473.0,1167.0424802714645,408.0417749759155,852.4998163622603
106212,12931,106212,9610,106212.0,33405.0,1168.0264113569328,406.8458439285934,851.4216265109654
106212,13040,106212,9595,106212.0,33430.0,1168.653757093067,405.5663898730041,850.1324464312505
106222,13037,106222,9611,106222.0,33432.0,1168.9221125943748,404.2043101739075,848.6346035937563
106222,13016,106222,9600,106222.0,33458.0,1168.8329966290491,402.7603933563169,846.9300309718682
106222,12953,106222,9652,106222.0,33461.0,1168.392716621542,401.23544370202114,845.0206374305109
106222,12862,106222,9645,106222.0,33512.0,1167.6116385980097,399.6307101361434,842.9088894124981
106222,12796,106222,9643,106222.0,33484.0,1166.5024103083742,397.9484594988172,840.5984965967818
106222,12779,106222,9612,106222.0,33431.0,1165.0777807581994,396.1922732226959,838.0948594332671
106233,12763,106233,9600,106233.0,33433.0,1163.3488212125276,394.36686092094305,835.4048150005942
106233,12766,106233,9602,106233.0,33447.0,1161.3239439358083,392.47762754669037,832.5360129048116
106233,12784,106233,9586,106233.0,33447.0,1159.0085746447292,390.53032586641876,829.4966718033206
106233,12830,106233,9560,106233.0,33421.0,1156.40535091575,388.53081026806655,826.295716311662
106233,12999,106233,9569,106233.0,33393.0,1153.5151438550356,386.48471565997676,822.9427435790244
106233,13016,106233,9546,106233.0,33397.0,1150.3392773160713,384.3971179405226,819.4476391358693
106243,13013,106243,9577,106243.0,33394.0,1146.88223630672,382.2723539478783,815.8201796688846
106243,12966,106243,9596,106243.0,33408.0,1143.1533406524545,380.11413024600546,812.0699381086226
106243,12871,106243,9619,106243.0,33437.0,1139.1667503262017,377.9260116717794,808.2065311901823
106243,12768,106243,9621,106243.0,33440.0,1134.940071297424,375.71212761955996,804.2401545341622
106243,12739,106243,9579,106243.0,33414.0,1130.4920754869229,373.47768107758355,800.1821580372357
106243,12737,106243,9551,106243.0,33387.0,1125.840507697296,371.22888386583156,796.0452281614992
106253,12721,106253,9572,106253.0,33388.0,1121.0008268800552,368.9724089750434,791.8430897340611
106253,12709,106253,9562,106253.0,33372.0,1115.9857597647242,366.71494871258994,787.5901032606935
106253,12732,106253,9546,106253.0,33366.0,1110.8051624559948,364.46312938592837,783.3010203982241
106253,12839,106253,9541,106253.0,33316.0,1105.4663312498913,362.2234483975709,778.9907514188686
106253,12953,106253,9524,106253.0,33317.0,1099.9754423105592,360.00205140510155,774.6739215863308
106253,12950,106253,9529,106253.0,33319.0,1094.3401280443554,357.80447885675284,770.3643556042905
106264,12916,106264,9521,106264.0,33324.0,1088.5718846422885,355.63549503534927,766.074860010762
106264,12842,106264,9595,106264.0,33350.0,1082.6869586722003,353.49916942531974,761.817408307629
106264,12736,106264,9580,106264.0,33358.0,1076.7055403205577,351.39943690223583,757.6036069861344
106264,12664,106264,9577,106264.0,33344.0,1070.6497970297548,349.34089578357685,753.4452518258526
106264,12649,106264,9555,106264.0,33328.0,1064.5415260358695,347.3292202999877,749.3546583852116
106264,12645,106264,9540,106264.0,33308.0,1058.4003661502811,345.37102341171163,745.3445963059133
106274,12619,106274,9531,106274.0,33313.0,1052.2429586840212,343.47347334434403,741.4280010726055
106274,12613,106274,9498,106274.0,33283.0,1046.0826359632706,341.6438639827997,737.61770566412
106274,12656,106274,9490,106274.0,33256.0,1039.9293090631763,339.88913080366166,733.9261593028116
106274,12820,106274,9476,106274.0,33259.0,1033.7900845412375,338.2153262836497,730.364997303685
106274,12863,106274,9492,106274.0,33255.0,1027.6713282548849,336.62722658300225,726.9446397134213
106274,12843,106274,9489,106274.0,33257.0,1021.581528415433,335.12822109201863,723.6741591901242
106284,12788,106284,9508,106284.0,33272.0,1015.5331868862328,333.72045635613534,720.5613833861331
106284,12717,106284,9549,106284.0,33266.0,1009.542894535996,332.40519986455456,717.6131323772088
106284,12576,106284,9548,106284.0,33280.0,1003.6299545084238,331.18346814855926,714.835513980558
