c_ts,c_val,d_ts,d_val,e_ts,e_val,c_val_filtered,d_val_filtered,e_val_filtered
414088,14569,414088.0,43684.0,414088.0,68617.0,-693.8532064570092,-519.5486028526961,-847.3243759263094
414088,14604,414088.0,43770.0,414088.0,68663.0,-660.0576576098517,-479.57719940827866,-782.4126264145175
414088,14651,414088.0,43848.0,414088.0,68760.0,-624.8866639710005,-438.2682024202829,-715.3201556681928
414088,14713,414088.0,43957.0,414088.0,68886.0,-588.371124068437,-395.68518480452974,-646.1312362196071
414088,14746,414088.0,43993.0,414088.0,68944.0,-550.5453263453535,-351.8935613109418,-574.9365148717867
414088,14770,414088.0,43996.0,414088.0,69042.0,-511.4467519121632,-306.9596545526316,-501.8323585325942
414099,14796,414099.0,43990.0,414099.0,69100.0,-471.1161947462307,-260.95073691620576,-426.92050939201135
414099,14836,414099.0,44031.0,414099.0,69160.0,-429.5981920457908,-213.93601584349915,-350.30812726582576
414099,14886,414099.0,44099.0,414099.0,69212.0,-386.94146794272797,-165.98774270774493,-272.10818949182794
414099,14935,414099.0,44123.0,414099.0,69368.0,-343.1991685343967,-117.18179341030304,-192.44001823697272
414099,15016,414099.0,44193.0,414099.0,69464.0,-298.42883807721284,-67.59785190720754,-111.4293001431115
414099,15048,414099.0,44314.0,414099.0,69574.0,-252.692173065038,-17.319366213899457,-29.207408255616656
414109,15121,414109.0,44375.0,414109.0,69670.0,-206.05472231717397,33.56701913451741,54.089415244485735
414109,15214,414109.0,44466.0,414109.0,69811.0,-158.58558369246475,84.97248603727189,138.32071012974257
414109,15268,414109.0,44583.0,414109.0,69966.0,-110.35688079239549,136.80711925078435,223.34262945403884
414109,15353,414109.0,44661.0,414109.0,70057.0,-61.44304372549311,188.98107961946096,309.0091863663463
414109,15380,414109.0,44661.0,414109.0,70151.0,-11.920209323693143,241.4057272591765,395.173469773051
414109,15457,414109.0,44750.0,414109.0,70245.0,38.134089581864146,293.9940803611787,481.6882912138444
414119,15496,414119.0,44726.0,414119.0,70301.0,88.64101102767222,346.660547727103,568.4062859220155
414119,15563,414119.0,44786.0,414119.0,70438.0,139.52042324494346,399.3202818916924,655.1797541384794
414119,15609,414119.0,44872.0,414119.0,70514.0,190.6909197176003,451.8884531060372,741.8605732807191
414119,15674,414119.0,44896.0,414119.0,70629.0,242.06982447781957,504.2798941851727,828.3003699179319
414119,15766,414119.0,44984.0,414119.0,70767.0,293.5732914671531,556.4091432633502,914.3508956453711
414119,15828,414119.0,45084.0,414119.0,70895.0,345.1166726604214,608.1906625893178,999.8647209463584
414130,15898,414130.0,45155.0,414130.0,70992.0,396.61509493360165,659.5394324306994,1084.6962700549138
414130,15976,414130.0,45207.0,414130.0,71126.0,447.9840096171936,710.3718216688635,1168.7028413669796
414130,16066,414130.0,45385.0,414130.0,71262.0,499.1397417658209,760.6064484396061,1251.7455432310917
414130,16127,414130.0,45427.0,414130.0,71355.0,550.0001835389955,810.1653613599951,1333.6903642463258
414130,16175,414130.0,45436.0,414130.0,71442.0,600.4854603597089,858.9753901620375,1414.409176140652
414130,16224,414130.0,45462.0,414130.0,71512.0,650.5182649026685,906.9686159157723,1493.7802587028632
414140,16265,414140.0,45476.0,414140.0,71562.0,700.0238270970408,954.0817325073899,1571.68826997124
414140,16331,414140.0,45509.0,414140.0,71635.0,748.9297331194225,1000.2550402397278,1648.023803241796
414140,16384,414140.0,45530.0,414140.0,71728.0,797.1658224625648,1045.4315228892397,1722.6828260616276
414140,16451,414140.0,45608.0,414140.0,71827.0,844.6642686419684,1089.5561417143865,1795.5664277228216
414140,16503,414140.0,45636.0,414140.0,71936.0,891.3597932012474,1132.5755061276236,1866.581078985948
414140,16563,414140.0,45748.0,414140.0,72006.0,937.1899140306052,1174.437977464425,1935.6392332028313
414150,16609,414150.0,45834.0,414150.0,72074.0,982.0951613088359,1215.0942662695873,2002.6598792684003
414150,16688,414150.0,45909.0,414150.0,72205.0,1026.0192792847909,1254.4985652429837,2067.5688893645724
414150,16758,414150.0,45985.0,414150.0,72302.0,1068.9095716523505,1292.6098976594292,2130.2995546976895
414150,16796,414150.0,45930.0,414150.0,72351.0,1110.7174449577565,1329.393075618471,2190.7934876924496
414150,16815,414150.0,45977.0,414150.0,72350.0,1151.3988178321597,1364.818716970151,2249.001198666768
414150,16841,414150.0,45948.0,414150.0,72390.0,1190.9140313323621,1398.8623726538447,2304.8816931982715
414161,16875,414161.0,45985.0,414161.0,72441.0,1229.2273609863648,1431.5033968164582,2358.4014338057154
414161,16924,414161.0,45990.0,414161.0,72472.0,1266.3065284879149,1462.7239693136137,2409.5334221402686
414161,16960,414161.0,46108.0,414161.0,72540.0,1302.1224631265018,1492.5085262697385,2458.256635521496
414161,17010,414161.0,46105.0,414161.0,72599.0,1336.649287699787,1520.8438987968493,2504.555751928372
414161,17044,414161.0,46153.0,414161.0,72645.0,1369.8644064102486,1547.719868965354,2548.4211641382462
414161,17085,414161.0,46177.0,414161.0,72693.0,1401.7486146404585,1573.1295181252588,2589.849121622513
414171,17121,414171.0,46218.0,414171.0,72748.0,1432.2861908687073,1597.069331481114,2628.8418264768047
414171,17183,414171.0,46297.0,414171.0,72778.0,1461.4650280149945,1619.5394416279378,2665.4075158933874
414171,17209,414171.0,46359.0,414171.0,72822.0,1489.276909962649,1640.5443086471812,2699.5605250397703
414171,17213,414171.0,46275.0,414171.0,72827.0,1515.7177859186,1660.0935655758667,2731.321220803676
414171,17233,414171.0,46268.0,414171.0,72819.0,1540.7877069448168,1678.2020212913299,2760.71565417113
414171,17234,414171.0,46250.0,414171.0,72793.0,1564.4903924194487,1694.888478498103,2787.774738339747
414181,17233,414181.0,46242.0,414181.0,72839.0,1586.832626785154,1710.1742486958553,2812.5330590002714
414181,17272,414181.0,46205.0,414181.0,72837.0,1607.8236200438696,1724.0819301848285,2835.0278439989834
414181,17301,414181.0,46266.0,414181.0,72860.0,1627.4745705910127,1736.6343836843037,2855.2983725791946
414181,17313,414181.0,46307.0,414181.0,72906.0,1645.7985879521516,1747.85421245607,2873.3856712354545
414181,17335,414181.0,46328.0,414181.0,72929.0,1662.8107403163303,1757.7640598792273,2889.3324827780316
414181,17359,414181.0,46347.0,414181.0,72954.0,1678.5280240756933,1766.3872765052033,2903.1835093101568
414192,17378,414192.0,46394.0,414192.0,72986.0,1692.9693459555742,1773.7484640930968,2914.985713223985
414192,17423,414192.0,46471.0,414192.0,73003.0,1706.1556305174213,1779.8741225189817,2924.788597868804
414192,17425,414192.0,46481.0,414192.0,72993.0,1718.1100686150312,1784.7937286195759,2932.6444339930295
414192,17387,414192.0,46329.0,414192.0,72982.0,1728.8582572118466,1788.5405722053438,2938.6082097760273
414192,17407,414192.0,46343.0,414192.0,72939.0,1738.427851378332,1791.1511421511311,2942.7371368203003
414192,17406,414192.0,46306.0,414192.0,72925.0,1746.8479016892584,1792.6633427949546,2945.089756882403
414202,17393,414202.0,46301.0,414202.0,72898.0,1754.1483294502705,1793.1149682301095,2945.7248660702116
414202,17406,414202.0,46303.0,414202.0,72921.0,1760.3595287074204,1792.542882553337,2944.70058449757
414202,17388,414202.0,46264.0,414202.0,72962.0,1765.511954446164,1790.9825203582552,2942.0739358029823
414202,17447,414202.0,46339.0,414202.0,72945.0,1769.6358275471957,1788.4675605849868,2937.901070250796
414202,17432,414202.0,46320.0,414202.0,72933.0,1772.7611578923331,1785.0299891231155,2932.2376782840392
414202,17455,414202.0,46369.0,414202.0,72915.0,1774.9180158396387,1780.7006360986381,2925.1390260718267
414212,17473,414212.0,46401.0,414212.0,73003.0,1776.1367961090523,1775.5099581249717,2916.6598338597623
414212,17463,414212.0,46443.0,414212.0,72979.0,1776.4484346541365,1769.4890280832235,2906.8546833996174
414212,17461,414212.0,46365.0,414212.0,72931.0,1775.884543133011,1762.6705452513045,2895.778764479851
414212,17439,414212.0,46302.0,414212.0,72877.0,1774.4772940347916,1755.08905325717,2883.487944906263
414212,17409,414212.0,46297.0,414212.0,72840.0,1772.2590169928824,1746.7800126719567,2870.0378849017993
414212,17404,414212.0,46247.0,414212.0,72814.0,1769.2615740595036,1737.7785082912576,2855.482857909149
414223,17418,414223.0,46218.0,414223.0,72814.0,1765.5157597999423,1728.1182416122472,2839.8748608674314
414223,17420,414223.0,46264.0,414223.0,72810.0,1761.0510550514953,1717.8308215549164,2823.2632226885626
414223,17428,414223.0,46218.0,414223.0,72810.0,1755.895737404713,1706.9455061513565,2805.694662714722
414223,17420,414223.0,46247.0,414223.0,72806.0,1750.0770904433905,1695.489361806602,2787.2135911441455
414223,17430,414223.0,46254.0,414223.0,72794.0,1743.6215570259126,1683.4875376511707,2767.8624617064906
414223,17426,414223.0,46299.0,414223.0,72803.0,1736.5548620331983,1670.9637755285883,2747.682108365265
414233,17442,414233.0,46340.0,414233.0,72827.0,1728.9021846760902,1657.9413915704952,2726.7121901396554
414233,17429,414233.0,46263.0,414233.0,72783.0,1720.688397742588,1644.444439186674,2704.9918297384293
414233,17401,414233.0,46215.0,414233.0,72732.0,1711.9382272618157,1630.4982067900305,2682.5600500921933
414233,17386,414233.0,46154.0,414233.0,72677.0,1702.6761172669112,1616.1285516400296,2659.4555096815693
414233,17370,414233.0,46116.0,414233.0,72649.0,1692.9258393349878,1601.3605789712935,2635.7156790875233
414233,17369,414233.0,46116.0,414233.0,72629.0,1682.7101193214564,1586.2174366238967,2611.3760322594194
414243,17343,414243.0,46099.0,414243.0,72592.0,1672.0504140917938,1570.719629123769,2586.469571047927
414243,17344,414243.0,46151.0,414243.0,72592.0,1660.9667565727614,1554.8849678510935,2561.0266150817497
414243,17353,414243.0,46127.0,414243.0,72594.0,1649.4776664092287,1538.7290858046715,2535.074827593026
414243,17351,414243.0,46120.0,414243.0,72597.0,1637.6002733119483,1522.2661602069963,2508.6396057280044
414243,17365,414243.0,46151.0,414243.0,72581.0,1625.3506626151568,1505.5094619764443,2481.744747423456
414243,17373,414243.0,46181.0,414243.0,72601.0,1612.7443372531714,1488.4719521835752,2454.413157243807
414254,17360,414254.0,46181.0,414254.0,72569.0,1599.7967227762022,1471.1672650348644,2426.6675357586582
414254,17333,414254.0,46120.0,414254.0,72529.0,1586.5235206215252,1453.6106641138335,2398.5309323102965
414254,17312,414254.0,46036.0,414254.0,72494.0,1572.9407006951221,1435.8191720603015,2370.0268791340995
414254,17302,414254.0,46012.0,414254.0,72446.0,1559.0642238237658,1417.8106586795407,2341.1791081075935
414254,17300,414254.0,45984.0,414254.0,72460.0,1544.9097971220444,1399.6025810757478,2312.0111913780293
414254,17266,414254.0,45976.0,414254.0,72380.0,1530.4927933035744,1381.2111584252334,2282.5463722349123
414264,17260,414264.0,45970.0,414264.0,72369.0,1515.8281755818068,1362.6511103546316,2252.807443809096
414264,17276,414264.0,45967.0,414264.0,72352.0,1500.930401356957,1343.9357560334784,2222.8165190226855
414264,17264,414264.0,45993.0,414264.0,72353.0,1485.8135531228572,1325.0773804126845,2192.595000682626
414264,17252,414264.0,45977.0,414264.0,72347.0,1470.4916799351079,1306.087848958468,2162.1639877761945
414264,17253,414264.0,46027.0,414264.0,72349.0,1454.9790676852926,1286.9794016683395,2131.544959419992
414264,17257,414264.0,46051.0,414264.0,72359.0,1439.2904458178089,1267.7656644224808,2100.7605961328345
414275,17246,414275.0,46014.0,414275.0,72308.0,1423.441295968028,1248.462850949551,2069.83562642011
414275,17211,414275.0,45930.0,414275.0,72244.0,1407.4481385948052,1229.0905134323264,2038.7973073465544
414275,17171,414275.0,45840.0,414275.0,72184.0,1391.3284894992921,1209.6710863744215,2007.6751537851392
414275,17155,414275.0,45800.0,414275.0,72145.0,1375.1004229618002,1190.2283688089708,1976.500111762839
414275,17131,414275.0,45790.0,414275.0,72117.0,1358.7820323504452,1170.785897311076,1945.303747668492
414275,17120,414275.0,45714.0,414275.0,72063.0,1342.3910588020105,1151.3658930815204,1914.11773767548
414285,17115,414285.0,45771.0,414285.0,72083.0,1325.9447278696666,1131.9887014077667,1882.9736098195976
414285,17118,414285.0,45760.0,414285.0,72031.0,1309.4597955899135,1112.672712673092,1851.9027559231345
414285,17111,414285.0,45767.0,414285.0,72000.0,1292.9528034106083,1093.4349099621998,1820.9366131820045
414285,17095,414285.0,45754.0,414285.0,71990.0,1276.4404078692894,1074.2916379180028,1790.106729052936
414285,17100,414285.0,45816.0,414285.0,71999.0,1259.9396367506665,1055.2592968256251,1759.4448541280328
414285,17073,414285.0,45819.0,414285.0,71963.0,1243.468077251226,1036.3552871989214,1728.9833736222479
414295,17059,414295.0,45723.0,414295.0,71919.0,1227.0439935727945,1017.5990586156001,1698.7557971667788
414295,17026,414295.0,45648.0,414295.0,71849.0,1210.6862742123644,999.0122463207451,1668.796775640283
414295,17003,414295.0,45601.0,414295.0,71816.0,1194.4141860968548,980.6175023674878,1639.1415528841244
414295,16982,414295.0,45634.0,414295.0,71753.0,1178.2470219742702,962.4370446061035,1609.8251770039178
414295,16964,414295.0,45544.0,414295.0,71705.0,1162.203761865308,944.4919083541024,1580.8817129712318
414295,16947,414295.0,45588.0,414295.0,71739.0,1146.3028248565333,926.8017077872483,1552.343615274565
414306,16957,414306.0,45545.0,414306.0,71671.0,1130.5619531222283,909.3845097271765,1524.2415610566434
414306,16951,414306.0,45526.0,414306.0,71659.0,1114.9983186465615,892.2568374049708,1496.6046151947212
414306,16918,414306.0,45535.0,414306.0,71633.0,1099.6287832637097,875.4336963580579,1469.460262898103
414306,16924,414306.0,45579.0,414306.0,71630.0,1084.4700402788524,858.9287473934248,1442.8343817324103
414306,16923,414306.0,45643.0,414306.0,71648.0,1069.5386492636217,842.7551522900097,1416.7515043033793
414306,16899,414306.0,45560.0,414306.0,71622.0,1054.8511840679153,826.9269744083164,1391.2354253961503
414316,16866,414316.0,45488.0,414316.0,71544.0,1040.4243457785783,811.4599842934286,1366.3097439752155
414316,16827,414316.0,45450.0,414316.0,71501.0,1026.2747264117775,796.3710603203663,1341.9977200107148
414316,16828,414316.0,45441.0,414316.0,71449.0,1012.4182875598868,781.6768962230005,1318.321433224239
414316,16811,414316.0,45375.0,414316.0,71430.0,998.8699258247282,767.3930207599506,1295.300831910272
414316,16769,414316.0,45347.0,414316.0,71441.0,985.6432520198291,753.5330703039165,1272.9531588435632
414316,16784,414316.0,45356.0,414316.0,71395.0,972.750367125808,740.108042685603,1251.2928831501542
414326,16783,414326.0,45382.0,414326.0,71419.0,960.201689200863,727.1259305307536,1230.3319048566905
414326,16774,414326.0,45395.0,414326.0,71416.0,948.0060777481376,714.592093957661,1210.0798677231833
414326,16772,414326.0,45384.0,414326.0,71374.0,936.1711135403772,702.5100485761227,1190.5446022270694
414326,16804,414326.0,45435.0,414326.0,71440.0,924.7033818316821,690.8822254088454,1171.732572906683
414326,16781,414326.0,45449.0,414326.0,71387.0,913.6088963169683,679.7107815318666,1153.6493864641557
414326,16765,414326.0,45335.0,414326.0,71344.0,902.8935341008712,668.9983702736599,1136.3002754118113
414337,16718,414337.0,45328.0,414337.0,71310.0,892.5630747087828,658.7480816445656,1119.6900086459227
414337,16683,414337.0,45299.0,414337.0,71238.0,882.622709383359,648.9624618431953,1103.8221518764046
414337,16706,414337.0,45293.0,414337.0,71276.0,873.0763220178479,639.6425750363454,1088.6981695264788
414337,16693,414337.0,45245.0,414337.0,71217.0,863.9260636838484,630.7874918470388,1074.316829402876
414337,16691,414337.0,45244.0,414337.0,71250.0,855.1723845532097,622.393836208621,1060.674031517738
414337,16680,414337.0,45275.0,414337.0,71250.0,846.8141811366335,614.4553946676008,1047.7629275368618
414347,16694,414347.0,45303.0,414347.0,71222.0,838.848868592377,606.9632415585119,1035.5742480105862
414347,16674,414347.0,45312.0,414347.0,71246.0,831.2724813470043,599.9064713147026,1024.096633205849
414347,16714,414347.0,45364.0,414347.0,71236.0,824.0798607960782,593.2731678522587,1013.316872717025
414347,16717,414347.0,45412.0,414347.0,71314.0,817.265013180382,587.0515101773167,1003.2203638425539
414347,16700,414347.0,45355.0,414347.0,71294.0,810.8216195839273,581.2309822034038,993.7920137752026
414347,16682,414347.0,45277.0,414347.0,71210.0,804.74333801872,575.8029383695225,985.0170963244384
414357,16663,414357.0,45248.0,414357.0,71185.0,799.0236630446262,570.7598656608727,976.8811428572794
414357,16662,414357.0,45227.0,414357.0,71175.0,793.655553595435,566.0939332433531,969.3689286433299
414357,16626,414357.0,45225.0,414357.0,71137.0,788.6310639754562,561.7958458753742,962.4635042024776
414357,16645,414357.0,45171.0,414357.0,71163.0,783.9410005195542,557.8541855237481,956.1456404737171
414357,16648,414357.0,45236.0,414357.0,71168.0,779.5746992916597,554.254956151033,950.393631695677
414357,16663,414357.0,45262.0,414357.0,71164.0,775.5201092780283,550.9815404903441,945.1834728103363
414368,16675,414368.0,45284.0,414368.0,71206.0,771.7641368958009,548.015384957012,940.4892461423623
414368,16679,414368.0,45316.0,414368.0,71191.0,768.2930680425493,545.337046931347,936.2835987226663
414368,16680,414368.0,45397.0,414368.0,71248.0,765.0929385847498,542.9272892961837,932.5383313205656
414368,16695,414368.0,45372.0,414368.0,71261.0,762.1498031287158,540.7683584267959,929.225128388703
414368,16678,414368.0,45308.0,414368.0,71209.0,759.4499369225609,538.8449848285541,926.3162922057801
414368,16646,414368.0,45265.0,414368.0,71195.0,756.9798701501617,537.1442327386351,923.7849478606626
414378,16650,414378.0,45259.0,414378.0,71185.0,754.7260850676574,535.654355011319,921.6045519995221
414378,16645,414378.0,45217.0,414378.0,71170.0,752.6745666495008,534.3635927200933,919.748258680989
414378,16621,414378.0,45197.0,414378.0,71177.0,750.8104864577291,533.2592618796057,918.1885034241329
414378,16650,414378.0,45205.0,414378.0,71198.0,749.11798578815,532.3269738789807,916.8968326288871
414378,16680,414378.0,45280.0,414378.0,71196.0,747.580153688767,531.5502632471836,915.8440258050827
414378,16664,414378.0,45262.0,414378.0,71188.0,746.1793865427087,530.9110097469874,915.0003496288573
414388,16668,414388.0,45273.0,414388.0,71210.0,744.8978140571135,530.3902465331664,914.3356958483458
414388,16687,414388.0,45322.0,414388.0,71250.0,743.7174704499803,529.9687458111493,913.8197618437433
414388,16707,414388.0,45373.0,414388.0,71275.0,742.6204582999718,529.62764770319,913.4226107436555
414388,16692,414388.0,45342.0,414388.0,71225.0,741.589297887647,529.3494445820681,913.1154036239201
414388,16681,414388.0,45297.0,414388.0,71235.0,740.6071732097721,529.1186617369497,912.8706672755042
414388,16671,414388.0,45222.0,414388.0,71210.0,739.6578242869522,528.9214598461791,912.6619790671117
414399,16681,414399.0,45243.0,414399.0,71187.0,738.725254275455,528.7443580845593,912.4634623916007
414399,16656,414399.0,45230.0,414399.0,71197.0,737.7935008273977,528.5730213767413,912.2492736641998
414399,16659,414399.0,45217.0,414399.0,71160.0,736.8464398388926,528.3916667448138,911.9931242119459
414399,16662,414399.0,45242.0,414399.0,71193.0,735.8675553212786,528.1828504237985,911.6679107471539
414399,16690,414399.0,45287.0,414399.0,71207.0,734.8398580517386,527.927522929392,911.2455766996112
414399,16692,414399.0,45264.0,414399.0,71234.0,733.7461113853967,527.605502392843,910.6973853918068
414409,16707,414409.0,45340.0,414409.0,71268.0,732.5692352555149,527.196150232916,909.9945573871784
414409,16717,414409.0,45386.0,414409.0,71300.0,731.2926946348849,526.6792032593185,909.1091110307663
414409,16730,414409.0,45394.0,414409.0,71268.0,729.9008547889435,526.0359814193072,908.0147148430048
414409,16718,414409.0,45363.0,414409.0,71274.0,728.379305870926,525.2505124402503,906.6871641030103
414409,16699,414409.0,45313.0,414409.0,71212.0,726.7149974845305,524.309802920867,905.1042558063273
414409,16691,414409.0,45261.0,414409.0,71218.0,724.8960541583679,523.2031147214432,903.2451983657036
414419,16669,414419.0,45261.0,414419.0,71240.0,722.9113753635645,521.9207125341363,901.0899655660104
414419,16655,414419.0,45248.0,414419.0,71198.0,720.7501702163948,520.4527548676936,898.6190123347923
414419,16685,414419.0,45211.0,414419.0,71222.0,718.4015567467916,518.7886141185861,895.8132234588429
414419,16687,414419.0,45298.0,414419.0,71248.0,715.8544729771606,516.9165187989329,892.653901599809
414419,16699,414419.0,45276.0,414419.0,71233.0,713.0979588494785,514.8236943298206,889.1230158058789
414419,16681,414419.0,45301.0,414419.0,71239.0,710.1214977006983,512.4970088469399,885.2036018356943
414430,16712,414430.0,45379.0,414430.0,71277.0,706.9152051436495,509.92374598565567,880.8800619030422
414430,16717,414430.0,45406.0,414430.0,71326.0,703.4700296074815,507.0926507617227,876.1386861502971
414430,16694,414430.0,45367.0,414430.0,71284.0,699.7780660362955,503.9952408441625,870.9685683561731
414430,16698,414430.0,45304.0,414430.0,71192.0,695.8327260201419,500.6264486092353,865.362133128115
414430,16683,414430.0,45312.0,414430.0,71204.0,691.6286452096836,496.9841146186096,859.3145322187555
414430,16662,414430.0,45217.0,414430.0,71162.0,687.1614820272973,493.0679276594108,852.8224667344842
414440,16651,414440.0,45180.0,414440.0,71112.0,682.4276280850563,488.8781918859363,845.8832448873574
414440,16630,414440.0,45196.0,414440.0,71127.0,677.4238162853014,484.4144554924871,838.4940066009427
414440,16647,414440.0,45233.0,414440.0,71171.0,672.1467683827494,479.67463434544385,830.6512243434634
414440,16657,414440.0,45229.0,414440.0,71164.0,666.5930925809373,474.6551365253568,822.3509659719159
414440,16646,414440.0,45275.0,414440.0,71145.0,660.7594919783985,469.351566911006,813.5895979224189
414440,16633,414440.0,45287.0,414440.0,71152.0,654.6430107672652,463.7595565732689,804.3642063942518
414450,16668,414450.0,45349.0,414450.0,71197.0,648.2411361500028,457.8757454359362,794.6728216281055
414450,16673,414450.0,45351.0,414450.0,71161.0,641.5520292645822,451.6989668942914,784.5149168859747
414450,16655,414450.0,45287.0,414450.0,71152.0,634.5750005428843,445.23125604488837,773.8919696932567
414450,16616,414450.0,45239.0,414450.0,71121.0,627.3107863594028,438.47797324809324,762.8075895373322
414450,16594,414450.0,45184.0,414450.0,71058.0,619.7612748597293,431.44686688958313,751.2671674453056
414450,16592,414450.0,45144.0,414450.0,71072.0,611.9289177188891,424.14665800521175,739.2772254091273
414461,16594,414461.0,45091.0,414461.0,71014.0,603.8163114389502,416.5856403211437,726.8447467822581
414461,16576,414461.0,45155.0,414461.0,71033.0,595.4261181005007,408.7705787640915,713.9767262384067
414461,16581,414461.0,45148.0,414461.0,70985.0,586.7611251344483,400.7063696153633,700.6799066878414
414461,16585,414461.0,45153.0,414461.0,71030.0,577.8243286719193,392.39650458884284,686.9606847087452
414461,16564,414461.0,45164.0,414461.0,71014.0,568.6190929928367,383.843711315184,672.8253239066182
414461,16558,414461.0,45214.0,414461.0,71022.0,559.1492807368784,375.050537378963,658.2804800312638
414471,16581,414471.0,45212.0,414471.0,71050.0,549.4193072164995,366.02017933888453,643.3338514532254
414471,16567,414471.0,45227.0,414471.0,70995.0,539.4343413092313,356.75747973048396,627.9948232261625
414471,16524,414471.0,45182.0,414471.0,70960.0,529.2005799255268,347.2696446893515,612.2748069842155
414471,16522,414471.0,45104.0,414471.0,70942.0,518.7251951828757,337.56628132918513,596.1869930402972
414471,16498,414471.0,45072.0,414471.0,70869.0,508.0159844376658,327.6585725034804,579.7457531094599
414471,16471,414471.0,45041.0,414471.0,70848.0,497.0810325705646,317.55798124769854,562.9659158410527
414482,16449,414482.0,45010.0,414482.0,70789.0,485.9283741318668,307.27514023638014,545.8619086279443
414482,16455,414482.0,45005.0,414482.0,70831.0,474.56562877804276,296.8191181500923,528.447028301053
414482,16465,414482.0,45027.0,414482.0,70828.0,462.99987079851655,286.1970585681213,510.73329760410707
414482,16442,414482.0,45050.0,414482.0,70815.0,451.23784581118593,275.4143631099495,492.731971771952
414482,16436,414482.0,45062.0,414482.0,70800.0,439.28624702369905,264.47540442113984,474.45416459770854
414482,16446,414482.0,45084.0,414482.0,70814.0,427.1518565577529,253.38445918661046,455.91124553043574
414492,16440,414492.0,45113.0,414492.0,70803.0,414.84173779357354,242.14667078233538,437.11523408472203
414492,16416,414492.0,45032.0,414492.0,70747.0,402.3635331473989,230.76888558201767,418.0792255836052
414492,16377,414492.0,44986.0,414492.0,70692.0,389.7255614647313,219.2598183585592,398.8173904749035
414492,16360,414492.0,44940.0,414492.0,70677.0,376.93652859507245,207.62924704354043,379.34438084627027
414492,16340,414492.0,44931.0,414492.0,70653.0,364.00505527298014,195.88683558759976,359.67464758451115
414492,16324,414492.0,44885.0,414492.0,70619.0,350.9393033213578,184.04124637108134,339.8220744736416
414502,16321,414502.0,44894.0,414502.0,70587.0,337.7467768000639,172.09958840729155,319.7997587709265
414502,16318,414502.0,44924.0,414502.0,70594.0,324.4343018815408,160.06720713375148,299.6197799592808
414502,16305,414502.0,44952.0,414502.0,70579.0,311.00817508771866,147.94808673670332,279.2931707610469
414502,16290,414502.0,44898.0,414502.0,70564.0,297.4743440719676,135.7456988814131,258.8301851293386
414502,16306,414502.0,44963.0,414502.0,70579.0,283.83854383389394,123.46368856653135,238.24068476241814
414502,16301,414502.0,44986.0,414502.0,70593.0,270.1065399453379,111.10647185190317,217.53467212729902
414513,16287,414513.0,44968.0,414513.0,70555.0,256.28452716202355,98.68019054253182,196.72303441630493
414513,16258,414513.0,44864.0,414513.0,70492.0,242.37942014169244,86.19345095793665,175.81805085449264
414513,16220,414513.0,44828.0,414513.0,70435.0,228.39879119051727,73.65690959738458,154.8331348041345
414513,16188,414513.0,44771.0,414513.0,70414.0,214.3504527865323,61.08190779485358,133.7819741848282
414513,16183,414513.0,44760.0,414513.0,70368.0,200.24189712575026,48.47907784540985,112.67768094055236
414513,16173,414513.0,44736.0,414513.0,70338.0,186.07991623478995,35.8574180849771,91.53220815070972
414523,16151,414523.0,44772.0,414523.0,70358.0,171.87051775995576,23.223911466972595,70.35599995994016
414523,16149,414523.0,44769.0,414523.0,70330.0,157.61895609978205,10.583723773023166,49.15801559720467
414523,16143,414523.0,44749.0,414523.0,70314.0,143.32978761460663,-2.059231264632899,27.94607654591323
414523,16138,414523.0,44764.0,414523.0,70321.0,129.00703270915585,-14.701807348322404,6.727212769331118
414523,16139,414523.0,44821.0,414523.0,70338.0,114.65444868061206,-27.34117307750114,-14.491925492407745
414523,16132,414523.0,44846.0,414523.0,70312.0,100.27585652902371,-39.97387555792943,-35.70438215412628
414533,16121,414533.0,44766.0,414533.0,70250.0,85.87546898203391,-52.594616567819344,-56.902298422381136
414533,16086,414533.0,44683.0,414533.0,70219.0,71.45809210674963,-65.19586254832302,-78.07693913760204
414533,16061,414533.0,44651.0,414533.0,70166.0,57.02905263386981,-77.76882488211368,-99.21927782397779
414533,16034,414533.0,44627.0,414533.0,70155.0,42.5938629770792,-90.30496276051565,-120.32067729978598
414533,16022,414533.0,44595.0,414533.0,70109.0,28.15782007497978,-102.79705573954607,-141.37339091328272
414533,16003,414533.0,44559.0,414533.0,70128.0,13.72572001199967,-115.23984624830177,-162.3708219476896
414544,15989,414544.0,44587.0,414544.0,70093.0,-0.6982874689543905,-127.63051535875582,-183.307496928232
414544,15996,414544.0,44660.0,414544.0,70046.0,-15.11072900441195,-139.96864795423346,-204.1789109009194
414544,15976,414544.0,44621.0,414544.0,70058.0,-29.50868793453799,-152.25533324454886,-224.98155247322234
414544,15981,414544.0,44590.0,414544.0,70106.0,-43.889571459586705,-164.4921008613926,-245.71283152193428
414544,15985,414544.0,44688.0,414544.0,70102.0,-58.250825442711744,-176.68039879262858,-266.3703126977598
414544,15978,414544.0,44648.0,414544.0,70030.0,-72.5895524311278,-188.82102624471872,-286.9506190968375
414554,15936,414554.0,44611.0,414554.0,70002.0,-86.90215441156226,-200.91327450796393,-307.4490200782402
414554,15909,414554.0,44590.0,414554.0,69959.0,-101.18432014952043,-212.9546277958168,-327.85986929443175
414554,15868,414554.0,44506.0,414554.0,69922.0,-115.43143615839426,-224.94128312444013,-348.17727585829834
414554,15867,414554.0,44450.0,414554.0,69911.0,-129.63915430735335,-236.8691857541869,-368.3956405120773
414554,15850,414554.0,44463.0,414554.0,69831.0,-143.80378837309559,-248.7353293642053,-388.51008329537126
414554,15838,414554.0,44490.0,414554.0,69853.0,-157.92242837099968,-260.53860873138854,-408.5168924109046
414564,15828,414564.0,44479.0,414564.0,69855.0,-171.9929103998304,-272.2797008617781,-428.4138062412296
414564,15824,414564.0,44458.0,414564.0,69851.0,-186.01374733209332,-283.96049066095554,-448.19974008843997
414564,15830,414564.0,44486.0,414564.0,69841.0,-199.9839597149629,-295.5836887198494,-467.8741337834283
414564,15825,414564.0,44534.0,414564.0,69843.0,-213.90275027376651,-307.1524145104978,-487.4363553139733
414564,15814,414564.0,44598.0,414564.0,69844.0,-227.7691070553226,-318.66914994605713,-506.8851746721259
414564,15782,414564.0,44502.0,414564.0,69776.0,-241.58153964223823,-330.1342696428385,-526.2183039095114
414575,15764,414575.0,44435.0,414575.0,69738.0,-255.33810025769787,-341.5453539591365,-545.4323656980089
414575,15734,414575.0,44397.0,414575.0,69694.0,-269.0366432682233,-352.89798299133247,-564.5234564206523
414575,15717,414575.0,44359.0,414575.0,69666.0,-282.67516934663183,-364.18720818685404,-583.4879254675113
414575,15706,414575.0,44350.0,414575.0,69619.0,-296.25212889418594,-375.40870401142524,-602.3230369463811
414575,15695,414575.0,44324.0,414575.0,69634.0,-309.7665896724359,-386.55942780151236,-621.027457258594
414575,15694,414575.0,44351.0,414575.0,69624.0,-323.21823227029256,-397.63790126264985,-639.6014087555286
414585,15685,414585.0,44363.0,414585.0,69615.0,-336.607207844227,-408.64406716650524,-658.0463964323274
414585,15683,414585.0,44328.0,414585.0,69618.0,-349.93391481261847,-419.5788002252151,-676.3647464601777
414585,15674,414585.0,44366.0,414585.0,69618.0,-363.19875117133915,-430.4434404707124,-694.5591224663667
414585,15688,414585.0,44448.0,414585.0,69677.0,-376.4018383789189,-441.2392337711,-712.631847486294
414585,15671,414585.0,44386.0,414585.0,69603.0,-389.54266823864,-451.9662342389304,-730.5839586659515
414585,15630,414585.0,44339.0,414585.0,69545.0,-402.61981444318167,-462.6223140740583,-748.4145936773423
414595,15604,414595.0,44298.0,414595.0,69500.0,-415.63101438672277,-473.203286639712,-766.121368557403
414595,15586,414595.0,44240.0,414595.0,69481.0,-428.5736111754908,-483.70391214036476,-783.7013645188129
414595,15560,414595.0,44184.0,414595.0,69431.0,-441.44502401999137,-494.11913641577087,-801.1519527693895
414595,15550,414595.0,44205.0,414595.0,69435.0,-454.24308317197017,-504.4452877808974,-818.471311721325
414595,15551,414595.0,44209.0,414595.0,69446.0,-466.96621734651455,-514.6807888686785,-835.6586366733175
414595,15540,414595.0,44239.0,414595.0,69429.0,-479.6134329899601,-524.8260395574032,-852.7138963209275
414606,15521,414606.0,44215.0,414606.0,69417.0,-492.18416234995277,-534.8827806656941,-869.637350644404
414606,15523,414606.0,44242.0,414606.0,69410.0,-504.6781604964078,-544.8534605318025,-886.4291964790539
414606,15523,414606.0,44286.0,414606.0,69414.0,-517.0954108437293,-554.7406368139584,-903.0893063691415
414606,15521,414606.0,44310.0,414606.0,69427.0,-529.4358874104332,-564.5460491792185,-919.6168198885796
414606,15499,414606.0,44267.0,414606.0,69379.0,-541.6992466782478,-574.269482215075,-936.0096056588973
414606,15467,414606.0,44177.0,414606.0,69313.0,-553.8847020237952,-583.9082705087326,-952.2640494401655
414616,15461,414616.0,44143.0,414616.0,69292.0,-565.9911920440047,-593.4580145729922,-968.3755468061979
414616,15439,414616.0,44100.0,414616.0,69261.0,-578.0176606690266,-602.9140179609649,-984.3393504186336
414616,15419,414616.0,44055.0,414616.0,69198.0,-589.9632710108319,-612.2726402583426,-1000.1512903995379
414616,15422,414616.0,44103.0,414616.0,69218.0,-601.8275631010408,-621.5322321757935,-1015.8083841405451
414616,15409,414616.0,44109.0,414616.0,69176.0,-613.6105130489209,-630.6933897662225,-1031.3092830632556
414616,15391,414616.0,44116.0,414616.0,69213.0,-625.3124713769653,-639.7584549663522,-1046.6543378659974
414626,15394,414626.0,44111.0,414626.0,69182.0,-636.9341060096015,-648.7307967123472,-1061.8453126612762
414626,15391,414626.0,44128.0,414626.0,69218.0,-648.476333719063,-657.6142874279244,-1076.88489370932
414626,15393,414626.0,44208.0,414626.0,69230.0,-659.9401104950387,-666.4126995639165,-1091.7760210363585
414626,15383,414626.0,44135.0,414626.0,69211.0,-671.3261212898897,-675.1287326873971,-1106.5210590565887
414626,15356,414626.0,44117.0,414626.0,69124.0,-682.6345492271678,-683.7632518201149,-1121.1212472892546
414626,15324,414626.0,44072.0,414626.0,69072.0,-693.8651124633946,-692.3154412030151,-1135.57707059863
414637,15301,414637.0,44027.0,414637.0,69103.0,-705.0174192930688,-700.7836225204453,-1149.8893080961034
414637,15312,414637.0,44019.0,414637.0,69066.0,-716.091406754723,-709.1661932240686,-1164.0597407301502
414637,15284,414637.0,44014.0,414637.0,69076.0,-727.0875510971152,-717.4623693011163,-1178.0911654089732
414637,15281,414637.0,43950.0,414637.0,69058.0,-738.0068703451329,-725.672631344662,-1191.987172959936
414637,15297,414637.0,44043.0,414637.0,69056.0,-748.850868707801,-733.7989973931487,-1205.7519367361583
414637,15259,414637.0,44024.0,414637.0,69025.0,-759.6213823260407,-741.8448715828918,-1219.3900319994489
414647,15274,414647.0,44034.0,414647.0,69020.0,-770.3204032184838,-749.8143086811008,-1232.906379043055
414647,15269,414647.0,44064.0,414647.0,69088.0,-780.9499683916604,-757.7112144958071,-1246.3061115891217
414647,15282,414647.0,44092.0,414647.0,69051.0,-791.5119319222636,-765.5386277538255,-1259.593957473332
414647,15241,414647.0,44043.0,414647.0,68996.0,-802.0076260239568,-773.2979254860015,-1272.7734714475034
414647,15209,414647.0,43972.0,414647.0,68964.0,-812.4377793617739,-780.9885022842459,-1285.8470022993129
414647,15191,414647.0,43931.0,414647.0,68905.0,-822.8028868513936,-788.6084799121818,-1298.8164528666189
414657,15187,414657.0,43929.0,414657.0,68933.0,-833.1037314091109,-796.1559919470119,-1311.6841650407218
414657,15162,414657.0,43858.0,414657.0,68879.0,-843.3417034834827,-803.6302643696151,-1324.4534480461473
414657,15157,414657.0,43860.0,414657.0,68872.0,-853.5189507207692,-811.0324375084297,-1337.1287944386916
414657,15160,414657.0,43947.0,414657.0,68862.0,-863.6384649764268,-818.3660888773823,-1349.716071081386
414657,15171,414657.0,43924.0,414657.0,68874.0,-873.7039892302666,-825.6368861809751,-1362.2226100774674
414657,15162,414657.0,43943.0,414657.0,68834.0,-883.7196856257976,-832.8515646540327,-1374.6570517430887
414668,15145,414668.0,43943.0,414668.0,68890.0,-893.6897810575022,-840.0171048354321,-1387.029079024778
414668,15167,414668.0,43978.0,414668.0,68907.0,-903.6183621949742,-847.1402036637178,-1399.3489155970553
414668,15163,414668.0,43977.0,414668.0,68853.0,-913.5091518462166,-854.2266501286176,-1411.6264962728426
414668,15112,414668.0,43875.0,414668.0,68828.0,-923.3652240367164,-861.2808420473323,-1423.870956997672
414668,15093,414668.0,43868.0,414668.0,68807.0,-933.1890523136378,-868.3061217288025,-1436.0908670731346
414668,15076,414668.0,43859.0,414668.0,68772.0,-942.9829984341313,-875.3057947925959,-1448.2947601222522
414678,15064,414678.0,43792.0,414678.0,68745.0,-952.7498204224435,-882.2840205145558,-1460.491623533122
414678,15030,414678.0,43812.0,414678.0,68738.0,-962.4929975437824,-889.2464562054263,-1472.6913622899276
414678,15040,414678.0,43814.0,414678.0,68742.0,-972.2170036439754,-896.2007627356484,-1484.9050871424479
414678,15045,414678.0,43831.0,414678.0,68736.0,-981.9274579110777,-903.156643177268,-1497.145054777918
414678,15041,414678.0,43838.0,414678.0,68726.0,-991.6309687574494,-910.1254122924768,-1509.424385109517
414678,15042,414678.0,43853.0,414678.0,68743.0,-1001.3347900441338,-917.1194183325397,-1521.7567475448864
414689,15055,414689.0,43906.0,414689.0,68780.0,-1011.0464735988141,-924.1513592898082,-1534.155894395965
414689,15050,414689.0,43925.0,414689.0,68754.0,-1020.7734833978227,-931.2333131064215,-1546.6348831498926
414689,15040,414689.0,43918.0,414689.0,68720.0,-1030.5227974846757,-938.3755887022687,-1559.2053696516086
414689,15006,414689.0,43840.0,414689.0,68687.0,-1040.3007098812604,-945.586018728691,-1571.8775100950086
414689,14984,414689.0,43784.0,414689.0,68630.0,-1050.1129840492604,-952.8702947670938,-1584.6604674028215
414689,14968,414689.0,43793.0,414689.0,68584.0,-1059.96526460758,-960.2331322263367,-1597.563266674679
414699,14950,414699.0,43722.0,414699.0,68611.0,-1069.8635022467995,-967.6794289480752,-1610.595710006248
414699,14949,414699.0,43724.0,414699.0,68592.0,-1079.8142378519537,-975.215097605027,-1623.7688484970383
414699,14948,414699.0,43776.0,414699.0,68600.0,-1089.8246990934176,-982.8476041010383,-1637.0948411337333
414699,14956,414699.0,43778.0,414699.0,68590.0,-1099.9026748718666,-990.5858292943831,-1650.586572557578
414699,14934,414699.0,43769.0,414699.0,68582.0,-1110.0562422645148,-998.4393185648221,-1664.257304554994
414699,14941,414699.0,43809.0,414699.0,68599.0,-1120.293531907698,-1006.4175726065675,-1678.1203487200044
414709,14967,414709.0,43863.0,414709.0,68614.0,-1130.6225092994111,-1014.5293467718582,-1692.1886020183103
414709,14946,414709.0,43793.0,414709.0,68580.0,-1141.0505673700475,-1022.7816793989932,-1706.4739084053078
414709,14913,414709.0,43781.0,414709.0,68540.0,-1151.5841162527065,-1031.179257993117,-1720.9866407152763
414709,14890,414709.0,43717.0,414709.0,68503.0,-1162.2286051184458,-1039.7247099174192,-1735.7358788562722
414709,14878,414709.0,43687.0,414709.0,68474.0,-1172.9889252778414,-1048.419511860169,-1750.7300139830968
414709,14867,414709.0,43636.0,414709.0,68451.0,-1183.8697896270337,-1057.2650747879056,-1765.9773796770212
414720,14829,414720.0,43615.0,414720.0,68438.0,-1194.8759648295559,-1066.2638242110895,-1781.4866973639537
414720,14856,414720.0,43675.0,414720.0,68449.0,-1206.0124653592836,-1075.41995393099,-1797.2672405815138
414720,14843,414720.0,43659.0,414720.0,68466.0,-1217.2845959212077,-1084.7394099873472,-1813.3285984137783
414720,14833,414720.0,43670.0,414720.0,68427.0,-1228.6977348323271,-1094.2292463312067,-1829.6801106520045
414720,14848,414720.0,43701.0,414720.0,68445.0,-1240.2570524713858,-1103.8969227261734,-1846.3303447197434
414720,14839,414720.0,43736.0,414720.0,68471.0,-1251.9672273640967,-1113.7495507329936,-1863.2866687097703
414730,14837,414730.0,43768.0,414730.0,68469.0,-1263.8320909365625,-1123.7928001830044,-1880.5545559975517
414730,14826,414730.0,43732.0,414730.0,68411.0,-1275.8543120961028,-1134.0296966307744,-1898.1367750064962
414730,14795,414730.0,43647.0,414730.0,68373.0,-1288.035249015117,-1144.4600260135044,-1916.033141903165
414730,14769,414730.0,43600.0,414730.0,68308.0,-1300.3750489833092,-1155.0808948530203,-1934.2410466030874
414730,14750,414730.0,43614.0,414730.0,68307.0,-1312.8729902126904,-1165.888004831581,-1952.756325084399
414730,14750,414730.0,43588.0,414730.0,68274.0,-1325.5278429787738,-1176.8765813942978,-1971.573947870625
414740,14718,414740.0,43548.0,414740.0,68282.0,-1338.3380517935343,-1188.0416994927298,-1990.6882758914885
414740,14753,414740.0,43554.0,414740.0,68269.0,-1351.301738648015,-1199.3785388531498,-2010.0929425692398
414740,14716,414740.0,43601.0,414740.0,68241.0,-1364.4165253520061,-1210.8825486881517,-2029.7805586145
414740,14704,414740.0,43574.0,414740.0,68261.0,-1377.6792903863895,-1222.5490606010258,-2049.74241985314
414740,14706,414740.0,43593.0,414740.0,68252.0,-1391.0860870046438,-1234.372560301818,-2069.968145475541
414740,14731,414740.0,43661.0,414740.0,68304.0,-1404.6320405532388,-1246.3459562565604,-2090.4450001043147
414751,14723,414751.0,43642.0,414751.0,68236.0,-1418.3108952773694,-1258.4595803551858,-2111.1569506209435
414751,14688,414751.0,43575.0,414751.0,68226.0,-1432.1144354088142,-1270.7001677357184,-2132.083966128564
414751,14657,414751.0,43512.0,414751.0,68192.0,-1446.0322988163673,-1283.0507793769432,-2153.2019116822285
414751,14646,414751.0,43503.0,414751.0,68118.0,-1460.0522624127,-1295.4917670518657,-2174.482854303904
414751,14632,414751.0,43458.0,414751.0,68115.0,-1474.1606050267687,-1308.0018866976839,-2195.8956080203598
414751,14592,414751.0,43431.0,414751.0,68064.0,-1488.342323500844,-1320.5590731078764,-2217.40635894638
414761,14608,414761.0,43458.0,414761.0,68067.0,-1502.5813097094342,-1333.1409494746958,-2238.979075952835
414761,14610,414761.0,43464.0,414761.0,68083.0,-1516.8603999402008,-1345.7249045205751,-2260.5755440869075
414761,14606,414761.0,43481.0,414761.0,68091.0,-1531.161084668833,-1358.287588187425,-2282.1548964408903
414761,14589,414761.0,43475.0,414761.0,68048.0,-1545.463061421632,-1370.8041463686634,-2303.6728157051484
414761,14612,414761.0,43517.0,414761.0,68096.0,-1559.7438842951487,-1383.2474726993335,-2325.080847907775
414761,14599,414761.0,43541.0,414761.0,68054.0,-1573.9785974684232,-1395.5873426324797,-2346.3258216918384
414771,14566,414771.0,43474.0,414771.0,68015.0,-1588.1393332032258,-1407.7894610483495,-2367.3493180437135
414771,14551,414771.0,43420.0,414771.0,67946.0,-1602.195176678344,-1419.8151003067028,-2388.087641464049
414771,14504,414771.0,43350.0,414771.0,67921.0,-1616.1124058183436,-1431.6218236413456,-2408.4724604158973
414771,14488,414771.0,43354.0,414771.0,67910.0,-1629.8549472408886,-1443.164809449611,-2428.4315949619395
414771,14488,414771.0,43311.0,414771.0,67874.0,-1643.3848369177156,-1454.397952157391,-2447.889455958002
414771,14476,414771.0,43334.0,414771.0,67862.0,-1656.6624276752475,-1465.274423370987,-2466.7671867005038
414782,14455,414782.0,43319.0,414782.0,67840.0,-1669.6463386888727,-1475.7467899124433,-2484.9827482687133
414782,14454,414782.0,43339.0,414782.0,67841.0,-1682.2933991939162,-1485.7668096500643,-2502.4509409931225
414782,14452,414782.0,43369.0,414782.0,67799.0,-1694.5586160851003,-1495.2849592785888,-2519.0833262543842
414782,14446,414782.0,43341.0,414782.0,67797.0,-1706.3950231189315,-1504.2497623993622,-2534.788193029769
414782,14450,414782.0,43408.0,414782.0,67830.0,-1717.7534232958512,-1512.6070834338605,-2549.4705133619964
414782,14421,414782.0,43364.0,414782.0,67780.0,-1728.582147368124,-1520.299447734446,-2563.031628660885
414792,14389,414792.0,43324.0,414792.0,67713.0,-1738.8270142261704,-1527.2655677409207,-2575.3690139471246
414792,14377,414792.0,43237.0,414792.0,67674.0,-1748.4316203052997,-1533.4406497578395,-2586.3768031983773
414792,14353,414792.0,43208.0,414792.0,67634.0,-1757.3377938175383,-1538.7576452268004,-2595.9469374473415
414792,14332,414792.0,43195.0,414792.0,67621.0,-1765.4860092082959,-1543.1487888424147,-2603.970275263612
414792,14307,414792.0,43131.0,414792.0,67542.0,-1772.8157981161755,-1546.5468064031431,-2610.337484940388
414792,14308,414792.0,43130.0,414792.0,67541.0,-1779.2661850631969,-1548.885869446693,-2614.9399870081843
414802,14302,414802.0,43159.0,414802.0,67558.0,-1784.776002094282,-1550.1023838265849,-2617.6708676251187
414802,14292,414802.0,43161.0,414802.0,67537.0,-1789.2840074327414,-1550.1352399612676,-2618.4253130322186
414802,14284,414802.0,43182.0,414802.0,67536.0,-1792.7289457166585,-1548.9255085957807,-2617.1006555445324
414802,14289,414802.0,43235.0,414802.0,67573.0,-1795.0496509576758,-1546.4159139206606,-2613.596402781629
414802,14292,414802.0,43235.0,414802.0,67554.0,-1796.1851051589451,-1542.5501223895187,-2607.814168462222
414802,14280,414802.0,43200.0,414802.0,67499.0,-1796.0744140955342,-1537.2720858720063,-2599.6576537209826
414813,14244,414813.0,43159.0,414813.0,67468.0,-1794.6569066253003,-1530.5260703463293,-2589.033277098477
414813,14214,414813.0,43084.0,414813.0,67436.0,-1791.8726286504727,-1522.2576370482889,-2575.8515028531974
414813,14210,414813.0,43081.0,414813.0,67422.0,-1787.6631952337118,-1512.4152641888973,-2560.028334319125
414813,14197,414813.0,43038.0,414813.0,67394.0,-1781.9726466217924,-1500.952048385138,-2541.486663528873
414813,14206,414813.0,43071.0,414813.0,67435.0,-1774.748063159172,-1487.827040202907,-2520.1574211089783
414813,14194,414813.0,43102.0,414813.0,67448.0,-1765.9399793410519,-1473.005992699676,-2495.9803386923545
414823,14221,414823.0,43147.0,414823.0,67482.0,-1755.502691800299,-1456.4614069023796,-2468.9042248826418
414823,14219,414823.0,43174.0,414823.0,67518.0,-1743.3944567509443,-1438.1720453172368,-2438.886969201245
414823,14243,414823.0,43191.0,414823.0,67530.0,-1729.5775743144761,-1418.1223595812385,-2405.895504348124
414823,14259,414823.0,43269.0,414823.0,67613.0,-1714.0184116687656,-1396.302041390508,-2369.905776704365
414823,14271,414823.0,43278.0,414823.0,67647.0,-1696.687394568561,-1372.7055150798012,-2330.90257031724
414823,14275,414823.0,43312.0,414823.0,67664.0,-1677.559049271635,-1347.3313721918576,-2288.8791871679996
414833,14256,414833.0,43263.0,414833.0,67661.0,-1656.6122739099771,-1320.1821934374802,-2243.8374719270328
414833,14278,414833.0,43249.0,414833.0,67690.0,-1633.8309170237967,-1291.265160808467,-2195.788491034266
414833,14287,414833.0,43276.0,414833.0,67718.0,-1609.2044615583252,-1260.5933059449635,-2144.7535321168216
414833,14318,414833.0,43310.0,414833.0,67764.0,-1582.7285335369475,-1228.1866659674574,-2090.764980173003
414833,14351,414833.0,43362.0,414833.0,67824.0,-1554.4051608622067,-1194.0727898109717,-2033.866909940351
414833,14393,414833.0,43444.0,414833.0,67934.0,-1524.2428127338633,-1158.2866065426088,-1974.1152841034973
414844,14423,414844.0,43494.0,414844.0,68035.0,-1492.256274253802,-1120.869812617762,-1911.577545440155
414844,14464,414844.0,43543.0,414844.0,68133.0,-1458.4664854585867,-1081.870050149966,-1846.33162335438
414844,14518,414844.0,43643.0,414844.0,68225.0,-1422.9003928683537,-1041.3401521009143,-1778.4647431972548
414844,14582,414844.0,43742.0,414844.0,68362.0,-1385.5906793078302,-999.3372383436423,-1708.0722888277905
414844,14623,414844.0,43760.0,414844.0,68420.0,-1346.575294226386,-955.9214868602417,-1635.2566609611065
414844,14644,414844.0,43786.0,414844.0,68466.0,-1305.897018211681,-911.1551934461254,-1560.1263892850407
414854,14680,414854.0,43780.0,414854.0,68556.0,-1263.6033862870468,-865.1027655683747,-1482.7959382279407
414854,14727,414854.0,43814.0,414854.0,68633.0,-1219.7469301537828,-817.8314986028547,-1403.385951920326
414854,14763,414854.0,43870.0,414854.0,68721.0,-1174.3854322514837,-769.4125130944353,-1322.0233760912918
414854,14830,414854.0,43922.0,414854.0,68819.0,-1127.58204219641,-719.9213186079728,-1238.8413639407827
414854,14901,414854.0,44011.0,414854.0,68921.0,-1079.4051970566652,-669.4378460283397,-1153.9790387726903
414854,14962,414854.0,44082.0,414854.0,69072.0,-1029.92826651517,-618.0460409736372,-1067.5809997934969
414864,15028,414864.0,44186.0,414864.0,69167.0,-979.2290360565382,-565.8331068022785,-979.7964471741946
414864,15090,414864.0,44242.0,414864.0,69328.0,-927.3892261522359,-512.8885341389137,-890.7780289560957
414864,15197,414864.0,44383.0,414864.0,69436.0,-874.4940044541521,-459.3030436239336,-800.680581043105
414864,15254,414864.0,44439.0,414864.0,69567.0,-820.6313001489817,-405.1673884084882,-709.6598423696787
414864,15318,414864.0,44450.0,414864.0,69640.0,-765.8910189069205,-350.57124619846195,-617.8713588039684
414864,15345,414864.0,44475.0,414864.0,69711.0,-710.3645583021648,-295.6029062180451,-525.4699066886415
414875,15429,414875.0,44501.0,414875.0,69787.0,-654.1447644796569,-240.3499181807805,-432.6095726431512
414875,15498,414875.0,44576.0,414875.0,69898.0,-597.3259770035568,-184.90001233485725,-339.44418914646747
414875,15552,414875.0,44642.0,414875.0,70014.0,-540.0038411537114,-129.3416158587862,-246.1275643779279
414875,15636,414875.0,44697.0,414875.0,70138.0,-482.2749959168745,-73.76383930764098,-152.8132038388028
414875,15706,414875.0,44784.0,414875.0,70259.0,-424.2367519502559,-18.25620141859565,-59.6536240039693
414875,15790,414875.0,44872.0,414875.0,70373.0,-365.98665520300506,37.0917993065367,33.20050411927036
414885,15870,414885.0,44934.0,414885.0,70489.0,-307.62191280936383,92.19135210991305,125.60120230057464
414885,15940,414885.0,45074.0,414885.0,70627.0,-249.23876107075967,146.95520299510497,217.40400992359764
414885,16023,414885.0,45155.0,414885.0,70731.0,-190.93185535594898,201.29880097327634,308.4688943457236
414885,16072,414885.0,45209.0,414885.0,70836.0,-132.79374963717873,255.14166161465198,398.66117657366476
414885,16138,414885.0,45204.0,414885.0,70896.0,-74.91454557226643,308.408268637702,487.8521671561998
414885,16184,414885.0,45212.0,414885.0,70963.0,-17.381766823385988,361.0278928316135,575.9192616648575
414896,16258,414896.0,45259.0,414896.0,71053.0,39.719627280187865,412.9335594434626,662.7455646950252
414896,16307,414896.0,45271.0,414896.0,71122.0,96.30724132906846,464.06090701697667,748.2194167084251
414896,16362,414896.0,45357.0,414896.0,71201.0,152.30127966398356,514.3473952081094,832.2340561960016
414896,16444,414896.0,45413.0,414896.0,71324.0,207.6245846953192,563.7319931957445,914.6874410271516
414896,16504,414896.0,45492.0,414896.0,71442.0,262.202795651731,612.1553932202603,995.48246113085
414896,16575,414896.0,45554.0,414896.0,71478.0,315.9646990649243,659.5605690937036,1074.52756807784
414906,16651,414906.0,45609.0,414906.0,71589.0,368.84266614186527,705.893400303029,1151.737262116178
414906,16712,414906.0,45740.0,414906.0,71714.0,420.7731368308415,751.1033453337905,1227.032324273015
414906,16762,414906.0,45790.0,414906.0,71769.0,471.69709408140966,795.144424994495,1300.3403163863063
414906,16804,414906.0,45780.0,414906.0,71795.0,521.5603441732212,837.976296783047,1371.5961290237424
414906,16833,414906.0,45712.0,414906.0,71859.0,570.3134937218308,879.564381587461,1440.741851099468
414906,16871,414906.0,45765.0,414906.0,71889.0,617.9116575012533,919.8785745305704,1507.72605437299
414916,16918,414916.0,45820.0,414916.0,71946.0,664.314048446664,958.891625808466,1572.5030107684183
414916,16954,414916.0,45801.0,414916.0,71968.0,709.4836435543398,996.5783075884085,1635.0319635976507
414916,16999,414916.0,45865.0,414916.0,72069.0,753.3869735553458,1032.915078476998,1695.2764764476506
414916,17057,414916.0,45957.0,414916.0,72191.0,795.994009238528,1067.87988211828,1753.2042617623192
414916,17096,414916.0,45970.0,414916.0,72203.0,837.2781940823897,1101.4524692426417,1808.787761484582
414916,17143,414916.0,46022.0,414916.0,72267.0,877.2165897699128,1133.6150657937062,1862.0048413112718
414927,17207,414927.0,46122.0,414927.0,72350.0,915.7900565244022,1164.3529344725202,1912.8390145983876
414927,17247,414927.0,46179.0,414927.0,72412.0,952.9835357935112,1193.655174299049,1961.2796378038156
414927,17254,414927.0,46176.0,414927.0,72419.0,988.7863488823248,1221.5158355600151,2007.3223309671394
414927,17283,414927.0,46131.0,414927.0,72414.0,1023.192180135871,1247.934456004857,2050.969010389388
414927,17296,414927.0,46139.0,414927.0,72438.0,1056.1986903820123,1272.9154316037143,2092.227161298303
414927,17313,414927.0,46115.0,414927.0,72435.0,1087.807005718388,1296.4667156800192,2131.1087349587397
414937,17341,414937.0,46087.0,414937.0,72485.0,1118.0212233915013,1318.5984797190742,2167.6291556988717
414937,17339,414937.0,46138.0,414937.0,72511.0,1146.8479549812005,1339.3219035881164,2201.8066681892697
414937,17386,414937.0,46139.0,414937.0,72553.0,1174.295904746299,1358.6483498477337,2233.662083178999
414937,17414,414937.0,46184.0,414937.0,72589.0,1200.3755841138004,1376.5891302514897,2263.218799686126
414937,17444,414937.0,46235.0,414937.0,72618.0,1225.0992956035975,1393.1557102712327,2290.502947148584
414937,17467,414937.0,46301.0,414937.0,72619.0,1248.481268478116,1408.3603269975908,2315.5434970269657
414947,17510,414947.0,46405.0,414947.0,72715.0,1270.5377919194623,1422.217177886441,2338.3723126612417
414947,17508,414947.0,46375.0,414947.0,72731.0,1291.2873553939808,1434.744009948114,2359.024470359003
414947,17527,414947.0,46301.0,414947.0,72704.0,1310.750700564883,1445.9631739460822,2377.5388304462313
414947,17523,414947.0,46296.0,414947.0,72699.0,1328.9506404745828,1455.9012161603105,2393.9581164652977
414947,17525,414947.0,46246.0,414947.0,72663.0,1345.9116777116021,1464.5874380500431,2408.3282017575493
414947,17548,414947.0,46258.0,414947.0,72659.0,1361.6595543980643,1472.0524692372949,2420.6970351358545
414958,17534,414958.0,46233.0,414958.0,72676.0,1376.220866780087,1478.3272313206871,2431.113649398601
414958,17557,414958.0,46238.0,414958.0,72716.0,1389.6227516926522,1483.4422308364208,2439.627633633249
414958,17575,414958.0,46275.0,414958.0,72681.0,1401.8926339281566,1487.4271601420862,2446.2891547536074
414958,17584,414958.0,46278.0,414958.0,72710.0,1413.058144941677,1490.3109165484395,2451.1490774074846
414958,17607,414958.0,46306.0,414958.0,72716.0,1423.1471978439956,1492.1219901709085,2454.2589337404274
414958,17624,414958.0,46378.0,414958.0,72723.0,1432.1881246998985,1492.8890859971243,2455.6709842176842
414968,17645,414968.0,46418.0,414968.0,72789.0,1440.209895466346,1492.642165420784,2455.438549971833
414968,17639,414968.0,46381.0,414968.0,72764.0,1447.2423711079152,1491.4137747573063,2453.6166493856927
414968,17613,414968.0,46303.0,414968.0,72716.0,1453.3163592487758,1489.2397187297502,2450.262583028877
414968,17614,414968.0,46246.0,414968.0,72685.0,1458.4632872397451,1486.1583715898862,2445.435793291332
414968,17616,414968.0,46234.0,414968.0,72635.0,1462.714673784824,1482.2090942277007,2439.1969766272778
414968,17612,414968.0,46200.0,414968.0,72598.0,1466.1017381036083,1477.4307679058536,2431.6069524280506
414978,17616,414978.0,46192.0,414978.0,72648.0,1468.6551962110673,1471.860864300727,2422.7257196526984
414978,17624,414978.0,46212.0,414978.0,72604.0,1470.4051481962083,1465.5349494226784,2412.612110077168
414978,17624,414978.0,46225.0,414978.0,72575.0,1471.3810595573018,1458.4866546151432,2401.323876355175
414978,17625,414978.0,46231.0,414978.0,72566.0,1471.6118072904883,1450.7481074118255,2388.917571473515
414978,17616,414978.0,46250.0,414978.0,72581.0,1471.1256906183476,1442.3505499816877,2375.4482743998406
414978,17633,414978.0,46306.0,414978.0,72610.0,1469.9503932838531,1433.3250753068207,2360.969748996604
414989,17658,414989.0,46240.0,414989.0,72583.0,1468.11306648779,1423.7035245928653,2345.5351214368625
414989,17611,414989.0,46157.0,414989.0,72534.0,1465.6405902620334,1413.5189236150325,2329.1974976169645
414989,17604,414989.0,46196.0,414989.0,72472.0,1462.559642060112,1402.8048923498136,2312.0098894664034
414989,17607,414989.0,46112.0,414989.0,72462.0,1458.8963733733226,1391.5946926323281,2294.024478794206
414989,17587,414989.0,46119.0,414989.0,72427.0,1454.676059806396,1379.9205785655356,2275.291830151336
414989,17562,414989.0,46078.0,414989.0,72379.0,1449.9228735282147,1367.813262435448,2255.8603829212893
414999,17580,414999.0,46055.0,414999.0,72407.0,1444.6596032465216,1355.3013999834516,2235.776107684502
414999,17568,414999.0,46070.0,414999.0,72357.0,1438.9074524714952,1342.4112174965903,2215.0823880298344
414999,17594,414999.0,46085.0,414999.0,72372.0,1432.6861237771832,1329.1664740704425,2193.820191086751
414999,17577,414999.0,46116.0,414999.0,72351.0,1426.0141134978494,1315.5889787804902,2172.0283533572792
414999,17596,414999.0,46116.0,414999.0,72368.0,1418.9090522986614,1301.699530444409,2149.7439825415904
414999,17612,414999.0,46173.0,414999.0,72372.0,1411.388070781124,1287.5190040308937,2127.003089445553
415008,17588,415008.0,46146.0,415008.0,72330.0,1403.4682401410084,1273.0694919580806,2103.84133947953
415008,17565,415008.0,46067.0,415008.0,72298.0,1395.1668728061227,1258.375143415928,2080.294544138761
415008,17548,415008.0,45968.0,415008.0,72246.0,1386.501419416683,1243.461929953178,2056.398620127092
415008,17534,415008.0,45967.0,415008.0,72208.0,1377.4891153924536,1228.3562596505324,2032.1891505540982
415008,17513,415008.0,45937.0,415008.0,72169.0,1368.1466497288784,1213.08349948243,2007.7008141792664
415008,17512,415008.0,45881.0,415008.0,72150.0,1358.489916182143,1197.667139640891,1982.9668859548406
415019,17516,415019.0,45928.0,415019.0,72137.0,1348.5338989244603,1182.1283622405786,1958.0189817913026
415019,17517,415019.0,45934.0,415019.0,72143.0,1338.2927953671967,1166.4860136516309,1932.887161824197
415019,17512,415019.0,45929.0,415019.0,72095.0,1327.780321025839,1150.7572084535598,1907.6003183030641
415019,17507,415019.0,45939.0,415019.0,72115.0,1317.0100199013104,1134.9581616732305,1882.186590113277
415019,17518,415019.0,45943.0,415019.0,72106.0,1305.9955293371108,1119.104876377944,1856.6737847751447
415019,17509,415019.0,45963.0,415019.0,72078.0,1294.7508879534464,1103.2138277467525,1831.0899587798488
415029,17488,415029.0,45906.0,415029.0,72023.0,1283.2908477625058,1087.3026491615688,1805.4638821526112
415029,17455,415029.0,45851.0,415029.0,71992.0,1271.6309593041003,1071.390376582594,1779.8250078940687
415029,17436,415029.0,45803.0,415029.0,71929.0,1259.7873200434776,1055.4969066032063,1754.2030323880197
415029,17412,415029.0,45749.0,415029.0,71896.0,1247.7761494527467,1039.64193268167,1728.6272927200223
415029,17404,415029.0,45746.0,415029.0,71858.0,1235.6134108460094,1023.8438810377994,1703.1261476853806
415029,17394,415029.0,45739.0,415029.0,71848.0,1223.3145927771577,1008.1192381921428,1677.726527725954
415039,17401,415039.0,45745.0,415039.0,71805.0,1210.89469603291,992.4824557422595,1652.4537601412337
415039,17384,415039.0,45768.0,415039.0,71820.0,1198.3684095307233,976.9463448242014,1627.3316019210713
415039,17388,415039.0,45743.0,415039.0,71797.0,1185.7503613061385,961.5227371767897,1602.3824773548183
415039,17381,415039.0,45783.0,415039.0,71831.0,1173.055363162211,946.2231897753961,1577.6280127335926
415039,17395,415039.0,45799.0,415039.0,71809.0,1160.298707191223,931.0597447823491,1553.0898552672759
415039,17373,415039.0,45789.0,415039.0,71766.0,1147.496550111328,916.0458739435902,1528.7904921833897
415050,17326,415050.0,45721.0,415050.0,71690.0,1134.6661663569712,901.1972285934311,1504.7535309873929
415050,17288,415050.0,45636.0,415050.0,71657.0,1121.8257294140612,886.531502711489,1481.0031993296946
415050,17283,415050.0,45578.0,415050.0,71602.0,1108.9936815551714,872.0672446066735,1457.5634563201763
415050,17257,415050.0,45547.0,415050.0,71555.0,1096.1881629197144,857.8222075948996,1434.4571455676196
415050,17257,415050.0,45565.0,415050.0,71541.0,1083.426746242821,843.8120850038185,1411.705284294422
415050,17243,415050.0,45525.0,415050.0,71549.0,1070.7263835596855,830.0500296424458,1389.3266598116693
415060,17227,415060.0,45545.0,415060.0,71523.0,1058.1034469422034,816.5466860580996,1367.3379451677765
415060,17228,415060.0,45572.0,415060.0,71499.0,1045.5737837939623,803.3104619533424,1345.754082419675
415060,17217,415060.0,45543.0,415060.0,71513.0,1033.1527983144692,790.3480930526282,1324.5885788304067
415060,17217,415060.0,45608.0,415060.0,71535.0,1020.8556173054568,777.6653898326531,1303.8539077546734
415060,17217,415060.0,45624.0,415060.0,71499.0,1008.6973296989268,765.2681355293853,1283.5622525635144
415060,17187,415060.0,45570.0,415060.0,71430.0,996.6932325307471,753.1631392654344,1263.7261095249287
415070,17157,415070.0,45474.0,415070.0,71384.0,984.8588946624607,741.358681155957,1244.3580935546577
415070,17121,415070.0,45453.0,415070.0,71350.0,973.2098616923327,729.8637036028567,1225.4700860686548
415070,17112,415070.0,45432.0,415070.0,71335.0,961.7611189305828,718.6864244378887,1207.0723984338147
415070,17065,415070.0,45359.0,415070.0,71325.0,950.5265568117552,707.8332640992802,1189.1733493131467
415070,17096,415070.0,45433.0,415070.0,71289.0,939.5185596892139,697.3081614689407,1171.7791887935919
415070,17083,415070.0,45416.0,415070.0,71308.0,928.747875416958,687.112405665126,1154.8941464188622
415081,17077,415081.0,45420.0,415081.0,71296.0,918.2238300775906,677.2451273474635,1138.5206089927876
415081,17069,415081.0,45430.0,415081.0,71278.0,907.9546082332809,667.7039415334104,1122.6594866981884
415081,17068,415081.0,45491.0,415081.0,71279.0,897.9474101879559,658.4855476670275,1107.3105691227227
415081,17083,415081.0,45493.0,415081.0,71345.0,888.2086337227157,649.5866715095394,1092.472937935877
415081,17075,415081.0,45497.0,415081.0,71249.0,878.7442136319285,641.0052335906339,1078.145681082867
415081,17053,415081.0,45434.0,415081.0,71217.0,869.5599852820635,632.7410967210137,1064.3283398503722
415091,17030,415091.0,45334.0,415091.0,71196.0,860.6617886757206,624.7958361013389,1051.0204776648966
415091,17001,415091.0,45322.0,415091.0,71153.0,852.055219738991,617.1714612043171,1038.2208745451364
415091,16982,415091.0,45279.0,415091.0,71136.0,843.7451723288408,609.8687895994168,1025.9269037512063
415091,16963,415091.0,45279.0,415091.0,71141.0,835.7353428005356,602.8862801372106,1014.1340987718268
415091,16985,415091.0,45319.0,415091.0,71139.0,828.0278791168189,596.2195460676603,1002.8360281137157
415091,16988,415091.0,45361.0,415091.0,71167.0,820.6233828250541,589.8616351676674,992.0245913639108
415101,16984,415101.0,45345.0,415101.0,71145.0,813.5212516893972,583.803969757123,981.6905869715929
415101,16986,415101.0,45390.0,415101.0,71124.0,806.7200695147046,578.0373660087276,971.8242140407518
415101,16977,415101.0,45458.0,415101.0,71194.0,800.2178569933684,572.5529769857445,962.4153728324094
415101,17008,415101.0,45396.0,415101.0,71169.0,794.012282777024,567.3434247930186,953.4541629548626
415101,16985,415101.0,45346.0,415101.0,71120.0,788.1009805390556,562.4035514230663,944.9315613448389
415101,16946,415101.0,45324.0,415101.0,71098.0,782.4817960346813,557.730045822911,936.8395315750762
415112,16937,415112.0,45289.0,415112.0,71074.0,777.1526019868359,553.3204026859008,929.1704575193581
415112,16932,415112.0,45252.0,415112.0,71066.0,772.1108043151096,549.1719375764135,921.9165208942042
415112,16892,415112.0,45223.0,415112.0,71051.0,767.3529263103029,545.2808868140548,915.0693264858586
415112,16917,415112.0,45262.0,415112.0,71035.0,762.874291080894,541.6416286437745,908.6196882989074
415112,16917,415112.0,45284.0,415112.0,71074.0,758.6688388141149,538.2464669911514,902.5575465428923
415112,16923,415112.0,45279.0,415112.0,71045.0,754.7292591140266,535.086101432478,896.8721432454604
415122,16929,415122.0,45300.0,415122.0,71040.0,751.0473151630133,532.1502837640215,891.552329317682
415122,16928,415122.0,45366.0,415122.0,71099.0,747.6141474476938,529.4284408753983,886.5868010412548
415122,16936,415122.0,45373.0,415122.0,71083.0,744.4205289773311,526.9105981574163,881.9645435780687
415122,16948,415122.0,45329.0,415122.0,71079.0,741.45712084462,524.5884175889329,877.6755142365262
415122,16913,415122.0,45338.0,415122.0,71006.0,738.7147102082781,522.4556242969956,873.7109283698938
415122,16904,415122.0,45238.0,415122.0,70983.0,736.1842205290536,520.5076295994205,870.0627455062929
415133,16890,415133.0,45230.0,415133.0,70980.0,733.8563951937776,518.7405632253849,866.7226980052611
415133,16890,415133.0,45183.0,415133.0,70959.0,731.7214057638855,517.14996783892,863.681508073923
415133,16874,415133.0,45178.0,415133.0,70967.0,729.7685895464223,515.7295992003787,860.9285160270313
415133,16887,415133.0,45223.0,415133.0,70940.0,727.9862925236718,514.4707125834375,858.4515076038376
415133,16896,415133.0,45254.0,415133.0,70978.0,726.3618422714446,513.3621007639636,856.2366273586355
415133,16913,415133.0,45246.0,415133.0,70976.0,724.8817504033576,512.3908029128175,854.2685019636992
415143,16906,415143.0,45299.0,415143.0,71021.0,723.5320801873795,511.5429363178021,852.5306912415082
415143,16947,415143.0,45356.0,415143.0,71005.0,722.2988360804206,510.80454003476393,851.0063581327688
415143,16931,415143.0,45335.0,415143.0,71031.0,721.1683877659332,510.16268588787216,849.6789011071825
415143,16919,415143.0,45339.0,415143.0,70958.0,720.1278421193668,509.6064686993859,848.5322783711637
415143,16895,415143.0,45241.0,415143.0,70963.0,719.1650680737891,509.12719820839055,847.5507936983761
415143,16891,415143.0,45238.0,415143.0,70959.0,718.2683464686545,508.7176351770175,846.7185042741962
415153,16893,415153.0,45188.0,415153.0,70935.0,717.4259629992273,508.370705047578,846.0187408036204
415153,16872,415153.0,45176.0,415153.0,70881.0,716.625955115497,508.0782843723031,845.4337221887226
415153,16886,415153.0,45200.0,415153.0,70946.0,715.8559525404341,507.83035774560256,844.9440062833435
415153,16897,415153.0,45249.0,415153.0,70933.0,715.1031037002778,507.61478835765047,844.5281982350652
415153,16900,415153.0,45211.0,415153.0,70952.0,714.3542119119905,507.41776320534234,844.1632509555376
415153,16890,415153.0,45230.0,415153.0,70963.0,713.5959805541204,507.22432039865305,843.8249617560003
415164,16877,415164.0,45315.0,415164.0,70990.0,712.8150964655581,507.0186898458354,843.488433156285
415164,16938,415164.0,45359.0,415164.0,71024.0,711.9982106862353,506.78512371037897,843.1286807716765
415164,16915,415164.0,45305.0,415164.0,70978.0,711.132191353612,506.509283916336,842.7213303817832
415164,16897,415164.0,45247.0,415164.0,70978.0,710.2045560900348,506.17898105934114,842.2429597598626
415164,16877,415164.0,45240.0,415164.0,70975.0,709.2035156358791,505.78359735075384,841.6709261686374
415164,16890,415164.0,45203.0,415164.0,70902.0,708.1176007973347,505.3129387187081,840.9829555026181
415174,16859,415174.0,45176.0,415174.0,70914.0,706.9353162848571,504.75625507728785,840.1565140488362
415174,16860,415174.0,45181.0,415174.0,70899.0,705.6449007408562,504.1014493437338,839.1680364457143
415174,16882,415174.0,45197.0,415174.0,70947.0,704.2341204765809,503.33455246241726,837.9925266215399
415174,16881,415174.0,45238.0,415174.0,70944.0,702.6902895512482,502.43975017473866,836.603789487231
415174,16881,415174.0,45217.0,415174.0,70966.0,701.0005347996726,501.3999032965271,834.9750250315868
415174,16897,415174.0,45257.0,415174.0,70958.0,699.1520613437674,500.1971511916788,833.0794072195001
415184,16917,415184.0,45334.0,415184.0,71018.0,697.1324291160375,498.81356053366846,830.890583788247
415184,16908,415184.0,45338.0,415184.0,70995.0,694.9299642476354,497.23222061302994,828.3833021909944
415184,16891,415184.0,45327.0,415184.0,70972.0,692.5341053675796,495.4385408823402,825.5340067001563
415184,16876,415184.0,45224.0,415184.0,70975.0,689.9354079349619,493.42078393207356,822.3209804720743
415184,16871,415184.0,45245.0,415184.0,70969.0,687.1252676540789,491.16941342737994,818.724156773816
415184,16871,415184.0,45179.0,415184.0,70920.0,684.0956425505829,488.67589081257677,814.7249299367313
415195,16846,415195.0,45153.0,415195.0,70885.0,680.8388933871121,485.9315869066057,810.3057602662425
415195,16849,415195.0,45207.0,415195.0,70915.0,677.3476313744425,482.9269483156909,805.4494945867294
415195,16856,415195.0,45238.0,415195.0,70908.0,673.6145653298721,479.65130548034716,800.1389554662265
415195,16842,415195.0,45217.0,415195.0,70918.0,669.6324942278555,476.09351694117083,794.3570951377468
415195,16840,415195.0,45207.0,415195.0,70905.0,665.3943866884214,472.24267305306125,788.0873605173583
415195,16845,415195.0,45229.0,415195.0,70939.0,660.8934140673938,468.0883070229901,781.3140209441333
415205,16875,415205.0,45300.0,415205.0,70982.0,656.1230830788081,463.62063978032563,774.0226939160956
415205,16865,415205.0,45287.0,415205.0,70927.0,651.0776381560876,458.83143374330393,766.2011806214066
415205,16846,415205.0,45229.0,415205.0,70889.0,645.7525151922553,453.7149619970446,757.8400025761862
415205,16818,415205.0,45156.0,415205.0,70874.0,640.1444441178128,448.2680347341262,748.9321176341728
415205,16797,415205.0,45127.0,415205.0,70830.0,634.251119510604,442.48887672132685,739.4722123195262
415205,16807,415205.0,45129.0,415205.0,70767.0,628.0707368297517,436.37571800805927,729.4559572437729
415215,16785,415215.0,45104.0,415215.0,70797.0,621.6017181447247,429.92591350576583,718.8791832873779
415215,16786,415215.0,45095.0,415215.0,70766.0,614.8426496794536,423.1355894824144,707.7372862962703
415215,16787,415215.0,45162.0,415215.0,70816.0,607.7922915844192,415.99959647637183,696.0252368405874
415215,16783,415215.0,45168.0,415215.0,70778.0,600.4496700971191,408.51200350154113,683.7380595907425
415215,16781,415215.0,45210.0,415215.0,70799.0,592.8142642680396,400.6671802443516,670.8714161692178
415215,16796,415215.0,45209.0,415215.0,70809.0,584.8862387079537,392.4610019714574,657.422125680019
415226,16778,415226.0,45198.0,415226.0,70812.0,576.6667405792215,383.89179482742685,643.3887687483466
415226,16759,415226.0,45204.0,415226.0,70789.0,568.158149513332,374.9608921198772,628.7723670626298
415226,16728,415226.0,45088.0,415226.0,70741.0,559.3640456601538,365.6726964010606,613.5767660863362
415226,16714,415226.0,45081.0,415226.0,70661.0,550.2888795987125,356.0340246904891,597.8083748405049
415226,16684,415226.0,45065.0,415226.0,70668.0,540.9375362468929,346.0529653814368,581.475313223228
415226,16686,415226.0,45006.0,415226.0,70625.0,531.314950477837,335.73795694497784,564.5865373502248
415236,16676,415236.0,44988.0,415236.0,70643.0,521.425885590817,325.09713877363754,547.1514485871398
415236,16669,415236.0,45011.0,415236.0,70597.0,511.2749230452208,314.1377533140953,529.1799171778409
415236,16675,415236.0,45026.0,415236.0,70597.0,500.8665924699244,302.86600599580913,510.68241053035933
415236,16655,415236.0,45023.0,415236.0,70589.0,490.2055669164806,291.28757699493036,491.67011048178347
415236,16642,415236.0,45037.0,415236.0,70587.0,479.29682808817313,279.4083495240058,472.15515883007106
415236,16656,415236.0,45087.0,415236.0,70598.0,468.1457467468096,267.23515814894597,452.1511400401315
415246,16635,415246.0,45068.0,415246.0,70554.0,456.75821978971277,254.77674310710967,431.673675247142
415246,16608,415246.0,44966.0,415246.0,70486.0,445.140851674421,242.04452588241838,410.7407284314711
415246,16602,415246.0,44923.0,415246.0,70456.0,433.300945243372,229.052329474445,389.3722599812826
415246,16563,415246.0,44895.0,415246.0,70411.0,421.24630173074394,215.81512191636062,367.58946180960027
415246,16536,415246.0,44857.0,415246.0,70378.0,408.9849207804831,202.34777422559586,345.41406514533435
415246,16524,415246.0,44833.0,415246.0,70351.0,396.5245921288689,188.66426539074575,322.86784780972494
415257,16530,415257.0,44864.0,415257.0,70317.0,383.8725729701873,174.77723880826824,299.97228968335617
415257,16516,415257.0,44876.0,415257.0,70318.0,371.03558955140284,160.6980918526932,276.7483938708565
415257,16510,415257.0,44850.0,415257.0,70307.0,358.0200635948946,146.43760221295884,253.21676595399833
415257,16498,415257.0,44840.0,415257.0,70282.0,344.8323305975662,132.00652802203854,229.3979587402814
415257,16503,415257.0,44901.0,415257.0,70336.0,331.478821458701,117.4159830942474,205.3129968316249
415257,16504,415257.0,44885.0,415257.0,70269.0,317.9663306698898,102.67808474282117,180.98410866435552
415267,16456,415267.0,44789.0,415267.0,70196.0,304.3023323997829,87.80673619139952,156.43529700710758
415267,16443,415267.0,44741.0,415267.0,70118.0,290.4950528307699,72.81753536628935,131.6920004343067
415267,16415,415267.0,44754.0,415267.0,70085.0,276.55320743332175,57.72674890532687,106.77991987364169
415267,16395,415267.0,44696.0,415267.0,70080.0,262.48565789807617,42.550419406459014,81.72391805891834
415267,16354,415267.0,44637.0,415267.0,70040.0,248.3010977244429,27.30386645727947,56.54757389351664
415267,16368,415267.0,44646.0,415267.0,70007.0,234.00772975279176,12.001048696033308,31.27316628883466
415277,16352,415277.0,44674.0,415277.0,70013.0,219.61311142160014,-3.345946456675165,5.921690061642266
415277,16333,415277.0,44666.0,415277.0,69973.0,205.1242686670846,-18.726656471856586,-19.48704422157607
415277,16329,415277.0,44659.0,415277.0,69979.0,190.5478576306241,-34.13150629607071,-44.93412798046461
415277,16311,415277.0,44641.0,415277.0,69960.0,175.8902545407385,-49.55122980911369,-70.40117760863006
415277,16329,415277.0,44693.0,415277.0,69956.0,161.15770508889216,-64.97647881074636,-95.86986333886841
415277,16332,415277.0,44689.0,415277.0,69911.0,146.35668283963957,-80.39717665579485,-121.32142351979189
415288,16281,415288.0,44663.0,415288.0,69822.0,131.49437349071593,-95.80160673648845,-146.73652715520632
415288,16242,415288.0,44554.0,415288.0,69816.0,116.57882942779713,-111.17598290357648,-172.0957524513086
415288,16221,415288.0,44517.0,415288.0,69759.0,101.61855553710188,-126.50512551732015,-197.38033391999102
415288,16187,415288.0,44458.0,415288.0,69729.0,86.6218943313213,-141.7738995383221,-222.57270106794977
415288,16192,415288.0,44420.0,415288.0,69699.0,71.59659259864077,-156.96863195724518,-247.65683760879188
415288,16180,415288.0,44484.0,415288.0,69698.0,56.54966263459744,-172.07800715634176,-272.61850224257853
415298,16158,415298.0,44457.0,415298.0,69672.0,41.487491258361274,-187.09310065277805,-297.445153675456
415298,16142,415298.0,44473.0,415298.0,69661.0,26.41596365407554,-202.0067013477419,-322.1256451072313
415298,16149,415298.0,44471.0,415298.0,69652.0,11.340502662439121,-216.8125620757205,-346.6498666903326
415298,16149,415298.0,44532.0,415298.0,69672.0,-3.7337621608076006,-231.50467988848834,-371.0082796702328
415298,16141,415298.0,44507.0,415298.0,69660.0,-18.80159066986596,-246.07629868920412,-395.1911907710247
415298,16110,415298.0,44470.0,415298.0,69572.0,-33.85722634046749,-260.51892989152134,-419.18804642451425
415308,16076,415308.0,44363.0,415308.0,69518.0,-48.89429028071129,-274.82218665789424,-442.98742916311676
415308,16053,415308.0,44333.0,415308.0,69492.0,-63.906035945054214,-288.97474769635664,-466.5778516386757
415308,16035,415308.0,44317.0,415308.0,69444.0,-78.88574417478765,-302.9657952604691,-489.9486423586791
415308,16002,415308.0,44244.0,415308.0,69403.0,-93.82704629286877,-316.7861161947892,-513.0905410238643
415308,15994,415308.0,44260.0,415308.0,69382.0,-108.724175470055,-330.4288380304424,-535.9961758247109
415308,15995,415308.0,44251.0,415308.0,69412.0,-123.57211823729028,-343.8899238669185,-558.6603197866598
415319,15962,415319.0,44302.0,415319.0,69378.0,-138.36657121915778,-357.16810651345986,-581.0796167784533
415319,15970,415319.0,44294.0,415319.0,69367.0,-153.1038105123058,-370.2641608407167,-603.2519918766811
415319,15951,415319.0,44295.0,415319.0,69358.0,-167.78057504015135,-383.1799353293104,-625.1762035676711
415319,15946,415319.0,44338.0,415319.0,69356.0,-182.39390127603713,-395.91751314783505,-646.8515095365105
415319,15936,415319.0,44293.0,415319.0,69329.0,-196.94092158998137,-408.4784642672505,-668.2772538426902
415319,15928,415319.0,44255.0,415319.0,69293.0,-211.4186667968828,-420.8633383143483,-689.452535392742
415329,15892,415329.0,44246.0,415329.0,69268.0,-225.82391348085457,-433.071758344512,-710.3761783261907
415329,15859,415329.0,44125.0,415329.0,69187.0,-240.1532421425676,-445.10305480730165,-731.047032682623
415329,15847,415329.0,44152.0,415329.0,69189.0,-254.4033649649731,-456.9572818616124,-751.4645588445255
415329,15817,415329.0,44115.0,415329.0,69172.0,-268.5715087948331,-468.6362821383673,-771.6293962815537
415329,15816,415329.0,44110.0,415329.0,69167.0,-282.6556652403963,-480.14426163041435,-791.5434936570064
415329,15797,415329.0,44161.0,415329.0,69130.0,-296.6546877385257,-491.4878038147169,-811.209887299045
415340,15802,415340.0,44169.0,415340.0,69120.0,-310.56823970660173,-502.67535322960805,-830.6325327239365
415340,15793,415340.0,44152.0,415340.0,69131.0,-324.3965998928056,-513.7162937756431,-849.8162134064623
415340,15813,415340.0,44234.0,415340.0,69147.0,-338.1403208958666,-524.6200383680166,-868.7661846710284
415340,15799,415340.0,44226.0,415340.0,69121.0,-351.7997368078711,-535.3950426356472,-887.4874614936766
415340,15767,415340.0,44206.0,415340.0,69111.0,-365.3744980605311,-546.0476634575831,-905.9841365900377
415340,15727,415340.0,44124.0,415340.0,69014.0,-378.8634775056246,-556.581586570311,-924.2591799292477
415350,15717,415350.0,44051.0,415350.0,68956.0,-392.2651185765001,-566.9984159984073,-942.3150069166877
415350,15674,415350.0,44041.0,415350.0,69002.0,-405.57792201035284,-577.2990993665973,-960.1545399222412
415350,15667,415350.0,43999.0,415350.0,68943.0,-418.80086678420514,-587.4853289479719,-977.7818463270592
415350,15683,415350.0,44017.0,415350.0,68940.0,-431.9336701965989,-597.5603719985231,-995.202118239953
415350,15659,415350.0,44032.0,415350.0,68942.0,-444.97671511339126,-607.5292857915231,-1012.4215502762152
415350,15652,415350.0,44068.0,415350.0,68921.0,-457.9307658145474,-617.3985212935265,-1029.447190115601
415360,15646,415360.0,44041.0,415360.0,68950.0,-470.7967739701878,-627.1751035322412,-1046.2865795133841
415360,15639,415360.0,44068.0,415360.0,68930.0,-483.5757524678377,-636.8658640343195,-1062.9472219745808
415360,15639,415360.0,44126.0,415360.0,68959.0,-496.2685774308503,-646.476777737624,-1079.4359234064837
415360,15617,415360.0,44099.0,415360.0,68947.0,-508.8757507818509,-656.0120358566786,-1095.7580621860743
415360,15594,415360.0,44031.0,415360.0,68889.0,-521.3972670138687,-665.4732066505171,-1111.9169908100687
415360,15575,415360.0,43962.0,415360.0,68855.0,-533.8326954629076,-674.8594047590605,-1127.9139676376137
415371,15554,415371.0,43966.0,415371.0,68819.0,-546.1814133264199,-684.1684467967985,-1143.7486955244037
415371,15529,415371.0,43941.0,415371.0,68787.0,-558.4428700435719,-693.397993507507,-1159.4200382788986
415371,15520,415371.0,43939.0,415371.0,68749.0,-570.6168486542547,-702.5460876140709,-1174.9266457916015
415371,15518,415371.0,43938.0,415371.0,68768.0,-582.703643206429,-711.6112695665487,-1190.2674372761212
415371,15510,415371.0,43949.0,415371.0,68764.0,-594.7040368689215,-720.5924715998647,-1205.4417200563103
415371,15495,415371.0,43946.0,415371.0,68747.0,-606.6191394319035,-729.4887063427091,-1220.4488751310225
415381,15501,415381.0,43932.0,415381.0,68747.0,-618.4502258355674,-738.2986937030632,-1235.2879495318077
415381,15504,415381.0,43988.0,415381.0,68760.0,-630.1985331998742,-747.0205090432083,-1249.9573194245174
415381,15495,415381.0,44007.0,415381.0,68744.0,-641.8649232309474,-755.6509653283091,-1264.4542580528419
415381,15480,415381.0,43913.0,415381.0,68669.0,-653.4495374667438,-764.1847940824521,-1278.774594768423
415381,15443,415381.0,43891.0,415381.0,68648.0,-664.9516760457163,-772.6145035583252,-1292.912961053701
415381,15424,415381.0,43799.0,415381.0,68623.0,-676.3699971374785,-780.9313291557595,-1306.8635386776223
415391,15404,415391.0,43805.0,415391.0,68624.0,-687.7029156364877,-789.1266712314631,-1320.6206747077395
415391,15388,415391.0,43776.0,415391.0,68570.0,-698.9489765284511,-797.1933102435712,-1334.1791348831869
415391,15364,415391.0,43809.0,415391.0,68563.0,-710.1071260777899,-805.1260149886292,-1347.5343213482222
415391,15369,415391.0,43793.0,415391.0,68571.0,-721.1769152854865,-812.92152594449,-1360.6825520544646
415391,15363,415391.0,43800.0,415391.0,68540.0,-732.158560774873,-820.5782255413061,-1373.6211267569593
415391,15354,415391.0,43808.0,415391.0,68554.0,-743.0528084824821,-828.0957889114476,-1386.3481736553551
415402,15346,415402.0,43829.0,415402.0,68549.0,-753.860737764646,-835.4747969652194,-1398.8624346231638
415402,15366,415402.0,43876.0,415402.0,68596.0,-764.5835706609043,-842.7160972992979,-1411.1628454105758
415402,15344,415402.0,43844.0,415402.0,68521.0,-775.2223770059072,-849.8199068605716,-1423.2478946825352
415402,15320,415402.0,43799.0,415402.0,68492.0,-785.7777846385031,-856.7851622808115,-1435.1153164359312
415402,15298,415402.0,43759.0,415402.0,68454.0,-796.2499860947739,-863.6096926196157,-1446.7625347602652
415402,15281,415402.0,43727.0,415402.0,68446.0,-806.639029625798,-870.2910850327386,-1458.1874522235858
415412,15254,415412.0,43675.0,415412.0,68400.0,-816.9451699014821,-876.8277354744896,-1469.389063890371
415412,15234,415412.0,43639.0,415412.0,68378.0,-827.1692156617557,-883.2199226017073,-1480.3679536965972
415412,15257,415412.0,43710.0,415412.0,68391.0,-837.3128135934867,-889.4707086163346,-1491.1267703479953
415412,15252,415412.0,43731.0,415412.0,68371.0,-847.3784296085475,-895.5860315826786,-1501.6704499924952
415412,15233,415412.0,43725.0,415412.0,68399.0,-857.3690294969742,-901.5738737693774,-1512.0060742772916
415412,15239,415412.0,43739.0,415412.0,68392.0,-867.2878029132537,-907.4433213919724,-1522.142487082576
415422,15252,415422.0,43802.0,415422.0,68421.0,-877.1379832235943,-913.2038838286794,-1532.0897425651654
415422,15235,415422.0,43797.0,415422.0,68425.0,-886.9225405095438,-918.8646349081837,-1541.8584226884589
415422,15210,415422.0,43764.0,415422.0,68398.0,-896.6438771482706,-924.4332629967693,-1551.4589757051806
415422,15200,415422.0,43692.0,415422.0,68324.0,-906.3038172945662,-929.9158188521582,-1560.9014901230462
415422,15169,415422.0,43690.0,415422.0,68327.0,-915.9038456683929,-935.3174321775899,-1570.196205353922
415422,15140,415422.0,43655.0,415422.0,68300.0,-925.4454579761709,-940.6433693220811,-1579.354337783755
415433,15132,415433.0,43616.0,415433.0,68239.0,-934.9306047015455,-945.8998916167168,-1588.388732185445
415433,15133,415433.0,43628.0,415433.0,68248.0,-944.3620642929261,-951.0949586856493,-1597.3144878575474
415433,15111,415433.0,43638.0,415433.0,68288.0,-953.7435635480308,-956.2386996185103,-1606.1494599041478
415433,15128,415433.0,43655.0,415433.0,68296.0,-963.0797240307015,-961.343368422084,-1614.914064476953
415433,15121,415433.0,43662.0,415433.0,68291.0,-972.3759072561479,-966.4228846104979,-1623.6304987113367
415433,15110,415433.0,43684.0,415433.0,68298.0,-981.637958500161,-971.4922540069189,-1632.3220405081465
415443,15122,415443.0,43757.0,415443.0,68312.0,-990.871960369042,-976.5668349138582,-1641.01259340045
415443,15117,415443.0,43736.0,415443.0,68331.0,-1000.083999994966,-981.6612670459086,-1649.7261904187005
415443,15094,415443.0,43705.0,415443.0,68299.0,-1009.2799132393527,-986.7884614161884,-1658.4864055982252
415443,15075,415443.0,43627.0,415443.0,68262.0,-1018.465195941895,-991.9594642484701,-1667.316046747302
415443,15045,415443.0,43612.0,415443.0,68217.0,-1027.6452155944621,-997.1843523494829,-1676.2374687022527
415443,15030,415443.0,43606.0,415443.0,68209.0,-1036.8256139808898,-1002.4734411555877,-1685.2733383598718
415453,15021,415453.0,43556.0,415453.0,68199.0,-1046.0127144238825,-1007.8381433580669,-1694.4473428039748
415453,15022,415453.0,43602.0,415453.0,68231.0,-1055.2137594135472,-1013.2914635944339,-1703.7844512311215
415453,15031,415453.0,43597.0,415453.0,68245.0,-1064.4368792496073,-1018.8481510898276,-1713.3106105074007
415453,15016,415453.0,43608.0,415453.0,68231.0,-1073.6908440817874,-1024.524402569648,-1723.052069853906
415453,15017,415453.0,43640.0,415453.0,68220.0,-1082.984787295528,-1030.3373213894506,-1733.034803332179
415453,15032,415453.0,43713.0,415453.0,68281.0,-1092.3279768663238,-1036.3041445092417,-1743.2841567838384
415464,15027,415464.0,43724.0,415464.0,68251.0,-1101.729496780785,-1042.440977737945,-1753.8243156736005
415464,15002,415464.0,43685.0,415464.0,68236.0,-1111.1978787054186,-1048.7614292856697,-1764.6776294512922
415464,14993,415464.0,43610.0,415464.0,68193.0,-1120.7409588404983,-1055.2760942895748,-1775.8643785363495
415464,14947,415464.0,43546.0,415464.0,68154.0,-1130.3660548009202,-1061.9933290250558,-1787.4031592676797
415464,14947,415464.0,43553.0,415464.0,68162.0,-1140.080355012941,-1068.9207538817295,-1799.3115340329452
415464,14919,415464.0,43540.0,415464.0,68141.0,-1149.891350394123,-1076.0664749816906,-1811.6064967033954
415474,14926,415474.0,43516.0,415474.0,68124.0,-1159.8071279687945,-1083.439605267593,-1824.3046070921448
415474,14925,415474.0,43555.0,415474.0,68148.0,-1169.8364371303646,-1091.0503863217668,-1837.4219618517961
415474,14918,415474.0,43573.0,415474.0,68147.0,-1179.9885384075478,-1098.9099875205086,-1850.9739628257398
415474,14918,415474.0,43584.0,415474.0,68140.0,-1190.2729538536607,-1107.029846607451,-1864.9748155543691
415474,14912,415474.0,43599.0,415474.0,68140.0,-1200.6992361393097,-1115.4208184640413,-1879.4370124324253
415474,14944,415474.0,43645.0,415474.0,68174.0,-1211.2766852156321,-1124.092348257047,-1894.3708688724985
415484,14922,415484.0,43645.0,415484.0,68115.0,-1222.0138908224633,-1133.0515289897883,-1909.783972442072
415484,14891,415484.0,43589.0,415484.0,68093.0,-1232.9182988718214,-1142.3022414893871,-1925.6808380868088
415484,14884,415484.0,43538.0,415484.0,68047.0,-1243.9961576085404,-1151.8450282469387,-1942.0631375135258
415484,14857,415484.0,43512.0,415484.0,68038.0,-1255.2527745030588,-1161.6778568121267,-1958.9302678337947
415484,14860,415484.0,43452.0,415484.0,67992.0,-1266.6927598783248,-1171.797226312338,-1976.279860734907
415484,14812,415484.0,43417.0,415484.0,67963.0,-1278.32019233755,-1182.1992589487786,-1994.1082119528023
415495,14820,415495.0,43462.0,415495.0,68023.0,-1290.138827263935,-1192.8806187160903,-2012.410576475911
415495,14826,415495.0,43491.0,415495.0,67975.0,-1302.1522673096727,-1203.838727245734,-2031.1809653283628
415495,14816,415495.0,43485.0,415495.0,67992.0,-1314.3638478588296,-1215.0710664123467,-2050.4115270610646
415495,14806,415495.0,43472.0,415495.0,67969.0,-1326.7763203218765,-1226.5742659749537,-2070.0920261506526
415495,14811,415495.0,43535.0,415495.0,67975.0,-1339.3915962411118,-1238.3434782276468,-2090.209477256011
415495,14821,415495.0,43578.0,415495.0,67973.0,-1352.2104873640744,-1250.371570279036,-2110.7477252036933
415505,14795,415505.0,43501.0,415505.0,67947.0,-1365.2323222293437,-1262.6479175941108,-2131.686965057547
415505,14769,415505.0,43459.0,415505.0,67908.0,-1378.4546658998338,-1275.1577319753528,-2153.0034132677624
415505,14752,415505.0,43365.0,415505.0,67856.0,-1391.8733816673027,-1287.8826690604396,-2174.6693956497984
415505,14727,415505.0,43386.0,415505.0,67817.0,-1405.4829113602882,-1300.8022038076542,-2196.653871174317
415505,14726,415505.0,43350.0,415505.0,67750.0,-1419.2765295171248,-1313.8947748308235,-2218.923208297244
415505,14700,415505.0,43301.0,415505.0,67737.0,-1433.246472438527,-1327.1383643177783,-2241.442042806574
415515,14692,415515.0,43350.0,415515.0,67759.0,-1447.3839828097227,-1340.5108461076159,-2264.1738803008157
415515,14692,415515.0,43344.0,415515.0,67736.0,-1461.679312640546,-1353.9900338273824,-2287.0810437399814
415515,14687,415515.0,43361.0,415515.0,67734.0,-1476.121601835173,-1367.5531545788688,-2310.124131169519
415515,14679,415515.0,43372.0,415515.0,67728.0,-1490.6986064009195,-1381.1760463860446,-2333.2614604147043
415515,14683,415515.0,43393.0,415515.0,67749.0,-1505.3963818845023,-1394.8323493046805,-2356.448526312717
415515,14678,415515.0,43369.0,415515.0,67702.0,-1520.1989446978812,-1408.492703130854,-2379.6373443456573
415526,14638,415526.0,43322.0,415526.0,67667.0,-1535.0879623829878,-1422.124235891794,-2402.7759816319303
415526,14611,415526.0,43256.0,415526.0,67597.0,-1550.042716181882,-1435.6907548886554,-2425.80867752858
415526,14594,415526.0,43206.0,415526.0,67530.0,-1565.0404093594368,-1449.1536838487893,-2448.676593971986
415526,14573,415526.0,43193.0,415526.0,67526.0,-1580.0565446965556,-1462.4733061754835,-2471.318883673882
415526,14551,415526.0,43145.0,415526.0,67503.0,-1595.065179633541,-1475.6097893597548,-2493.673515468569
415526,14543,415526.0,43187.0,415526.0,67479.0,-1610.039102349793,-1488.523775285602,-2515.67754509127
415536,14536,415536.0,43159.0,415536.0,67482.0,-1624.9499174740308,-1501.1764830675222,-2537.2670640912115
415536,14525,415536.0,43197.0,415536.0,67476.0,-1639.7679795691495,-1513.5293681887993,-2558.376998906484
415536,14524,415536.0,43191.0,415536.0,67467.0,-1654.4622178090406,-1525.5435375230522,-2578.940721696265
415536,14536,415536.0,43183.0,415536.0,67438.0,-1668.999868998823,-1537.1791177937125,-2598.889634912744
415536,14529,415536.0,43238.0,415536.0,67492.0,-1683.346057212954,-1548.3946657585082,-2618.1528228407424
415536,14512,415536.0,43244.0,415536.0,67458.0,-1697.4633223029043,-1559.1464271417412,-2636.656515317483
415546,14480,415546.0,43135.0,415546.0,67373.0,-1711.3113716100752,-1569.3875792307408,-2654.323550091274
415546,14459,415546.0,43108.0,415546.0,67352.0,-1724.8471876402505,-1579.068342921587,-2671.0735809352573
415546,14428,415546.0,43108.0,415546.0,67324.0,-1738.0253776500963,-1588.1370588164814,-2686.823973296664
415546,14405,415546.0,43041.0,415546.0,67318.0,-1750.798606658854,-1596.5412333027577,-2701.4905562987133
415546,14412,415546.0,43019.0,415546.0,67293.0,-1763.1179797583661,-1604.228297232817,-2714.9879382940094
415546,14385,415546.0,43075.0,415546.0,67276.0,-1774.9332254922476,-1611.1462934026433,-2727.2296558142534
415557,14387,415557.0,43058.0,415557.0,67288.0,-1786.1927021197098,-1617.2440452549395,-2738.128304381236
415557,14380,415557.0,43084.0,415557.0,67275.0,-1796.8433579069463,-1622.4706789670613,-2747.595538620749
415557,14356,415557.0,43031.0,415557.0,67233.0,-1806.8306794962118,-1626.7751481707787,-2755.541999145382
415557,14381,415557.0,43142.0,415557.0,67287.0,-1816.0986422114083,-1630.106005800339,-2761.877379527841
415557,14355,415557.0,43138.0,415557.0,67277.0,-1824.5896094241036,-1632.4108702278613,-2766.510391384356
415557,14330,415557.0,43050.0,415557.0,67232.0,-1832.2442273149434,-1633.6355853337836,-2769.3484908524324
415567,14310,415567.0,43030.0,415567.0,67203.0,-1839.0015840249916,-1633.7241852084007,-2770.297970457511
415567,14282,415567.0,42969.0,415567.0,67153.0,-1844.799673564299,-1632.620045691708,-2769.2647714830873
415567,14276,415567.0,42980.0,415567.0,67142.0,-1849.5759438327316,-1630.2673462545258,-2766.15566773519
415567,14233,415567.0,42933.0,415567.0,67101.0,-1853.26782754045,-1626.6122227505612,-2760.879455408259
415567,14237,415567.0,42960.0,415567.0,67088.0,-1855.8132985163775,-1621.6036006824909,-2753.3480609792464
415567,14237,415567.0,42969.0,415567.0,67128.0,-1857.151378518066,-1615.1937127328824,-2743.4774769689593
415578,14230,415578.0,42974.0,415578.0,67103.0,-1857.2224123833741,-1607.3382394670273,-2731.1882976991833
415578,14237,415578.0,43002.0,415578.0,67155.0,-1855.9681539650842,-1597.9962184313704,-2716.40589215359
415578,14250,415578.0,43024.0,415578.0,67183.0,-1853.331790245335,-1587.1298708105405,-2699.0603844720554
415578,14247,415578.0,43095.0,415578.0,67215.0,-1849.2578872990002,-1574.704215427731,-2679.0863858013536
415578,14240,415578.0,43070.0,415578.0,67179.0,-1843.692346962566,-1560.6864247687922,-2656.422714511835
415578,14220,415578.0,43018.0,415578.0,67169.0,-1836.5825864659673,-1545.045470568994,-2631.012689722069
415588,14194,415588.0,43019.0,415588.0,67137.0,-1827.878050029099,-1527.7527136832796,-2602.8051883049507
415588,14180,415588.0,43001.0,415588.0,67154.0,-1817.5310176871624,-1508.7831619835777,-2571.7560968490207
415588,14186,415588.0,43008.0,415588.0,67167.0,-1805.4975146422462,-1488.1166544868395,-2537.8296603445824
415588,14185,415588.0,42969.0,415588.0,67223.0,-1791.73805553909,-1465.73884702987,-2500.99939913062
415588,14190,415588.0,43059.0,415588.0,67258.0,-1776.2181603145832,-1441.6421073796614,-2461.2485102421488
415588,14220,415588.0,43098.0,415588.0,67345.0,-1758.9087258591794,-1415.8259195314874,-2418.569838996925
415598,14246,415598.0,43141.0,415598.0,67373.0,-1739.7862040040754,-1388.2965039937756,-2372.9655589700924
415598,14273,415598.0,43232.0,415598.0,67443.0,-1718.8325301059376,-1359.066032510437,-2324.446791288145
415598,14309,415598.0,43306.0,415598.0,67531.0,-1696.0349183397084,-1328.1516474923978,-2273.033280544362
415598,14330,415598.0,43348.0,415598.0,67555.0,-1671.385643682026,-1295.5742270878104,-2218.7530116221847
415598,14348,415598.0,43309.0,415598.0,67623.0,-1644.88190206507,-1261.3574377036125,-2161.641910467551
415598,14350,415598.0,43311.0,415598.0,67658.0,-1616.5258946554595,-1225.5278423198074,-2101.743895029743
415609,14363,415609.0,43364.0,415609.0,67712.0,-1586.3252193149617,-1188.115903951026,-2039.1111942497507
415609,14408,415609.0,43388.0,415609.0,67750.0,-1554.2934173830017,-1149.1569099724713,-1973.8048102146263
415609,14436,415609.0,43390.0,415609.0,67857.0,-1520.45035780005,-1108.6914398950114,-1905.8950064191072
415609,14473,415609.0,43455.0,415609.0,67926.0,-1484.8223549134846,-1066.7657902931255,-1835.4615084923535
415609,14537,415609.0,43531.0,415609.0,68045.0,-1447.4421427617574,-1023.4323150855596,-1762.5932491588187
415609,14590,415609.0,43621.0,415609.0,68146.0,-1408.3486746246754,-978.7491676616929,-1687.3877621029042
415619,14650,415619.0,43705.0,415619.0,68254.0,-1367.5866880907306,-932.779388517295,-1609.9503473282389
415619,14693,415619.0,43763.0,415619.0,68385.0,-1325.2062003257322,-885.5897513851475,-1530.3930999715005
415619,14758,415619.0,43886.0,415619.0,68481.0,-1281.262100064522,-837.2496673640023,-1448.8338558314344
415619,14802,415619.0,43917.0,415619.0,68554.0,-1235.8138286364342,-787.8301246592096,-1365.3952361715828
415619,14855,415619.0,43925.0,415619.0,68638.0,-1188.9251199151931,-737.4028903771821,-1280.204146182763
415619,14903,415619.0,43920.0,415619.0,68737.0,-1140.6638377414126,-686.0406034779517,-1193.3917312279068
415629,14948,415629.0,44002.0,415629.0,68836.0,-1091.1019229170345,-633.817722151783,-1105.0933921293126
415629,15014,415629.0,44008.0,415629.0,68917.0,-1040.3153969770742,-580.8114813860778,-1015.448665013227
415629,15080,415629.0,44098.0,415629.0,69034.0,-988.3842969575976,-527.1024191467574,-924.6010786947784
415629,15145,415629.0,44185.0,415629.0,69185.0,-935.3924314375114,-472.77449901439024,-832.6978838920584
415629,15230,415629.0,44272.0,415629.0,69280.0,-881.4269775215237,-417.91469916604444,-739.889368321803
415629,15298,415629.0,44340.0,415629.0,69414.0,-826.5779545016194,-362.61217021763434,-646.3279127819721
415640,15364,415640.0,44422.0,415640.0,69524.0,-770.9376361355228,-306.95739016667756,-552.1671415560511
415640,15451,415640.0,44546.0,415640.0,69687.0,-714.6000119582803,-251.04137224400824,-457.56109542602144
415640,15529,415640.0,44649.0,415640.0,69799.0,-657.6602440493776,-194.95457062727894,-362.6631875735825
415640,15591,415640.0,44677.0,415640.0,69873.0,-600.2140474089254,-138.78553167343148,-267.62513571137833
415640,15643,415640.0,44661.0,415640.0,69958.0,-542.3571831173867,-82.62013366511178,-172.59642807314071
415640,15697,415640.0,44687.0,415640.0,70060.0,-484.18526962320254,-26.542096221826114,-77.72443774730027
415650,15780,415650.0,44781.0,415650.0,70118.0,-425.7938017982764,29.365803984813965,16.845234357820573
415650,15828,415650.0,44812.0,415650.0,70250.0,-367.2781055062155,85.02094519875186,110.96843352557153
415650,15905,415650.0,44884.0,415650.0,70398.0,-308.73317601694293,140.34072755994407,204.50239181762527
415650,16016,415650.0,44945.0,415650.0,70498.0,-250.25340324857711,195.24262828218912,297.3062920387342
415650,16051,415650.0,45070.0,415650.0,70621.0,-191.9320492182212,249.64443354186187,389.2422128123312
415650,16130,415650.0,45118.0,415650.0,70701.0,-133.86067297041518,303.46491688112656,480.17589268396046
415660,16230,415660.0,45234.0,415660.0,70883.0,-76.12874078731897,356.6248190520064,569.9773035509515
415660,16290,415660.0,45389.0,415660.0,70971.0,-18.823151587117536,409.0480368077597,658.5214586965922
415660,16355,415660.0,45381.0,415660.0,71101.0,37.97239216700291,460.66315068808444,745.6895183237559
415660,16391,415660.0,45372.0,415660.0,71120.0,94.17778230611202,511.40452321253497,831.3696482039595
415660,16445,415660.0,45387.0,415660.0,71174.0,149.71650021463506,561.2119376942383,915.4570504352471
415660,16498,415660.0,45426.0,415660.0,71268.0,204.51538210059311,610.0292553813326,997.8532083908785
415671,16562,415671.0,45435.0,415671.0,71361.0,258.5044137749974,657.803189750849,1078.465116257285
415671,16615,415671.0,45521.0,415671.0,71410.0,311.6166908834339,704.4825094250375,1157.2050103948868
415671,16676,415671.0,45597.0,415671.0,71523.0,363.7884942474361,750.0177564499361,1233.99031413394
415671,16746,415671.0,45651.0,415671.0,71621.0,414.95942987074545,794.3616151698054,1308.7436693414224
415671,16796,415671.0,45724.0,415671.0,71718.0,465.07266198572165,837.4696196246857,1381.3933265942628
415671,16852,415671.0,45751.0,415671.0,71780.0,514.0751803867768,879.3007679249918,1451.8737689741756
415681,16929,415681.0,45895.0,415681.0,71893.0,561.9180391344823,919.818073370443,1520.126219682551
415681,16973,415681.0,45921.0,415681.0,71984.0,608.5566634631332,958.9894158808113,1586.09912464105
415681,17023,415681.0,45916.0,415681.0,72001.0,653.9512021933458,996.7885046995832,1649.7487131683001
415681,17032,415681.0,45909.0,415681.0,72039.0,698.0666660356148,1033.1950508291193,1711.0391506896653
415681,17058,415681.0,45919.0,415681.0,72080.0,740.8726567798406,1068.1939072067855,1769.9419692068186
415681,17119,415681.0,45937.0,415681.0,72114.0,782.3428301733593,1101.7738936894543,1826.4351956124215
415691,17144,415691.0,45957.0,415691.0,72162.0,822.4544982271004,1133.9268638796555,1880.5025855594895
415691,17190,415691.0,45987.0,415691.0,72208.0,861.1885053797071,1164.6470850054786,1932.1330263532186
415691,17227,415691.0,46029.0,415691.0,72279.0,898.5291809391833,1193.9308926829922,1981.320172144971
415691,17263,415691.0,46076.0,415691.0,72323.0,934.4642955756553,1221.7766531368861,2028.0623806086633
415691,17299,415691.0,46080.0,415691.0,72368.0,968.9850426161702,1248.1849561030185,2072.3628278693973
415691,17341,415691.0,46214.0,415691.0,72404.0,1002.0860344251116,1273.1589474012258,2114.2295629472587
415702,17378,415702.0,46247.0,415702.0,72510.0,1033.765356658839,1296.7050986432637,2153.6755542374135
415702,17407,415702.0,46222.0,415702.0,72507.0,1064.0246825975864,1318.834328971082,2190.719005021059
415702,17419,415702.0,46212.0,415702.0,72504.0,1092.8693221506487,1339.5624728220237,2225.383644153853
415702,17425,415702.0,46173.0,415702.0,72494.0,1120.3080415655916,1358.9095975575087,2257.6983053102363
415702,17441,415702.0,46132.0,415702.0,72526.0,1146.3526192748213,1376.8986359099713,2287.6958709313835
415702,17450,415702.0,46161.0,415702.0,72507.0,1171.0172873626016,1393.5538405746715,2315.4122235058894
415712,17485,415712.0,46144.0,415712.0,72562.0,1194.3182525607976,1408.8995277090462,2340.8854621773207
415712,17513,415712.0,46204.0,415712.0,72605.0,1216.2734420324127,1422.9594222531591,2364.155474604114
415712,17522,415712.0,46253.0,415712.0,72603.0,1236.9024774748727,1435.7566508442364,2385.2639640379693
415712,17546,415712.0,46273.0,415712.0,72641.0,1256.2266806689727,1447.3143329926907,2404.2546146386376
415712,17562,415712.0,46291.0,415712.0,72678.0,1274.2689924684373,1457.6563710961073,2421.173154882575
415712,17601,415712.0,46363.0,415712.0,72695.0,1291.0539300155642,1466.808088433475,2436.067538240994
415722,17605,415722.0,46349.0,415722.0,72720.0,1306.6076866786138,1474.7968883979265,2448.9882659592095
415722,17598,415722.0,46295.0,415722.0,72700.0,1320.9582120239543,1481.6527560557938,2459.9885792100386
415722,17594,415722.0,46251.0,415722.0,72693.0,1334.1349937311784,1487.4078827258008,2469.124310548686
415722,17596,415722.0,46266.0,415722.0,72657.0,1346.1685446019032,1492.0954551154211,2476.4533221247643
415722,17617,415722.0,46241.0,415722.0,72670.0,1357.0898912048397,1495.7485004487066,2482.0346786133437
415722,17603,415722.0,46266.0,415722.0,72638.0,1366.930257457714,1498.3992600801896,2485.9278464489075
415733,17625,415733.0,46247.0,415733.0,72659.0,1375.7208591791764,1500.0789245955445,2488.1920793649
415733,17645,415733.0,46276.0,415733.0,72662.0,1383.4927620625094,1500.8175452061187,2488.88604297007
415733,17640,415733.0,46322.0,415733.0,72686.0,1390.2768992047636,1500.6441892384757,2488.0677675217466
415733,17663,415733.0,46283.0,415733.0,72695.0,1396.1041723126036,1499.5874196948432,2485.7949108139965
415733,17654,415733.0,46363.0,415733.0,72713.0,1401.0054999978356,1497.6758631895043,2482.1251835963985
415733,17692,415733.0,46421.0,415733.0,72690.0,1405.011866805444,1494.9389280653227,2477.1167636410764
415743,17689,415743.0,46369.0,415743.0,72692.0,1408.154487327542,1491.4079409076278,2470.828504336213
415743,17695,415743.0,46275.0,415743.0,72645.0,1410.4650540458642,1487.116858627535,2463.319834739663
415743,17655,415743.0,46250.0,415743.0,72615.0,1411.9758108817693,1482.1015331218946,2454.6503289569714
415743,17650,415743.0,46226.0,415743.0,72578.0,1412.719224775653,1476.3981163228289,2444.878963168653
415743,17637,415743.0,46166.0,415743.0,72535.0,1412.7273817541807,1470.0416993285285,2434.063202078503
415743,17631,415743.0,46182.0,415743.0,72536.0,1412.03142821655,1463.0653220813167,2422.2581152628754
415753,17649,415753.0,46221.0,415753.0,72531.0,1410.6612344995403,1455.499376760247,2409.5157765667764
415753,17646,415753.0,46219.0,415753.0,72546.0,1408.6453242434716,1447.371768097349,2395.885159290346
415753,17649,415753.0,46202.0,415753.0,72538.0,1406.0109997907039,1438.7085523862445,2381.4124485856355
415753,17660,415753.0,46232.0,415753.0,72536.0,1402.7845068694867,1429.5344107341994,2366.141492229847
415753,17672,415753.0,46294.0,415753.0,72580.0,1398.9912376799489,1419.8731176051415,2350.1142911394604
415753,17678,415753.0,46288.0,415753.0,72547.0,1394.656052480619,1409.7485138226807,2333.3716597422863
415764,17646,415764.0,46231.0,415764.0,72517.0,1389.8035832633298,1399.1855805328794,2315.953854494614
415764,17629,415764.0,46165.0,415764.0,72469.0,1384.4582293203546,1388.21062577272,2297.9006632900528
415764,17610,415764.0,46134.0,415764.0,72439.0,1378.6437791509081,1376.850378440587,2279.2509139849994
415764,17604,415764.0,46108.0,415764.0,72431.0,1372.3829210077192,1365.1307295092302,2260.041843955509
415764,17614,415764.0,46118.0,415764.0,72392.0,1365.696926666519,1353.0758481713492,2240.3086835903587
415764,17610,415764.0,46123.0,415764.0,72416.0,1358.6056230430283,1340.7079169640822,2220.0845112123156
415774,17614,415774.0,46065.0,415774.0,72397.0,1351.1275760951,1328.0472584412762,2199.400386387677
415774,17609,415774.0,46103.0,415774.0,72369.0,1343.2803204240938,1315.1123973418846,2178.2856917486256
415774,17595,415774.0,46105.0,415774.0,72382.0,1335.0805267173137,1301.920104142551,2156.7684253099305
415774,17600,415774.0,46142.0,415774.0,72404.0,1326.5440740843267,1288.485872705214,2134.8755273227284
415774,17628,415774.0,46175.0,415774.0,72389.0,1317.6861684082496,1274.8248942054665,2112.6335564545475
415774,17624,415774.0,46177.0,415774.0,72349.0,1308.521732853157,1260.9532718392848,2090.0694513336784
415785,17583,415785.0,46041.0,415785.0,72322.0,1299.0658899219504,1246.8888747584208,2067.2108342363354
415785,17575,415785.0,46060.0,415785.0,72275.0,1289.3340569821316,1232.6510576459298,2044.085805449422
415785,17553,415785.0,45994.0,415785.0,72224.0,1279.3416284624761,1218.2595347488925,2020.722458122747
415785,17566,415785.0,45957.0,415785.0,72191.0,1269.1036611118427,1203.733332593816,1997.1482179441368
415785,17555,415785.0,45937.0,415785.0,72202.0,1258.6348249103648,1189.0899604000367,1973.389241490187
415785,17534,415785.0,46003.0,415785.0,72184.0,1247.9495260581334,1174.344874490584,1949.4702649753724
415795,17540,415795.0,45990.0,415795.0,72189.0,1237.0619749117884,1159.5117521878017,1925.4149430315395
415795,17542,415795.0,45998.0,415795.0,72181.0,1225.9862267353028,1144.6034127937157,1901.2463933948245
415795,17519,415795.0,46008.0,415795.0,72147.0,1214.7363445602716,1129.6326870209089,1876.9877220965036
415795,17528,415795.0,46034.0,415795.0,72200.0,1203.326580491021,1114.6131271894087,1852.6624879285014
415795,17542,415795.0,46051.0,415795.0,72190.0,1191.7715507136522,1099.5598653666618,1828.2953725587777
415795,17501,415795.0,45991.0,415795.0,72097.0,1180.0865231450955,1084.4904975765012,1803.9129948135856
415805,17486,415805.0,45935.0,415805.0,72053.0,1168.2875865437632,1069.4253783680374,1779.5440406211303
415805,17466,415805.0,45874.0,415805.0,72021.0,1156.39146178942,1054.3869629277287,1755.2184730048582
415805,17452,415805.0,45808.0,415805.0,71973.0,1144.4151693286017,1039.3985057137295,1730.9666023614093
415805,17420,415805.0,45792.0,415805.0,71968.0,1132.3757505739507,1024.4826349988068,1706.8184875920647
415805,17431,415805.0,45777.0,415805.0,71938.0,1120.2900184280593,1009.6602397126077,1682.8036347384516
415805,17410,415805.0,45829.0,415805.0,71912.0,1108.1744132861509,994.950054396511,1658.9509152540245
415816,17405,415816.0,45817.0,415816.0,71905.0,1096.0450226643661,980.3690610003929,1635.288563323803
415816,17406,415816.0,45797.0,415816.0,71881.0,1083.9176667845975,965.9332758599872,1611.8442209421144
415816,17408,415816.0,45836.0,415816.0,71925.0,1071.808057689643,951.6583546556168,1588.645189707647
415816,17404,415816.0,45862.0,415816.0,71917.0,1059.7320920862203,937.5601645785035,1565.7190766417323
415816,17395,415816.0,45801.0,415816.0,71858.0,1047.7061782420108,923.6555923411465,1543.0946348133555
415816,17363,415816.0,45787.0,415816.0,71820.0,1035.7474223794095,909.9630411056181,1520.8021098050033
415826,17331,415826.0,45759.0,415826.0,71749.0,1023.873520231223,896.5022312712977,1498.872777409444
415826,17309,415826.0,45686.0,415826.0,71710.0,1012.1023349938972,883.2936303458855,1477.338005497034
415826,17295,415826.0,45635.0,415826.0,71697.0,1000.4513736019228,870.3575901951865,1456.2282822478937
415826,17278,415826.0,45606.0,415826.0,71645.0,988.9373934802431,857.7131343589813,1435.5725274705082
415826,17270,415826.0,45643.0,415826.0,71640.0,977.5761776654745,845.3769229805063,1415.3976779365605
415826,17285,415826.0,45661.0,415826.0,71638.0,966.3824737102437,833.3630585249185,1395.7284466408526
415836,17267,415836.0,45630.0,415836.0,71637.0,955.37014847774,821.6836528260885,1376.587400825137
415836,17262,415836.0,45654.0,415836.0,71629.0,944.5524429959979,810.3494466995775,1357.9953559407058
415836,17276,415836.0,45722.0,415836.0,71658.0,933.9421690706239,799.3703380365989,1339.971902679149
415836,17275,415836.0,45678.0,415836.0,71615.0,923.5519605520154,788.756261213599,1322.5359996072698
415836,17251,415836.0,45675.0,415836.0,71577.0,913.394619312773,778.5181119031613,1305.7063697036133
415836,17212,415836.0,45573.0,415836.0,71533.0,903.4832357760782,768.6678993735136,1289.5013176968273
415847,17186,415847.0,45527.0,415847.0,71488.0,893.8308447819431,759.2178790289229,1273.9380303369219
415847,17188,415847.0,45561.0,415847.0,71479.0,884.4498369572475,750.1791909791542,1259.0317435216293
415847,17178,415847.0,45472.0,415847.0,71432.0,875.3515542023765,741.560846123062,1244.795052981502
415847,17151,415847.0,45517.0,415847.0,71426.0,866.5461599668546,733.3691990374332,1231.2373963735365
415847,17159,415847.0,45511.0,415847.0,71434.0,858.042541104712,725.6076564480691,1218.364702335604
415847,17159,415847.0,45523.0,415847.0,71451.0,849.848220745276,718.2767890490502,1206.179412619153
415857,17156,415857.0,45529.0,415857.0,71439.0,841.969453908037,711.374779775312,1194.6809216288673
415857,17158,415857.0,45560.0,415857.0,71484.0,834.4114509765703,704.8979373261686,1183.86618031937
415857,17161,415857.0,45651.0,415857.0,71509.0,827.1786033559624,698.8414895021463,1173.730448268645
415857,17157,415857.0,45569.0,415857.0,71427.0,820.2747131650433,693.2007900256658,1164.2681211605661
415857,17145,415857.0,45529.0,415857.0,71450.0,813.7031863435574,687.9721153328185,1155.4730428946036
415857,17113,415857.0,45497.0,415857.0,71385.0,807.4670433413564,683.1522399679151,1147.3381223884523
415867,17096,415867.0,45445.0,415867.0,71383.0,801.5686359754247,678.7372541357533,1139.854712635286
415867,17087,415867.0,45438.0,415867.0,71364.0,796.0091695229268,674.7213844468309,1133.0120092647844
415867,17091,415867.0,45452.0,415867.0,71346.0,790.7883092526899,671.0961154848187,1126.7965579392135
415867,17102,415867.0,45494.0,415867.0,71392.0,785.9040737327647,667.8499260706994,1121.1920045060565
415867,17104,415867.0,45478.0,415867.0,71386.0,781.3530088551827,664.968701213799,1116.1792401232392
415867,17112,415867.0,45488.0,415867.0,71378.0,777.1304969324331,662.4363162132195,1111.7368528401678
415878,17093,415878.0,45529.0,415878.0,71397.0,773.2310228863009,660.2350473028878,1107.84148757522
415878,17122,415878.0,45549.0,415878.0,71418.0,769.6483227969409,658.3460825550147,1104.4680949386066
415878,17128,415878.0,45610.0,415878.0,71445.0,766.3755667657094,656.7504047825109,1101.5903974916164
415878,17112,415878.0,45549.0,415878.0,71411.0,763.4056774764038,655.4297981190575,1099.1815034148412
415878,17073,415878.0,45512.0,415878.0,71384.0,760.7314689727714,654.3672968870114,1097.2141685696456
415878,17083,415878.0,45467.0,415878.0,71360.0,758.3453326787077,653.5466118830049,1095.6604184289317
415888,17065,415888.0,45472.0,415888.0,71378.0,756.2387501694974,652.9509717586468,1094.4908687218208
415888,17066,415888.0,45458.0,415888.0,71380.0,754.4019729299598,652.5621733332157,1093.674310320921
415888,17086,415888.0,45477.0,415888.0,71396.0,752.8238956879982,652.3601287612884,1093.1777293197242
415888,17085,415888.0,45512.0,415888.0,71404.0,751.4921357829137,652.3228636058827,1092.9665649856272
415888,17097,415888.0,45534.0,415888.0,71417.0,750.3932885705019,652.4269603951257,1093.0050285656341
415888,17095,415888.0,45534.0,415888.0,71441.0,749.513189270032,652.6482702797629,1093.2564597726855
415898,17107,415898.0,45569.0,415898.0,71475.0,748.8371088287847,652.9625515310261,1093.6838091225102
415898,17122,415898.0,45645.0,415898.0,71488.0,748.3499550885168,653.3461307631623,1094.2503100334104
415898,17119,415898.0,45586.0,415898.0,71533.0,748.0365384140374,653.7768406165475,1094.9202609277618
415898,17123,415898.0,45562.0,415898.0,71450.0,747.8818213193911,654.2346700380955,1095.659651381695
415898,17094,415898.0,45520.0,415898.0,71456.0,747.8709866347517,654.7014236159504,1096.4361680152977
415898,17099,415898.0,45528.0,415898.0,71423.0,747.9892477982805,655.159750839834,1097.218502297862
415909,17088,415909.0,45462.0,415909.0,71423.0,748.2215171058957,655.5922218072209,1097.9755178415753
415909,17083,415909.0,45481.0,415909.0,71425.0,748.552112511642,655.9805086380292,1098.6756768786486
415909,17105,415909.0,45527.0,415909.0,71473.0,748.9645783479968,656.3047804302623,1099.286842287591
415909,17110,415909.0,45575.0,415909.0,71484.0,749.4416994001274,656.5438567343145,1099.7765917790275
415909,17115,415909.0,45576.0,415909.0,71491.0,749.9657189840708,656.6761505395779,1100.112869211889
415909,17121,415909.0,45564.0,415909.0,71505.0,750.5185814720102,656.6806223165701,1100.264549098954
415919,17136,415919.0,45684.0,415919.0,71544.0,751.0821168626301,656.5373997430318,1100.2018586644442
415919,17172,415919.0,45671.0,415919.0,71545.0,751.6383177310584,656.2286668471659,1099.8969093910669
415919,17138,415919.0,45619.0,415919.0,71545.0,752.1697617572355,655.739804982049,1099.3242782984767
415919,17136,415919.0,45556.0,415919.0,71504.0,752.6598626862113,655.0596286294125,1098.46126141103
415919,17127,415919.0,45518.0,415919.0,71482.0,753.0927054110384,654.1793056888655,1097.2875735769398
415919,17124,415919.0,45542.0,415919.0,71499.0,753.4527024898732,653.0908935338889,1095.7847078642515
415929,17118,415929.0,45504.0,415929.0,71462.0,753.724327603338,651.786393713969,1093.9354085078753
415929,17134,415929.0,45535.0,415929.0,71449.0,753.8919527679343,650.2573842608747,1091.7233106286608
415929,17138,415929.0,45533.0,415929.0,71465.0,753.9398404019113,648.4949505910622,1089.1325428917942
415929,17136,415929.0,45548.0,415929.0,71495.0,753.8522846771009,646.4898525412234,1086.1475385063577
415929,17152,415929.0,45553.0,415929.0,71493.0,753.6137711217773,644.2328488963467,1082.7533444689002
415929,17139,415929.0,45575.0,415929.0,71545.0,753.2091023625582,641.715062327598,1078.9362474139418
415940,17174,415940.0,45664.0,415940.0,71542.0,752.6235370492009,638.928575259143,1074.684522266612
415940,17170,415940.0,45645.0,415940.0,71546.0,751.8430254223235,635.8675179975543,1069.9891887747096
415940,17150,415940.0,45547.0,415940.0,71482.0,750.8544873557726,632.5290624861852,1064.844405946938
415940,17159,415940.0,45512.0,415940.0,71449.0,749.645882383179,628.9131784641464,1059.2471424350322
415940,17138,415940.0,45517.0,415940.0,71395.0,748.2060478447515,625.0212917585649,1053.1961898330026
415940,17142,415940.0,45474.0,415940.0,71438.0,746.5244957731837,620.855085260825,1046.6910573096447
415950,17124,415950.0,45481.0,415950.0,71403.0,744.5912134028745,616.4158574167477,1039.731366880108
415950,17149,415950.0,45511.0,415950.0,71440.0,742.3965000227258,611.7042095060075,1032.3168485008841
415950,17153,415950.0,45505.0,415950.0,71422.0,739.9309922750979,606.7201547616598,1024.4476172748302
415950,17145,415950.0,45524.0,415950.0,71412.0,737.1858984497106,601.4635825239668,1016.1244757567074
415950,17154,415950.0,45539.0,415950.0,71417.0,734.1532275572233,595.9347758864836,1007.3490834978919
415950,17176,415950.0,45589.0,415950.0,71433.0,730.8259628688639,590.1350354433054,998.124082840473
415960,17177,415960.0,45591.0,415960.0,71448.0,727.1983744514449,584.0675791068523,988.4534621959883
415960,17142,415960.0,45467.0,415960.0,71431.0,723.2663697325611,577.7382504616006,978.3431324289326
415960,17136,415960.0,45474.0,415960.0,71369.0,719.027505864859,571.1551734378912,967.8012750351149
415960,17103,415960.0,45437.0,415960.0,71322.0,714.4806114031545,564.3275393003155,956.8379964621349
415960,17103,415960.0,45408.0,415960.0,71303.0,709.6252845062374,557.26453553263,945.4643672329842
415960,17101,415960.0,45374.0,415960.0,71278.0,704.4614984092314,549.9746085881499,933.6914425491515
415971,17093,415971.0,45399.0,415971.0,71270.0,698.9894295347402,542.4648193966195,921.5296525777281
415971,17095,415971.0,45404.0,415971.0,71280.0,693.2094556276791,534.7405584907351,908.9885640937912
415971,17078,415971.0,45403.0,415971.0,71295.0,687.1221842702496,526.8057864692294,896.0770252820123
415971,17086,415971.0,45414.0,415971.0,71261.0,680.7284571218836,518.6634818938402,882.8036083853561
415971,17092,415971.0,45427.0,415971.0,71281.0,674.0294006915608,510.3160819695154,869.1770180159205
415971,17097,415971.0,45480.0,415971.0,71303.0,667.02663896297,501.76608386864206,855.2064344831892
415981,17096,415981.0,45461.0,415981.0,71248.0,659.7226354508716,493.016940172406,840.9019982658864
415981,17063,415981.0,45440.0,415981.0,71203.0,652.1209541626965,484.0739002540899,826.2750649799534
415981,17030,415981.0,45395.0,415981.0,71165.0,644.2261864159525,474.9442470286216,811.3377569589409
415981,17031,415981.0,45288.0,415981.0,71129.0,636.0435170863444,465.63669414215235,796.102088329306
415981,17012,415981.0,45277.0,415981.0,71132.0,627.5782640533769,456.1600283682834,780.5792055498931
415981,17002,415981.0,45245.0,415981.0,71073.0,618.8356315009488,446.5215413238184,764.778929214873
415991,16999,415991.0,45261.0,415991.0,71119.0,609.8205919064338,436.72600913084676,748.7095198613133
415991,16991,415991.0,45303.0,415991.0,71093.0,600.5378398852396,426.77551526326243,732.3777241259668
415991,17011,415991.0,45317.0,415991.0,71120.0,590.9918885572688,416.67003952204414,715.7892062107155
415991,16991,415991.0,45325.0,415991.0,71102.0,581.1873345871019,406.4084751009541,698.9491762220845
415991,17001,415991.0,45408.0,415991.0,71069.0,571.129182464546,395.98972159930804,681.8629055598108
415991,16998,415991.0,45386.0,415991.0,71092.0,560.823124659728,385.4139308977242,664.5359794181127
416001,16964,416001.0,45337.0,416001.0,71070.0,550.2757592698582,374.6836590171556,646.9744804957272
416001,16944,416001.0,45263.0,416001.0,71035.0,539.4945972364976,363.80407397951313,629.1852575272592
416001,16917,416001.0,45248.0,416001.0,70964.0,528.487755707713,352.78205970765214,611.1758999968704
416001,16902,416001.0,45181.0,416001.0,70945.0,517.2635194371436,341.62496255548535,592.9541253710167
416001,16879,416001.0,45156.0,416001.0,70947.0,505.8299561418963,330.339465951097,574.5270035867521
416001,16875,416001.0,45191.0,416001.0,70925.0,494.1946300756035,318.93072649455905,555.900623640892
416011,16867,416011.0,45220.0,416011.0,70940.0,482.36445403103374,307.40219628232643,537.080250619627
416011,16867,416011.0,45225.0,416011.0,70923.0,470.34572202432173,295.7563154479915,518.0707078589321
416011,16851,416011.0,45191.0,416011.0,70915.0,458.1442698170216,283.9954332791384,498.8768221573923
416011,16851,416011.0,45210.0,416011.0,70936.0,445.76564771532185,272.12230618071305,479.5038691382007
416011,16871,416011.0,45314.0,416011.0,70952.0,433.21533175957563,260.1405204743574,459.95817441649547
416011,16854,416011.0,45233.0,416011.0,70922.0,420.4991087058522,248.05551180391876,440.24794728698384
416022,16825,416022.0,45186.0,416022.0,70844.0,407.62348283507635,235.87554152086403,420.3838428059654
416022,16794,416022.0,45057.0,416022.0,70792.0,394.5957320309757,223.61133468434303,400.3786529714814
416022,16778,416022.0,45092.0,416022.0,70766.0,381.4235785091222,211.27447654874175,380.2463006944472
416022,16762,416022.0,45060.0,416022.0,70721.0,368.1147896611736,198.8759089292135,360.00084445372875
416022,16740,416022.0,45035.0,416022.0,70696.0,354.6769131612957,186.42529712214184,339.6558028216609
416022,16735,416022.0,45035.0,416022.0,70692.0,341.11711977618035,173.93085419746,319.22371948571106
416032,16724,416032.0,45083.0,416032.0,70683.0,327.44213339630625,161.39934105475538,298.7160330885973
416032,16725,416032.0,45060.0,416032.0,70677.0,313.65829864656325,148.8365374342684,278.14329397526717
416032,16710,416032.0,45051.0,416032.0,70667.0,299.7717696644539,136.24796711682376,257.5155493813601
416032,16709,416032.0,45087.0,416032.0,70672.0,285.78873281458044,123.63940558731048,236.84276719253432
416032,16715,416032.0,45070.0,416032.0,70646.0,271.7156509910117,111.01733793861149,216.1352857952404
416032,16680,416032.0,45073.0,416032.0,70606.0,257.5595495366612,98.38954490422282,195.4041419522648
416042,16647,416042.0,44956.0,416042.0,70569.0,243.32814321582208,85.76535741565306,174.66102946629417
416042,16639,416042.0,44946.0,416042.0,70529.0,229.0296198497124,73.15506135735666,153.91788624510878
416042,16596,416042.0,44931.0,416042.0,70499.0,214.67226452225822,60.568755778514856,133.18633806946968
416042,16594,416042.0,44875.0,416042.0,70463.0,200.26412241647364,48.01545551176946,112.47717069524231
416042,16573,416042.0,44877.0,416042.0,70445.0,185.81273846545128,35.50254109176956,91.79989265113568
416042,16576,416042.0,44889.0,416042.0,70442.0,171.32505855366333,23.035375577495984,71.16247540352026
416053,16544,416053.0,44899.0,416053.0,70422.0,156.80748595116455,10.617359218357365,50.57136974035325
416053,16542,416053.0,44899.0,416053.0,70399.0,142.26593692620906,-1.749545834779724,30.031692877857836
416053,16552,416053.0,44918.0,416053.0,70419.0,127.70589532439664,-14.064160877650238,9.547428223319685
416053,16548,416053.0,44965.0,416053.0,70449.0,113.13266626499706,-26.32534458801706,-10.878151915321837
416053,16526,416053.0,44928.0,416053.0,70418.0,98.55179841359552,-38.53104632182226,-31.241644515217445
416053,16499,416053.0,44874.0,416053.0,70356.0,83.96933871408328,-50.677602017235586,-51.538769065791485
416063,16476,416063.0,44827.0,416063.0,70323.0,69.39174737785186,-62.75991025408723,-71.76438783462106
416063,16448,416063.0,44761.0,416063.0,70248.0,54.82560042543105,-74.7724218059227,-91.91322855736018
416063,16440,416063.0,44761.0,416063.0,70229.0,40.27726372958364,-86.71037417667424,-111.98085842638227
416063,16409,416063.0,44750.0,416063.0,70199.0,25.752643581156008,-98.57072488512279,-131.9645675326028
416063,16400,416063.0,44736.0,416063.0,70240.0,11.257005477171901,-110.35252055839373,-151.86380167650339
416063,16405,416063.0,44773.0,416063.0,70249.0,-3.205128942297847,-122.05682739997894,-171.6798532210629
416073,16386,416073.0,44768.0,416073.0,70220.0,-17.62989972462526,-133.68632830044828,-191.4150042908857
416073,16385,416073.0,44766.0,416073.0,70178.0,-32.01388385167229,-145.24468370394993,-211.07184273348798
416073,16393,416073.0,44789.0,416073.0,70226.0,-46.35384136296557,-156.7359232862226,-230.65308064933356
416073,16393,416073.0,44843.0,416073.0,70223.0,-60.64635354924519,-168.16377524873621,-250.1612804462933
416073,16339,416073.0,44788.0,416073.0,70169.0,-74.88743023142206,-179.53072467097252,-269.59818883273624
416073,16305,416073.0,44733.0,416073.0,70121.0,-89.07250312857616,-190.8373715034636,-288.9643910264042
416084,16301,416084.0,44647.0,416084.0,70056.0,-103.19690056194872,-202.08287535535112,-308.25980320145743
416084,16270,416084.0,44637.0,416084.0,70048.0,-117.25634628185412,-213.26631908584494,-327.4846328147713
