c_ts,c_val,d_ts,d_val,e_ts,e_val,c_val_filtered,d_val_filtered,e_val_filtered
379216,16334,379216,27278,379216.0,56164.0,-351.71407403608725,-72.17229864695071,-238.64593024482042
379216,16372,379216,27329,379216.0,56237.0,-320.33291198177716,-51.21622773043143,-174.8761221804516
379226,16412,379226,27346,379226.0,56383.0,-288.27024862076945,-30.031541480843515,-110.34127758602165
379226,16480,379226,27396,379226.0,56488.0,-255.59300477711582,-8.678684641074653,-45.21612570803893
379226,16517,379226,27426,379226.0,56604.0,-222.37018917253545,12.781557766190133,20.32259990642774
379226,16569,379226,27465,379226.0,56699.0,-188.67240335137245,34.288512614663205,86.09770928490298
379226,16617,379226,27510,379226.0,56828.0,-154.57139645525854,55.782107955372254,151.93293910875354
379226,16667,379226,27548,379226.0,56921.0,-120.13967565881524,77.20340945567912,217.65428195034747
379237,16721,379237,27595,379237.0,57019.0,-85.45009506795407,98.49522414833177,283.09129771599794
379237,16777,379237,27609,379237.0,57162.0,-50.575396450525886,119.6026944664955,348.07835625057305
379237,16823,379237,27636,379237.0,57227.0,-15.587705514351683,140.47372048922227,412.4559339834641
379237,16866,379237,27673,379237.0,57236.0,19.441939694833877,161.05917169466392,476.07169474094576
379237,16891,379237,27646,379237.0,57335.0,54.4438990671315,181.31296680732203,538.7807466969655
379237,16929,379237,27675,379237.0,57413.0,89.35000679678774,201.19191809831335,600.4453900236576
379247,16995,379247,27672,379247.0,57517.0,124.09354764397028,220.65530520864291,660.9352584679709
379247,17022,379247,27720,379247.0,57527.0,158.60939028894143,239.66448750554923,720.1278755066414
379247,17076,379247,27775,379247.0,57645.0,192.8342738701093,258.18289223354225,777.9090343292016
379247,17108,379247,27782,379247.0,57726.0,226.70705553937705,276.1764505430042,834.1730460888625
379247,17178,379247,27825,379247.0,57774.0,260.16893524968384,293.6141668777474,888.8232709333915
379247,17205,379247,27851,379247.0,57824.0,293.1637852250436,310.46853949891283,941.7726701302997
379257,17249,379257,27874,379257.0,57887.0,325.63851721040646,326.7159181394437,992.9439716010759
379257,17292,379257,27846,379257.0,57922.0,357.54334158695224,342.3367409884137,1042.2696216770637
379257,17309,379257,27887,379257.0,57950.0,388.8319180484767,357.3154170193044,1089.6916611739293
379257,17349,379257,27865,379257.0,57986.0,419.4613994531554,371.6399817928973,1135.1613903682526
379257,17363,379257,27854,379257.0,58011.0,449.3923399994019,385.30170533271803,1178.6388530959905
379257,17381,379257,27856,379257.0,58056.0,478.58848935615003,398.294526999086,1220.0923196497556
379268,17427,379268,27833,379268.0,58083.0,507.01651653051044,410.6143297976024,1259.497877039093
379268,17462,379268,27917,379268.0,58129.0,534.6458467886321,422.2583700295148,1296.8391478903645
379268,17510,379268,27926,379268.0,58164.0,561.4487806835291,433.22526716891593,1332.1071286523995
379268,17529,379268,27940,379268.0,58199.0,587.4007869023415,443.5155419152694,1365.3001314563917
379268,17544,379268,27931,379268.0,58243.0,612.4807047244151,453.1320751109731,1396.423795525335
379268,17585,379268,27956,379268.0,58198.0,636.670725344809,462.08014144800507,1425.4910083200803
379278,17618,379278,27992,379278.0,58228.0,659.9563389338182,470.3673720196439,1452.521412453512
379278,17629,379278,27946,379278.0,58261.0,682.3264261000018,478.00389851151283,1477.5405849880524
379278,17639,379278,27916,379278.0,58245.0,703.7733040013263,485.00224975912556,1500.5794166854082
379278,17654,379278,27930,379278.0,58258.0,724.2925250975343,491.3766502463578,1521.673682300773
379278,17649,379278,27903,379278.0,58278.0,743.8824996294668,497.1421653668674,1540.863505472408
379278,17678,379278,27930,379278.0,58279.0,762.5440634018928,502.3141422653497,1558.192866815955
379288,17680,379288,27905,379288.0,58301.0,780.2800921174503,506.90789316504583,1573.7092834539817
379288,17720,379288,27969,379288.0,58313.0,797.0952654538971,510.93857009866906,1587.4635836897155
379288,17742,379288,27960,379288.0,58319.0,812.9960394866716,514.4213539962033,1599.5097631523759
379288,17762,379288,27961,379288.0,58320.0,827.9908111200855,517.3718604996543,1609.9048499456483
379288,17775,379288,27984,379288.0,58341.0,842.0901164704658,519.8064179784269,1618.7087143228648
379288,17792,379288,28001,379288.0,58352.0,855.3067172233739,521.7422394972837,1625.983944495524
379299,17804,379299,27994,379299.0,58329.0,867.655600934376,523.1977148615711,1631.7958149751785
379299,17799,379299,27990,379299.0,58260.0,879.1539231956904,524.192656235191,1636.2119669938684
379299,17803,379299,27968,379299.0,58244.0,889.8208163111483,524.7482518651309,1639.3014184430263
379299,17799,379299,27927,379299.0,58265.0,899.6770436937306,524.8866807278521,1641.1332694745083
379299,17802,379299,27918,379299.0,58257.0,908.7445924657115,524.630409679707,1641.7758948458156
379299,17818,379299,27927,379299.0,58257.0,917.0463169267578,524.001429416061,1641.2967442348588
379309,17830,379309,27960,379309.0,58271.0,924.6057434910476,523.0208960007639,1639.762329410797
379309,17841,379309,27958,379309.0,58295.0,931.4470646918701,521.7093472519015,1637.2383191802062
379309,17847,379309,27970,379309.0,58270.0,937.5952101918372,520.0871775986762,1633.7898269763239
379309,17845,379309,27950,379309.0,58283.0,943.0758665243272,518.1749781394633,1629.4816623091435
379309,17849,379309,27964,379309.0,58224.0,947.9153901220159,515.9936319561774,1624.3782889809854
379309,17859,379309,27971,379309.0,58292.0,952.1406633980218,513.5643340088498,1618.5435709447272
379319,17859,379319,27988,379319.0,58223.0,955.7789982645261,510.90876563712516,1612.0406295412301
379319,17856,379319,27923,379319.0,58168.0,958.8580781283324,508.0493177479228,1604.931680536601
379319,17834,379319,27916,379319.0,58190.0,961.4057958239173,505.0089086751045,1597.2773814458183
379319,17846,379319,27866,379319.0,58147.0,963.4499198111553,501.8102624255693,1589.1360089105647
379319,17844,379319,27919,379319.0,58138.0,965.0177496392591,498.47511405778454,1580.5629680857942
379319,17839,379319,27866,379319.0,58139.0,966.1359216827361,495.0238210883654,1571.610476333727
379330,17856,379330,27900,379330.0,58158.0,966.8303177263574,491.47531749529975,1562.327421462926
379330,17864,379330,27891,379330.0,58142.0,967.1260674461942,487.84714860252615,1552.7595729364523
379330,17858,379330,27902,379330.0,58154.0,967.0476783546032,484.1556084937133,1542.9499461423243
379330,17873,379330,27910,379330.0,58124.0,966.6191709738926,480.4160036702321,1532.9390592072104
379330,17852,379330,27876,379330.0,58130.0,965.8641253554426,476.64288052591036,1522.7650242950403
379330,17882,379330,27933,379330.0,58101.0,964.8056745951656,472.85013721551564,1512.4635125538014
379340,17862,379340,27850,379340.0,58132.0,963.4665255326654,469.0510963458,1502.067716948854
379340,17847,379340,27869,379340.0,58106.0,961.8689654133818,465.2584105450479,1491.6084717034887
379340,17832,379340,27797,379340.0,58044.0,960.0346514105431,461.4835616851803,1481.1143593046581
379340,17822,379340,27869,379340.0,58060.0,957.9841782439019,457.7362042945571,1470.6114094539803
379340,17825,379340,27836,379340.0,58056.0,955.7366599768295,454.0238992009186,1460.1226136763964
379340,17843,379340,27860,379340.0,58059.0,953.3095256806123,450.35233018712415,1449.6678335329218
379351,17853,379351,27851,379351.0,58072.0,950.718625490744,446.72562093202123,1439.2641016962148
379351,17849,379351,27882,379351.0,58047.0,947.9785473298198,443.1465982463914,1428.9260076402243
379351,17848,379351,27873,379351.0,58048.0,945.1028827234876,439.6171451496377,1418.665965017495
379351,17844,379351,27882,379351.0,58039.0,942.1043117178933,436.1385991691117,1408.4943015618178
379351,17866,379351,27885,379351.0,58048.0,938.9946278816668,432.71205413583033,1398.419330987075
379351,17851,379351,27886,379351.0,58041.0,935.7848628561751,429.3385836422452,1388.447548207542
379361,17844,379361,27834,379361.0,58000.0,932.4854291241924,426.0193314835208,1378.583814044405
379361,17824,379361,27853,379361.0,58009.0,929.1060600558418,422.7552788183897,1368.8312944571512
379361,17825,379361,27818,379361.0,57976.0,925.6555408265773,419.5468033678122,1359.1912108084166
379361,17834,379361,27825,379361.0,58021.0,922.141460600596,416.393313945737,1349.6627046208646
379361,17823,379361,27834,379361.0,57983.0,918.5701577158867,413.2930392403765,1340.2429888045078
379361,17830,379361,27846,379361.0,58006.0,914.9467827510437,410.2430538407641,1330.92765586429
379371,17833,379371,27857,379371.0,58002.0,911.2753659419631,407.23958001629956,1321.7109610408293
379371,17837,379371,27832,379371.0,57986.0,907.5589292565261,404.2783447556279,1312.586086594788
379371,17824,379371,27863,379371.0,57990.0,903.7996308543717,401.35477362190966,1303.5453449197162
379371,17854,379371,27882,379371.0,58029.0,899.9988770749388,398.4641733375516,1294.5803712944853
379371,17837,379371,27887,379371.0,57991.0,896.157482831749,395.60217442020365,1285.682533176614
379371,17849,379371,27855,379371.0,57962.0,892.2758985798902,392.76521950241585,1276.843295243941
379382,17829,379382,27825,379382.0,57952.0,888.3543520503207,389.95060166145277,1268.0540831019648
379382,17827,379382,27830,379382.0,57940.0,884.3928278350668,387.1560022814816,1259.3058523538803
379382,17825,379382,27817,379382.0,57961.0,880.3909455287857,384.3789717344162,1250.5888550784014
379382,17829,379382,27842,379382.0,57935.0,876.3478699950616,381.616707111143,1241.892725434864
379382,17807,379382,27792,379382.0,57988.0,872.2623003177695,378.866054232867,1233.2067673353624
379382,17847,379382,27807,379382.0,57972.0,868.132484849803,376.12342035942083,1224.52043439706
379392,17827,379392,27846,379392.0,57971.0,863.9563514453653,373.38462198255297,1215.8239276363647
379392,17821,379392,27868,379392.0,57978.0,859.7317367419514,370.64515148823364,1207.10863803728
379392,17840,379392,27826,379392.0,57983.0,855.4565020679171,367.90084258210163,1198.367434304157
379392,17853,379392,27904,379392.0,57969.0,851.1286513960491,365.14838011856466,1189.5949761829238
379392,17845,379392,27848,379392.0,57959.0,846.7466558055526,362.3856443417337,1180.787954414999
379392,17844,379392,27840,379392.0,57938.0,842.3097821427491,359.611972611748,1171.9451117866283
379402,17833,379402,27817,379402.0,57898.0,837.818207365694,356.8279946513473,1163.067029190504
379402,17801,379402,27803,379402.0,57891.0,833.2729145481937,354.0351060952885,1154.1556868626446
379402,17805,379402,27775,379402.0,57885.0,828.6753867297748,351.2349223365054,1145.2139849392743
379402,17814,379402,27796,379402.0,57866.0,824.0272827426996,348.42880369922887,1136.245472193072
379402,17809,379402,27837,379402.0,57892.0,819.3303742451469,345.61769069140564,1127.2543030956967
379402,17815,379402,27825,379402.0,57886.0,814.5867034346722,342.8024941629144,1118.24541297375
379413,17803,379413,27810,379413.0,57872.0,809.7987387753951,339.9846619002817,1109.2248625515222
379413,17818,379413,27816,379413.0,57882.0,804.9694720074124,337.1663812901879,1100.2001169651169
379413,17807,379413,27836,379413.0,57845.0,800.1025251635424,334.35055561334144,1091.1801598851807
379413,17799,379413,27818,379413.0,57880.0,795.2022594006048,331.5409404253569,1082.1755355945447
379413,17790,379413,27806,379413.0,57821.0,790.2737742231789,328.74231850608396,1073.198391581952
379413,17780,379413,27753,379413.0,57809.0,785.3227787459163,325.9603348201557,1064.2623978630497
379423,17773,379423,27801,379423.0,57797.0,780.355421851137,323.20099740749146,1055.3823928819552
379423,17760,379423,27772,379423.0,57785.0,775.3781215341583,320.4703135278618,1046.5739842342878
379423,17744,379423,27733,379423.0,57764.0,770.3973669323865,317.77418836404007,1037.8533202728108
379423,17764,379423,27780,379423.0,57804.0,765.419519142082,315.11821575254646,1029.2370057853
379423,17758,379423,27758,379423.0,57763.0,760.4507725126017,312.5074841998306,1020.7422360989556
379423,17749,379423,27789,379423.0,57763.0,755.4973004975345,309.946737987726,1012.3870236011038
379433,17766,379433,27793,379433.0,57739.0,750.5653996794227,307.44074951750287,1004.1901963694033
379433,17740,379433,27751,379433.0,57713.0,745.6615831971985,304.9946376274328,996.1711602326101
379433,17750,379433,27773,379433.0,57749.0,740.792637537157,302.6139030452743,988.3496422147675
379433,17750,379433,27770,379433.0,57696.0,735.9656323572488,300.30425973346564,980.7456150840858
379433,17736,379433,27762,379433.0,57692.0,731.1879620494739,298.0716019333581,973.3792829692261
379433,17703,379433,27730,379433.0,57655.0,726.467317625629,295.9220014910431,966.2708076501896
379444,17702,379444,27699,379444.0,57622.0,721.8113903646836,293.86137707803385,959.4397688013149
379444,17703,379444,27733,379444.0,57603.0,717.2274729212284,291.89491808688706,952.9044931292348
379444,17710,379444,27707,379444.0,57614.0,712.7222935871464,290.026718352339,946.6814298670256
379444,17708,379444,27782,379444.0,57600.0,708.3021239471277,288.2598745219049,940.7848452397656
379444,17683,379444,27760,379444.0,57620.0,703.9729188876347,286.5970023961621,935.2268596564912
379444,17702,379444,27731,379444.0,57618.0,699.7403005495125,285.04082305257447,930.0176733632428
379454,17706,379454,27722,379454.0,57603.0,695.6095256670036,283.5942479739042,925.165848618599
379454,17690,379454,27786,379454.0,57641.0,691.5856182448655,282.26010475031154,920.6785407988651
379454,17707,379454,27792,379454.0,57641.0,687.6735318128101,281.0413228647016,916.5618036199055
379454,17690,379454,27683,379454.0,57625.0,683.8782318118496,279.941447925389,912.8210370430303
379454,17660,379454,27706,379454.0,57562.0,680.2046817608009,278.964415727086,909.4611405399764
379454,17656,379454,27679,379454.0,57564.0,676.6575873354695,278.11357186240656,906.4860113186012
379464,17662,379464,27698,379464.0,57589.0,673.2410014125894,277.39093041018054,903.8978265004251
379464,17655,379464,27702,379464.0,57559.0,669.9581218192748,276.7969994434446,901.6967648134548
379464,17666,379464,27704,379464.0,57575.0,666.8113221338684,276.3308980705567,899.8810746418574
379464,17653,379464,27723,379464.0,57598.0,663.8022515136661,275.9905767859405,898.4471666547744
379464,17665,379464,27742,379464.0,57604.0,660.9319204986879,275.77311889402125,897.3898767740283
379464,17670,379464,27729,379464.0,57578.0,658.200799044386,275.67513318579324,896.7028611401978
379475,17662,379475,27748,379475.0,57603.0,655.6089732935812,275.69308213009293,896.3787670638593
379475,17674,379475,27762,379475.0,57600.0,653.1563023818999,275.8235011620869,896.4092368262756
379475,17676,379475,27758,379475.0,57599.0,650.8425489626676,276.06326702795866,896.785003599078
379475,17642,379475,27704,379475.0,57588.0,648.667475358147,276.4097493493252,897.495980588432
379475,17646,379475,27692,379475.0,57581.0,646.6307353516085,276.8604448120512,898.5311676376751
379475,17637,379475,27711,379475.0,57580.0,644.7315656762866,277.4122478712234,899.8784302540976
379485,17632,379485,27679,379485.0,57606.0,642.9685261322462,278.06093481987307,901.5243436690994
379485,17644,379485,27734,379485.0,57559.0,641.339379425911,278.80102322577704,903.4541832727401
379485,17652,379485,27712,379485.0,57621.0,639.8411168511559,279.62589354726606,905.6519201957974
379485,17648,379485,27735,379485.0,57611.0,638.4701359542443,280.52808203609,908.1002892957226
379485,17644,379485,27769,379485.0,57624.0,637.2224144511335,281.4996237139284,910.7811000531079
379485,17643,379485,27758,379485.0,57630.0,636.093542898277,282.5324901793055,913.6755723696838
379495,17660,379495,27775,379495.0,57633.0,635.0787093359771,283.6190597601283,916.7645197631625
379495,17656,379495,27787,379495.0,57684.0,634.1727959189814,284.75243610622863,920.0285545996579
379495,17640,379495,27747,379495.0,57625.0,633.3705209053325,285.92661748648936,923.4484070453216
379495,17635,379495,27734,379495.0,57631.0,632.6663995110546,287.13637332716996,927.0050244461479
379495,17640,379495,27717,379495.0,57637.0,632.0545318961376,288.3767148596084,930.6792392663967
379495,17630,379495,27676,379495.0,57641.0,631.5284329742393,289.64218063782266,934.4514251116835
379506,17619,379506,27717,379506.0,57578.0,631.0809224521569,290.92615768198954,938.3013013323766
379506,17656,379506,27761,379506.0,57667.0,630.7040226933535,292.22060270116424,942.207607572034
379506,17669,379506,27788,379506.0,57660.0,630.3890811747605,293.5165460929283,946.1479828306951
379506,17664,379506,27768,379506.0,57728.0,630.1272048112119,294.80501470460104,950.0995172057633
379506,17661,379506,27807,379506.0,57682.0,629.9096462001871,296.0776774766621,954.0396087085014
379506,17665,379506,27784,379506.0,57715.0,629.7279032703328,297.3271413940637,957.94649853266
379516,17671,379516,27804,379516.0,57743.0,629.5737086762296,298.54713478275113,961.7994652583074
379516,17669,379516,27794,379516.0,57690.0,629.4390832519896,299.7326085422853,965.5790045050497
379516,17649,379516,27750,379516.0,57643.0,629.3163728410309,300.8796664720156,969.2667154283547
379516,17651,379516,27748,379516.0,57691.0,629.1981169806464,301.9851649817561,972.8445668490432
379516,17644,379516,27727,379516.0,57692.0,629.0767982587226,303.04604707710996,976.2942478687464
379516,17652,379516,27742,379516.0,57683.0,628.9446547201163,304.0587709499914,979.5971600808207
379526,17658,379526,27728,379526.0,57716.0,628.793642586826,305.01901339117126,982.734629012068
379526,17671,379526,27766,379526.0,57726.0,628.6155515660498,305.9216137401489,985.6881046882839
379526,17675,379526,27801,379526.0,57734.0,628.4022386002437,306.7608354129221,988.4395117939931
379526,17665,379526,27785,379526.0,57738.0,628.145860921088,307.5309714774029,990.9716225243178
379526,17657,379526,27780,379526.0,57726.0,627.8389447457018,308.2268876869781,993.268246286665
379526,17660,379526,27777,379526.0,57754.0,627.4742655818224,308.8441226907294,995.3142671588967
379537,17679,379537,27787,379537.0,57744.0,627.0447447781758,309.3787479540958,997.0957056857296
379537,17668,379537,27769,379537.0,57737.0,626.5435386161786,309.8272890672944,998.5998358536776
379537,17659,379537,27781,379537.0,57701.0,625.964178509673,310.1866802368665,999.8151067519351
379537,17655,379537,27739,379537.0,57715.0,625.3005277807143,310.4541245790298,1000.7307499301774
379537,17644,379537,27726,379537.0,57713.0,624.5465815277491,310.62674294028307,1001.3363642427196
379537,17656,379537,27734,379537.0,57695.0,623.6962757301538,310.70103360107055,1001.6217274460053
379547,17664,379547,27770,379547.0,57703.0,622.7434373252395,310.67253758513476,1001.5766932256925
379547,17658,379547,27775,379547.0,57739.0,621.6819098561305,310.5360516981059,1001.1911436263458
379547,17662,379547,27803,379547.0,57721.0,620.5057132270404,310.2862093251973,1000.4552238634303
379547,17655,379547,27770,379547.0,57709.0,619.2091102674754,309.9180203577248,999.3596817514144
379547,17664,379547,27788,379547.0,57739.0,617.7866207699767,309.42710935436617,997.8959761222063
379547,17696,379547,27823,379547.0,57727.0,616.2331349626036,308.8097876816702,996.0563447556539
379557,17662,379557,27804,379557.0,57725.0,614.5442095615467,308.06333011058933,993.8340142262979
379557,17656,379557,27764,379557.0,57718.0,612.7162774098869,307.1862718256182,991.223335373538
379557,17641,379557,27749,379557.0,57707.0,610.7464875223783,306.1781754811963,988.219749493765
379557,17648,379557,27724,379557.0,57663.0,608.6323739750554,305.0389270426041,984.8196036465798
379557,17648,379557,27736,379557.0,57676.0,606.3716775277248,303.76805421899127,981.0197585573981
379557,17637,379557,27750,379557.0,57680.0,603.9623443442384,302.36439129438946,976.8172098198972
379568,17654,379568,27759,379568.0,57689.0,601.4025723644272,300.82617334765996,972.2090766495035
379568,17634,379568,27806,379568.0,57678.0,598.6908689645572,299.1514749007144,967.1928894745312
379568,17637,379568,27750,379568.0,57693.0,595.8260977005638,297.3387825782258,961.7668850355537
379568,17638,379568,27767,379568.0,57684.0,592.8074676341884,295.38731125576874,955.9302564468851
379568,17632,379568,27793,379568.0,57675.0,589.6345340824547,293.2969807667897,949.6833866002389
379568,17639,379568,27785,379568.0,57678.0,586.307261406264,291.06853078666614,943.0279981453834
379578,17629,379578,27781,379578.0,57637.0,582.8261073749336,288.7038649596472,935.9671836016009
379578,17594,379578,27738,379578.0,57621.0,579.192021847819,286.2061608095016,928.505240661255
379578,17612,379578,27711,379578.0,57576.0,575.4062403570506,283.57949240593445,920.647227587423
379578,17585,379578,27710,379578.0,57550.0,571.4700061259875,280.8281296083041,912.3983073742595
379578,17580,379578,27690,379578.0,57574.0,567.3843844051743,277.9559002917809,903.7631213323621
379578,17601,379578,27697,379578.0,57579.0,563.150144801582,274.96582386781364,894.7455885826824
379589,17609,379589,27755,379589.0,57592.0,558.7678431066008,271.8600827613606,885.3492830842501
379589,17599,379589,27760,379589.0,57582.0,554.2381693760846,268.6405300688813,875.5780541463073
379589,17592,379589,27735,379589.0,57551.0,549.5622586806097,265.30951070911374,865.4364754344124
379589,17589,379589,27704,379589.0,57561.0,544.7417681967231,261.8702553162289,854.9299665079718
379589,17583,379589,27724,379589.0,57561.0,539.7788501153125,258.3266423972394,844.0648133883913
379589,17571,379589,27694,379589.0,57543.0,534.6761295912,254.68285279043712,832.8483652237002
379599,17551,379599,27653,379599.0,57526.0,529.4366249269883,250.94311057849592,821.2892672018677
379599,17540,379599,27684,379599.0,57458.0,524.0635370512199,247.111277597496,809.3973935305754
379599,17525,379599,27668,379599.0,57451.0,518.559956762702,243.1905037801916,797.183348658184
379599,17546,379599,27664,379599.0,57435.0,512.9286495116426,239.1832084359409,784.6578075947344
379599,17543,379599,27657,379599.0,57433.0,507.17209570401263,235.09114547210618,771.8311523514338
379599,17523,379599,27717,379599.0,57414.0,501.29272977235536,230.91549378818198,758.71347902998
379609,17542,379609,27710,379609.0,57432.0,495.2931168680998,226.65732288336443,745.3147728493373
379609,17517,379609,27677,379609.0,57396.0,489.1760326877693,222.3182798284423,731.645171849703
379609,17509,379609,27682,379609.0,57386.0,482.94451312797815,217.90086818276305,717.7151954943284
379609,17529,379609,27666,379609.0,57380.0,476.6018493909452,213.40827225134797,703.5358103379075
379609,17509,379609,27664,379609.0,57339.0,470.15166200380116,208.8441576508508,689.118419432947
379609,17498,379609,27655,379609.0,57314.0,463.598061735492,204.2125735522359,674.4747589236133
379620,17466,379620,27640,379620.0,57298.0,456.9456200410782,199.5178654144786,659.616610386631
379620,17453,379620,27602,379620.0,57263.0,450.1990537835982,194.76448070288995,644.5554742444774
379620,17435,379620,27603,379620.0,57246.0,443.3627940784161,189.9565682911342,629.30230100608
379620,17444,379620,27602,379620.0,57238.0,436.440651600058,185.09754949337565,613.8672678187444
379620,17415,379620,27613,379620.0,57235.0,429.4356773716687,180.1899742711953,598.2597274671846
379620,17455,379620,27636,379620.0,57232.0,422.3501845097697,175.23574547678038,582.4884205515434
379630,17429,379630,27623,379630.0,57228.0,415.1859449879113,170.2365774797031,566.5618614886977
379630,17425,379630,27587,379630.0,57182.0,407.9444844369771,165.19435721903486,550.488695670942
379630,17423,379630,27585,379630.0,57204.0,400.62724219104274,160.11107370635386,534.2778575031388
379630,17446,379630,27625,379630.0,57215.0,393.23567342396706,154.9885628095378,517.9387435420122
379630,17418,379630,27642,379630.0,57165.0,385.77152200378384,149.82870067416764,501.4816614966485
379630,17401,379630,27595,379630.0,57038.0,378.23706973436634,144.6340214335621,484.91796587474516
379640,17387,379640,27542,379640.0,57073.0,370.6350705072492,139.4079354874384,468.2592100861401
379640,17367,379640,27533,379640.0,57031.0,362.96847047257006,134.15411114160014,451.5160067499429
379640,17364,379640,27562,379640.0,57055.0,355.2401387720795,128.87565292545463,434.69762186041464
379640,17353,379640,27546,379640.0,57024.0,347.4526957590739,123.57485358180708,417.8122154489241
379640,17356,379640,27559,379640.0,56997.0,339.6084709908238,118.25344677714327,400.86715369960484
379640,17353,379640,27588,379640.0,57010.0,331.70959292967376,112.91297797202401,383.8691473747391
379651,17348,379651,27539,379651.0,56982.0,323.7581677745334,107.55521243934572,366.82437010401304
379651,17334,379651,27560,379651.0,56990.0,315.7564502098227,102.18239216723498,349.7387263026843
379651,17336,379651,27586,379651.0,56977.0,307.70693112022616,96.79731122778827,332.61820374947933
379651,17346,379651,27590,379651.0,56934.0,299.6124352837445,91.40363856072668,315.46918312710466
379651,17303,379651,27523,379651.0,56943.0,291.47629573933636,86.00638891281346,298.29856468436617
379651,17293,379651,27447,379651.0,56902.0,283.30237605296645,80.61171613352468,281.11375430230225
379661,17268,379661,27489,379661.0,56825.0,275.0947845448642,75.22584248519888,263.9225188527447
379661,17275,379661,27470,379661.0,56817.0,266.85752117473817,69.85409111377572,246.73244347641685
379661,17236,379661,27449,379661.0,56832.0,258.594269442772,64.50063669801864,229.5502576598326
379661,17255,379661,27472,379661.0,56826.0,250.30826841812336,59.16852484468154,212.38175030788898
379661,17262,379661,27486,379661.0,56820.0,242.0023012007896,53.85974962688317,195.232279659984
379661,17226,379661,27486,379661.0,56786.0,233.6788968461816,48.57562391321119,178.10729704427195
379671,17242,379671,27467,379671.0,56747.0,225.34052102426983,43.31724004469055,161.01250989608957
379671,17228,379671,27475,379671.0,56766.0,216.9896258076867,38.085676777807635,143.9537384945752
379671,17245,379671,27484,379671.0,56760.0,208.6287790880425,32.88206375656665,126.9369033481521
379671,17193,379671,27475,379671.0,56707.0,200.26087555896845,27.707762509429415,109.96832111950266
379671,17196,379671,27441,379671.0,56688.0,191.88913978603568,22.56454250733009,93.05484343499961
379671,17161,379671,27417,379671.0,56629.0,183.5168504363968,17.454418322660274,76.20353278577113
379682,17156,379682,27396,379682.0,56597.0,175.14698995850438,12.379125571731038,59.42104933530459
379682,17151,379682,27390,379682.0,56606.0,166.78198150394257,7.339533066156832,42.713031726432064
379682,17164,379682,27384,379682.0,56581.0,158.42363037004088,2.3352420636139186,26.083811657484375
379682,17137,379682,27446,379682.0,56583.0,150.07329619014013,-2.635451343650004,9.536540966892517
379682,17150,379682,27434,379682.0,56590.0,141.7321015309957,-7.575066771134345,-6.926481411507439
379682,17136,379682,27405,379682.0,56535.0,133.40106958982358,-12.486228549400664,-23.303434514677974
379692,17115,379692,27429,379692.0,56541.0,125.08122737524661,-17.371334168212456,-39.59277108535957
379692,17120,379692,27450,379692.0,56533.0,116.7736196935964,-22.23246851573674,-55.79320832941835
379692,17125,379692,27464,379692.0,56514.0,108.47931080398905,-27.07100124903127,-71.90360817361147
379692,17097,379692,27402,379692.0,56516.0,100.19952345847298,-31.887037228137103,-87.92270862366604
379692,17072,379692,27353,379692.0,56458.0,91.93571291649198,-36.67945863213515,-103.84893292555034
379692,17060,379692,27344,379692.0,56429.0,83.68934316305536,-41.446767196578776,-119.68049109341973
379702,17033,379702,27333,379702.0,56433.0,75.46150694259074,-46.18807901206304,-135.41576374188116
379702,17042,379702,27357,379702.0,56401.0,67.25261217067907,-50.90362838069706,-151.05358580142274
379702,17056,379702,27385,379702.0,56379.0,59.062298609553636,-55.59465528352138,-166.59329053609804
379702,17069,379702,27367,379702.0,56357.0,50.889734545616534,-60.262864659615104,-182.03478710730155
379702,17048,379702,27393,379702.0,56386.0,42.73415788393265,-64.90984197124493,-197.3786413553703
379702,17036,379702,27353,379702.0,56329.0,34.595260980708645,-69.53670225877954,-212.6259129155244
379713,17023,379713,27344,379713.0,56360.0,26.473235071400268,-74.14404144771072,-227.77787412915632
379713,17018,379713,27386,379713.0,56342.0,18.368654409311603,-78.73207249984029,-242.83575036281854
379713,17026,379713,27372,379713.0,56319.0,10.282442951013536,-83.3005315300025,-257.80039468565565
379713,16963,379713,27316,379713.0,56293.0,2.21590940070098,-87.84838626434367,-272.6720688924838
379713,16966,379713,27288,379713.0,56256.0,-5.829438810504826,-92.3740328908878,-287.45055346249114
379713,16962,379713,27311,379713.0,56216.0,-13.85230265345217,-96.87602383256228,-302.1355318101573
379723,16954,379723,27294,379723.0,56177.0,-21.851810996101335,-101.35357771462992,-316.72716788803973
379723,16943,379723,27281,379723.0,56209.0,-29.827473582929315,-105.80664491255135,-331.226666683699
379723,16947,379723,27321,379723.0,56202.0,-37.77910025722849,-110.23585047531168,-345.6363764360776
379723,16939,379723,27323,379723.0,56221.0,-45.70670668443313,-114.64225776520374,-359.9592929016767
379723,16917,379723,27293,379723.0,56183.0,-53.61039646950542,-119.02691030194853,-374.1983683263295
379723,16915,379723,27323,379723.0,56183.0,-61.490347166964966,-123.39053628980838,-388.35606418696193
379733,16922,379733,27294,379733.0,56158.0,-69.34685363908591,-127.73347651185037,-402.43421035652364
379733,16938,379733,27337,379733.0,56160.0,-77.1801757968085,-132.0555522525674,-416.43396217994234
379733,16905,379733,27270,379733.0,56145.0,-84.990170483072,-136.35586919456392,-430.3556874417336
379733,16880,379733,27253,379733.0,56094.0,-92.77608188512431,-140.63289323509247,-444.1988641445157
379733,16861,379733,27241,379733.0,56028.0,-100.53675964017884,-144.8849844328966,-457.9623412190675
379733,16853,379733,27234,379733.0,56028.0,-108.27108812299161,-149.111018790691,-471.6451099157075
379744,16834,379744,27224,379744.0,56038.0,-115.9783112517706,-153.3107336518222,-485.2470314134416
379744,16843,379744,27245,379744.0,56028.0,-123.65819213606858,-157.4848331704663,-498.7689196345191
379744,16850,379744,27252,379744.0,56006.0,-131.3109833078803,-161.63485791170103,-512.2121877155455
379744,16843,379744,27273,379744.0,56010.0,-138.93716909760838,-165.76277808860334,-525.5785701179518
379744,16834,379744,27264,379744.0,56006.0,-146.53714609843144,-169.87046014916746,-538.8699405799466
379744,16822,379744,27249,379744.0,55995.0,-154.11105622482364,-173.95926974123836,-552.0880336115399
379754,16826,379754,27270,379754.0,56002.0,-161.65875414566244,-178.02993040203114,-565.2340998382738
379754,16805,379754,27244,379754.0,55986.0,-169.17977755089282,-182.08247401215402,-578.3085619318636
379754,16804,379754,27205,379754.0,55926.0,-176.67331418969582,-186.11627085138144,-591.3108026397485
379754,16776,379754,27196,379754.0,55901.0,-184.1382426000688,-190.13039626686043,-604.2393884652136
379754,16760,379754,27200,379754.0,55865.0,-191.57329512821514,-194.12419433463697,-617.0927189022059
379754,16754,379754,27188,379754.0,55886.0,-198.97732101441568,-198.0976054647299,-629.8696297442291
379764,16733,379764,27194,379764.0,55842.0,-206.34953221114506,-202.05121344616293,-642.5696085097095
379764,16749,379764,27206,379764.0,55870.0,-213.68963280901767,-205.98616371275364,-655.192719161982
379764,16755,379764,27247,379764.0,55869.0,-220.99774710216593,-209.90385972364265,-667.7393555465094
379764,16740,379764,27194,379764.0,55846.0,-228.27412404682855,-213.80542933351774,-680.2098134348423
379764,16736,379764,27192,379764.0,55823.0,-235.5188427486995,-217.69141240334295,-692.6039442569977
379764,16726,379764,27209,379764.0,55849.0,-242.73170313642356,-221.56189222947233,-704.9210686104007
379775,16729,379775,27218,379775.0,55811.0,-249.91219659160788,-225.41657294231936,-717.1598621916
379775,16700,379775,27182,379775.0,55783.0,-257.05946345563984,-229.2545600281381,-729.3181919201338
379775,16683,379775,27178,379775.0,55746.0,-264.1723548089466,-233.0742811087498,-741.3932726435435
379775,16680,379775,27157,379775.0,55709.0,-271.249665335371,-236.8737554527849,-753.3821971124844
379775,16669,379775,27109,379775.0,55671.0,-278.29035719921217,-240.65104834680602,-765.2826288481883
379775,16653,379775,27137,379775.0,55683.0,-285.2936575991599,-244.4048294367962,-777.0934576445807
379785,16645,379785,27142,379785.0,55714.0,-292.2591413384166,-248.1347639191589,-788.8150454143774
379785,16656,379785,27154,379785.0,55685.0,-299.18680855691025,-251.84140675609035,-800.4488438571391
379785,16639,379785,27148,379785.0,55683.0,-306.07702610092144,-255.52579622892472,-811.996812974498
379785,16645,379785,27186,379785.0,55684.0,-312.9303649139341,-259.1890523989882,-823.4610916866161
379785,16638,379785,27161,379785.0,55687.0,-319.7474487941579,-262.83195616615524,-834.8437626485027
379785,16625,379785,27169,379785.0,55697.0,-326.52883069580434,-266.45456960847116,-846.1464562198391
379795,16628,379795,27152,379795.0,55654.0,-333.27491477280535,-270.0560857898749,-857.3699048365327
379795,16609,379795,27124,379795.0,55601.0,-339.98592617561167,-273.63492422769434,-868.5138423661181
379795,16584,379795,27100,379795.0,55560.0,-346.6619528763732,-277.1890720463011,-879.5775459148904
379795,16572,379795,27087,379795.0,55593.0,-353.303160703177,-280.7166405086162,-890.5606699913576
379795,16591,379795,27091,379795.0,55516.0,-359.9100601583415,-284.2163900915575,-901.4637497407969
379795,16565,379795,27095,379795.0,55558.0,-366.483549790859,-287.68797524419296,-912.2883813540698
379806,16578,379806,27120,379806.0,55574.0,-373.0247765832405,-291.1318441079483,-923.0372071292618
379806,16554,379806,27081,379806.0,55586.0,-379.5350258182525,-294.54893891988587,-933.713417773911
379806,16566,379806,27110,379806.0,55535.0,-386.01566670167335,-297.9404885043523,-944.3199924595081
379806,16555,379806,27099,379806.0,55529.0,-392.46807882672636,-301.3079393725809,-954.8593787672987
379806,16549,379806,27126,379806.0,55515.0,-398.89353920341705,-304.6527845724483,-965.33367719784
379806,16560,379806,27122,379806.0,55510.0,-405.293098145028,-307.97621334515225,-975.744846502198
379816,16550,379816,27132,379816.0,55479.0,-411.6674136202978,-311.2787090410673,-986.0947516824549
379816,16508,379816,27094,379816.0,55490.0,-418.01662094398955,-314.55978144494895,-996.3852043565705
379816,16507,379816,27052,379816.0,55426.0,-424.34048670536697,-317.81810062954094,-1006.618076379443
379816,16478,379816,27043,379816.0,55439.0,-430.63881252809506,-321.05212949056175,-1016.7955493997047
379816,16485,379816,27014,379816.0,55432.0,-436.9117972525562,-324.2609392996873,-1026.920407201746
379816,16487,379816,27044,379816.0,55400.0,-443.16019160061876,-327.4447975017843,-1036.996129942085
379827,16491,379827,27053,379827.0,55436.0,-449.3851967483638,-330.6053051710214,-1047.0268266196003
379827,16490,379827,27077,379827.0,55394.0,-455.5881836878889,-333.74505376089513,-1057.0170866209842
379827,16477,379827,27052,379827.0,55414.0,-461.77042155148445,-336.8670783506786,-1066.9717562865783
379827,16464,379827,27088,379827.0,55413.0,-467.93295854426003,-339.9744533678772,-1076.8957051146108
379827,16476,379827,27088,379827.0,55389.0,-474.07663521207166,-343.0699841511336,-1086.7935510998793
379827,16451,379827,27087,379827.0,55403.0,-480.20207823604426,-346.1558181983077,-1096.669407792769
379837,16437,379837,27055,379837.0,55389.0,-486.30969294285126,-349.23317029200564,-1106.5267055540917
379837,16418,379837,27003,379837.0,55324.0,-492.3998245047993,-352.30251963429583,-1116.3681111642074
379837,16422,379837,27000,379837.0,55295.0,-498.473029129575,-355.3643275182695,-1126.1958674497469
379837,16402,379837,27012,379837.0,55285.0,-504.5302548804408,-358.41982422488167,-1136.0125730775403
379837,16411,379837,27044,379837.0,55289.0,-510.5728977060048,-361.4712640786214,-1145.8218135370623
379837,16405,379837,27046,379837.0,55285.0,-516.6027690775005,-364.5215413632285,-1155.6282769308673
379847,16397,379847,27033,379847.0,55306.0,-522.6219853104251,-367.57361629394984,-1165.4374880235525
379847,16418,379847,27027,379847.0,55286.0,-528.6328108957225,-370.6302204623346,-1175.2553688473483
379847,16380,379847,27033,379847.0,55295.0,-534.6374739908247,-373.69386594815285,-1185.087805806131
379847,16401,379847,27035,379847.0,55293.0,-540.6380349511115,-376.7668625503718,-1194.9403161873418
379847,16408,379847,27066,379847.0,55269.0,-546.6362916450032,-379.85113663894913,-1204.817777473992
379847,16391,379847,27025,379847.0,55232.0,-552.6335494754933,-382.9478981020139,-1214.7243427319804
379858,16353,379858,27001,379858.0,55180.0,-558.6304402134269,-386.05751150426187,-1224.663788812034
379858,16357,379858,26960,379858.0,55203.0,-564.62711137471,-389.179911402857,-1234.6401919970158
379858,16342,379858,26993,379858.0,55181.0,-570.6235918451576,-392.3153230063258,-1244.6584189682699
379858,16317,379858,26998,379858.0,55189.0,-576.6200403079723,-395.46465474899236,-1254.7241577309037
379858,16325,379858,26983,379858.0,55192.0,-582.6169412300599,-398.6293624215253,-1264.84368464274
379858,16335,379858,26983,379858.0,55179.0,-588.6152200696541,-401.8112199278636,-1275.0235515268978
379868,16328,379868,27000,379868.0,55188.0,-594.6160955569835,-405.01225363627515,-1285.27026552672
379868,16319,379868,27003,379868.0,55131.0,-600.6208025874184,-408.23460349599554,-1295.5900970873765
379868,16318,379868,26997,379868.0,55151.0,-606.6304386575564,-411.4802278851383,-1305.9891372820537
379868,16315,379868,27011,379868.0,55177.0,-612.6459075011144,-414.75064235453385,-1316.4733735799787
379868,16301,379868,26981,379868.0,55142.0,-618.6678546599035,-418.04677315730345,-1327.0483932858815
379868,16284,379868,27009,379868.0,55093.0,-624.6966617463701,-421.3689073051295,-1337.7190443289485
379878,16267,379878,26929,379878.0,55082.0,-630.7325985406927,-424.7167816206569,-1348.4896664105916
379878,16241,379878,26949,379878.0,55069.0,-636.7761227915694,-428.08995445914456,-1359.364667722403
379878,16250,379878,26921,379878.0,55039.0,-642.8282285479219,-431.48839534421296,-1370.3489249718923
379878,16239,379878,26897,379878.0,55060.0,-648.8906669413003,-434.9129970625856,-1381.447960024205
379878,16271,379878,26950,379878.0,55031.0,-654.9658896313456,-438.3658908128824,-1392.6679476421136
379878,16268,379878,26945,379878.0,55053.0,-661.0566926001527,-441.8503923604154,-1404.0155440291737
379889,16231,379889,26974,379889.0,55024.0,-667.1657808077385,-445.37047794552376,-1415.49763109581
379889,16233,379889,26956,379889.0,55038.0,-673.2956462258022,-448.9301520901528,-1427.1210652823167
379889,16218,379889,26956,379889.0,55028.0,-679.4487733322347,-452.53305930928923,-1438.8924307224688
379889,16228,379889,26981,379889.0,55048.0,-685.6278036704922,-456.1823112727481,-1450.817709512854
379889,16213,379889,26942,379889.0,54986.0,-691.8355076150646,-459.88033300354016,-1462.9019174514308
379889,16211,379889,26921,379889.0,54960.0,-698.0746867059081,-463.6288352715014,-1475.1490693260264
379899,16196,379899,26919,379899.0,54934.0,-704.3481319354061,-467.4291397595056,-1487.5626496557263
379899,16182,379899,26873,379899.0,54924.0,-710.6586783737936,-471.28268695117623,-1500.146212340481
379899,16193,379899,26913,379899.0,54901.0,-717.009303427549,-475.191477774113,-1512.9037468556442
379899,16182,379899,26922,379899.0,54875.0,-723.4031330510576,-479.1582243143918,-1525.839883725809
379899,16173,379899,26860,379899.0,54904.0,-729.8433355800152,-483.18616703785364,-1538.9600362849299
379899,16167,379899,26965,379899.0,54917.0,-736.3330548665446,-487.2788963922969,-1552.2702337043204
379909,16168,379909,26916,379909.0,54899.0,-742.8754069008737,-491.44007143280345,-1565.7765236953871
379909,16161,379909,26928,379909.0,54876.0,-749.4734264921525,-495.672869415242,-1579.4843858706358
379909,16167,379909,26911,379909.0,54861.0,-756.1299376019988,-499.97966003243573,-1593.3985582950354
379909,16146,379909,26908,379909.0,54861.0,-762.8474059237142,-504.3620519262288,-1607.5231070636273
379909,16150,379909,26873,379909.0,54800.0,-769.6278505204959,-508.82105843535567,-1621.861497931457
379909,16118,379909,26869,379909.0,54775.0,-776.472863014744,-513.3573987144073,-1636.416845926724
379920,16109,379920,26872,379920.0,54745.0,-783.3837585488012,-517.9718653806444,-1651.1924804437333
379920,16102,379920,26869,379920.0,54750.0,-790.3618240617561,-522.6654996256576,-1666.1924998907498
379920,16088,379920,26845,379920.0,54751.0,-797.4085242016622,-527.4395838823245,-1681.4219373445428
379920,16088,379920,26860,379920.0,54758.0,-804.5255960237798,-532.2956766446348,-1696.8864824371574
379920,16088,379920,26861,379920.0,54726.0,-811.7150506405804,-537.2356469009436,-1712.5920021618376
379920,16081,379920,26858,379920.0,54714.0,-818.9790696264824,-542.2615361149283,-1728.5442186179519
379930,16092,379930,26866,379930.0,54709.0,-826.319820399594,-547.3753245969901,-1744.7486366013334
379930,16084,379930,26869,379930.0,54723.0,-833.7392188460624,-552.5786993416517,-1761.2104294431615
379930,16066,379930,26878,379930.0,54715.0,-841.2387018566884,-557.8727747018543,-1777.934040077418
379930,16062,379930,26825,379930.0,54675.0,-848.8191493542639,-563.2578670353596,-1794.9226894279084
379930,16038,379930,26850,379930.0,54631.0,-856.4809699334227,-568.7335560167485,-1812.1782432654575
379930,16028,379930,26809,379930.0,54640.0,-864.2242671125147,-574.2989597505494,-1829.7015244525278
379940,16008,379940,26814,379940.0,54611.0,-872.0490598745004,-579.9529909687749,-1847.4926172005844
379940,16014,379940,26798,379940.0,54626.0,-879.9554927324743,-585.6945761239843,-1865.5508354687604
379940,15999,379940,26820,379940.0,54627.0,-887.9439240132085,-591.5227827695093,-1883.8743959758383
379940,16005,379940,26821,379940.0,54582.0,-896.0148761639093,-597.4366953868735,-1902.459955725514
379940,16000,379940,26803,379940.0,54587.0,-904.1689006885979,-603.4351125459048,-1921.3023034996502
379940,16000,379940,26793,379940.0,54522.0,-912.4063819847703,-609.5163689874653,-1940.3943632813468
379951,16004,379951,26820,379951.0,54537.0,-920.7272962560511,-615.6783393341071,-1959.7273883540536
379951,15997,379951,26848,379951.0,54548.0,-929.1309437064923,-621.9182369550023,-1979.2910467942022
379951,15991,379951,26782,379951.0,54512.0,-937.6156985437999,-628.2321169904124,-1999.0731213913173
379951,15957,379951,26764,379951.0,54498.0,-946.1788962174088,-634.6147130054202,-2019.0590813447404
379951,15947,379951,26763,379951.0,54458.0,-954.8169652028474,-641.0599069112021,-2039.231963258674
379951,15929,379951,26781,379951.0,54396.0,-963.525732587478,-647.5611968735249,-2059.572622618387
379961,15914,379961,26773,379961.0,54434.0,-972.3007194119314,-654.1116574729435,-2080.0601883244053
379961,15936,379961,26778,379961.0,54391.0,-981.1372943573328,-660.7036169585258,-2100.672299965947
379961,15907,379961,26748,379961.0,54419.0,-990.0306090206427,-667.3284262093316,-2121.3848694705866
379961,15915,379961,26771,379961.0,54407.0,-998.9754120673125,-673.976416793064,-2142.1715641558485
379961,15906,379961,26719,379961.0,54356.0,-1007.9659103889442,-680.6369532882647,-2163.0032811225283
379961,15890,379961,26773,379961.0,54325.0,-1016.9956693438508,-687.2984911386745,-2183.8479700210955
379971,15897,379971,26718,379971.0,54352.0,-1026.0575320328626,-693.9485493161544,-2204.670829419415
379971,15863,379971,26753,379971.0,54324.0,-1035.1435821047744,-700.5735961421054,-2225.4342990256564
379971,15874,379971,26704,379971.0,54291.0,-1044.2451584187233,-707.1589943794567,-2246.097721398295
379971,15863,379971,26686,379971.0,54277.0,-1053.3528752745754,-713.6891395980172,-2266.6171661229864
379971,15836,379971,26663,379971.0,54249.0,-1062.4565918278038,-720.1478712087576,-2286.9455209825746
379971,15841,379971,26683,379971.0,54186.0,-1071.5454321784614,-726.5189603656461,-2307.032693690305
379982,15833,379982,26677,379982.0,54180.0,-1080.6078544385332,-732.7862846750327,-2326.826014749273
379982,15822,379982,26696,379982.0,54191.0,-1089.6316173509194,-738.9336214285362,-2346.270652823184
379982,15847,379982,26722,379982.0,54196.0,-1098.603630668209,-744.9442055906443,-2365.309534341518
379982,15828,379982,26717,379982.0,54174.0,-1107.509681595094,-750.8001178311968,-2383.8827812555123
379982,15809,379982,26679,379982.0,54159.0,-1116.3341328364677,-756.4817601649365,-2401.927186867666
379982,15803,379982,26688,379982.0,54133.0,-1125.0598456789962,-761.9677779814615,-2419.376014997657
379992,15821,379992,26698,379992.0,54138.0,-1133.668235522956,-767.2352429196817,-2436.158988943704
379992,15794,379992,26690,379992.0,54124.0,-1142.1391588862869,-772.2596297989562,-2452.2022194345727
379992,15781,379992,26654,379992.0,54087.0,-1150.4507437876032,-777.0146773916015,-2467.4280536088354
379992,15765,379992,26617,379992.0,54026.0,-1158.5794434337317,-781.4726013074927,-2481.7551853715568
379992,15735,379992,26619,379992.0,53973.0,-1166.5002936815335,-785.6047286425991,-2495.099341288078
379992,15727,379992,26601,379992.0,53998.0,-1174.1872596805188,-789.3821424441267,-2507.3742896463987
380001,15730,380001,26624,380001.0,53982.0,-1181.6135551235782,-792.77600704548,-2518.492477219328
380001,15726,380001,26622,380001.0,54000.0,-1188.7517467384369,-795.7575529402409,-2528.3650010439837
380001,15727,380001,26643,380001.0,53980.0,-1195.573630718843,-798.2978152181333,-2536.9012701746487
380001,15720,380001,26614,380001.0,53970.0,-1202.0500459048221,-800.3673126782221,-2544.0087569349207
380001,15716,380001,26616,380001.0,53960.0,-1208.1507298599477,-801.9359235476802,-2549.5929802380783
380001,15713,380001,26627,380001.0,53974.0,-1213.8442309334444,-802.9729789984852,-2553.557604569317
380012,15716,380012,26639,380012.0,53936.0,-1219.0978307422029,-803.4472799737252,-2555.8044957868333
380012,15698,380012,26623,380012.0,53911.0,-1223.8774538068815,-803.3269209400687,-2556.233912918136
380012,15657,380012,26579,380012.0,53849.0,-1228.1477212268996,-802.5792676312749,-2554.7451629138395
380012,15661,380012,26589,380012.0,53847.0,-1231.872319486782,-801.1713852753783,-2551.2377074073634
380012,15653,380012,26518,380012.0,53792.0,-1235.0144831617345,-799.0707787182018,-2545.612402949546
380012,15634,380012,26565,380012.0,53797.0,-1237.5372972285563,-796.2461986042438,-2537.7726593884418
380022,15629,380022,26568,380022.0,53828.0,-1239.4039071851985,-792.6682070495099,-2527.6253617319053
380022,15628,380022,26574,380022.0,53833.0,-1240.5777676865127,-788.3092306074129,-2515.081285400547
380022,15642,380022,26561,380022.0,53799.0,-1241.022793272101,-783.1433949152567,-2500.0551819124566
380022,15631,380022,26578,380022.0,53784.0,-1240.7033212989782,-777.1465587980027,-2482.46620368026
380022,15638,380022,26560,380022.0,53799.0,-1239.5840218108292,-770.2964980721154,-2462.238826493724
380022,15633,380022,26611,380022.0,53806.0,-1237.6298850153964,-762.573043527177,-2439.303766358967
380032,15636,380032,26581,380032.0,53821.0,-1234.8062692990707,-753.9580726155873,-2413.5985915875144
380032,15617,380032,26604,380032.0,53818.0,-1231.0790068622719,-744.4354627578904,-2385.068210448348
380032,15602,380032,26561,380032.0,53834.0,-1226.4146713026194,-733.9912739781687,-2353.665463045476
380032,15587,380032,26592,380032.0,53847.0,-1220.7810689569815,-722.6142180502718,-2319.351827283586
380032,15589,380032,26558,380032.0,53853.0,-1214.1478397237254,-710.2962263922075,-2282.0981554358013
380032,15592,380032,26576,380032.0,53866.0,-1206.4869619780402,-697.0329976644325,-2241.8854668265135
380043,15613,380043,26637,380043.0,53950.0,-1197.773031012332,-682.8243917578383,-2198.7057064872815
380043,15636,380043,26658,380043.0,53983.0,-1187.9832714282716,-667.6743323437776,-2152.5621061145303
380043,15601,380043,26654,380043.0,54041.0,-1177.0974239361146,-651.5903029855374,-2103.4690990084177
380043,15619,380043,26667,380043.0,54058.0,-1165.0978573989578,-634.5830741566057,-2051.4522421920124
380043,15631,380043,26712,380043.0,54096.0,-1151.9699512951306,-616.6667985375257,-1996.548489267127
380043,15648,380043,26739,380043.0,54210.0,-1137.7023747759313,-597.8589905734497,-1938.8066330581646
380053,15676,380053,26769,380053.0,54244.0,-1122.2871008887143,-578.1801996041089,-1878.2874149542045
380053,15679,380053,26760,380053.0,54317.0,-1105.7193000123975,-557.6536916996832,-1815.063285194516
380053,15673,380053,26754,380053.0,54378.0,-1087.9973293006242,-536.3055139249591,-1749.218275554854
380053,15683,380053,26749,380053.0,54455.0,-1069.1230044670922,-514.1650455075586,-1680.8480448177854
380053,15694,380053,26782,380053.0,54547.0,-1049.1020669398947,-491.2657638791545,-1610.059841334836
380053,15733,380053,26848,380053.0,54634.0,-1027.9445528786293,-467.645704531672,-1536.9722601768885
380064,15781,380064,26867,380064.0,54779.0,-1005.664831133716,-443.347297896827,-1461.7147144957125
380064,15794,380064,26926,380064.0,54885.0,-982.2812956534003,-418.41681879068994,-1384.426497858221
380064,15816,380064,26972,380064.0,54975.0,-957.8160215017797,-392.9037870378815,-1305.2555709819835
380064,15836,380064,27003,380064.0,55077.0,-932.2946834029085,-366.8603521870167,-1224.3575338248152
380064,15892,380064,27052,380064.0,55225.0,-905.7466086010178,-340.3407113138626,-1141.8948612175973
380064,15917,380064,27105,380064.0,55325.0,-878.2046576223486,-313.4005966806792,-1058.035982146704
380074,15952,380074,27141,380074.0,55460.0,-849.7049299639702,-286.0967100802681,-972.9541043412663
380074,15988,380074,27127,380074.0,55527.0,-820.2865081595911,-258.48624574941465,-886.8261247752594
380074,16003,380074,27136,380074.0,55634.0,-789.9913240499055,-230.62692095109549,-799.8319199928595
380074,16033,380074,27179,380074.0,55749.0,-758.8641642040062,-202.57749820423533,-712.1539700582312
380074,16085,380074,27228,380074.0,55891.0,-726.9527645618764,-174.39818814622373,-623.9768853247288
380074,16120,380074,27318,380074.0,56023.0,-694.3077742827192,-146.15042923776605,-535.4864739419961
380084,16167,380084,27368,380084.0,56177.0,-660.9825123735737,-117.89602617152445,-446.86838865109735
380084,16203,380084,27394,380084.0,56268.0,-627.0326712837505,-89.69604772333184,-358.3066200640453
380084,16264,380084,27392,380084.0,56391.0,-592.5160284746377,-61.61011750257421,-269.98219874598817
380084,16314,380084,27497,380084.0,56484.0,-557.4920690485858,-33.69624538699276,-182.0723045484492
380084,16359,380084,27509,380084.0,56627.0,-522.0214872129461,-6.010592623990533,-94.74958710925284
380084,16388,380084,27527,380084.0,56695.0,-486.1657306011988,21.39305186268939,-8.181452987132843
380095,16421,380095,27528,380095.0,56788.0,-449.9867797651014,48.46349687605493,77.47053842647529
380095,16459,380095,27578,380095.0,56892.0,-413.54715477689564,75.15188150046629,162.05096112565434
380095,16509,380095,27602,380095.0,56993.0,-376.909958726384,101.41141632706558,245.4107186813617
380095,16567,380095,27623,380095.0,57062.0,-340.1387557373326,127.1973899259267,327.40736995683824
380095,16587,380095,27641,380095.0,57206.0,-303.2972733633116,152.4672053093028,407.90549001693216
380095,16658,380095,27720,380095.0,57277.0,-266.44910943904137,177.1803830775409,486.7771437003314
380105,16704,380105,27741,380105.0,57369.0,-229.6574514431435,201.29884427992812,563.9025045724384
380105,16747,380105,27744,380105.0,57457.0,-192.98467679668386,224.78741561214355,639.1703441296258
380105,16797,380105,27814,380105.0,57525.0,-156.49192919187078,247.6141271290113,712.4783202584508
380105,16836,380105,27823,380105.0,57631.0,-120.23879237992708,269.75038455766673,783.7332142625403
380105,16880,380105,27873,380105.0,57674.0,-84.28302706051807,291.171302588408,852.8511784630437
380105,16899,380105,27828,380105.0,57739.0,-48.68039322810694,311.85596531691294,919.7578759738299
380115,16936,380115,27813,380115.0,57784.0,-13.484643123243586,331.78714109555506,984.3883291921134
380115,16996,380115,27846,380115.0,57821.0,21.252404039859243,350.9504160518205,1046.6864956122722
380115,17014,380115,27860,380115.0,57861.0,55.480927898679056,369.33338026757394,1106.6046661726668
380115,17065,380115,27892,380115.0,57943.0,89.15328869336281,386.92535481432833,1164.1028336751056
380115,17102,380115,27938,380115.0,58019.0,122.22417680338322,403.71753660747754,1219.1483971070843
380115,17122,380115,27931,380115.0,58031.0,154.65073970881974,419.70333679462874,1271.71628412361
380126,17190,380126,27983,380126.0,58118.0,186.392699987441,434.8787126134706,1321.789059678119
380126,17212,380126,27977,380126.0,58154.0,217.41253656677281,449.24239174469335,1369.3568779379934
380126,17255,380126,28014,380126.0,58202.0,247.67577505776944,462.79605607202586,1414.4175067367432
380126,17291,380126,27997,380126.0,58226.0,277.1512527961104,475.5444565583052,1456.9763398937926
380126,17299,380126,27979,380126.0,58227.0,305.8112747114509,487.495287169021,1497.04613440088
380126,17310,380126,27954,380126.0,58238.0,333.6315659209374,498.65863758450564,1534.6463650561632
380136,17347,380136,27980,380136.0,58272.0,360.59097337952403,509.0461560036538,1569.8023378107764
380136,17366,380136,28013,380136.0,58253.0,386.6711642735604,518.6704620573395,1602.5443485854112
380136,17394,380136,28002,380136.0,58325.0,411.8565080320086,527.545113021716,1632.9069899675637
380136,17414,380136,28019,380136.0,58368.0,436.1340413694354,535.6847788962764,1660.9287768424042
380136,17434,380136,28026,380136.0,58376.0,459.49341366234,543.1052737827913,1686.6522659130387
380136,17467,380136,28022,380136.0,58416.0,481.9268272492477,549.8235058267813,1710.1243096730386
380146,17482,380146,28027,380146.0,58404.0,503.4290296579627,555.8573958052489,1731.3960630006022
380146,17515,380146,28061,380146.0,58423.0,523.9973681349134,561.2257921485682,1750.52275098285
380146,17533,380146,28068,380146.0,58427.0,543.6318762939379,565.9485882377056,1767.5632853680263
380146,17536,380146,28058,380146.0,58471.0,562.335338332558,570.0470110112634,1782.5799302410778
380146,17558,380146,28031,380146.0,58433.0,580.1132276085086,573.5436835898468,1795.638156686784
380146,17535,380146,28003,380146.0,58420.0,596.9734709219958,576.4622021976495,1806.8063768308784
380157,17561,380157,28020,380157.0,58417.0,612.92605654723,578.8264168858118,1816.1552617134798
380157,17566,380157,28008,380157.0,58425.0,627.9826031411726,580.659852427171,1823.7569443528896
380157,17570,380157,28025,380157.0,58407.0,642.1560551603561,581.9854750394128,1829.6844760689755
380157,17603,380157,28030,380157.0,58455.0,655.4605084652376,582.8256969244145,1834.0115276746583
380157,17611,380157,28033,380157.0,58412.0,667.9111656993311,583.2025045547867,1836.8122886601514
380157,17627,380157,28062,380157.0,58438.0,679.5244351567144,583.1376695076674,1838.1614344991826
380167,17624,380167,28057,380167.0,58427.0,690.3180127748365,582.6530532748002,1838.1340038567932
380167,17653,380167,28043,380167.0,58410.0,700.3108556567527,581.7709082030499,1836.8052460237313
380167,17671,380167,28062,380167.0,58395.0,709.523202378668,580.5139795791113,1834.2503936586431
380167,17640,380167,28031,380167.0,58426.0,717.976681969612,578.9054546832464,1830.544354363742
380167,17636,380167,27977,380167.0,58365.0,725.6941931881511,576.9687317701865,1825.7615291342968
380167,17642,380167,28023,380167.0,58299.0,732.6994279311302,574.7268584778145,1819.975475993922
380177,17644,380177,27974,380177.0,58314.0,739.0164002868951,572.201980922904,1813.2579914404073
380177,17651,380177,27991,380177.0,58296.0,744.669217249854,569.415094161453,1805.6781011244002
380177,17657,380177,27965,380177.0,58330.0,749.6819972352935,566.38585855284,1797.301675872693
380177,17674,380177,28025,380177.0,58321.0,754.0788728833727,563.1324854000629,1788.1916546434736
380177,17676,380177,28031,380177.0,58315.0,757.8840935639971,559.6720372862544,1778.4084796838197
380177,17667,380177,28025,380177.0,58300.0,761.1221397831944,556.0211040642549,1768.010393772926
380188,17676,380188,28005,380188.0,58300.0,763.8177090714491,552.1963136086271,1757.053510575167
380188,17684,380188,28021,380188.0,58268.0,765.9956312517359,548.2143995390262,1745.5917897856239
380188,17676,380188,28038,380188.0,58288.0,767.680860022185,544.0921916671863,1733.6769921572018
380188,17665,380188,28000,380188.0,58263.0,768.8984570805394,539.8468078985451,1721.358695639939
380188,17670,380188,27930,380188.0,58222.0,769.6734344210049,535.4956159931105,1708.6843325105424
380188,17646,380188,27943,380188.0,58215.0,770.0305147083611,531.0555214424631,1695.6989888809612
380198,17658,380198,27961,380198.0,58179.0,769.9938817794753,526.5421090999994,1682.4449792239343
380198,17660,380198,27951,380198.0,58180.0,769.5869872604799,521.9694090634325,1668.9614636197925
380198,17656,380198,27940,380198.0,58170.0,768.8325116839044,517.350104176715,1655.2842419533013
380198,17652,380198,27939,380198.0,58185.0,767.7524004250868,512.6956201531127,1641.4458007010571
380198,17648,380198,27964,380198.0,58165.0,766.3678300425711,508.0161221930115,1627.4756050827837
380198,17663,380198,27948,380198.0,58152.0,764.6991549075617,503.3206969990649,1613.400416964444
380208,17656,380208,27966,380208.0,58162.0,762.7659609333475,498.6176672415263,1599.2444756616228
380208,17661,380208,27940,380208.0,58201.0,760.587205510192,493.91482568691515,1585.0297795752563
380208,17639,380208,27944,380208.0,58186.0,758.1812952813011,489.2195077699047,1570.7767613110218
380208,17622,380208,27917,380208.0,58108.0,755.565969606416,484.53850235617233,1556.5049528464178
380208,17610,380208,27912,380208.0,58084.0,752.7579668605242,479.8778328405755,1542.2328771409914
380208,17607,380208,27880,380208.0,58070.0,749.7726227549902,475.2424387211497,1527.9772546055924
380219,17612,380219,27900,380219.0,58073.0,746.623610613037,470.6358201949804,1513.7523616609758
380219,17630,380219,27908,380219.0,58067.0,743.322938460588,466.05986620666556,1499.5699395278461
380219,17645,380219,27940,380219.0,58075.0,739.8812308236869,461.5150904708621,1485.4394544681838
380219,17630,380219,27995,380219.0,58076.0,736.3081713954363,457.00132802147414,1471.3685047031634
380219,17613,380219,27941,380219.0,58060.0,732.612788501961,452.5186959613138,1457.3632664417312
380219,17639,380219,27924,380219.0,58057.0,728.8034535342022,448.06819510252967,1443.4288371106097
380229,17627,380229,27937,380229.0,58060.0,724.8878814449595,443.6515821475731,1429.5694593940734
380229,17634,380229,27938,380229.0,58020.0,720.8733111278915,439.27107294718564,1415.78871091355
380229,17626,380229,27900,380229.0,58007.0,716.7666954366517,434.9293118805218,1402.0895420350314
380229,17617,380229,27861,380229.0,57969.0,712.5747812102035,430.6291944516825,1388.4740321739118
380229,17602,380229,27878,380229.0,57977.0,708.3040669374279,426.3732839868047,1374.9430264049101
380229,17594,380229,27851,380229.0,57936.0,703.9606337977897,422.163239231143,1361.4958708787838
380239,17579,380239,27846,380239.0,57934.0,699.5499105832463,417.9995219259438,1348.1302389305865
380239,17601,380239,27900,380239.0,57959.0,695.076493732344,413.8813175347154,1334.8420519538681
380239,17595,380239,27871,380239.0,58000.0,690.544172059295,409.8067885046273,1321.6258189126715
380239,17601,380239,27902,380239.0,57953.0,685.9561580543494,405.7735811616863,1308.47546949768
380239,17587,380239,27905,380239.0,57969.0,681.3153232603308,401.77927464153026,1295.385092195674
380239,17598,380239,27902,380239.0,57952.0,676.6243182206538,397.82176585443966,1282.349229382671
380250,17592,380250,27882,380250.0,57979.0,671.8856598773152,393.8995480596864,1269.3630777067403
380250,17579,380250,27867,380250.0,57949.0,667.1018349021394,390.0116827670607,1256.4228590415648
380250,17573,380250,27820,380250.0,57897.0,662.2753176944447,386.15743465981325,1243.5260788441603
380250,17568,380250,27856,380250.0,57883.0,657.4084766576526,382.3357254013683,1230.6712794388693
380250,17567,380250,27839,380250.0,57868.0,652.5034921236673,378.5447686019148,1217.8574583055386
380250,17554,380250,27852,380250.0,57850.0,647.5623384673896,374.78209442785226,1205.0836391434034
380260,17560,380260,27849,380260.0,57921.0,642.5867797498018,371.0447473759784,1192.3488487148302
380260,17574,380260,27889,380260.0,57886.0,637.5784253724065,367.32954396234675,1179.6526310439424
380260,17558,380260,27877,380260.0,57896.0,632.5389327055328,363.6335138639449,1166.9958480559178
380260,17559,380260,27893,380260.0,57883.0,627.4702291431231,359.9544294955921,1154.3812243082723
380260,17566,380260,27878,380260.0,57880.0,622.3746240109773,356.29118328959737,1141.8135932814596
380260,17581,380260,27902,380260.0,57883.0,617.2549660906969,352.6439985787846,1129.3001061961686
380271,17547,380271,27873,380271.0,57840.0,612.1149175127598,349.0145935144143,1116.850421412428
380271,17535,380271,27857,380271.0,57808.0,606.9590565573869,345.4062211088992,1104.4766495466067
380271,17519,380271,27783,380271.0,57765.0,601.7926331819308,341.8233060764726,1092.1928738863714
380271,17493,380271,27800,380271.0,57738.0,596.6211592648739,338.2706034957985,1080.0143853564243
380271,17521,380271,27832,380271.0,57726.0,591.4500580352313,334.75241747045595,1067.9569371720568
380271,17503,380271,27801,380271.0,57722.0,586.284548577863,331.2724746151397,1056.0362615432807
380281,17501,380281,27816,380281.0,57762.0,581.1297571470791,327.83418105454183,1044.2680260146735
380281,17505,380281,27836,380281.0,57727.0,575.9908284640015,324.44080140599533,1032.6682410756073
380281,17518,380281,27817,380281.0,57716.0,570.8730348071872,321.09567700805536,1021.2537340247944
380281,17500,380281,27836,380281.0,57712.0,565.7820041512172,317.8025095941399,1010.0422878709204
380281,17496,380281,27805,380281.0,57684.0,560.723915402064,314.5655099522813,999.0525560271991
380281,17497,380281,27846,380281.0,57684.0,555.705524956557,311.38944180457605,988.3039606678325
380291,17485,380291,27826,380291.0,57648.0,550.734143784801,308.2797449266238,977.8165518845638
380291,17477,380291,27777,380291.0,57625.0,545.8176275527208,305.2426503317448,967.610754164245
380291,17446,380291,27798,380291.0,57593.0,540.9642621742482,302.28494128907136,957.7069327612245
380291,17454,380291,27732,380291.0,57555.0,536.1824939487011,299.41340247560925,948.1247894294694
380291,17414,380291,27749,380291.0,57582.0,531.4806031817141,296.63422215693834,938.8827548331965
380291,17446,380291,27772,380291.0,57584.0,526.866428278436,293.9525272964903,929.9977271093661
380302,17436,380302,27808,380302.0,57595.0,522.3472715867396,291.3724359042459,921.4853381235256
380302,17440,380302,27747,380302.0,57595.0,517.9300555447311,288.89758396060336,913.3604696209032
380302,17437,380302,27804,380302.0,57569.0,513.6215508083503,286.53147716490844,905.6376544923854
380302,17437,380302,27792,380302.0,57551.0,509.4285263776731,284.277594532085,898.3311602972121
380302,17433,380302,27817,380302.0,57628.0,505.3578559038839,282.1396788185892,891.4549306333672
380302,17428,380302,27787,380302.0,57555.0,501.4165941224118,280.12213271238153,885.0228432757649
380312,17412,380312,27784,380312.0,57518.0,497.61198069119627,278.23015032169667,879.0489790478435
380312,17400,380312,27756,380312.0,57482.0,493.95132061350864,276.4695048936603,873.5471339897581
380312,17383,380312,27746,380312.0,57471.0,490.44173291848546,274.8461241388899,868.5297909118469
380312,17381,380312,27749,380312.0,57487.0,487.08984224432015,273.36563713896544,864.00733307678
380312,17383,380312,27727,380312.0,57479.0,483.90154463985994,272.03304240649175,859.9877971036753
380312,17388,380312,27742,380312.0,57498.0,480.88195665409626,270.85249692081027,856.4770028660486
380322,17374,380322,27766,380322.0,57500.0,478.0355050261918,269.8272563365535,853.478829419191
380322,17382,380322,27730,380322.0,57451.0,475.36600098396957,268.95983503739865,850.9954222517642
380322,17389,380322,27735,380322.0,57486.0,472.8766868646025,268.2521167744758,849.0271050781621
380322,17367,380322,27759,380322.0,57476.0,470.57032981048707,267.705249862611,847.5721620471319
380322,17397,380322,27753,380322.0,57508.0,468.4493077941784,267.31966078610236,846.6268971244064
380322,17366,380322,27758,380322.0,57481.0,466.5156716919644,267.0952833144471,846.1859282059555
380333,17367,380333,27674,380333.0,57504.0,464.7711671387244,267.0315639668156,846.2424044266754
380333,17363,380333,27700,380333.0,57422.0,463.21712098340964,267.12689372667,846.7879323224411
380333,17339,380333,27712,380333.0,57484.0,461.8542408595355,267.3778444660536,847.8121422627739
380333,17333,380333,27769,380333.0,57451.0,460.6823581866601,267.7790155779834,849.3022232725488
380333,17346,380333,27741,380333.0,57516.0,459.7001307738978,268.3236083050714,851.2428718006132
380333,17375,380333,27773,380333.0,57480.0,458.9049721646116,269.00408439219996,853.6166143768701
380343,17363,380343,27782,380343.0,57529.0,458.29335752110177,269.8125632194716,856.4041828786405
380343,17380,380343,27775,380343.0,57528.0,457.86123495180317,270.7411276439875,859.5848377337063
380343,17364,380343,27772,380343.0,57555.0,457.6042691887076,271.78203880056003,863.1367428866897
380343,17366,380343,27789,380343.0,57561.0,457.51790155252166,272.92776095270415,867.0373891467982
380343,17373,380343,27789,380343.0,57570.0,457.5973113405475,274.17098282456243,871.2639492418173
380343,17364,380343,27800,380343.0,57513.0,457.837390089215,275.5047631506603,875.7933831676078
380353,17351,380353,27777,380353.0,57531.0,458.23271267807326,276.9226569947183,880.6020739865107
380353,17343,380353,27755,380353.0,57573.0,458.77736378175706,278.41860247635566,885.6652902866408
380353,17347,380353,27764,380353.0,57550.0,459.46465627508275,279.9865175235385,890.9570852095837
380353,17352,380353,27734,380353.0,57589.0,460.2869401100574,281.61982541318224,896.4505519001582
380353,17373,380353,27772,380353.0,57610.0,461.2356253303133,283.3111157221479,902.1180942077508
380353,17397,380353,27816,380353.0,57605.0,462.3014558966689,285.05214530079184,907.9317681453495
380364,17388,380364,27804,380364.0,57647.0,463.4749637677973,286.83434545246587,913.8636545194122
380364,17371,380364,27784,380364.0,57629.0,464.7468040200828,288.64940250485756,919.886150301252
380364,17375,380364,27787,380364.0,57623.0,466.10772036830616,290.4893251670402,925.9721189271887
380364,17383,380364,27803,380364.0,57688.0,467.54832757080214,292.34618512063633,932.0948781571707
380364,17386,380364,27812,380364.0,57656.0,469.05903683828194,294.2120491758897,938.2283198069317
380364,17385,380364,27804,380364.0,57650.0,470.6301326458873,296.079147771581,944.3471338826023
380374,17376,380374,27802,380374.0,57638.0,472.2518130530759,297.93998461187516,950.4266522698978
380374,17367,380374,27753,380374.0,57648.0,473.91408254114947,299.7871630584991,956.4423633913669
380374,17393,380374,27778,380374.0,57630.0,475.6065745879575,301.6129032153101,962.3694912355456
380374,17393,380374,27813,380374.0,57666.0,477.31853096064873,303.408622313515,968.1827306240866
380374,17399,380374,27858,380374.0,57705.0,479.03899067835675,305.16514731657435,973.8562548731388
380374,17410,380374,27827,380374.0,57737.0,480.757004832663,306.8734810943273,979.3642111795677
380384,17397,380384,27824,380384.0,57726.0,482.4617764316416,308.5253635618507,984.6814940937461
380384,17417,380384,27841,380384.0,57725.0,484.1427296666776,310.1132799877929,989.7842454310892
380384,17414,380384,27823,380384.0,57734.0,485.7895615662835,311.6303073139256,994.649889174014
380384,17424,380384,27852,380384.0,57754.0,487.39235125503194,313.07009014434334,999.2570360456682
380384,17407,380384,27813,380384.0,57777.0,488.94166036666024,314.4268555618753,1003.5856065636066
380384,17407,380384,27816,380384.0,57699.0,490.4284893422598,315.6952929381989,1007.6170174371138
380395,17386,380395,27797,380395.0,57699.0,491.8440615873885,316.8702159541648,1011.3338632931572
380395,17413,380395,27806,380395.0,57714.0,493.1795511334861,317.94616080867024,1014.7190902886698
380395,17412,380395,27817,380395.0,57749.0,494.4259726514793,318.9171535158689,1017.7554777369107
380395,17423,380395,27852,380395.0,57758.0,495.5743190999408,319.7767921773957,1020.4258492368892
380395,17417,380395,27830,380395.0,57779.0,496.61577123368363,320.51861811309334,1022.7136313783421
380395,17422,380395,27845,380395.0,57756.0,497.54181129291936,321.13646844789434,1024.6033092816692
380405,17415,380405,27834,380405.0,57769.0,498.34423913220286,321.62458572667686,1026.080587248306
380405,17432,380405,27861,380405.0,57783.0,499.01516391725715,321.97763450820645,1027.1323663229043
380405,17437,380405,27907,380405.0,57811.0,499.547078910863,322.1909367740716,1027.746877187112
380405,17431,380405,27837,380405.0,57791.0,499.9330378144507,322.2609566763578,1027.914057847755
380405,17433,380405,27863,380405.0,57734.0,500.166787198263,322.18553086489675,1027.6257333011351
380405,17425,380405,27805,380405.0,57752.0,500.24276619890657,321.96353285386,1026.875194777242
380415,17404,380415,27806,380415.0,57728.0,500.15598785189815,321.59424672606474,1025.6565066730827
380415,17422,380415,27763,380415.0,57731.0,499.9018204534681,321.0766566386368,1023.9640574455141
380415,17417,380415,27820,380415.0,57717.0,499.475820893484,320.40881810764733,1021.792332400026
380415,17437,380415,27854,380415.0,57775.0,498.87378605484474,319.5877704945879,1019.1358498710362
380415,17414,380415,27864,380415.0,57753.0,498.0919354021315,318.6101971761419,1015.9894613173219
380415,17422,380415,27847,380415.0,57764.0,497.12701037897443,317.47328303419954,1012.348877891114
380426,17411,380426,27848,380426.0,57795.0,495.97622597549696,316.17511975010297,1008.2110978199497
380426,17434,380426,27833,380426.0,57794.0,494.6372223012612,314.7146610106242,1003.5748460344817
380426,17428,380426,27861,380426.0,57750.0,493.1081720788188,313.09159195381545,998.441032200697
380426,17415,380426,27819,380426.0,57726.0,491.3879672305403,311.30630716550115,992.8127576884842
380426,17396,380426,27811,380426.0,57688.0,489.4762276035144,309.3598252212176,986.6947318087305
380426,17403,380426,27829,380426.0,57662.0,487.3730691321723,307.2535021494817,980.0924453020048
380436,17390,380436,27773,380436.0,57660.0,485.07886013195855,304.98874413380156,973.0114105635533
380436,17389,380436,27792,380436.0,57652.0,482.5940992874277,302.56672750800175,965.4566728300942
380436,17398,380436,27825,380436.0,57713.0,479.91937282580966,299.98814016885825,957.4327884541844
380436,17394,380436,27840,380436.0,57673.0,477.0554090725156,297.25336934888395,948.9443186688576
380436,17391,380436,27822,380436.0,57690.0,474.0032141779064,294.3631094147841,939.9964744174353
380436,17380,380436,27818,380436.0,57647.0,470.7641533999681,291.3187825572421,930.5954365168753
380446,17388,380446,27809,380446.0,57633.0,467.33993945730674,288.1225497343786,920.7482781242367
380446,17384,380446,27832,380446.0,57640.0,463.7326412344652,284.7772174008183,910.4627078642342
380446,17369,380446,27794,380446.0,57611.0,459.9447471854258,281.2862706549997,899.7469065894278
380446,17353,380446,27780,380446.0,57591.0,455.9791356355833,277.653842484181,888.6094737126915
380446,17353,380446,27770,380446.0,57580.0,451.838883094643,273.8843984101156,877.0592703554352
380446,17349,380446,27749,380446.0,57523.0,447.5270744088742,269.9822983017227,865.1051165345959
380457,17331,380457,27761,380457.0,57576.0,443.04672191087525,265.95145984735234,852.7554615014076
380457,17339,380457,27744,380457.0,57522.0,438.40070847131017,261.7951822370993,840.0182738399974
380457,17328,380457,27779,380457.0,57517.0,433.59173816464164,257.5161643330584,826.9011591451306
380457,17334,380457,27771,380457.0,57537.0,428.62236730823145,253.11675364587177,813.411435863198
380457,17334,380457,27768,380457.0,57529.0,423.4951178087017,248.59932483989388,799.55632082301
380457,17315,380457,27740,380457.0,57493.0,418.21261404204205,243.96649222286317,785.3433274214684
380467,17325,380467,27785,380467.0,57509.0,412.7776561625861,239.22108935649612,770.7805160012437
380467,17307,380467,27764,380467.0,57512.0,407.19323177680667,234.36625973194947,755.8766346196546
380467,17296,380467,27760,380467.0,57434.0,401.4625063634338,229.40574543503226,740.6413502882714
380467,17276,380467,27716,380467.0,57426.0,395.58871341711347,224.3439750238424,725.0851838649695
380467,17283,380467,27672,380467.0,57375.0,389.57494826066136,219.18565098704676,709.2189519836633
380467,17273,380467,27691,380467.0,57363.0,383.4240414848636,213.93498639878473,693.053118402657
380477,17258,380477,27720,380477.0,57357.0,377.1385584611728,208.59518559785698,676.5973640549875
380477,17274,380477,27676,380477.0,57392.0,370.72081960117725,203.1685451706942,659.8605656926212
380477,17275,380477,27768,380477.0,57365.0,364.1730019887876,197.6568735996653,642.8512920875827
380477,17253,380477,27694,380477.0,57352.0,357.49737897024096,192.0620008158382,625.5784613185599
380477,17250,380477,27718,380477.0,57343.0,350.69647501827916,186.38622581027323,608.0517197072188
380477,17255,380477,27709,380477.0,57307.0,343.7730568681235,180.632431059831,590.2815582947567
380488,17261,380488,27745,380488.0,57300.0,336.7302097572559,174.80414498467294,572.2793142707224
380488,17250,380488,27698,380488.0,57280.0,329.5715958140147,168.90585994461918,554.0571217686033
380488,17218,380488,27692,380488.0,57290.0,322.30165164465734,162.94324138708896,535.6279674828268
380488,17198,380488,27651,380488.0,57155.0,314.9254619136338,156.92289003793783,517.0057252394541
380488,17183,380488,27613,380488.0,57196.0,307.44835329509704,150.85174599718175,498.2046975723839
380488,17178,380488,27592,380488.0,57137.0,299.87549397771426,144.7362923830529,479.2388419448284
380498,17171,380498,27602,380498.0,57127.0,292.21168878283754,138.58179710812115,460.12131660388434
380498,17181,380498,27648,380498.0,57128.0,284.4613818723632,132.39203982692527,440.86436788004784
380498,17159,380498,27634,380498.0,57118.0,276.6288021299499,126.169730305293,421.47943100965375
380498,17147,380498,27654,380498.0,57072.0,268.7180831000895,119.91723357715111,401.9774015799849
380498,17160,380498,27644,380498.0,57110.0,260.7332622299441,113.63713633618943,382.3688444918389
380498,17149,380498,27650,380498.0,57099.0,252.6783333165516,107.33260388264145,362.66428376212593
380509,17137,380509,27624,380509.0,57065.0,244.55742487906983,101.00759229275761,342.8747589956557
380509,17121,380509,27603,380509.0,57013.0,236.3748958803131,94.66683273171066,323.01217462540524
380509,17101,380509,27556,380509.0,56970.0,228.13523735656176,88.31548457190553,303.0890185996019
380509,17077,380509,27534,380509.0,56960.0,219.84283040655248,81.95846323869253,283.1177192826891
380509,17082,380509,27551,380509.0,56940.0,211.501649438911,75.59970975472703,263.1101683581438
380509,17095,380509,27530,380509.0,56891.0,203.11512909888546,69.24180252751708,243.077542898449
380519,17084,380519,27590,380519.0,56906.0,194.68636068926548,62.886048869083766,223.03018741829874
380519,17061,380519,27591,380519.0,56910.0,186.2183953615726,56.53301771110543,202.97762637610901
380519,17067,380519,27576,380519.0,56867.0,177.71434232009048,50.18331716375718,182.92891522544778
380519,17052,380519,27556,380519.0,56866.0,169.17733681310807,43.83809477043232,162.89302209481207
380519,17057,380519,27586,380519.0,56825.0,160.61058625049174,37.49909043801733,142.87893825985282
380519,17056,380519,27539,380519.0,56843.0,152.0175226749738,31.168628530481925,122.89569114977701
380529,17028,380529,27550,380529.0,56816.0,143.40198457786278,24.849638111171657,102.95250243621513
380529,17006,380529,27508,380529.0,56767.0,134.76823973847172,18.54549483892555,83.05901400432595
380529,16996,380529,27501,380529.0,56694.0,126.1207457515236,12.25968644797149,63.22513628453942
380529,16988,380529,27517,380529.0,56682.0,117.46385452368804,5.995477768489309,43.460312212635586
380529,16966,380529,27464,380529.0,56660.0,108.80164475444298,-0.24426494867572046,23.772692311830838
380529,16962,380529,27488,380529.0,56662.0,100.13781143123549,-6.457197763654278,4.168777118270214
380540,16965,380540,27490,380540.0,56657.0,91.47558589821256,-12.641625567941333,-15.346438910090455
380540,16952,380540,27523,380540.0,56645.0,82.81778958675307,-18.79632184216473,-34.76906303930582
380540,16949,380540,27481,380540.0,56626.0,74.16698082603193,-24.920033615742682,-54.095884501118576
380540,16945,380540,27481,380540.0,56604.0,65.52557928646053,-31.011155342688767,-73.32411350650284
380540,16945,380540,27511,380540.0,56645.0,56.895996300693525,-37.06770732907279,-92.4511759350064
380540,16924,380540,27484,380540.0,56615.0,48.28079121656958,-43.0872221200101,-111.47425214810949
380550,16908,380550,27446,380550.0,56558.0,39.68272822941401,-49.066563198130325,-130.38972191822393
380550,16897,380550,27418,380550.0,56521.0,31.104658730582457,-55.00217795616169,-149.19314899752476
380550,16875,380550,27401,380550.0,56512.0,22.549320149084792,-60.89078301892863,-167.87982568576467
380550,16858,380550,27422,380550.0,56481.0,14.019113929605112,-66.72996799949206,-186.44525828342967
380550,16868,380550,27418,380550.0,56436.0,5.515894938943006,-72.51835149710499,-204.8854154935692
380550,16859,380550,27399,380550.0,56460.0,-2.9590780218341024,-78.25540071778937,-223.1969544309626
380560,16858,380560,27420,380560.0,56436.0,-11.40498411585503,-83.94126689082273,-241.37728068727483
380560,16850,380560,27425,380560.0,56437.0,-19.821234697691864,-89.57663852634869,-259.4242705493227
380560,16852,380560,27421,380560.0,56387.0,-28.207306920945882,-95.16243037969468,-277.335950924283
380560,16846,380560,27450,380560.0,56406.0,-36.562572228646786,-100.6993809598963,-295.1104021555269
380560,16834,380560,27420,380560.0,56375.0,-44.886121772189654,-106.18766176966585,-312.74572190298795
380560,16799,380560,27406,380560.0,56351.0,-53.176718301400456,-111.62663789614004,-330.23990849599875
380571,16799,380571,27363,380571.0,56309.0,-61.4329818144098,-117.0150268439966,-347.5908803630896
380571,16788,380571,27380,380571.0,56292.0,-69.65365925268128,-122.35138884813296,-364.7967752907184
380571,16785,380571,27357,380571.0,56260.0,-77.837741510532,-127.63455610247416,-381.85634542099274
380571,16761,380571,27360,380571.0,56242.0,-85.98445613193843,-132.86380869418605,-398.7692780557562
380571,16748,380571,27369,380571.0,56244.0,-94.09333000527192,-138.03888834633477,-415.53638361947833
380571,16774,380571,27368,380571.0,56269.0,-102.16429779776547,-143.15987225419644,-432.159480801326
380581,16759,380581,27390,380581.0,56244.0,-110.19759913525559,-148.2268807188849,-448.64087564771273
380581,16749,380581,27347,380581.0,56235.0,-118.1934786992021,-153.23975214634572,-464.9827482333649
380581,16732,380581,27354,380581.0,56252.0,-126.15202112764689,-158.1979343299925,-481.1867423112204
380581,16742,380581,27373,380581.0,56256.0,-134.0731814282717,-163.10057178825417,-497.25353932175165
380581,16734,380581,27350,380581.0,56187.0,-141.95676198707451,-167.94645526390548,-513.1823458901413
380581,16718,380581,27324,380581.0,56155.0,-149.8022714182165,-172.73390019722854,-528.9708169173357
380591,16688,380591,27318,380591.0,56081.0,-157.60889192077286,-177.46092252949364,-544.6157077332725
380591,16682,380591,27287,380591.0,56057.0,-165.37570086772456,-182.12565724977003,-560.113937660607
380591,16676,380591,27290,380591.0,56084.0,-173.10197059003963,-186.72677892329648,-575.463508562513
380591,16663,380591,27279,380591.0,56058.0,-180.7873217521779,-191.26382509472631,-590.663780632997
380591,16680,380591,27248,380591.0,56090.0,-188.4317080814456,-195.73742462902567,-605.7151257308819
380591,16658,380591,27335,380591.0,56039.0,-196.03527496378746,-200.14939659965484,-620.6184136215913
380602,16658,380602,27302,380602.0,56050.0,-203.59818297862273,-204.50242626635816,-635.3746711090455
380602,16640,380602,27309,380602.0,56043.0,-211.12053600865272,-208.79939094351482,-649.9849261816828
380602,16659,380602,27328,380602.0,56033.0,-218.60236940119972,-213.04288208426084,-664.4500104910403
380602,16639,380602,27354,380602.0,56041.0,-226.04353830769884,-217.23486480871856,-678.7702391888483
380602,16620,380602,27286,380602.0,56002.0,-233.44357298615722,-221.37624612077383,-692.9451016693761
380602,16621,380602,27251,380602.0,55946.0,-240.80169737521766,-225.46687589719272,-706.9732141550476
380612,16611,380612,27247,380612.0,55915.0,-248.11693810338232,-229.50628012898352,-720.8527952043994
380612,16571,380612,27219,380612.0,55925.0,-255.3882126553068,-233.49453953521504,-734.5824112205134
380612,16589,380612,27259,380612.0,55901.0,-262.61451410212123,-237.43277322299275,-748.1613929932323
380612,16570,380612,27291,380612.0,55888.0,-269.79511552927613,-241.32306346422484,-761.5898443944195
380612,16558,380612,27255,380612.0,55894.0,-276.9296221784556,-245.167890361344,-774.8685589492518
380612,16555,380612,27278,380612.0,55883.0,-284.0179907268705,-248.9695944129902,-787.9988807120953
380622,16561,380622,27269,380622.0,55845.0,-291.0605561925454,-252.73018058310652,-800.9825114509495
380622,16563,380622,27269,380622.0,55870.0,-298.0579045723373,-256.4512148865792,-813.8214442134606
380622,16551,380622,27284,380622.0,55891.0,-305.01061144295545,-260.13366772267585,-826.5178269248397
380622,16554,380622,27227,380622.0,55852.0,-311.91902257451613,-263.77781318915805,-839.0734726407177
380622,16533,380622,27269,380622.0,55827.0,-318.78314737311223,-267.3833219602835,-851.4894251849348
380622,16503,380622,27169,380622.0,55781.0,-325.60270561902314,-270.9495760512699,-863.7660921210515
380633,16492,380633,27232,380633.0,55767.0,-332.37740844962605,-274.4761548832313,-875.9038114608165
380633,16497,380633,27175,380633.0,55757.0,-339.1073278868164,-277.9633145760515,-887.9034190182524
380633,16472,380633,27175,380633.0,55741.0,-345.7930898091754,-281.41229453226526,-899.7665533111392
380633,16486,380633,27196,380633.0,55725.0,-352.43590250756483,-284.82554641398536,-911.4957485739822
380633,16500,380633,27221,380633.0,55701.0,-359.0374673505156,-288.2067357158864,-923.0945242727
380633,16488,380633,27220,380633.0,55738.0,-365.59968045695086,-291.56029122490844,-934.5674609222831
380643,16479,380643,27234,380643.0,55744.0,-372.12428520050344,-294.8908017642821,-945.9199585400902
380643,16473,380643,27209,380643.0,55710.0,-378.6127325017326,-298.20261221366184,-957.1576553327482
380643,16465,380643,27244,380643.0,55723.0,-385.0661962397131,-301.49963485393755,-968.2859779774244
380643,16460,380643,27240,380643.0,55670.0,-391.4855919597744,-304.78515936377346,-979.3100621222145
380643,16424,380643,27193,380643.0,55683.0,-397.87162919648824,-308.061622894861,-990.2348931802262
380643,16414,380643,27206,380643.0,55673.0,-404.2250370186953,-311.33067403507204,-1001.0654648816055
380653,16426,380653,27158,380653.0,55626.0,-410.5468919420895,-314.59359129163226,-1011.8068400713073
380653,16413,380653,27165,380653.0,55620.0,-416.83874867415614,-317.85178283498874,-1022.4643098921608
380653,16420,380653,27153,380653.0,55599.0,-423.10251901617426,-321.1072217483074,-1033.0437564221745
380653,16410,380653,27202,380653.0,55589.0,-429.34029719855585,-324.3626163840829,-1043.551965628749
380653,16416,380653,27222,380653.0,55645.0,-435.5542064692021,-327.6210547043438,-1053.9966455789863
380653,16388,380653,27194,380653.0,55607.0,-441.7462810370523,-330.88528239600583,-1064.3860080296718
380664,16395,380664,27183,380664.0,55611.0,-447.91845615900695,-334.15723190332653,-1074.7281681432255
380664,16388,380664,27206,380664.0,55621.0,-454.0726217846959,-337.43803907035465,-1085.0307789591309
380664,16386,380664,27170,380664.0,55571.0,-460.21059803784624,-340.72814461423815,-1095.3008578686956
380664,16381,380664,27155,380664.0,55527.0,-466.3340324751176,-344.027377183035,-1105.5448655618359
380664,16363,380664,27167,380664.0,55529.0,-472.4443303702983,-347.33521832968665,-1115.7692395901163
380664,16336,380664,27117,380664.0,55520.0,-478.54273332434536,-350.65112798204143,-1125.9809796137615
380674,16336,380674,27135,380674.0,55504.0,-484.63058865368566,-353.97485554403397,-1136.1878510444214
380674,16324,380674,27115,380674.0,55510.0,-490.70964559381787,-357.3067690205928,-1146.3983505391343
380674,16347,380674,27146,380674.0,55481.0,-496.7821495927278,-360.6480099178007,-1156.6216455856554
380674,16329,380674,27116,380674.0,55514.0,-502.8506820211263,-364.0003949802104,-1166.8674838596817
380674,16331,380674,27161,380674.0,55452.0,-508.9179091507791,-367.36621043720925,-1177.146053847617
380674,16328,380674,27139,380674.0,55502.0,-514.9864184086811,-370.74793917763765,-1187.4678733240107
380684,16312,380684,27160,380684.0,55488.0,-521.0586398010649,-374.1479228074016,-1197.8436223860967
380684,16320,380684,27151,380684.0,55532.0,-527.1368058808962,-377.5680657719953,-1208.2836596514733
380684,16297,380684,27126,380684.0,55437.0,-533.2229380399201,-381.00968265868846,-1218.7974115111408
380684,16294,380684,27087,380684.0,55430.0,-539.3188671492644,-384.47365456335194,-1229.3932938414832
380684,16278,380684,27103,380684.0,55380.0,-545.4263269344766,-387.9609369752353,-1240.0793540772538
380684,16269,380684,27072,380684.0,55382.0,-551.5470977646598,-391.4730771375236,-1250.864093035847
380695,16247,380695,27094,380695.0,55372.0,-557.6831785377669,-395.01248181089693,-1261.7569785079124
380695,16242,380695,27076,380695.0,55381.0,-563.8370088634827,-398.5824900261224,-1272.7685531946659
380695,16254,380695,27105,380695.0,55382.0,-570.0116463625047,-402.18729931587706,-1283.910213585894
380695,16274,380695,27111,380695.0,55388.0,-576.2106743704006,-405.831708892748,-1295.1938011014074
380695,16254,380695,27120,380695.0,55389.0,-582.4378075703975,-409.52068773677274,-1306.6311265573295
380695,16252,380695,27138,380695.0,55358.0,-588.6965151916103,-413.25887874834575,-1318.2335611470667
380705,16249,380705,27133,380705.0,55387.0,-594.9898862907031,-417.0501298805294,-1330.0117967714448
380705,16239,380705,27130,380705.0,55366.0,-601.3206054670281,-420.8971188906759,-1341.9756357192475
380705,16228,380705,27040,380705.0,55336.0,-607.6909336801191,-424.8013366982641,-1354.1337385269412
380705,16194,380705,27062,380705.0,55295.0,-614.1027993163858,-428.76369032063496,-1366.4936474268286
380705,16195,380705,27030,380705.0,55282.0,-620.5580743082951,-432.7853934414462,-1379.0622287866481
380705,16175,380705,27063,380705.0,55291.0,-627.0589097703981,-436.86850103082014,-1391.846145739179
380715,16181,380715,27068,380715.0,55266.0,-633.6079509774477,-441.0158977412694,-1404.8519823402794
380715,16180,380715,27043,380715.0,55220.0,-640.2083729248884,-445.23099297624674,-1418.086207242773
380715,16187,380715,27110,380715.0,55272.0,-646.8637384099715,-449.5173937193415,-1431.5552802297982
380715,16184,380715,27080,380715.0,55257.0,-653.577727102697,-453.87848621324457,-1445.265579628302
380715,16185,380715,27081,380715.0,55237.0,-660.3538427525484,-458.3169203075497,-1459.2229237405138
380715,16168,380715,27074,380715.0,55237.0,-667.195193531394,-462.83435052237445,-1473.4321474994829
380726,16173,380726,27080,380726.0,55232.0,-674.1043879011189,-467.4314357698913,-1487.8969243956942
380726,16152,380726,27035,380726.0,55207.0,-681.0835094809812,-472.10787709681654,-1502.6195947244603
380726,16139,380726,27039,380726.0,55157.0,-688.1341546416257,-476.86261080063434,-1517.6011072946246
380726,16128,380726,27003,380726.0,55171.0,-695.2575732323099,-481.694213589951,-1532.8412687993061
380726,16107,380726,27003,380726.0,55131.0,-702.4548800086704,-486.6013478021036,-1548.3390518987303
380726,16121,380726,26994,380726.0,55151.0,-709.7272375561627,-491.583123270987,-1564.0926766742723
380736,16105,380736,27025,380736.0,55098.0,-717.0759034143264,-496.6392362470288,-1580.0995342915814
380736,16122,380736,27083,380736.0,55106.0,-724.5021029135096,-501.76962636186875,-1596.356149230774
380736,16098,380736,27025,380736.0,55106.0,-732.0068167287694,-506.97366177152077,-1612.858166002863
380736,16115,380736,27000,380736.0,55113.0,-739.5905863239223,-512.2495607892736,-1629.6001075018664
380736,16088,380736,27018,380736.0,55095.0,-747.2533655893319,-517.5945660824314,-1646.5748707343057
380736,16096,380736,27016,380736.0,55087.0,-754.9944227059617,-523.0052927083698,-1663.7732535483444
380747,16097,380747,27020,380747.0,55076.0,-762.8122558124008,-528.4776692706846,-1681.1836623536299
380747,16070,380747,27003,380747.0,55037.0,-770.7044678601566,-534.0066989604804,-1698.791960660034
380747,16050,380747,26984,380747.0,54999.0,-778.6677423672401,-539.5863947663875,-1716.5815417843098
380747,16033,380747,26945,380747.0,54998.0,-786.6980800208152,-545.2100165092879,-1734.5336565360979
380747,16032,380747,26945,380747.0,54979.0,-794.7911323125543,-550.8705714410662,-1752.6276928594511
380747,16035,380747,26958,380747.0,54943.0,-802.9423591309395,-556.5612730380678,-1770.841229945577
380757,16029,380757,26964,380757.0,54968.0,-811.1469375954633,-562.2756000124923,-1789.1500192602205
380757,16024,380757,26967,380757.0,54922.0,-819.3995558456317,-568.0069840920012,-1807.5278891635248
380757,16006,380757,26944,380757.0,54958.0,-827.6942680063872,-573.7484748603226,-1825.9464889123653
380757,16017,380757,26990,380757.0,54872.0,-836.0244469308848,-579.4925417491836,-1844.3750165784884
380757,15992,380757,26971,380757.0,54950.0,-844.3827418234147,-585.2308029442333,-1862.780057273173
380757,16002,380757,27024,380757.0,54865.0,-852.7610065546313,-590.9535134852773,-1881.1253849466166
380767,16003,380767,26955,380767.0,54887.0,-861.1501908131979,-596.6490010446296,-1899.3716984902044
380767,15966,380767,26960,380767.0,54797.0,-869.5401882880859,-602.3034524244985,-1917.476619133611
380767,15946,380767,26910,380767.0,54806.0,-877.9198566892119,-607.9012434062281,-1935.3950859958418
380767,15939,380767,26900,380767.0,54765.0,-886.2773374263635,-613.4255776431377,-1953.0798799779097
380767,15936,380767,26880,380767.0,54770.0,-894.6003818646029,-618.859139631204,-1970.4819536534362
380767,15922,380767,26890,380767.0,54746.0,-902.8764497848726,-624.1845801570279,-1987.5504877306776
380778,15935,380778,26904,380778.0,54763.0,-911.0926553213826,-629.3846627604294,-2004.232754595702
380778,15934,380778,26901,380778.0,54758.0,-919.2355992325274,-634.4420515333629,-2020.473786534705
380778,15928,380778,26928,380778.0,54723.0,-927.2910798299174,-639.3389087833333,-2036.215939389064
380778,15920,380778,26899,380778.0,54744.0,-935.2438246627268,-644.0564812143277,-2051.398594248234
380778,15919,380778,26925,380778.0,54720.0,-943.0773466297507,-648.5747986547185,-2065.957972741413
380778,15922,380778,26896,380778.0,54733.0,-950.7738319249639,-652.8725162988576,-2079.826867544528
380788,15909,380788,26906,380788.0,54685.0,-958.3139733323048,-656.9268545656873,-2092.934371117568
380788,15891,380788,26846,380788.0,54670.0,-965.676846586113,-660.7137080950984,-2105.205855789329
380788,15859,380788,26864,380788.0,54616.0,-972.8400085095059,-664.2080318733153,-2116.5633228341003
380788,15862,380788,26829,380788.0,54606.0,-979.7798257004906,-667.3843575302956,-2126.926023786683
380788,15836,380788,26857,380788.0,54564.0,-986.471828068613,-670.2171613397119,-2136.211150090532
380788,15862,380788,26861,380788.0,54583.0,-992.8908977525288,-672.6809349851999,-2144.334405474864
380798,15866,380798,26852,380798.0,54585.0,-999.0111869504974,-674.7499943200178,-2151.210265406737
380798,15858,380798,26890,380798.0,54572.0,-1004.8057796433148,-676.3981989630457,-2156.7518716999075
380798,15821,380798,26867,380798.0,54565.0,-1010.2464238671683,-677.5986523719353,-2160.8708544377396
380798,15814,380798,26830,380798.0,54507.0,-1015.3036672985374,-678.3235208555512,-2163.4774482884277
380798,15836,380798,26851,380798.0,54525.0,-1019.9471967158147,-678.5442496455981,-2164.480997135016
380798,15823,380798,26845,380798.0,54511.0,-1024.1459208802744,-678.2319482456201,-2163.7905585016942
380809,15822,380809,26847,380809.0,54465.0,-1027.8677897203797,-677.3575270678051,-2161.315361782527
380809,15792,380809,26810,380809.0,54459.0,-1031.0797191417657,-675.8917522333596,-2156.9653761688587
380809,15774,380809,26804,380809.0,54448.0,-1033.7478208233929,-673.8055756478975,-2150.6521166708635
380809,15784,380809,26808,380809.0,54412.0,-1035.8378206911352,-671.0706765332613,-2142.2894401918447
380809,15776,380809,26805,380809.0,54419.0,-1037.31536967344,-667.6598794114859,-2131.794322361143
380809,15776,380809,26838,380809.0,54430.0,-1038.14612439631,-663.5472835060814,-2119.0876077793373
380819,15787,380819,26779,380819.0,54455.0,-1038.2957284439642,-658.7082501436116,-2104.094459100026
380819,15763,380819,26836,380819.0,54421.0,-1037.729788386146,-653.1195221930309,-2086.744537854811
380819,15762,380819,26831,380819.0,54449.0,-1036.4139468683707,-646.7593933651576,-2066.972322154074
380819,15767,380819,26825,380819.0,54460.0,-1034.3141004209795,-639.6076690871743,-2044.7176282894607
380819,15739,380819,26813,380819.0,54455.0,-1031.396641671949,-631.6456726168535,-2019.9260772885673
380819,15755,380819,26848,380819.0,54452.0,-1027.628716943374,-622.8565095376252,-1992.549591329779
380829,15726,380829,26790,380829.0,54444.0,-1022.9785509063009,-613.2253726733043,-1962.5471727038798
380829,15736,380829,26791,380829.0,54455.0,-1017.4158049475358,-602.7399871243692,-1929.8859081740209
380829,15707,380829,26808,380829.0,54503.0,-1010.9119844353321,-591.3913335081766,-1894.5419066027907
380829,15707,380829,26838,380829.0,54525.0,-1003.4409343080522,-579.1741843352975,-1856.5008815018268
380829,15741,380829,26853,380829.0,54577.0,-994.9793105708522,-566.087109774079,-1815.7583772387707
380829,15743,380829,26905,380829.0,54622.0,-985.5067573612141,-552.1321512936009,-1772.3198316066523
380840,15754,380840,26884,380840.0,54669.0,-975.0057883104051,-537.3144161977864,-1726.2005497699884
380840,15772,380840,26897,380840.0,54703.0,-963.4616683202096,-521.6418682127871,-1677.4256703542553
380840,15773,380840,26928,380840.0,54759.0,-950.8623873874262,-505.1254515756857,-1626.0302506708567
380840,15799,380840,26957,380840.0,54817.0,-937.1986621926776,-487.77920433302717,-1572.0594115687497
380840,15816,380840,26978,380840.0,54854.0,-922.4639192947923,-469.6200852674086,-1515.5684274414916
380840,15814,380840,26943,380840.0,54901.0,-906.6542440394442,-450.6678155301673,-1456.6228732484026
380850,15811,380850,26962,380850.0,54940.0,-889.7684613368729,-430.9451675040667,-1395.298982576299
380850,15826,380850,26948,380850.0,55037.0,-871.8084759247547,-410.4786577528784,-1331.684076994425
380850,15845,380850,27019,380850.0,55112.0,-852.7796778706543,-389.2991738081345,-1265.8767060250334
380850,15851,380850,27024,380850.0,55246.0,-832.6912048015997,-367.44214739471107,-1197.9862601436096
380850,15883,380850,27086,380850.0,55331.0,-811.5560991296284,-344.94729535099566,-1128.1320900439036
380850,15910,380850,27149,380850.0,55433.0,-789.3913883039252,-321.85809911314993,-1056.4423998094073
380860,15949,380860,27179,380860.0,55531.0,-766.2179965964116,-298.221033625901,-983.0532359537679
380860,15982,380860,27201,380860.0,55655.0,-742.0604817968796,-274.0847587947718,-908.107586401803
380860,16003,380860,27246,380860.0,55751.0,-716.9467195873281,-249.49962411014482,-831.7543907379008
380860,16055,380860,27288,380860.0,55874.0,-690.9076400350426,-224.5173715459131,-754.147455076937
380860,16065,380860,27292,380860.0,55910.0,-663.9769991134133,-199.19080642650496,-675.4445075663666
380860,16101,380860,27313,380860.0,55998.0,-636.191200439186,-173.57362077067268,-595.8067396479097
380871,16100,380871,27318,380871.0,56157.0,-607.5892936262744,-147.72056167822632,-515.398712620576
380871,16144,380871,27392,380871.0,56242.0,-578.2131703349686,-121.68770624292102,-434.3878876520405
380871,16191,380871,27418,380871.0,56351.0,-548.1077402095098,-95.5324162342875,-352.94362415603496
380871,16221,380871,27484,380871.0,56504.0,-517.3208424971027,-69.31286347480943,-271.2361328820705
380871,16275,380871,27538,380871.0,56623.0,-485.9029445086933,-43.08731631221667,-189.4353195558947
380871,16317,380871,27570,380871.0,56699.0,-453.9067832229124,-16.91333304286684,-107.70942048011784
380881,16341,380881,27573,380881.0,56790.0,-421.3870010178314,9.152888650571072,-26.223966960708594
380881,16386,380881,27640,380881.0,56924.0,-388.39988917656376,35.056775376870576,54.858752840402985
380881,16439,380881,27664,380881.0,57065.0,-355.003229303368,60.74552175217474,135.38036733324452
380881,16481,380881,27697,380881.0,57093.0,-321.2560223852653,86.16840733465949,215.18749246999823
380881,16512,380881,27691,380881.0,57170.0,-287.2181117240111,111.2770517115502,294.13246874767856
380881,16555,380881,27698,380881.0,57253.0,-252.94990829577347,136.02527951542316,372.07330172988486
380891,16588,380891,27730,380891.0,57337.0,-218.51225505215092,160.3686637231259,448.8733754905213
380891,16635,380891,27792,380891.0,57422.0,-183.96631690149275,184.2642040753782,524.4014495150307
380891,16674,380891,27767,380891.0,57511.0,-149.37342559277067,207.67041526309828,598.5318686133044
380891,16741,380891,27863,380891.0,57632.0,-114.79482288055351,230.547563192243,671.1449435526508
380891,16786,380891,27918,380891.0,57734.0,-80.29122713247284,252.8580506689708,742.1276562345427
380891,16818,380891,27912,380891.0,57783.0,-45.922300324125786,274.5671905609406,811.3745759121427
380902,16866,380902,27944,380902.0,57870.0,-11.746242138875573,295.64388600069367,878.7885125063126
380902,16906,380902,27994,380902.0,57962.0,22.18045432950271,316.0608463839618,944.2808112692649
380902,16948,380902,28007,380902.0,58024.0,55.80323690956084,335.79477931227746,1007.7716804963143
380902,16963,380902,27988,380902.0,58062.0,89.06970435958158,354.826642334482,1069.190551110839
380902,17005,380902,27957,380902.0,58075.0,121.92965418067604,373.14140681590266,1128.4760093030313
380902,17045,380902,27985,380902.0,58135.0,154.33502862248633,390.7272151593022,1185.5751648799428
380912,17050,380912,27996,380912.0,58189.0,186.23990014694107,407.5745248251055,1240.4428985000854
380912,17094,380912,27992,380912.0,58240.0,217.6004068433242,423.67566250489426,1293.0414448575334
380912,17143,380912,28051,380912.0,58287.0,248.37464333371315,439.0246552020129,1343.3402728158808
380912,17207,380912,28068,380912.0,58350.0,278.5228263157378,453.61731014085024,1391.3160492112343
380912,17212,380912,28076,380912.0,58390.0,308.00778669292504,467.45157000705024,1436.9526751778217
380912,17249,380912,28074,380912.0,58407.0,336.79537066977423,480.5277692656589,1480.2413208808644
380922,17266,380922,28112,380922.0,58468.0,364.85449602539643,492.8485932988084,1521.180281098139
380922,17309,380922,28113,380922.0,58498.0,392.15706299712963,504.41903176801566,1559.7747672959672
380922,17329,380922,28104,380922.0,58525.0,418.6779494638905,515.2464232546716,1596.0368204217011
380922,17345,380922,28127,380922.0,58513.0,444.39505491591444,525.3403623399619,1629.9851297392179
380922,17364,380922,28087,380922.0,58545.0,469.28923415454585,534.7124223448252,1661.6445023400179
380922,17368,380922,28101,380922.0,58521.0,493.34406882576025,543.3757338996868,1691.0450899959187
380933,17385,380933,28095,380933.0,58605.0,516.5455280070023,551.3444574284564,1718.2216680292518
380933,17420,380933,28086,380933.0,58560.0,538.8816317151316,558.6333211466333,1743.2131979680466
380933,17465,380933,28124,380933.0,58618.0,560.3423505244934,565.2573192384584,1766.0625737113578
380933,17467,380933,28141,380933.0,58577.0,580.919820612206,571.2316810465379,1786.81626663505
380933,17501,380933,28148,380933.0,58654.0,600.6085973079564,576.572177572967,1805.5239026632112
380933,17506,380933,28159,380933.0,58653.0,619.4057328894412,581.2954956430068,1822.23807539246
380943,17525,380943,28149,380943.0,58696.0,637.3107374889789,585.4194262534364,1837.0145231876272
380943,17571,380943,28214,380943.0,58660.0,654.3255567750934,588.9629798912594,1849.912375111553
380943,17557,380943,28159,380943.0,58632.0,670.4546757082524,591.9466427590476,1860.9939781968142
380943,17562,380943,28131,380943.0,58651.0,685.7051864129594,594.3924838992674,1870.3241847543259
380943,17567,380943,28124,380943.0,58629.0,700.0865569414893,596.3236491260187,1877.9695429314074
380943,17575,380943,28086,380943.0,58621.0,713.6102342707627,597.7634879511919,1883.9977162777018
380953,17569,380953,28093,380953.0,58582.0,726.2893038425966,598.7347681044952,1888.476907570986
380953,17599,380953,28121,380953.0,58631.0,738.1382113562001,599.2591610624771,1891.4751956832279
380953,17611,380953,28139,380953.0,58660.0,749.1726212736792,599.3572305850425,1893.0602487459068
380953,17630,380953,28192,380953.0,58639.0,759.4095006188277,599.0489822467605,1893.2996684296554
380953,17617,380953,28126,380953.0,58604.0,768.8672656673048,598.3546090230288,1892.2613540118136
380953,17634,380953,28157,380953.0,58570.0,777.5657683717543,597.2948696830874,1890.0132081242346
380964,17644,380964,28187,380964.0,58634.0,785.5261684737397,595.8910811180228,1886.6224754293498
380964,17634,380964,28125,380964.0,58603.0,792.7708525607445,594.1652136690785,1882.1555194981793
380964,17614,380964,28082,380964.0,58582.0,799.3232880833568,592.1398236608153,1876.678057981595
380964,17614,380964,28125,380964.0,58537.0,805.2076213846738,589.8373954285859,1870.2551071798302
380964,17616,380964,28074,380964.0,58539.0,810.448166721447,587.279683043224,1862.9504112797208
380964,17619,380964,28078,380964.0,58515.0,815.0690566822327,584.487423378187,1854.8258277144869
380974,17627,380974,28037,380974.0,58529.0,819.0940977448254,581.4800049613519,1845.941004553922
380974,17644,380974,28112,380974.0,58536.0,822.5467735327725,578.2750959940186,1836.3533944765713
380974,17655,380974,28139,380974.0,58532.0,825.4504010734886,574.8888299324925,1826.118560897843
380974,17644,380974,28107,380974.0,58509.0,827.8283644204898,571.3366451961111,1815.2905497615716
380974,17636,380974,28094,380974.0,58490.0,829.704204299609,567.633956843204,1803.9220236613864
380974,17652,380974,28092,380974.0,58467.0,831.1015002880686,563.7961396134392,1792.064105950522
380985,17663,380985,28110,380985.0,58481.0,832.043799754993,559.8383014564923,1779.7661577718682
380985,17648,380985,28070,380985.0,58451.0,832.554740533463,555.775274055125,1767.0757271803361
380985,17617,380985,28046,380985.0,58388.0,832.658085267208,551.621540583582,1754.0385149616475
380985,17611,380985,28025,380985.0,58407.0,832.3773833495932,547.3907825017216,1740.6980095584352
380985,17600,380985,28036,380985.0,58363.0,831.7354236129797,543.0952837211036,1727.0949879555146
380985,17607,380985,28044,380985.0,58352.0,830.7538169990837,538.7456389490235,1713.267223132966
380995,17606,380995,28039,380995.0,58395.0,829.4528299033032,534.3508589085836,1699.249408916507
380995,17624,380995,28053,380995.0,58360.0,827.85143107133,529.9186393649989,1685.0734284991627
380995,17622,380995,28071,380995.0,58348.0,825.9675008003904,525.4556762880197,1670.7688400395775
380995,17630,380995,28051,380995.0,58361.0,823.8181107627407,520.9680572524609,1656.36316141634
380995,17617,380995,28048,380995.0,58319.0,821.4197463764781,516.4615568396421,1641.8820078190383
380995,17627,380995,28060,380995.0,58310.0,818.788412481694,511.94171036895915,1627.3491865177198
381004,17608,381004,28024,381004.0,58265.0,815.9396602386133,507.41381957351433,1612.7865698961657
381004,17613,381004,28060,381004.0,58214.0,812.8885650862746,502.88295884705036,1598.2136731290755
381004,17585,381004,28007,381004.0,58233.0,809.6496309758569,498.3539576066267,1583.6470450837508
381004,17575,381004,27991,381004.0,58235.0,806.2365738484892,493.83125337498507,1569.0998947804317
381004,17567,381004,27974,381004.0,58209.0,802.6619960352583,489.3184474618863,1554.5822523912839
381004,17567,381004,27982,381004.0,58187.0,798.937098872436,484.81777762097323,1540.1012596091489
381015,17584,381015,27990,381015.0,58233.0,795.0716031211515,480.3299001730525,1525.6612935975643
381015,17591,381015,28034,381015.0,58223.0,791.0739415900827,475.8541150918143,1511.2643148653128
381015,17572,381015,27992,381015.0,58211.0,786.9515981750802,471.38890855794307,1496.910558318155
381015,17590,381015,28014,381015.0,58205.0,782.7113481705717,466.9324163501038,1482.5990979157054
381015,17590,381015,28051,381015.0,58252.0,778.359403655181,462.4826826451769,1468.328226230516
381015,17597,381015,28024,381015.0,58211.0,773.9016499119849,458.03806438497116,1454.0960273673315
381025,17579,381025,28003,381025.0,58178.0,769.343920063319,453.59765579696335,1439.9009409194016
381025,17562,381025,27987,381025.0,58121.0,764.6920871427775,449.1612454032901,1425.7417139526901
381025,17549,381025,27973,381025.0,58129.0,759.951892467086,444.7289026861042,1411.6167815441202
381025,17531,381025,27949,381025.0,58105.0,755.1286234490234,440.3005404763482,1397.5237032739617
381025,17538,381025,27932,381025.0,58101.0,750.2268106628875,435.87548747415394,1383.4589916678397
381025,17545,381025,27963,381025.0,58110.0,745.2501038699277,431.4521194796486,1369.418217319872
381035,17558,381035,27963,381035.0,58120.0,740.2014341162385,427.0278245857771,1355.3963361693884
381035,17565,381035,27985,381035.0,58133.0,735.0834071435304,422.5993813110414,1341.3882856150851
381035,17535,381035,27986,381035.0,58107.0,729.8986993338215,418.1634988114556,1327.389683677521
381035,17528,381035,27993,381035.0,58110.0,724.6501788509808,413.71731284989517,1313.3973419736712
381035,17533,381035,28004,381035.0,58116.0,719.3407539150429,409.25879917098587,1299.4095724006388
381035,17528,381035,27965,381035.0,58057.0,713.9732678648966,404.7870659175236,1285.4264292866644
381046,17503,381046,27994,381046.0,58075.0,708.5505319843523,400.30243408253756,1271.449773733278
381046,17526,381046,27911,381046.0,58016.0,703.0753179138799,395.8062797167004,1257.483099435011
381046,17503,381046,27908,381046.0,57980.0,697.5503480082712,391.3005609824495,1243.53119682045
381046,17511,381046,27943,381046.0,57976.0,691.9783786653467,386.78715953506463,1229.5996250515586
381046,17495,381046,27911,381046.0,57991.0,686.362277375482,382.2675967437524,1215.6942932667425
381046,17501,381046,27955,381046.0,57965.0,680.705052928047,377.7432440949718,1201.8215313508804
381056,17500,381056,27964,381056.0,57988.0,675.0099176064127,373.2157342882643,1187.9884638591693
381056,17503,381056,27935,381056.0,57982.0,669.2804379374093,368.6874697647197,1174.2034420156515
381056,17493,381056,27944,381056.0,57967.0,663.520737462655,364.1619554068991,1160.4765234303227
381056,17495,381056,27951,381056.0,57949.0,657.7356562994493,359.64384402333866,1146.8198333126907
381056,17479,381056,27925,381056.0,57891.0,651.9308329525975,355.13898186917675,1133.247574124467
381056,17454,381056,27940,381056.0,57906.0,646.1126717930015,350.6544763121343,1119.7756893492844
381066,17467,381066,27874,381066.0,57823.0,640.2881676894334,346.1985911778165,1106.421389366359
381066,17433,381066,27865,381066.0,57820.0,634.4647130590027,341.7803278865077,1093.2025996301295
381066,17435,381066,27860,381066.0,57819.0,628.6499498480091,337.4087568790262,1080.137377152509
381066,17408,381066,27833,381066.0,57818.0,622.8515731162825,333.09245522254463,1067.2436650538011
381066,17404,381066,27863,381066.0,57804.0,617.0770799098158,328.839226173806,1054.539489833854
381066,17422,381066,27874,381066.0,57795.0,611.3335926938571,324.6561206634017,1042.04323651189
381077,17426,381077,27883,381077.0,57789.0,605.6279493586483,320.5498211588416,1029.7738108183894
381077,17416,381077,27883,381077.0,57785.0,599.9670453999074,316.5271751829473,1017.7507789067489
381077,17399,381077,27865,381077.0,57793.0,594.3581022310748,312.5955544696392,1005.9945912261642
381077,17411,381077,27876,381077.0,57754.0,588.8086974798341,308.76296060494235,994.5268595620278
381077,17393,381077,27885,381077.0,57737.0,583.3267411916752,305.03806309312176,983.3704578979134
381077,17388,381077,27828,381077.0,57671.0,577.9205009044647,301.43027279692916,972.5492237895094
381087,17351,381087,27784,381087.0,57620.0,572.5985215360215,297.94947810815876,962.0871947552482
381087,17338,381087,27780,381087.0,57601.0,567.36930625392,294.6052047508728,952.007508440081
381087,17349,381087,27811,381087.0,57599.0,562.2408936440843,291.4057857841491,942.3314150530674
381087,17356,381087,27797,381087.0,57609.0,557.2206769628293,288.35817695195425,933.0778506065242
381087,17353,381087,27786,381087.0,57628.0,552.3155886609106,285.46818438695084,924.2636087249589
381087,17329,381087,27813,381087.0,57607.0,547.5323524525685,282.7406066079148,915.9038392301984
381097,17336,381097,27799,381097.0,57577.0,542.8775193824963,280.17933918893476,908.0124317825488
381097,17338,381097,27822,381097.0,57583.0,538.3573969522221,277.78761193397196,900.6019967139318
381097,17332,381097,27805,381097.0,57620.0,533.978103820541,275.5682552174487,893.6837704423417
381097,17326,381097,27837,381097.0,57603.0,529.7457033275939,273.5239306230901,887.2679307480043
381097,17316,381097,27811,381097.0,57535.0,525.6662496982204,271.6573662590873,881.3640058435235
381097,17299,381097,27797,381097.0,57525.0,521.7457082770312,269.97148737926796,875.9806402720768
381108,17299,381108,27793,381108.0,57510.0,517.9897840029334,268.46927020447265,871.1248104179799
381108,17277,381108,27761,381108.0,57563.0,514.4037206673545,267.1533896808261,866.8013028894968
381108,17273,381108,27742,381108.0,57496.0,510.99209505861785,266.02576226902227,863.0127894660341
381108,17274,381108,27761,381108.0,57531.0,507.75861796796306,265.08703022987737,859.7600228814279
381108,17290,381108,27777,381108.0,57522.0,504.7060754761071,264.3362929311936,857.0418356308039
381108,17281,381108,27793,381108.0,57531.0,501.83649742011335,263.7713178847753,854.855206879786
381118,17291,381118,27781,381118.0,57477.0,499.15141533512735,263.38898667061756,853.1953792980271
381118,17282,381118,27814,381118.0,57557.0,496.65205802305127,263.18565202028276,852.0557891375794
381118,17285,381118,27792,381118.0,57560.0,494.33947052880285,263.15739603548406,851.4282002845011
381118,17263,381118,27767,381118.0,57534.0,492.214546363468,263.30015120482204,851.3032934311149
381118,17264,381118,27783,381118.0,57505.0,490.27792841787624,263.6095143518904,851.671020541512
381118,17252,381118,27757,381118.0,57525.0,488.5298190128668,264.08041149763096,852.5203140925524
381128,17237,381128,27785,381128.0,57514.0,486.96977394476767,264.70688900798774,853.838687699695
381128,17240,381128,27758,381128.0,57508.0,485.5964805223343,265.48204131233797,855.6120927572504
381128,17241,381128,27775,381128.0,57497.0,484.40757627608843,266.397976224524,857.8248048425905
381128,17270,381128,27803,381128.0,57519.0,483.3996702811569,267.44583832698436,860.4592310591688
381128,17252,381128,27835,381128.0,57516.0,482.568605619275,268.61612339832726,863.4958371511532
381128,17256,381128,27820,381128.0,57570.0,481.90974047754764,269.89930440228443,866.913344712614
381139,17258,381139,27831,381139.0,57573.0,481.4180496902608,271.2863524520709,870.689227449953
381139,17279,381139,27834,381139.0,57565.0,481.0881865071148,272.7689324657619,874.8003169482298
381139,17263,381139,27815,381139.0,57597.0,480.91467676367336,274.3394296263018,879.2231807002287
381139,17264,381139,27809,381139.0,57554.0,480.89210194011685,275.99083929405947,883.9342306420947
381139,17234,381139,27790,381139.0,57565.0,481.0150527218903,277.7164538372792,888.9096175901459
381139,17238,381139,27824,381139.0,57569.0,481.27784109524237,279.50951255519726,894.1249305553321
381149,17237,381149,27788,381149.0,57562.0,481.6741593611097,281.3630395468888,899.554938482879
381149,17238,381149,27792,381149.0,57527.0,482.196894697375,283.2697584429081,905.1733792570143
381149,17252,381149,27785,381149.0,57611.0,482.83813387893946,285.2218595950575,910.9526753660467
381149,17250,381149,27827,381149.0,57619.0,483.58928957881017,287.2108020961026,916.8640101527956
381149,17262,381149,27828,381149.0,57638.0,484.44128576866655,289.22747670083174,922.8780023126516
381149,17269,381149,27842,381149.0,57632.0,485.38475797142246,291.2626489734449,928.9653987558136
381159,17274,381159,27842,381159.0,57638.0,486.4102727028187,293.30735510812485,935.0973456038284
381159,17267,381159,27861,381159.0,57674.0,487.50852390285047,295.3531475056411,941.2454467018365
381159,17263,381159,27850,381159.0,57655.0,488.67039940192126,297.3922855054444,947.3819181798518
381159,17235,381159,27821,381159.0,57647.0,489.88684891498104,299.41779059447026,953.4797306972366
381159,17255,381159,27820,381159.0,57650.0,491.14858826263617,301.42317408981677,959.5124630173303
381159,17256,381159,27792,381159.0,57649.0,492.4458606995047,303.4019144252201,965.4539871852905
381170,17258,381170,27809,381170.0,57666.0,493.7684398102033,305.34694126941145,971.278271508895
381170,17250,381170,27788,381170.0,57692.0,495.1057285809175,307.2502703776442,976.9594134920732
381170,17272,381170,27862,381170.0,57699.0,496.4467930785959,309.1029088087836,982.4719197500106
381170,17277,381170,27826,381170.0,57715.0,497.7804525012641,310.8951562366281,987.7911021961353
381170,17256,381170,27867,381170.0,57725.0,499.0954644011634,312.61711038883203,992.8934193018314
381170,17303,381170,27881,381170.0,57718.0,500.38065366060897,314.25909967096777,997.7567146509208
381180,17283,381180,27904,381180.0,57737.0,501.6250645056899,315.81215459195664,1002.3603393776458
381180,17290,381180,27885,381180.0,57733.0,502.81820674533725,317.26854257972,1006.685209792999
381180,17283,381180,27873,381180.0,57724.0,503.9501780252641,318.62202648557906,1010.7138433614142
381180,17286,381180,27825,381180.0,57692.0,505.01161791154755,319.8676183440146,1014.4302137689126
381180,17269,381180,27857,381180.0,57685.0,505.99361756964856,321.0009702517244,1017.8192860121966
381180,17291,381180,27836,381180.0,57674.0,506.88761165019673,322.0178437036188,1020.8663898803452
381190,17269,381190,27821,381190.0,57671.0,507.6853093338359,322.9138599042037,1023.5566954038529
381190,17284,381190,27834,381190.0,57673.0,508.37867897807627,323.68429037379116,1025.874881817425
381190,17289,381190,27868,381190.0,57745.0,508.9599562777525,324.32392644381093,1027.805115869475
381190,17287,381190,27893,381190.0,57749.0,509.4217328610947,324.8273859907529,1029.331588886374
381190,17291,381190,27882,381190.0,57740.0,509.75709319056,325.189772575602,1030.4393965553068
381190,17302,381190,27877,381190.0,57748.0,509.9597271511809,325.40717717791796,1031.115112310796
381201,17299,381201,27901,381201.0,57781.0,510.024071163102,325.4768243507179,1031.3469961066955
381201,17282,381201,27898,381201.0,57733.0,509.94543147356154,325.3971664746333,1031.1252194573296
381201,17286,381201,27845,381201.0,57722.0,509.71994005063584,325.16799095684365,1030.4419391527695
381201,17256,381201,27805,381201.0,57718.0,509.34434727719497,324.79007294634994,1029.2909528323112
381201,17244,381201,27817,381201.0,57678.0,508.8156940696519,324.2642764390243,1027.6671977292453
381201,17254,381201,27812,381201.0,57678.0,508.13090805175057,323.5907452744605,1025.5662749250064
381211,17267,381211,27807,381211.0,57677.0,507.28657482307597,322.76859684382924,1022.9840053509758
381211,17264,381211,27862,381211.0,57699.0,506.2790503674321,321.79598291955455,1019.9162483855623
381211,17275,381211,27863,381211.0,57704.0,505.10472852715077,320.6704994195627,1016.3591268631801
381211,17275,381211,27853,381211.0,57686.0,503.76027949815665,319.38983587807905,1012.3094360139313
381211,17257,381211,27871,381211.0,57700.0,502.2428149352887,317.952227568749,1007.7649247979788
381211,17275,381211,27869,381211.0,57717.0,500.5499332259709,316.3566496351827,1002.7244881795864
381222,17280,381222,27882,381222.0,57668.0,498.6797563266655,314.603026481284,997.1884343261183
381222,17253,381222,27822,381222.0,57664.0,496.6310715646936,312.6923815726496,991.1585737957082
381222,17262,381222,27810,381222.0,57632.0,494.40339025757686,310.626575523265,984.6379202324674
381222,17240,381222,27803,381222.0,57611.0,491.996819977224,308.4076425554591,977.6302210705296
381222,17243,381222,27802,381222.0,57591.0,489.4118941577593,306.0372069235457,970.1394861195766
381222,17220,381222,27777,381222.0,57597.0,486.6494076130989,303.5162058979188,962.1695908139474
381232,17224,381232,27826,381232.0,57603.0,483.71022759189646,300.8447836717633,953.7241502962507
381232,17239,381232,27817,381232.0,57616.0,480.59517545922546,298.02243913207,944.8067694397116
381232,17218,381232,27835,381232.0,57607.0,477.305098375042,295.04848010248116,935.4215330947918
381232,17229,381232,27830,381232.0,57579.0,473.8410196358659,291.922500746811,925.5734328751128
381232,17223,381232,27791,381232.0,57563.0,470.2042259883843,288.6446170411528,915.2684692804896
381232,17226,381232,27848,381232.0,57603.0,466.39636068401904,285.2154481800386,904.5135848139253
381242,17205,381242,27824,381242.0,57560.0,462.41952627649994,281.6361717513795,893.3168447769006
381242,17191,381242,27823,381242.0,57534.0,458.27624937494534,277.9088186013992,881.6877339693018
381242,17188,381242,27777,381242.0,57485.0,453.96927692703264,274.0363924856228,869.637028694013
381242,17187,381242,27743,381242.0,57432.0,449.5013800136411,270.022472430716,857.1761364994213
381242,17162,381242,27748,381242.0,57454.0,444.87527232304853,265.8704717531824,844.3162594880381
381242,17183,381242,27772,381242.0,57428.0,440.0935602421608,261.5830838393796,831.0678806845813
381253,17163,381253,27779,381253.0,57479.0,435.1587345937267,257.1623314666236,817.4408624933425
381253,17183,381253,27778,381253.0,57478.0,430.07328488101047,252.6100374421436,803.4450921396308
381253,17166,381253,27783,381253.0,57416.0,424.83989345723086,247.92827329410082,789.0912933038375
381253,17158,381253,27759,381253.0,57377.0,419.46160025354044,243.11960583687636,774.3912973366581
381253,17147,381253,27798,381253.0,57383.0,413.94183071722324,238.18721439117525,759.357597636049
381253,17132,381253,27808,381253.0,57369.0,408.2842868587427,233.13514367715715,744.0029193849648
381263,17141,381263,27743,381263.0,57332.0,402.4928206944775,227.96871655624753,728.3402008924593
381263,17106,381263,27710,381263.0,57277.0,396.57136281799274,222.69450746588032,712.3825307872041
381263,17109,381263,27691,381263.0,57263.0,390.5238290730292,217.31958900754793,696.1426824444362
381263,17089,381263,27723,381263.0,57262.0,384.3539444887757,211.8507213314543,679.6325710402645
381263,17093,381263,27685,381263.0,57258.0,378.0650875596348,206.2940932345703,662.8631245827088
381263,17086,381263,27682,381263.0,57239.0,371.6602498628991,200.65536786380198,645.8445624585149
381273,17098,381273,27699,381273.0,57234.0,365.1421311398915,194.939646293885,628.5867411494909
381273,17085,381273,27685,381273.0,57266.0,358.5133555736171,189.15149450187832,611.0995161831122
381273,17066,381273,27692,381273.0,57194.0,351.77666751001686,183.29514892189846,593.393243432334
381273,17069,381273,27677,381273.0,57181.0,344.9349547543119,177.37470615138562,575.4790976625628
381273,17079,381273,27692,381273.0,57132.0,337.9912308910369,171.3942420268171,557.3688679968757
381273,17055,381273,27700,381273.0,57144.0,330.94877687857405,165.35800159146464,539.0745415853991
381284,17032,381284,27673,381284.0,57106.0,323.81126372951684,159.2706921975125,520.6081162648127
381284,16998,381284,27604,381284.0,57096.0,316.58255261045053,153.1375234265411,501.9816397930799
381284,17006,381284,27613,381284.0,57001.0,309.2662450959598,146.9636455963896,483.2071231397358
381284,17011,381284,27632,381284.0,57018.0,301.86537605479305,140.7534339311637,464.2960562604537
381284,16995,381284,27627,381284.0,57009.0,294.38246558990943,134.5103427231376,445.2588760692905
381284,17000,381284,27628,381284.0,56999.0,286.81972756013556,128.2372463732677,426.1049548995063
381294,16989,381294,27600,381294.0,57031.0,279.17922413044573,121.93671876739367,406.84308887191503
381294,16993,381294,27632,381294.0,56957.0,271.46300270040626,115.61109911076505,387.4821195626505
381294,16978,381294,27623,381294.0,56961.0,263.6732515656211,109.26260923960129,368.03130821294917
381294,16984,381294,27641,381294.0,56935.0,255.81244186115333,102.89370041584115,348.5003346889173
381294,16980,381294,27636,381294.0,56908.0,247.8834799952694,96.5075020323074,328.8992284879065
381294,16957,381294,27631,381294.0,56865.0,239.8898745355189,90.10820214837707,309.2383144446711
381304,16923,381304,27556,381304.0,56883.0,231.83573936146792,83.7011432104631,289.52805745577916
381304,16924,381304,27506,381304.0,56788.0,223.7255115452728,77.29227057516073,269.7789111167126
381304,16902,381304,27517,381304.0,56779.0,215.5636003646993,70.88701056969393,250.00103636428628
