c_ts,c_val,d_ts,d_val,e_ts,e_val,c_val_filtered,d_val_filtered,e_val_filtered
1042,6170,1042.0,19136.0,1042.0,28979.0,-343.71002190986445,-161.70635265010088,-305.2159687751783
1042,6179,1042.0,19131.0,1042.0,28987.0,-349.41148877467856,-164.39079873243,-310.42540111495117
1042,6157,1042.0,19137.0,1042.0,28966.0,-355.2205088720841,-167.09884062492864,-315.6661764742846
1042,6167,1042.0,19135.0,1042.0,28969.0,-361.1295216787518,-169.82301869907667,-320.92758122436294
1042,6172,1042.0,19122.0,1042.0,28963.0,-367.13016721943416,-172.55546261079633,-326.1984825108732
1042,6153,1042.0,19115.0,1042.0,28956.0,-373.2131882296051,-175.2879362920029,-331.46739238311955
1052,6148,1052.0,19105.0,1052.0,28951.0,-379.3683598306105,-178.0120163036755,-336.722509487093
1052,6142,1052.0,19113.0,1052.0,28929.0,-385.58457248651433,-180.7192904862462,-341.951815593525
1052,6094,1052.0,19057.0,1052.0,28946.0,-391.8500402392242,-183.4015508681171,-347.14323341146627
1052,6135,1052.0,19120.0,1052.0,28928.0,-398.152614339898,-186.0510580017637,-352.2847327456652
1052,6127,1052.0,19124.0,1052.0,28948.0,-404.479963854825,-188.66059974082486,-357.3643044377346
1052,6138,1052.0,19118.0,1052.0,28966.0,-410.8193747193849,-191.22308567333874,-362.3697761719396
1063,6107,1063.0,19124.0,1063.0,28920.0,-417.15743881745436,-193.7310821911031,-367.2885191051562
1063,6124,1063.0,19113.0,1063.0,28922.0,-423.479971460024,-196.17664460357884,-372.1073654638945
1063,6117,1063.0,19041.0,1063.0,28941.0,-429.77204436970294,-198.55146677599987,-376.81282251301496
1063,6107,1063.0,19113.0,1063.0,28936.0,-436.0179383292288,-200.84736473557734,-381.39114012689305
1063,6095,1063.0,19097.0,1063.0,28910.0,-442.2011131143878,-203.05662905445365,-385.8281534731598
1063,6082,1063.0,19096.0,1063.0,28884.0,-448.30433080747775,-205.17184152739057,-390.1093565888986
1073,6068,1073.0,19078.0,1073.0,28904.0,-454.3098885019076,-207.18563399003568,-394.22030241952035
1073,6060,1073.0,19059.0,1073.0,28893.0,-460.19988405005074,-209.09082866487475,-398.1469169469192
1073,6047,1073.0,19077.0,1073.0,28897.0,-465.95647090028115,-210.88077813708912,-401.8755234742125
1073,6056,1073.0,19096.0,1073.0,28903.0,-471.56204998084837,-212.54952675405315,-405.3927515597316
1073,6067,1073.0,19106.0,1073.0,28879.0,-476.99929801859923,-214.09157914781457,-408.68547270234177
1073,6059,1073.0,19112.0,1073.0,28890.0,-482.25098429145766,-215.50144404377548,-411.7408320168356
1083,6057,1083.0,19091.0,1083.0,28888.0,-487.2997423205706,-216.77329554596048,-414.54634799066196
1083,6025,1083.0,19073.0,1083.0,28896.0,-492.1280297879634,-217.90097064151223,-417.0899188390785
1083,6073,1083.0,19139.0,1083.0,28906.0,-496.7182529565547,-218.87815538177793,-419.3596872924355
1083,6053,1083.0,19131.0,1083.0,28898.0,-501.0527424827891,-219.69823579675864,-421.34384718014667
1083,6036,1083.0,19057.0,1083.0,28865.0,-505.1135407161834,-220.3538967207772,-423.0305763539394
1083,6024,1083.0,19057.0,1083.0,28874.0,-508.8824017528273,-220.83732275195624,-424.4082784655924
1094,6012,1094.0,19078.0,1094.0,28869.0,-512.3411120788066,-221.14099348354014,-425.4659680329785
1094,6020,1094.0,19068.0,1094.0,28859.0,-515.471832879249,-221.25816257997548,-426.193517867311
1094,6024,1094.0,19063.0,1094.0,28867.0,-518.257252106519,-221.18286308370452,-426.5818015911251
1094,6010,1094.0,19084.0,1094.0,28899.0,-520.6805630704764,-220.90988236133555,-426.62274168959595
1094,6008,1094.0,19100.0,1094.0,28879.0,-522.7254623616228,-220.4346906921894,-426.309129823854
1094,6009,1094.0,19093.0,1094.0,28874.0,-524.376266810936,-219.75316986697203,-425.63442203961074
1104,5997,1104.0,19071.0,1104.0,28891.0,-525.6180528726691,-218.8614050280733,-424.59278028238305
1104,6025,1104.0,19075.0,1104.0,28888.0,-526.4367359618882,-217.75581915845814,-423.1791782957031
1104,6024,1104.0,19124.0,1104.0,28919.0,-526.8190072548499,-216.4333913087297,-421.3893292434998
1104,6002,1104.0,19090.0,1104.0,28882.0,-526.7521749524418,-214.89153774355728,-419.21952223819915
1104,6002,1104.0,19080.0,1104.0,28889.0,-526.2241998277273,-213.1278969268404,-416.6666370668609
1104,6004,1104.0,19093.0,1104.0,28897.0,-525.2239720110582,-211.14047174147694,-413.7284040157044
1114,5999,1114.0,19068.0,1114.0,28900.0,-523.7415622671771,-208.92795902580258,-410.4036255697793
1114,6008,1114.0,19054.0,1114.0,28894.0,-521.768357051171,-206.49006613842965,-406.6922386335408
1114,6017,1114.0,19123.0,1114.0,28923.0,-519.2971201582347,-203.82780446914933,-402.5953549203431
1114,6033,1114.0,19114.0,1114.0,28920.0,-516.3219387451593,-200.94340372777117,-398.11524308365887
1114,6030,1114.0,19123.0,1114.0,28938.0,-512.8380681224581,-197.8398085282219,-393.25519791255323
1114,6024,1114.0,19106.0,1114.0,28940.0,-508.84183942881106,-194.52034205310292,-388.01940782189274
1125,6036,1125.0,19103.0,1125.0,28937.0,-504.3307456917703,-190.9888038365695,-382.4129075501529
1125,6057,1125.0,19151.0,1125.0,28973.0,-499.30355663579763,-187.2496858577246,-376.44159366730236
1125,6058,1125.0,19116.0,1125.0,28958.0,-493.760261967974,-183.308154692429,-370.11218737656003
1125,6065,1125.0,19137.0,1125.0,28985.0,-487.7019322227553,-179.16991897592908,-363.43213632291804
1125,6057,1125.0,19118.0,1125.0,28965.0,-481.1307116785163,-174.84129770774973,-356.40959684967765
1125,6055,1125.0,19145.0,1125.0,28959.0,-474.05000806742953,-170.3294143348658,-349.0536037164405
1135,6075,1135.0,19128.0,1135.0,28995.0,-466.46477984230035,-165.64231403389527,-341.37438653568546
1135,6083,1135.0,19164.0,1135.0,29011.0,-458.38172255995477,-160.7889877691831,-333.3835230016148
1135,6127,1135.0,19187.0,1135.0,29017.0,-449.809210532225,-155.77924215350768,-325.0937565607733
1135,6110,1135.0,19173.0,1135.0,29050.0,-440.75704209501765,-150.62337434741076,-316.51872504226003
1135,6130,1135.0,19192.0,1135.0,29047.0,-431.2362351177144,-145.3319026227923,-307.6727516150119
1135,6145,1135.0,19188.0,1135.0,29063.0,-421.25902219042615,-139.91552832290444,-298.57069156071174
1145,6158,1145.0,19215.0,1145.0,29073.0,-410.83887716247534,-134.38515079166092,-289.227884991574
1145,6193,1145.0,19236.0,1145.0,29113.0,-399.99041276040373,-128.75173457784462,-279.6601118217075
1145,6199,1145.0,19218.0,1145.0,29097.0,-388.7291630141909,-123.026050822892,-269.8834169533336
1145,6217,1145.0,19233.0,1145.0,29107.0,-377.07134918085455,-117.21853937218442,-259.9139893244495
1145,6212,1145.0,19233.0,1145.0,29104.0,-365.03378651241235,-111.33939649468853,-249.76831285834677
1145,6224,1145.0,19229.0,1145.0,29123.0,-352.6340001477023,-105.39872192653506,-239.46346129268218
1156,6244,1156.0,19215.0,1156.0,29137.0,-339.89044029900333,-99.40671478651436,-229.01729147944658
1156,6265,1156.0,19246.0,1156.0,29188.0,-326.82259783687704,-93.37396457710213,-218.44839293832405
1156,6281,1156.0,19273.0,1156.0,29212.0,-313.45094479413524,-87.31157182976669,-207.7757060646689
1156,6312,1156.0,19292.0,1156.0,29214.0,-299.7967841515904,-81.23086127537701,-197.0179541007065
1156,6305,1156.0,19279.0,1156.0,29224.0,-285.88210133266625,-75.14293002792868,-186.193278838421
1156,6342,1156.0,19284.0,1156.0,29224.0,-271.72949968854005,-69.05845742251535,-175.31924539519045
1166,6384,1166.0,19322.0,1166.0,29254.0,-257.36212819349885,-62.9877640078584,-164.4130050072133
1166,6381,1166.0,19305.0,1166.0,29256.0,-242.80341038882506,-56.94077126845801,-153.49137444643782
1166,6410,1166.0,19342.0,1166.0,29278.0,-228.07673977087032,-50.9268151964404,-142.5708031701961
1166,6418,1166.0,19331.0,1166.0,29286.0,-213.20538168761885,-44.9544833847134,-131.667324795009
1166,6427,1166.0,19323.0,1166.0,29281.0,-198.21251420276667,-39.031556288740376,-120.79657128492715
1166,6441,1166.0,19317.0,1166.0,29320.0,-183.12134241191342,-33.165175824415996,-109.97386754589661
1176,6465,1176.0,19298.0,1176.0,29327.0,-167.95524902896432,-27.36226533065178,-99.21426425713952
1176,6497,1176.0,19352.0,1176.0,29350.0,-152.73782466085453,-21.62995376555807,-88.5323951128413
1176,6517,1176.0,19394.0,1176.0,29370.0,-137.49269606191382,-15.975566784087562,-77.94226726701362
1176,6524,1176.0,19367.0,1176.0,29355.0,-122.24329123938071,-10.406067090348131,-67.45712009672422
1176,6548,1176.0,19364.0,1176.0,29394.0,-107.01273694513714,-4.927583325542514,-57.08942670719375
1176,6579,1176.0,19381.0,1176.0,29373.0,-91.82384327227675,0.45451132324711807,-46.85099322625024
1187,6610,1187.0,19391.0,1187.0,29430.0,-76.69895402132539,5.7353797823844275,-36.75301584474124
1187,6612,1187.0,19409.0,1187.0,29429.0,-61.659658049550444,10.910761891184649,-26.80598189004752
1187,6626,1187.0,19400.0,1187.0,29420.0,-46.72661789192131,15.977154076534248,-17.019481351529407
1187,6634,1187.0,19388.0,1187.0,29435.0,-31.91964851887809,20.931848767923697,-7.402223979887765
1187,6641,1187.0,19364.0,1187.0,29428.0,-17.257932230233905,25.77265153354321,2.0376897840390598
1187,6671,1187.0,19351.0,1187.0,29447.0,-2.760225354212423,30.49728817318328,11.292487183949902
1197,6693,1197.0,19418.0,1197.0,29491.0,11.555073392836505,35.10284183199258,20.354619300064655
1197,6726,1197.0,19431.0,1197.0,29498.0,25.670076469303467,39.58576257152865,29.216976893194442
1197,6745,1197.0,19452.0,1197.0,29502.0,39.56771478407495,43.942496038810305,37.873276430166015
1197,6743,1197.0,19417.0,1197.0,29504.0,53.23201105800155,48.17008173060262,46.31822998962019
1197,6765,1197.0,19429.0,1197.0,29507.0,66.64814173641287,52.26621908110246,54.54742235042863
1197,6791,1197.0,19456.0,1197.0,29542.0,79.80236284902605,56.22902407652154,62.5571443538455
1207,6812,1207.0,19475.0,1207.0,29537.0,92.68205933543175,60.05702894702807,70.34440124729855
1207,6817,1207.0,19479.0,1207.0,29536.0,105.27593042557237,63.749540349538336,77.90700506553196
1207,6816,1207.0,19438.0,1207.0,29530.0,117.57406256814403,67.30690884576643,85.24347187580577
1207,6845,1207.0,19443.0,1207.0,29561.0,129.56779718428038,70.73031507271227,92.35275027011124
1207,6836,1207.0,19472.0,1207.0,29573.0,141.249561539956,74.0212972299718,99.23410899916138
1207,6874,1207.0,19446.0,1207.0,29577.0,152.61278039799623,77.18152982772747,105.88727890036682
1218,6886,1218.0,19510.0,1218.0,29606.0,163.65189500736034,80.21291638516308,112.31264677310384
1218,6892,1218.0,19482.0,1218.0,29618.0,174.36249369268273,83.11784829449229,118.5114485929941
1218,6908,1218.0,19460.0,1218.0,29605.0,184.7414125656138,85.89943146297443,124.48598228875903
1218,6907,1218.0,19458.0,1218.0,29608.0,194.78670531693655,88.5613062679364,130.23963767019978
1218,6925,1218.0,19473.0,1218.0,29607.0,204.49754493011568,91.10717810309362,135.77666451029665
1218,6937,1218.0,19496.0,1218.0,29636.0,213.87414035560596,93.54061087807457,141.10193366423772
1228,6952,1228.0,19494.0,1228.0,29628.0,222.91773495916226,95.86521894382736,146.22090358287255
1228,6949,1228.0,19520.0,1228.0,29645.0,231.63065031361026,98.08499222139753,151.139709093732
1228,6956,1228.0,19474.0,1228.0,29631.0,240.01624173156608,100.20450145005577,155.8651820456784
1228,6954,1228.0,19475.0,1228.0,29616.0,248.07872094603067,102.22877295828502,160.4046902930122
1228,6969,1228.0,19476.0,1228.0,29626.0,255.82293285516175,104.16284900239725,164.76577658937043
1228,6991,1228.0,19505.0,1228.0,29653.0,263.25422988423986,106.01145242489574,168.95582786306744
1239,7008,1239.0,19537.0,1239.0,29670.0,270.3785571401735,107.77912176619174,172.9821004535513
1239,7017,1239.0,19485.0,1239.0,29642.0,277.20269557036374,109.47063858977134,176.8519857203883
1239,7013,1239.0,19496.0,1239.0,29667.0,283.73445449087,111.09116808900887,180.57309081015023
1239,7006,1239.0,19503.0,1239.0,29666.0,289.98263922544345,112.64596508918089,184.15310803451615
1239,7023,1239.0,19506.0,1239.0,29699.0,295.956819914021,114.14013299592912,187.59980652873844
1239,7031,1239.0,19528.0,1239.0,29678.0,301.6671278668056,115.57868241675459,190.92121677323883
1249,7032,1249.0,19521.0,1249.0,29669.0,307.1242147482209,116.96673346537352,194.12571631271243
1249,7015,1249.0,19487.0,1249.0,29674.0,312.33920629866907,118.30962076373399,197.22181201950502
1249,7015,1249.0,19492.0,1249.0,29678.0,317.3234438349184,119.6126540836263,200.21781493484883
1249,7033,1249.0,19506.0,1249.0,29692.0,322.0881143609063,120.88069028513925,203.12168871467725
1249,7050,1249.0,19526.0,1249.0,29695.0,326.6440785569854,122.11798791101535,205.94108558144524
1249,7068,1249.0,19516.0,1249.0,29691.0,331.00201973671267,123.32842118374018,208.6834238190193
1259,7066,1259.0,19526.0,1259.0,29715.0,335.17273533386515,124.51571733039302,211.35591347330381
1259,7068,1259.0,19512.0,1259.0,29713.0,339.1673216561427,125.68351068924488,213.96560489719343
1259,7079,1259.0,19513.0,1259.0,29701.0,342.9971787022324,126.83524585687383,216.51947002615162
1259,7084,1259.0,19528.0,1259.0,29729.0,346.6739702735674,127.97404106446587,219.02438259255007
1259,7079,1259.0,19562.0,1259.0,29747.0,350.2096219867126,129.10273225862016,221.4871285960558
1259,7090,1259.0,19555.0,1259.0,29724.0,353.6162839579547,130.2242313504959,223.91460668199443
1270,7070,1270.0,19526.0,1270.0,29726.0,356.9062132556314,131.34188283893906,226.3139308409382
1270,7076,1270.0,19520.0,1270.0,29713.0,360.0915635889612,132.45937349391795,228.69220855163985
1270,7064,1270.0,19503.0,1270.0,29712.0,363.18408588982834,133.58024558693444,231.05617425231117
1270,7091,1270.0,19513.0,1270.0,29728.0,366.19486284719403,134.70739401425703,233.41189243054498
1270,7091,1270.0,19542.0,1270.0,29729.0,369.1342368929771,135.84282850211574,235.76464344800831
1270,7107,1270.0,19573.0,1270.0,29739.0,372.01193533158016,136.98787889091045,238.11897976521288
1280,7106,1280.0,19544.0,1280.0,29754.0,374.83724454820253,138.1437220087988,240.4788451401824
1280,7104,1280.0,19538.0,1280.0,29740.0,377.6191014398854,139.31170189755176,242.8476979662152
1280,7093,1280.0,19550.0,1280.0,29744.0,380.36602891616644,140.49319848024044,245.2285394595968
1280,7137,1280.0,19519.0,1280.0,29750.0,383.08599410781926,141.68935223325968,247.62379801788808
1280,7111,1280.0,19524.0,1280.0,29779.0,385.78641971455636,142.90079660112158,250.03527000208254
1280,7121,1280.0,19574.0,1280.0,29760.0,388.47429561955835,144.12744264399444,252.46426054971266
1290,7129,1290.0,19541.0,1290.0,29760.0,391.15615578143536,145.36858505431965,254.91170580059674
1290,7121,1290.0,19536.0,1290.0,29769.0,393.837988985872,146.6231433640005,257.3780741223973
1290,7129,1290.0,19545.0,1290.0,29789.0,396.52517836315724,147.88958707619943,259.8632507033222
1290,7124,1290.0,19574.0,1290.0,29770.0,399.222406746136,149.1657734373056,262.36659775233335
1290,7157,1290.0,19589.0,1290.0,29791.0,401.93359448025296,150.44914716438467,264.88702436775094
1290,7149,1290.0,19583.0,1290.0,29801.0,404.6620010780083,151.73719696256413,267.42299121872094
1301,7152,1301.0,19571.0,1301.0,29786.0,407.410405595905,153.0277500020564,269.9725674513198
1301,7147,1301.0,19568.0,1301.0,29809.0,410.1811430202473,154.31890813305927,272.5334730879312
1301,7169,1301.0,19589.0,1301.0,29816.0,412.9760087155978,155.60883435227677,275.1030847227261
1301,7167,1301.0,19602.0,1301.0,29827.0,415.7962413291208,156.8957356401072,277.6785563665935
1301,7163,1301.0,19571.0,1301.0,29844.0,418.64259218990355,158.17804425285263,280.2570474315275
1301,7162,1301.0,19602.0,1301.0,29834.0,421.5152949834122,159.45448385200052,282.8359405697778
1311,7165,1311.0,19573.0,1311.0,29835.0,424.41390330008505,160.7239658810585,285.4129361307712
1311,7172,1311.0,19575.0,1311.0,29814.0,427.33713973812564,161.98544372718345,287.9859201117688
1311,7169,1311.0,19586.0,1311.0,29828.0,430.282825385348,163.2377206586172,290.55265222584165
1311,7188,1311.0,19604.0,1311.0,29839.0,433.2478593690465,164.47936132990722,293.1104987934571
1311,7208,1311.0,19572.0,1311.0,29836.0,436.2282971156666,165.70879796244614,295.6563825509947
1311,7205,1311.0,19605.0,1311.0,29836.0,439.21958408508,166.9243843542446,298.18682804177774
1321,7206,1321.0,19590.0,1321.0,29852.0,442.2167811854008,168.12434717696226,300.6979407940379
1321,7217,1321.0,19604.0,1321.0,29865.0,445.21461607044523,169.30680662998867,303.18542765645145
1321,7226,1321.0,19593.0,1321.0,29886.0,448.2074758319184,170.4698240115788,305.64480007806077
1321,7240,1321.0,19645.0,1321.0,29881.0,451.18950113164556,171.61147019695852,308.07168964025084
1321,7238,1321.0,19607.0,1321.0,29887.0,454.1547536240796,172.73005674494968,310.46208170714
1321,7213,1321.0,19601.0,1321.0,29875.0,457.09727270095675,173.8243252987212,312.81234591140077
1332,7245,1332.0,19589.0,1332.0,29874.0,460.0109043765027,174.8932513033574,315.11908384373174
1332,7239,1332.0,19587.0,1332.0,29879.0,462.88911702331507,175.93560779167157,317.37889727635866
1332,7248,1332.0,19605.0,1332.0,29886.0,465.7250146281035,176.94965556947415,319.58822071887397
1332,7280,1332.0,19612.0,1332.0,29919.0,468.51147290330414,177.93311162359151,321.74334996144654
1332,7279,1332.0,19622.0,1332.0,29914.0,471.24138633517543,178.88334724127307,323.84070112480845
1332,7274,1332.0,19624.0,1332.0,29904.0,473.90796568567407,179.79764389768806,325.87709796404147
1342,7277,1342.0,19633.0,1342.0,29902.0,476.50483725954996,180.67338759470897,327.8497900545493
1342,7300,1342.0,19671.0,1342.0,29950.0,479.02598058322883,181.5082847083755,329.7563233865574
1342,7291,1342.0,19658.0,1342.0,29940.0,481.46576373851724,182.30073703872864,331.5946803435646
1342,7298,1342.0,19638.0,1342.0,29899.0,483.8190542864079,183.05018387911826,333.36355153157155
1342,7291,1342.0,19632.0,1342.0,29920.0,486.08122382982515,183.75704688522345,335.062201216392
1342,7278,1342.0,19618.0,1342.0,29928.0,488.2480059089362,184.42233442726652,336.6900660505277
1352,7298,1352.0,19605.0,1352.0,29918.0,490.3152701175523,185.04719480833978,338.2465991182842
1352,7288,1352.0,19585.0,1352.0,29921.0,492.27885221945826,185.63246689303566,339.73127837312086
1352,7317,1352.0,19630.0,1352.0,29926.0,494.1345476589459,186.17828275703195,341.1435285469568
1352,7331,1352.0,19627.0,1352.0,29942.0,495.87828479159197,186.68400767973765,342.4826698783272
1352,7321,1352.0,19678.0,1352.0,29963.0,497.50642940116984,187.14863687585432,343.74806164758206
1352,7331,1352.0,19642.0,1352.0,29938.0,499.0160121896114,187.57138387536855,344.9393717341258
1363,7330,1363.0,19643.0,1363.0,29958.0,500.40476602799913,187.95203964543845,346.05672127427965
1363,7338,1363.0,19662.0,1363.0,29972.0,501.6711147247484,188.29095272022687,347.10068823970664
1363,7339,1363.0,19638.0,1363.0,29963.0,502.8142044525527,188.58892378347514,348.0724026596536
1363,7335,1363.0,19652.0,1363.0,29964.0,503.83393336448034,188.84717254357986,348.97367680421564
1363,7326,1363.0,19617.0,1363.0,29936.0,504.7309005032397,189.06721295643905,349.8069233994129
1363,7328,1363.0,19624.0,1363.0,29941.0,505.506241629768,189.25056795321638,350.57483146231004
1373,7325,1373.0,19601.0,1373.0,29944.0,506.16143290376345,189.39839041137498,351.27998991267197
1373,7333,1373.0,19634.0,1373.0,29942.0,506.69816356894825,189.51114615155197,351.9246733938187
1373,7349,1373.0,19673.0,1373.0,30001.0,507.1183362859197,189.58864022324605,352.5108974797802
1373,7331,1373.0,19659.0,1373.0,29966.0,507.42418291682253,189.6305078866851,353.0407695034993
1373,7352,1373.0,19672.0,1373.0,29946.0,507.6183641587814,189.63679792820062,353.51680709625504
1373,7345,1373.0,19643.0,1373.0,29968.0,507.70400640815456,189.60820916844142,353.94180748320304
1383,7338,1383.0,19655.0,1383.0,29987.0,507.6847304099406,189.5459821822317,354.31859732028136
1383,7355,1383.0,19668.0,1383.0,29990.0,507.5646392124235,189.45172750432937,354.65016891288013
1383,7329,1383.0,19654.0,1383.0,29985.0,507.34826935848105,189.3274209864794,354.94000642434577
1383,7344,1383.0,19662.0,1383.0,29969.0,507.0405153010118,189.17548530593564,355.1921931850977
1383,7327,1383.0,19644.0,1383.0,29968.0,506.64649654222103,188.99876126141749,355.41122915924586
1383,7315,1383.0,19616.0,1383.0,29985.0,506.1713774599329,188.80029997303222,355.6017770002999
1394,7340,1394.0,19627.0,1394.0,29925.0,505.62016191973106,188.58296173207796,355.76847619094957
1394,7335,1394.0,19627.0,1394.0,29974.0,504.99761428768835,188.3490217554559,355.91567334212925
1394,7351,1394.0,19664.0,1394.0,30008.0,504.30840786898113,188.10010250399796,356.0472465922659
1394,7348,1394.0,19698.0,1394.0,29966.0,503.5573528862331,187.8375620095779,356.16689228387344
1394,7345,1394.0,19639.0,1394.0,29959.0,502.74956016046053,187.5631094740388,356.27841238362964
1394,7339,1394.0,19636.0,1394.0,29981.0,501.89047962593094,187.2790227621762,356.38552088128284
1404,7345,1404.0,19686.0,1404.0,29972.0,500.98582970321576,186.9878483316433,356.4916021206019
1404,7338,1404.0,19642.0,1404.0,29985.0,500.04152461214994,186.6922614720143,356.5997447395724
1404,7348,1404.0,19649.0,1404.0,29974.0,499.06365408141863,186.39517783967483,356.7128345741038
1404,7323,1404.0,19653.0,1404.0,30000.0,498.0584646717208,186.0996730095387,356.83360321583694
1404,7306,1404.0,19636.0,1404.0,29964.0,497.03220085706994,185.8088010174205,356.9646746282324
1404,7317,1404.0,19629.0,1404.0,29973.0,495.9907550726063,185.52544940860994,357.10850045265636
1414,7320,1414.0,19634.0,1414.0,29970.0,494.9393774722355,185.2521234400544,357.26713332863244
1414,7323,1414.0,19641.0,1414.0,29991.0,493.8826556757198,184.99077672136016,357.4420708792097
1414,7345,1414.0,19657.0,1414.0,29996.0,492.82467934061265,184.74286023127797,357.6343544551852
1414,7331,1414.0,19647.0,1414.0,30010.0,491.7692781046704,184.50953298215387,357.8448416407439
1414,7332,1414.0,19649.0,1414.0,29987.0,490.72021336451377,184.29183595942146,358.0744521362995
1414,7336,1414.0,19651.0,1414.0,30001.0,489.6812144839454,184.0907240634383,358.3242169965421
1425,7342,1425.0,19686.0,1425.0,29996.0,488.6559726374082,183.9071179159205,358.59517976249725
1425,7323,1425.0,19666.0,1425.0,29993.0,487.648185258726,183.74215560918068,358.8883154002137
1425,7328,1425.0,19639.0,1425.0,30003.0,486.66152550572093,183.597409614858,359.2044852275017
1425,7318,1425.0,19654.0,1425.0,29986.0,485.69949412410574,183.4747308535858,359.54438732436165
1425,7304,1425.0,19617.0,1425.0,30001.0,484.76523454261905,183.37586356037872,359.9084882347982
1425,7313,1425.0,19647.0,1425.0,29990.0,483.86132323162235,183.3021162344046,360.2969420100712
1435,7319,1435.0,19674.0,1435.0,30017.0,482.98961819892946,183.25426266071221,360.7095714571684
1435,7340,1435.0,19647.0,1435.0,30017.0,482.15132946217886,183.23278629070745,361.1459905128486
1435,7330,1435.0,19635.0,1435.0,29987.0,481.3472891759743,183.2381178518953,361.60576251480063
1435,7323,1435.0,19651.0,1435.0,30008.0,480.5781805498183,183.27050594838823,362.08834546500043
1435,7329,1435.0,19657.0,1435.0,30002.0,479.84455553533815,183.32983229076797,362.59288905910296
1435,7338,1435.0,19682.0,1435.0,30042.0,479.14677887241976,183.41573581708155,363.11822753286486
1446,7331,1446.0,19682.0,1446.0,30039.0,478.48508263449116,183.52797487725957,363.66318168096564
1446,7329,1446.0,19674.0,1446.0,30030.0,477.85964828856623,183.66677654774944,364.2269434267206
1446,7344,1446.0,19630.0,1446.0,30006.0,477.27061912359716,183.83287761796754,364.80917668485597
1446,7318,1446.0,19593.0,1446.0,30001.0,476.7181037522606,184.0270265385373,365.4097070487645
1446,7312,1446.0,19653.0,1446.0,30003.0,476.2021018756699,184.2491851125852,366.02806137644814
1446,7322,1446.0,19663.0,1446.0,30016.0,475.72227338432066,184.4981908313792,366.663183104583
1456,7330,1456.0,19651.0,1456.0,30016.0,475.2777774538413,184.7721308002956,367.3134184252467
1456,7339,1456.0,19683.0,1456.0,30039.0,474.86736985357675,185.06881815207447,367.9766721747018
1456,7328,1456.0,19689.0,1456.0,30035.0,474.48961278702416,185.3860957781017,368.65064039527726
1456,7317,1456.0,19661.0,1456.0,30016.0,474.14295040916977,185.72211517392628,369.33299011770146
1456,7304,1456.0,19684.0,1456.0,30038.0,473.82554078602726,186.07543868670908,370.02133263429084
1456,7345,1456.0,19719.0,1456.0,30040.0,473.535020411589,186.44504414732745,370.71313402221443
1466,7334,1466.0,19609.0,1466.0,30042.0,473.26853525659664,186.8304241853867,371.4057856031555
1466,7332,1466.0,19654.0,1466.0,30021.0,473.02300806945516,187.23131480694823,372.0966866901856
1466,7325,1466.0,19636.0,1466.0,30025.0,472.795269655854,187.64699052102492,372.78311305029
1466,7326,1466.0,19556.0,1466.0,30039.0,472.58196316777185,188.0756562450785,373.46198854391184
1466,7320,1466.0,19665.0,1466.0,30043.0,472.37940566282526,188.5139157857987,374.12983525721154
1466,7325,1466.0,19690.0,1466.0,30064.0,472.1834900165494,188.9566508729664,374.7829548438182
1477,7341,1477.0,19695.0,1477.0,30031.0,471.9896677822344,189.3978451160251,375.41764893403126
1477,7342,1477.0,19746.0,1477.0,30051.0,471.7930839609496,189.83172366392202,376.0302561204032
1477,7334,1477.0,19668.0,1477.0,30073.0,471.58878085474896,190.25346402180384,376.61708456338084
1477,7341,1477.0,19671.0,1477.0,30042.0,471.3717890232974,190.6592535688843,377.1744953232293
1477,7352,1477.0,19678.0,1477.0,30064.0,471.1371399056451,191.04577690456682,377.6990090432121
1477,7355,1477.0,19728.0,1477.0,30087.0,470.8799743059513,191.40985561652224,378.1873247964386
1487,7364,1487.0,19717.0,1487.0,30051.0,470.5957509493059,191.7487566282233,378.63644750792116
1487,7324,1487.0,19669.0,1487.0,30059.0,470.2803711042159,192.06065115573645,379.04376216040436
1487,7319,1487.0,19654.0,1487.0,30024.0,469.9299947852667,192.34445737117767,379.4067776322967
1487,7329,1487.0,19662.0,1487.0,30058.0,469.540609382306,192.59914171152718,379.7227223897921
1487,7339,1487.0,19692.0,1487.0,30050.0,469.10776165875694,192.82322967297642,379.9883300787096
1487,7344,1487.0,19682.0,1487.0,30087.0,468.6266475283446,193.01488635123866,380.199956768457
1497,7349,1497.0,19687.0,1497.0,30086.0,468.09235535840685,193.17222476832438,380.35394900362087
1497,7361,1497.0,19684.0,1497.0,30068.0,467.5000949834926,193.2934595600555,380.44701790708564
1497,7348,1497.0,19692.0,1497.0,30053.0,466.84539437066053,193.37692227251654,380.47630172520894
1497,7341,1497.0,19658.0,1497.0,30061.0,466.12418313967225,193.42102534401835,380.43907847012827
1497,7366,1497.0,19701.0,1497.0,30084.0,465.3327448675903,193.42414244777888,380.3325193309291
1497,7357,1497.0,19712.0,1497.0,30064.0,464.46774675112204,193.3846116662289,380.15374805076647
1508,7353,1508.0,19694.0,1508.0,30055.0,463.52639329109775,193.30103963528592,379.8999513737212
1508,7341,1508.0,19675.0,1508.0,30053.0,462.5064653068063,193.17252017986362,379.56824114434926
1508,7322,1508.0,19668.0,1508.0,30049.0,461.4061330656888,192.99841535776608,379.1553875515055
1508,7334,1508.0,19675.0,1508.0,30078.0,460.223652882494,192.77795190738917,378.65769276649706
1508,7356,1508.0,19682.0,1508.0,30086.0,458.9571981905085,192.5100115588381,378.071146741081
1508,7357,1508.0,19706.0,1508.0,30084.0,457.6050356084171,192.19322249283078,377.3917944526165
1518,7333,1518.0,19694.0,1518.0,30101.0,456.16584166421757,191.82625484421922,376.61607187548896
1518,7328,1518.0,19680.0,1518.0,30072.0,454.6387473909066,191.40805720799256,375.74098128400385
1518,7337,1518.0,19687.0,1518.0,30099.0,453.0231148825916,190.9378216979369,374.7641181412356
1518,7355,1518.0,19702.0,1518.0,30089.0,451.318434392951,190.4148556781176,373.6836549025032
1518,7329,1518.0,19670.0,1518.0,30105.0,449.5244816329711,189.83859089737814,372.4984275179121
1518,7324,1518.0,19684.0,1518.0,30089.0,447.6414256544075,189.20857017628748,371.2080821933935
1528,7321,1528.0,19683.0,1528.0,30081.0,445.6696809057649,188.524314526988,369.8131124541144
1528,7311,1528.0,19669.0,1528.0,30068.0,443.6096815426621,187.78523869008805,368.31470152501544
1528,7324,1528.0,19674.0,1528.0,30059.0,441.4617540439801,186.99059689172392,366.7144266782422
1528,7325,1528.0,19702.0,1528.0,30084.0,439.2261285948646,186.1394446744404,365.0140076467307
1528,7282,1528.0,19691.0,1528.0,30072.0,436.90299411071254,185.23080503065952,363.2152832133716
1528,7327,1528.0,19691.0,1528.0,30067.0,434.49240464092827,184.26394982337754,361.3203410428593
1539,7312,1539.0,19699.0,1539.0,30063.0,431.9941949956089,183.2385395104826,359.3315436836523
1539,7303,1539.0,19688.0,1539.0,30058.0,429.4081140351156,182.15465559653322,357.25141829229574
1539,7307,1539.0,19628.0,1539.0,30062.0,426.7339307564821,181.01268939554467,355.082553687471
1539,7315,1539.0,19731.0,1539.0,30063.0,423.97142211526904,179.81302234495163,352.8275775064794
1539,7311,1539.0,19725.0,1539.0,30060.0,421.12045710192973,178.55607461832807,350.4892073088951
1539,7302,1539.0,19653.0,1539.0,30020.0,418.18114267438017,177.24288391960235,348.07023185773755
1549,7288,1549.0,19701.0,1549.0,30063.0,415.15383524821567,175.87529162660582,345.57330916258206
1549,7286,1549.0,19637.0,1549.0,30041.0,412.0389894078536,174.4555217344735,343.00081999367035
1549,7299,1549.0,19646.0,1549.0,30016.0,408.8370117955944,172.9857050165184,340.3548921338405
1549,7288,1549.0,19659.0,1549.0,30049.0,405.54828610867196,171.46748190236912,337.63732816105625
1549,7296,1549.0,19698.0,1549.0,30060.0,402.1733145493863,169.90191471244665,334.84956621016624
1549,7287,1549.0,19666.0,1549.0,30056.0,398.71283607678623,168.2898812114132,331.99298328196153
1559,7272,1559.0,19673.0,1559.0,30037.0,395.16786477667483,166.63246982174505,329.06924558645835
1559,7270,1559.0,19659.0,1559.0,30041.0,391.5396078499574,164.93100612429166,326.08034362664415
1559,7286,1559.0,19709.0,1559.0,30048.0,387.82935627677267,163.18699190454038,323.0284738633785
1559,7282,1559.0,19662.0,1559.0,30035.0,384.0385585828699,161.40228454203054,319.916034027011
1559,7269,1559.0,19676.0,1559.0,30041.0,380.16902909486873,159.5793021783387,316.7456895060783
1559,7258,1559.0,19656.0,1559.0,30022.0,376.22301945648974,157.72095306789024,313.5203731214877
1570,7247,1570.0,19626.0,1570.0,30010.0,372.20307441993106,155.83035581604173,310.2431736776673
1570,7249,1570.0,19631.0,1570.0,30010.0,368.1118276654753,153.91043540996282,306.917117243978
1570,7248,1570.0,19643.0,1570.0,30007.0,363.9518974413159,151.96354470118496,303.54496249108274
1570,7251,1570.0,19655.0,1570.0,30018.0,359.72593050734486,149.991418853771,300.1291536697047
1570,7236,1570.0,19660.0,1570.0,29998.0,355.4367133477438,147.9954647056681,296.6719007866223
1570,7238,1570.0,19629.0,1570.0,30011.0,351.0872250937148,145.97704904716926,293.1752472609744
1580,7225,1580.0,19644.0,1580.0,30005.0,346.6806077792378,143.9375186367606,289.64109867907894
1580,7231,1580.0,19646.0,1580.0,29998.0,342.22012466189335,141.87807333150892,286.071275314894
1580,7218,1580.0,19648.0,1580.0,30015.0,337.7091550749442,139.799787750389,282.46758025777785
1580,7219,1580.0,19662.0,1580.0,30011.0,333.1512095138449,137.70379964423083,278.83192153677857
1580,7206,1580.0,19636.0,1580.0,29998.0,328.54992437177776,135.59150303749794,275.1664922274957
1580,7197,1580.0,19611.0,1580.0,29945.0,323.90900787712576,133.46453968357292,271.47373527571784
1590,7198,1590.0,19602.0,1590.0,29981.0,319.2321452091371,131.32444308137354,267.7559351175552
1590,7185,1590.0,19628.0,1590.0,29973.0,314.5229213589198,129.17219606294535,264.0148407630083
1590,7184,1590.0,19632.0,1590.0,29970.0,309.78478185303584,127.00814914732433,260.2516825170437
1590,7187,1590.0,19628.0,1590.0,29985.0,305.021019080254,124.83230165334287,256.46737181483945
1590,7178,1590.0,19643.0,1590.0,29991.0,300.2348205350595,122.64460557256932,252.66271413602192
1590,7164,1590.0,19623.0,1590.0,29986.0,295.42932827614595,120.445148513932,248.8386976985375
1601,7158,1601.0,19629.0,1601.0,29950.0,290.6075860480573,118.23422786027442,244.9966777906775
1601,7172,1601.0,19646.0,1601.0,29960.0,285.7724427691976,116.01237077199548,241.1382340976646
1601,7183,1601.0,19668.0,1601.0,30004.0,280.92664501327283,113.7805246583055,237.26498632228822
1601,7154,1601.0,19634.0,1601.0,29987.0,276.0731224360176,111.54044845085592,233.3788476678078
1601,7134,1601.0,19587.0,1601.0,29953.0,271.21510988000904,109.29482704796473,229.48247328106217
1601,7125,1601.0,19598.0,1601.0,29929.0,266.35589559372784,107.04678103012316,225.57921957353105
1611,7132,1611.0,19602.0,1611.0,29922.0,261.49847068598484,104.79923094766367,221.67258802571274
1611,7136,1611.0,19571.0,1611.0,29932.0,256.64542778998754,102.55461999132322,217.76570179747216
1611,7126,1611.0,19614.0,1611.0,29941.0,251.79910883993807,100.31486139045852,213.86117120993146
1611,7116,1611.0,19616.0,1611.0,29939.0,246.9617549801091,98.08143760665335,209.96129335876344
1611,7119,1611.0,19601.0,1611.0,29926.0,242.13552091437674,95.85573423028164,206.068300427562
1611,7086,1611.0,19600.0,1611.0,29928.0,237.3224021903609,93.63929485189051,202.18444210921055
1621,7116,1621.0,19612.0,1621.0,29921.0,232.52412796391064,91.43382686759307,198.31194658160612
1621,7118,1621.0,19618.0,1621.0,29931.0,227.7421750042401,89.24124958100386,194.45301376580576
1621,7105,1621.0,19588.0,1621.0,29920.0,222.97802430372792,87.0638573981288,190.60989340941774
1621,7074,1621.0,19572.0,1621.0,29894.0,218.2333566829323,84.90428032840781,186.78492649928967
1621,7068,1621.0,19545.0,1621.0,29900.0,213.5098716399482,82.76507577370825,182.98039410336614
1621,7066,1621.0,19565.0,1621.0,29871.0,208.80891961877086,80.64819234678478,179.19823630190086
1632,7074,1632.0,19555.0,1632.0,29891.0,204.13131393580744,78.55465979230001,175.43981112835124
1632,7074,1632.0,19569.0,1632.0,29905.0,199.4774214833334,76.48459399460512,171.70584119003405
1632,7070,1632.0,19589.0,1632.0,29922.0,194.84738444965967,74.43740168697568,167.99669363067773
1632,7070,1632.0,19620.0,1632.0,29887.0,190.24130911855838,72.41219902037551,164.31283150928778
1632,7061,1632.0,19562.0,1632.0,29889.0,185.6593751930199,70.40834484198786,160.65500552587062
1632,7045,1632.0,19578.0,1632.0,29884.0,181.10185754125422,68.42563336949593,157.0241111975554
1642,7053,1642.0,19593.0,1642.0,29879.0,176.5690542855677,66.46410378018442,153.4210231119923
1642,7066,1642.0,19578.0,1642.0,29878.0,172.06126895463598,64.52398074446685,149.8465458657051
1642,7032,1642.0,19571.0,1642.0,29874.0,167.57895394395746,62.60579447166759,146.30140880529714
1642,7014,1642.0,19571.0,1642.0,29870.0,163.1227461177216,60.710356465500695,142.7862701409616
1642,7021,1642.0,19543.0,1642.0,29845.0,158.69320025919336,58.838586924289814,139.30167374357845
1642,7022,1642.0,19555.0,1642.0,29855.0,154.29053604891186,56.991284828273194,135.84788979738613
1653,7031,1653.0,19536.0,1653.0,29849.0,149.91468996797363,55.168891279803944,132.42474452427797
1653,7015,1653.0,19567.0,1653.0,29867.0,145.56554259927736,53.37137559048398,129.0316231292481
1653,7035,1653.0,19570.0,1653.0,29862.0,141.2431149052324,51.59835945314296,125.66766620818089
1653,6999,1653.0,19547.0,1653.0,29860.0,136.9476909826683,49.849398248803,122.33201797388563
1653,7003,1653.0,19550.0,1653.0,29846.0,132.67981872125182,48.124105821358455,119.02395633174808
1653,6999,1653.0,19544.0,1653.0,29858.0,128.44017823549495,46.42202964126216,115.74287649707276
1663,7007,1663.0,19599.0,1663.0,29870.0,124.22951435177265,44.74262444891269,112.48831638087438
1663,6990,1663.0,19549.0,1663.0,29844.0,120.04872824131269,43.0855550941603,109.26012899415423
1663,6993,1663.0,19544.0,1663.0,29843.0,115.89896829876108,41.450960269857774,106.05858332146869
1663,6964,1663.0,19510.0,1663.0,29811.0,111.78159476389123,39.83922181203661,102.88419534244753
1663,6957,1663.0,19526.0,1663.0,29802.0,107.69799376318053,38.250419674671264,99.73734990479164
1663,6954,1663.0,19529.0,1663.0,29805.0,103.6492994153993,36.683964334559136,96.61788140410437
1673,6953,1673.0,19526.0,1673.0,29822.0,99.63620002079506,35.138574596299435,93.52485813133825
1673,6959,1673.0,19528.0,1673.0,29828.0,95.65893555433604,33.61240451672646,90.45672612036373
1673,6955,1673.0,19548.0,1673.0,29820.0,91.71743179853354,32.10316973333761,87.41164860200104
1673,6950,1673.0,19538.0,1673.0,29813.0,87.81145979999809,30.608344083306662,84.38773755221979
1673,6938,1673.0,19524.0,1673.0,29807.0,83.94071136730918,29.12535170589524,81.38306406134745
1673,6968,1673.0,19552.0,1673.0,29829.0,80.10482299341362,27.65160292849737,78.39560947991333
1684,6930,1684.0,19557.0,1684.0,29813.0,76.30348784540263,26.1845682937645,75.42335774943251
1684,6950,1684.0,19537.0,1684.0,29811.0,72.536584999762,24.722032468837966,72.46445815083717
1684,6914,1684.0,19511.0,1684.0,29798.0,68.8041640324135,23.262186107822657,69.517246042713
1684,6910,1684.0,19507.0,1684.0,29793.0,65.10627889432504,21.80330884514089,66.58010950521498
1684,6919,1684.0,19502.0,1684.0,29769.0,61.44275809075981,20.343306563992286,63.65128491590076
1684,6906,1684.0,19546.0,1684.0,29793.0,57.81308722604501,18.879507743003273,60.72863210397253
1694,6910,1694.0,19548.0,1694.0,29795.0,54.21645046422253,17.4089253690654,57.80956520435251
1694,6931,1694.0,19554.0,1694.0,29800.0,50.6518459237318,15.928818554044057,54.891256655075665
1694,6909,1694.0,19523.0,1694.0,29795.0,47.11830538396043,14.437096585331602,51.970928236236375
1694,6908,1694.0,19516.0,1694.0,29783.0,43.61510702656523,12.932280149248214,49.04600258090068
1694,6891,1694.0,19535.0,1694.0,29795.0,40.141774819447676,11.41320799937614,46.11410512535298
1694,6904,1694.0,19552.0,1694.0,29791.0,36.69794956001704,9.878950525853242,43.17306835831647
1704,6918,1704.0,19491.0,1704.0,29788.0,33.283392650672795,8.32898490383596,40.22102343978264
1704,6894,1704.0,19527.0,1704.0,29789.0,29.898197492814404,6.7631704431301785,37.25649426110522
1704,6871,1704.0,19495.0,1704.0,29773.0,26.542917088083698,5.181461420756193,34.27842115031768
1704,6864,1704.0,19480.0,1704.0,29761.0,23.21833868693608,3.5836467942838226,31.286079865600584
1704,6833,1704.0,19524.0,1704.0,29758.0,19.9250451034913,1.9691491801027894,28.278879721175997
1704,6871,1704.0,19485.0,1704.0,29756.0,16.663045994445213,0.3369863146797911,25.256156221913614
1715,6885,1715.0,19545.0,1715.0,29779.0,13.43175835788037,-1.314022010811101,22.21713024220236
1715,6871,1715.0,19524.0,1715.0,29770.0,10.230411126710464,-2.9849047238648723,19.16109852819386
1715,6865,1715.0,19498.0,1715.0,29750.0,7.058456983885094,-4.67620576907251,16.087673410599564
1715,6844,1715.0,19490.0,1715.0,29760.0,3.9156231013578235,-6.388003863038648,12.996810687631807
1715,6855,1715.0,19527.0,1715.0,29742.0,0.8017262869990418,-8.120210811671853,9.888682352144485
1715,6848,1715.0,19526.0,1715.0,29760.0,-2.283464132547522,-9.872567580471411,6.763606653828958
1725,6856,1725.0,19505.0,1725.0,29746.0,-5.340196288733125,-11.644305742334979,3.622086082814235
1725,6821,1725.0,19443.0,1725.0,29708.0,-8.368662048932094,-13.43411380784994,0.4648095793156699
1725,6829,1725.0,19463.0,1725.0,29690.0,-11.369083984715985,-15.240728209436526,-2.7076522249258232
1725,6818,1725.0,19479.0,1725.0,29743.0,-14.341930646025787,-17.06360459698243,-5.895323164302624
1725,6806,1725.0,19477.0,1725.0,29727.0,-17.28808407066225,-18.90303403290943,-9.098878187075002
1725,6838,1725.0,19505.0,1725.0,29734.0,-20.2088967787152,-20.759811359663814,-12.319235971747105
1735,6814,1735.0,19490.0,1735.0,29734.0,-23.106085608467765,-22.634832145126467,-15.55720151901727
1735,6838,1735.0,19507.0,1735.0,29734.0,-25.981494733273678,-24.528761870610026,-18.813300356258424
1735,6818,1735.0,19483.0,1735.0,29715.0,-28.836885658793733,-26.441844120777688,-22.08768898166835
1735,6807,1735.0,19482.0,1735.0,29715.0,-31.67384723695079,-28.37389227939761,-25.380190103073573
1735,6822,1735.0,19504.0,1735.0,29730.0,-34.49383980924267,-30.324373657374025,-28.690387908781872
1735,6809,1735.0,19481.0,1735.0,29713.0,-37.29823581771694,-32.29238571191925,-32.017589100968905
1746,6805,1746.0,19475.0,1746.0,29714.0,-40.08826981874995,-34.27657901539243,-35.36070839450002
1746,6800,1746.0,19454.0,1746.0,29666.0,-42.86502939897895,-36.27528603906532,-38.7183355176478
1746,6792,1746.0,19453.0,1746.0,29693.0,-45.62952540624377,-38.286841628384735,-42.089056603579195
1746,6788,1746.0,19457.0,1746.0,29672.0,-48.382774679262184,-40.30986654091666,-45.471779075537995
1746,6796,1746.0,19457.0,1746.0,29691.0,-51.125852746491546,-42.34336231933233,-48.865813176056406
1746,6792,1746.0,19475.0,1746.0,29705.0,-53.85985170418496,-44.38660944862295,-52.27071422331926
1756,6784,1756.0,19470.0,1756.0,29689.0,-56.58577157363885,-46.438933590861126,-55.68597668777721
1756,6775,1756.0,19456.0,1756.0,29664.0,-59.30448676552737,-48.49947956091816,-59.110822954416506
1756,6775,1756.0,19451.0,1756.0,29676.0,-62.01682404845542,-50.56718127391832,-62.54431344686674
1756,6777,1756.0,19476.0,1756.0,29687.0,-64.72363259592345,-52.64085686372488,-65.98552112801735
1756,6790,1756.0,19467.0,1756.0,29679.0,-67.42572264018003,-54.71913961680241,-69.43343649531482
1756,6767,1756.0,19452.0,1756.0,29676.0,-70.12369294576581,-56.80027714082965,-72.8867467868518
1766,6774,1766.0,19431.0,1766.0,29665.0,-72.81782112007039,-58.882142845997606,-76.34375454122772
1766,6753,1766.0,19427.0,1766.0,29648.0,-75.50811185960282,-60.9625488392698,-79.80246793587384
1766,6753,1766.0,19432.0,1766.0,29634.0,-78.19443431857002,-63.039593167429445,-83.2608285559989
1766,6742,1766.0,19415.0,1766.0,29651.0,-80.87668181743607,-65.11183303346115,-86.71697951877451
1766,6764,1766.0,19471.0,1766.0,29658.0,-83.55486485242443,-67.17825369027796,-90.16933117227836
1766,6756,1766.0,19469.0,1766.0,29647.0,-86.22901801167916,-69.23792377995903,-93.61635562394588
1777,6756,1777.0,19443.0,1777.0,29649.0,-88.89897948888398,-71.28944239013703,-97.05636514151882
1777,6749,1777.0,19420.0,1777.0,29620.0,-91.56423949828627,-73.33073236233085,-100.48748494625534
1777,6730,1777.0,19436.0,1777.0,29645.0,-94.22394866767524,-75.35934382155736,-103.90777593364851
1777,6751,1777.0,19445.0,1777.0,29668.0,-96.8770236931436,-77.37273170900457,-107.31523215821812
1777,6739,1777.0,19434.0,1777.0,29637.0,-99.5221823162895,-79.36818157722666,-110.70747303723851
1777,6723,1777.0,19429.0,1777.0,29624.0,-102.15787932873332,-81.34264883730648,-114.08148651664811
1787,6715,1787.0,19419.0,1787.0,29627.0,-104.782360184997,-83.29278070186811,-117.43375719298342
1787,6691,1787.0,19395.0,1787.0,29608.0,-107.39391727068545,-85.21511080435565,-120.7605325965771
1787,6696,1787.0,19393.0,1787.0,29611.0,-109.9912193638072,-87.10637600823173,-124.05799299742563
1787,6716,1787.0,19399.0,1787.0,29604.0,-112.57351399479467,-88.96383813920815,-127.32236532818189
1787,6724,1787.0,19416.0,1787.0,29623.0,-115.14049430582537,-90.78537599205498,-130.54994492088866
1787,6711,1787.0,19435.0,1787.0,29612.0,-117.69192150478801,-92.56923842003849,-133.7369563749832
1797,6698,1797.0,19374.0,1797.0,29582.0,-120.22738338838263,-94.3137014247323,-136.87941760018896
1797,6701,1797.0,19385.0,1797.0,29602.0,-122.74634274962938,-96.01709880847648,-139.9732317913888
1797,6700,1797.0,19439.0,1797.0,29607.0,-125.24825914825902,-97.6781171654732,-143.01432735480915
1797,6701,1797.0,19421.0,1797.0,29585.0,-127.732587762391,-99.29565910755349,-145.9985828359578
1797,6724,1797.0,19426.0,1797.0,29589.0,-130.1986371278427,-100.86830107825534,-148.92173530688143
1797,6666,1797.0,19393.0,1797.0,29568.0,-132.64538899604537,-102.39402374080927,-151.77947876675347
1808,6688,1808.0,19375.0,1808.0,29566.0,-135.0715373483626,-103.87043759858364,-154.5676616272399
1808,6676,1808.0,19376.0,1808.0,29580.0,-137.47575064869523,-105.29527118468263,-157.28244783205457
1808,6659,1808.0,19373.0,1808.0,29557.0,-139.8568598901881,-106.66679405073742,-159.9203446063654
1808,6671,1808.0,19393.0,1808.0,29567.0,-142.21395831231064,-107.98395201514057,-162.4781677908108
1808,6682,1808.0,19409.0,1808.0,29565.0,-144.54644318224774,-109.24619044070855,-164.95304808415784
1808,6656,1808.0,19402.0,1808.0,29575.0,-146.8538984862234,-110.45307283577617,-167.3423791374994
1818,6663,1818.0,19392.0,1818.0,29550.0,-149.13599866390888,-111.60396395612992,-169.64369545305738
1818,6662,1818.0,19400.0,1818.0,29552.0,-151.3925608963388,-112.6979676557765,-171.854666356003
1818,6666,1818.0,19417.0,1818.0,29561.0,-153.62355370733997,-113.73393332815081,-173.97321219182635
1818,6671,1818.0,19392.0,1818.0,29568.0,-155.82896879598212,-114.71032859703266,-175.997502003475
1818,6662,1818.0,19380.0,1818.0,29542.0,-158.00865121928967,-115.62517864371111,-177.92580442527128
1818,6632,1818.0,19358.0,1818.0,29550.0,-160.16224982658616,-116.47632316098858,-179.7564529143645
1828,6639,1828.0,19348.0,1828.0,29538.0,-162.28941544665759,-117.26189588031409,-181.48798204144117
1828,6635,1828.0,19385.0,1828.0,29533.0,-164.39008898912084,-117.98071508464625,-183.11927299759674
1828,6635,1828.0,19387.0,1828.0,29544.0,-166.464620434648,-118.63227553516444,-184.64964765261652
1828,6643,1828.0,19399.0,1828.0,29554.0,-168.51371669240012,-119.21635804049328,-186.07884644238118
1828,6630,1828.0,19361.0,1828.0,29545.0,-170.53833366730606,-119.73268166950083,-187.4068455874018
1828,6631,1828.0,19387.0,1828.0,29537.0,-172.5396035847055,-120.18090015273643,-188.63369781234718
1839,6626,1839.0,19374.0,1839.0,29554.0,-174.51884408981147,-120.5607583253541,-189.7595240644673
1839,6647,1839.0,19411.0,1839.0,29537.0,-176.47754790199883,-120.87207268607088,-190.78451861878955
1839,6636,1839.0,19402.0,1839.0,29536.0,-178.41722953754805,-121.1144591805602,-191.70892709341314
1839,6618,1839.0,19378.0,1839.0,29526.0,-180.3392504791771,-121.28704499362942,-192.53312486358237
1839,6607,1839.0,19370.0,1839.0,29530.0,-182.24487773475641,-121.38850434992003,-193.25777360573727
1839,6617,1839.0,19326.0,1839.0,29515.0,-184.13553526808664,-121.4174932285379,-193.88395477313026
1849,6598,1849.0,19346.0,1849.0,29519.0,-186.01298112977213,-121.37326851546158,-194.4132921227747
1849,6611,1849.0,19336.0,1849.0,29527.0,-187.87935762490537,-121.25619009606575,-194.8480511158504
1849,6631,1849.0,19385.0,1849.0,29538.0,-189.73713672248675,-121.06783068060543,-195.19109776381754
1849,6625,1849.0,19380.0,1849.0,29531.0,-191.58886552599859,-120.81063870979116,-195.4457087538915
1849,6608,1849.0,19393.0,1849.0,29530.0,-193.43685946148565,-120.48740118738232,-195.61541085145205
1849,6596,1849.0,19370.0,1849.0,29515.0,-195.28316892377666,-120.10087468376102,-195.7039891123885
1860,6600,1860.0,19391.0,1860.0,29532.0,-197.12980311870837,-119.65372001488402,-195.71561319993236
1860,6620,1860.0,19394.0,1860.0,29546.0,-198.97887307479755,-119.1485199253218,-195.6548712171891
1860,6609,1860.0,19390.0,1860.0,29540.0,-200.83245543593335,-118.58767934278336,-195.52658342788214
1860,6601,1860.0,19385.0,1860.0,29531.0,-202.6923671989482,-117.97332145012868,-195.3355920200275
1860,6590,1860.0,19363.0,1860.0,29526.0,-204.56013667652246,-117.30736972723608,-195.08677162917246
1860,6582,1860.0,19340.0,1860.0,29538.0,-206.4371746763042,-116.59187660430564,-194.78517951727798
1870,6578,1870.0,19390.0,1870.0,29522.0,-208.32498799700846,-115.82944283434978,-194.43614287778558
1870,6592,1870.0,19358.0,1870.0,29533.0,-210.2253056771679,-115.02336526920033,-194.04528715021644
1870,6589,1870.0,19374.0,1870.0,29566.0,-212.14002688090346,-114.17750890558949,-193.61849707768346
1870,6586,1870.0,19382.0,1870.0,29547.0,-214.07104905477593,-113.29621474740287,-193.16167069135395
1870,6573,1870.0,19374.0,1870.0,29544.0,-216.02016855064045,-112.38423931348285,-192.68043400388586
1870,6589,1870.0,19384.0,1870.0,29540.0,-217.98910424906268,-111.4466629171539,-192.18012787670705
1880,6589,1880.0,19402.0,1880.0,29566.0,-219.97947413544745,-110.48879894461064,-191.66592522120283
1880,6564,1880.0,19414.0,1880.0,29586.0,-221.99268025392246,-109.51597850003569,-191.14270599851397
1880,6568,1880.0,19407.0,1880.0,29568.0,-224.02991650276186,-108.53321227306898,-190.61466961662825
1880,6567,1880.0,19383.0,1880.0,29523.0,-226.09232553572707,-107.54501278032225,-190.08514193094078
1880,6561,1880.0,19375.0,1880.0,29513.0,-228.18108819363067,-106.55558526358516,-189.55697943344495
1880,6554,1880.0,19392.0,1880.0,29531.0,-230.29743126347188,-105.56921103366889,-189.03328112788518
1891,6563,1891.0,19379.0,1891.0,29528.0,-232.4426526899798,-104.59047099367291,-188.51778671079182
1891,6541,1891.0,19444.0,1891.0,29603.0,-234.6181419404199,-103.62415539831511,-188.01471810843782
1891,6567,1891.0,19443.0,1891.0,29551.0,-236.825377268652,-102.6748050629985,-187.52820388754049
1891,6542,1891.0,19375.0,1891.0,29560.0,-239.06588566929423,-101.74616719376772,-187.0617741259535
1891,6556,1891.0,19434.0,1891.0,29542.0,-241.34117154753363,-100.84116674025807,-186.61836880981008
1891,6525,1891.0,19413.0,1891.0,29557.0,-243.65271321943953,-99.96220089935454,-186.20062691774848
1901,6560,1901.0,19412.0,1901.0,29550.0,-246.00203124318944,-99.1111738439443,-185.81104325791847
1901,6548,1901.0,19426.0,1901.0,29552.0,-248.39065044796797,-98.28941730564136,-185.4519788047453
1901,6530,1901.0,19401.0,1901.0,29536.0,-250.81993740022972,-97.49771551146094,-185.12568837547934
1901,6541,1901.0,19364.0,1901.0,29564.0,-253.2910540828998,-96.73648704762599,-184.83440604462828
1901,6519,1901.0,19381.0,1901.0,29528.0,-255.80506214856445,-96.00626528172089,-184.58039310872852
1901,6521,1901.0,19402.0,1901.0,29542.0,-258.3630360497078,-95.30816364833672,-184.36599507450956
1911,6516,1911.0,19419.0,1911.0,29555.0,-260.9661728691451,-94.64383603752714,-184.19375211861825
1911,6526,1911.0,19427.0,1911.0,29552.0,-263.61584417566263,-94.01502534141375,-184.06637069036117
1911,6521,1911.0,19425.0,1911.0,29544.0,-266.3135129660899,-93.4231109248054,-183.98657034240085
1911,6506,1911.0,19416.0,1911.0,29550.0,-269.0606168374596,-92.8688836496666,-183.9570424784568
1911,6517,1911.0,19395.0,1911.0,29544.0,-271.8585529333996,-92.3526030526063,-183.9805108130352
1911,6529,1911.0,19411.0,1911.0,29560.0,-274.70866141112765,-91.87425974867193,-184.0597457255261
1922,6527,1922.0,19426.0,1922.0,29569.0,-277.61202322855075,-91.43376175421983,-184.19745552038694
1922,6509,1922.0,19400.0,1922.0,29558.0,-280.56919970616724,-91.03087271186965,-184.39607474339994
1922,6504,1922.0,19396.0,1922.0,29550.0,-283.5801829869827,-90.66517319798524,-184.65763767493615
1922,6478,1922.0,19381.0,1922.0,29522.0,-286.6445877341014,-90.33629606061919,-184.9839210813114
1922,6480,1922.0,19389.0,1922.0,29537.0,-289.76195454755396,-90.04426985427929,-185.37679949314622
1922,6474,1922.0,19396.0,1922.0,29540.0,-292.9320234501494,-89.78971539160352,-185.83853367726954
1932,6486,1932.0,19422.0,1932.0,29559.0,-296.15483781868164,-89.57377600964466,-186.37175546425726
1932,6482,1932.0,19430.0,1932.0,29573.0,-299.4306463893745,-89.39777748476622,-186.97916909648058
1932,6476,1932.0,19435.0,1932.0,29554.0,-302.7597267850527,-89.26276934259818,-187.66317341118986
1932,6465,1932.0,19413.0,1932.0,29539.0,-306.14229852757626,-89.16921060937997,-188.42569619110463
1932,6477,1932.0,19368.0,1932.0,29585.0,-309.5785457663653,-89.11706305753151,-189.26827905876848
1932,6470,1932.0,19434.0,1932.0,29576.0,-313.068599962824,-89.10623324192984,-190.19200608718495
1942,6475,1942.0,19422.0,1942.0,29561.0,-316.6124157441212,-89.13677644735911,-191.19718096472394
1942,6447,1942.0,19412.0,1942.0,29547.0,-320.20966944239126,-89.2086197027523,-192.28321408949233
1942,6433,1942.0,19402.0,1942.0,29533.0,-323.85985638596935,-89.32136240731607,-193.4488936243731
1942,6457,1942.0,19374.0,1942.0,29511.0,-327.5625383839464,-89.4744945565749,-194.69281792083922
1942,6449,1942.0,19393.0,1942.0,29529.0,-331.3174196488502,-89.66780592330232,-196.01381328224227
1942,6436,1942.0,19401.0,1942.0,29543.0,-335.1241823657346,-89.90165026871561,-197.4111286645163
1953,6449,1953.0,19430.0,1953.0,29539.0,-338.9823611922044,-90.17682983721187,-198.88427580908927
1953,6440,1953.0,19345.0,1953.0,29529.0,-342.89129312958335,-90.49432880373767,-200.43276577484994
1953,6427,1953.0,19405.0,1953.0,29532.0,-346.85004159714936,-90.85541372052434,-202.05603532684972
1953,6408,1953.0,19399.0,1953.0,29526.0,-350.8574303214258,-91.26192891507837,-203.75351058316073
1953,6432,1953.0,19433.0,1953.0,29528.0,-354.9122113559287,-91.7161634933549,-205.52465211265002
1953,6412,1953.0,19431.0,1953.0,29531.0,-359.01312239977386,-92.22032429370762,-207.3689470991148
1963,6407,1963.0,19401.0,1963.0,29522.0,-363.1588031002231,-92.77611053359473,-209.2858647796799
1963,6400,1963.0,19400.0,1963.0,29517.0,-367.34779096616455,-93.3847017350203,-211.27483993395742
1963,6397,1963.0,19371.0,1963.0,29506.0,-371.57861110366866,-94.04711637633166,-213.3353552715792
1963,6387,1963.0,19421.0,1963.0,29477.0,-375.8498383984019,-94.76458303116785,-215.4671530912529
1963,6368,1963.0,19400.0,1963.0,29499.0,-380.1601706430763,-95.53857587878572,-217.67055194082957
1963,6384,1963.0,19396.0,1963.0,29530.0,-384.50855920111064,-96.37059751748735,-219.94658901112854
1973,6383,1973.0,19407.0,1973.0,29532.0,-388.8942474935378,-97.26207128002802,-222.2966846959186
1973,6381,1973.0,19423.0,1973.0,29516.0,-393.3166100872197,-98.21430860136357,-224.72209034825914
1973,6369,1973.0,19397.0,1973.0,29511.0,-397.7749603798239,-99.22834295193557,-227.22363321733195
1973,6367,1973.0,19392.0,1973.0,29516.0,-402.2684968969941,-100.30484278578572,-229.80178483798937
1973,6364,1973.0,19442.0,1973.0,29530.0,-406.79633358574677,-101.4441803723361,-232.45669869762725
1973,6374,1973.0,19406.0,1973.0,29501.0,-411.3574724712686,-102.64630234123139,-235.18808562431167
1984,6342,1984.0,19379.0,1984.0,29496.0,-415.95070656493107,-103.91052335266106,-237.99517378546426
1984,6338,1984.0,19375.0,1984.0,29493.0,-420.5746351915916,-105.23575489528895,-240.87689699060473
1984,6335,1984.0,19370.0,1984.0,29463.0,-425.22785653438893,-106.6210235239467,-243.83215751907903
1984,6329,1984.0,19382.0,1984.0,29477.0,-429.90913102237397,-108.06578275668716,-246.860084579094
1984,6320,1984.0,19396.0,1984.0,29482.0,-434.6174204904992,-109.56988914091222,-249.96021557658224
1984,6335,1984.0,19394.0,1984.0,29485.0,-439.3518739818851,-111.13334773934075,-253.13243225215638
1994,6329,1994.0,19407.0,1994.0,29480.0,-444.11171975292103,-112.75599501210968,-256.376734674566
1994,6321,1994.0,19389.0,1994.0,29481.0,-448.89606958237437,-114.43726480684185,-259.69307368205733
1994,6311,1994.0,19373.0,1994.0,29481.0,-453.70380945190516,-116.1761426984114,-263.0812660593432
1994,6315,1994.0,19425.0,1994.0,29500.0,-458.53362317437245,-117.97125203394438,-266.54087305495443
1994,6313,1994.0,19417.0,1994.0,29497.0,-463.3839972286116,-119.82070542434646,-270.07094713323556
1994,6299,1994.0,19376.0,1994.0,29476.0,-468.253148156457,-121.72172780063468,-273.6697562596354
2003,6295,2003.0,19337.0,2003.0,29452.0,-473.1389899476645,-123.67071487698563,-277.33477312066475
2003,6266,2003.0,19356.0,2003.0,29434.0,-478.03923658567504,-125.66390519551733,-281.0630325439643
2003,6272,2003.0,19339.0,2003.0,29421.0,-482.9516236310863,-127.69801827368171,-284.85165482458376
2003,6260,2003.0,19347.0,2003.0,29446.0,-487.87412951534407,-129.77047850955853,-288.6982375608931
2003,6270,2003.0,19351.0,2003.0,29443.0,-492.8050549557289,-131.87940708110597,-292.60089145626597
2003,6251,2003.0,19371.0,2003.0,29459.0,-497.74296865113416,-134.02348310813719,-296.55794849591825
2014,6263,2014.0,19367.0,2014.0,29428.0,-502.6866326424574,-136.20164176091222,-300.5676319546162
2014,6237,2014.0,19354.0,2014.0,29421.0,-507.63496404930555,-138.4127712594311,-304.6279756607132
2014,6251,2014.0,19338.0,2014.0,29429.0,-512.5870372715967,-140.6556577183087,-308.7369905519694
2014,6260,2014.0,19360.0,2014.0,29441.0,-517.5420416959794,-142.92914751867968,-312.8927507443311
2014,6239,2014.0,19385.0,2014.0,29439.0,-522.4990998240651,-145.23215285876114,-317.0931927592208
2014,6220,2014.0,19343.0,2014.0,29408.0,-527.4571381038719,-147.56334874263837,-321.3358667720601
2024,6211,2024.0,19324.0,2024.0,29394.0,-532.4150452449123,-149.9210268991942,-325.61799410126383
2024,6221,2024.0,19282.0,2024.0,29390.0,-537.3719399635636,-152.3035215357373,-329.93682292130086
2024,6226,2024.0,19313.0,2024.0,29391.0,-542.3272183270424,-154.7099297272988,-334.28994837324217
2024,6205,2024.0,19327.0,2024.0,29386.0,-547.2803787003008,-157.1405031834158,-338.6754028813085
2024,6217,2024.0,19361.0,2024.0,29386.0,-552.2308772814309,-159.5963896464154,-343.09160781858293
2024,6206,2024.0,19372.0,2024.0,29388.0,-557.1780810265443,-162.0789202164478,-347.5372918190558
2034,6197,2034.0,19331.0,2034.0,29380.0,-562.1212228686763,-164.58893433764823,-352.0113899544797
2034,6199,2034.0,19332.0,2034.0,29373.0,-567.059383536519,-167.1265916752432,-356.5129683403094
2034,6206,2034.0,19349.0,2034.0,29403.0,-571.9914696427111,-169.69158788768158,-361.0411600406209
2034,6190,2034.0,19340.0,2034.0,29387.0,-576.9160949815696,-172.28325014601498,-365.5949585018482
2034,6178,2034.0,19313.0,2034.0,29385.0,-581.8314864958506,-174.9004496738677,-370.1729171156126
2034,6159,2034.0,19325.0,2034.0,29362.0,-586.7355889975081,-177.54168143192598,-374.7730342192004
2045,6184,2045.0,19307.0,2045.0,29334.0,-591.626265489305,-180.20528467397742,-379.3929450045532
2045,6171,2045.0,19298.0,2045.0,29331.0,-596.5013179269412,-182.8896121678204,-384.0303374255901
2045,6162,2045.0,19304.0,2045.0,29356.0,-601.3583224193942,-185.59318051124697,-388.6833108788844
2045,6164,2045.0,19329.0,2045.0,29344.0,-606.1945298804894,-188.31471457465432,-393.3503620289841
2045,6157,2045.0,19301.0,2045.0,29358.0,-611.0068666146324,-191.052950529482,-398.03008485926784
2045,6157,2045.0,19309.0,2045.0,29355.0,-615.7919054085885,-193.80642416155106,-402.72086629651477
2055,6144,2055.0,19300.0,2055.0,29335.0,-620.5458193713691,-196.5734610498354,-407.420680668391
2055,6142,2055.0,19295.0,2055.0,29359.0,-625.2643854159683,-199.35224925962683,-412.12700328630257
2055,6156,2055.0,19304.0,2055.0,29338.0,-629.9429869140131,-202.1408731808157,-416.8367501299913
2055,6136,2055.0,19312.0,2055.0,29370.0,-634.5765144746217,-204.93725190560667,-421.5461121758315
2055,6151,2055.0,19288.0,2055.0,29326.0,-639.1592155908755,-207.73898220853368,-426.25033911104293
2055,6109,2055.0,19266.0,2055.0,29303.0,-643.6846390280962,-210.54332701921598,-430.9437275470138
2065,6097,2065.0,19305.0,2065.0,29298.0,-648.1457996103729,-213.3474324375873,-435.6199879240983
2065,6099,2065.0,19276.0,2065.0,29298.0,-652.535551468986,-216.14842529954467,-440.2727089914604
2065,6100,2065.0,19272.0,2065.0,29288.0,-656.8468785591581,-218.94331853033748,-444.89556793350465
2065,6113,2065.0,19298.0,2065.0,29347.0,-661.0728739929332,-221.7289813904144,-449.4822337304101
2065,6107,2065.0,19292.0,2065.0,29311.0,-665.2065015055675,-224.5020553122038,-454.0259497928753
2065,6095,2065.0,19272.0,2065.0,29295.0,-669.240359866115,-227.25872841117695,-458.51907940092434
2076,6097,2076.0,19293.0,2076.0,29275.0,-673.1666062884522,-229.99463591209584,-462.9531140271681
2076,6105,2076.0,19288.0,2076.0,29307.0,-676.976960158682,-232.70485018869067,-467.3189970609989
2076,6107,2076.0,19290.0,2076.0,29282.0,-680.6625910329462,-235.38374806915513,-471.60722287470753
2076,6091,2076.0,19275.0,2076.0,29279.0,-684.2139215305265,-238.02486889621915,-475.8077155702056
2076,6062,2076.0,19237.0,2076.0,29273.0,-687.6206024210057,-240.62100029929945,-479.9098175791614
2076,6072,2076.0,19244.0,2076.0,29235.0,-690.8717735426901,-243.1645627158032,-483.90245927222315
2086,6067,2086.0,19235.0,2086.0,29228.0,-693.9563599432436,-245.64806623384942,-487.774501824251
2086,6077,2086.0,19232.0,2086.0,29263.0,-696.8631324123667,-248.06436072309384,-491.5151160761293
2086,6073,2086.0,19240.0,2086.0,29264.0,-699.580573237437,-250.40669365775003,-495.1137828879356
2086,6067,2086.0,19258.0,2086.0,29238.0,-702.0967256329093,-252.66862645458423,-498.55993152311083
2086,6051,2086.0,19244.0,2086.0,29246.0,-704.399164829835,-254.84378728491913,-501.8427425723918
2086,6053,2086.0,19228.0,2086.0,29217.0,-706.4751276388818,-256.9256669904127,-504.9512736111476
2097,6049,2097.0,19227.0,2097.0,29235.0,-708.3116814876207,-258.90768901412446,-507.8746691407751
2097,6037,2097.0,19262.0,2097.0,29256.0,-709.8958321564912,-260.7833511857159,-510.60221839108925
2097,6037,2097.0,19262.0,2097.0,29230.0,-711.2146272931313,-262.5460489964307,-513.1231500298843
2097,6050,2097.0,19232.0,2097.0,29222.0,-712.2552540993963,-264.18869188038923,-515.4264353052756
2097,6035,2097.0,19226.0,2097.0,29210.0,-713.0050283989361,-265.7036206715033,-517.5009116223484
2097,6023,2097.0,19210.0,2097.0,29204.0,-713.4513746607333,-267.08292967532157,-519.335589296597
2107,6034,2107.0,19220.0,2107.0,29218.0,-713.5819552373323,-268.3188434974759,-520.9198747109515
2107,6039,2107.0,19211.0,2107.0,29208.0,-713.3847994676437,-269.4039141286048,-522.2436110663803
2107,6029,2107.0,19216.0,2107.0,29213.0,-712.8482751916299,-270.3310648419864,-523.2970078970693
2107,6030,2107.0,19212.0,2107.0,29214.0,-711.961050794018,-271.0935843527525,-524.070583125321
2107,6034,2107.0,19222.0,2107.0,29214.0,-710.7121574330097,-271.6851018229198,-524.5551199967847
2107,6029,2107.0,19213.0,2107.0,29200.0,-709.0910567044766,-272.0995267398795,-524.7416452739715
2117,6046,2117.0,19219.0,2117.0,29206.0,-707.0876533832582,-272.3309923253952,-524.6215038629055
2117,6054,2117.0,19200.0,2117.0,29226.0,-704.6922232256427,-272.37386945498196,-524.1864390944896
2117,6032,2117.0,19217.0,2117.0,29201.0,-701.8952865151794,-272.22285937156687,-523.4285332320354
2117,6041,2117.0,19219.0,2117.0,29198.0,-698.6876239664743,-271.873052046373,-522.340174415709
2117,6034,2117.0,19178.0,2117.0,29189.0,-695.0604798136436,-271.3199341673102,-520.9142607650085
2117,6020,2117.0,19191.0,2117.0,29200.0,-691.0058066704416,-270.5595836865418,-519.14449212715
2128,6028,2128.0,19199.0,2128.0,29189.0,-686.5165402978297,-269.58901464293683,-517.0255412541403
2128,6054,2128.0,19212.0,2128.0,29198.0,-681.5868256090375,-268.40628180534753,-514.5531349640515
2128,6061,2128.0,19242.0,2128.0,29228.0,-676.2119715281852,-267.01022785645114,-511.7240596224675
2128,6054,2128.0,19228.0,2128.0,29207.0,-670.3882198866394,-265.4000593641756,-508.53600608556144
2128,6063,2128.0,19203.0,2128.0,29226.0,-664.1126502798136,-263.57507132950786,-504.9873857509105
2128,6050,2128.0,19220.0,2128.0,29223.0,-657.3833019540298,-261.53476925570243,-501.0772877835416
2138,6088,2138.0,19239.0,2138.0,29233.0,-650.1993428231428,-259.2791094880067,-496.8054844776923
2138,6078,2138.0,19236.0,2138.0,29229.0,-642.561103540562,-256.8084429760799,-492.1724180001962
2138,6081,2138.0,19212.0,2138.0,29227.0,-634.4700151015222,-254.12334459408757,-487.17924744611446
2138,6083,2138.0,19244.0,2138.0,29239.0,-625.9286725714147,-251.22467203861302,-481.82797237978525
2138,6097,2138.0,19222.0,2138.0,29246.0,-616.941024890833,-248.11371667230793,-476.1215275878121
2138,6104,2138.0,19229.0,2138.0,29263.0,-607.5125004401731,-244.79227426753553,-470.0637518384772
2148,6129,2148.0,19225.0,2148.0,29262.0,-597.6500034733763,-241.2627550047173,-463.6592669782765
2148,6140,2148.0,19248.0,2148.0,29275.0,-587.361797432685,-237.52830635657324,-456.9133765217891
2148,6164,2148.0,19268.0,2148.0,29287.0,-576.6573032525278,-233.59273831227102,-449.8320119171136
2148,6156,2148.0,19258.0,2148.0,29295.0,-565.5469095238813,-229.46024274513735,-442.4216615560165
2148,6175,2148.0,19269.0,2148.0,29303.0,-554.0419196846052,-225.13515976723193,-434.6892782889662
2148,6179,2148.0,19273.0,2148.0,29318.0,-542.1546358980722,-220.62192854977806,-426.6422117799878
2159,6216,2159.0,19305.0,2159.0,29325.0,-529.8984153305465,-215.92503831190712,-418.2881452386886
2159,6237,2159.0,19273.0,2159.0,29342.0,-517.287532482207,-211.04886398280485,-409.63500998274503
2159,6237,2159.0,19286.0,2159.0,29325.0,-504.3368916607024,-205.99760900105562,-400.69093829291575
2159,6217,2159.0,19258.0,2159.0,29356.0,-491.0619190011024,-200.77553724284894,-391.46433322723976
2159,6258,2159.0,19253.0,2159.0,29337.0,-477.4788217534619,-195.38741096646302,-381.96400858313984
2159,6284,2159.0,19290.0,2159.0,29355.0,-463.6048399468696,-189.83892618559207,-372.1993400439793
2169,6300,2169.0,19320.0,2169.0,29370.0,-449.4581134899386,-184.1367891374571,-362.18041912564456
2169,6329,2169.0,19317.0,2169.0,29407.0,-435.05734223517413,-178.28830818955524,-351.9180537902387
2169,6323,2169.0,19332.0,2169.0,29409.0,-420.42153995472603,-172.30091988020533,-341.42350814198494
2169,6341,2169.0,19326.0,2169.0,29414.0,-405.56998483245684,-166.18198884500947,-330.70820953635604
2169,6360,2169.0,19319.0,2169.0,29431.0,-390.52232133352027,-159.93884698789066,-319.7836676086922
2169,6381,2169.0,19408.0,2169.0,29444.0,-375.29862259500135,-153.57882678843484,-308.6615137851271
2179,6403,2179.0,19338.0,2179.0,29470.0,-359.91930544173033,-147.10898899861172,-297.3534544829287
2179,6417,2179.0,19358.0,2179.0,29449.0,-344.404978324306,-140.53584400289353,-285.8711659543451
2179,6429,2179.0,19346.0,2179.0,29471.0,-328.77633282181927,-133.86556849516634,-274.22633883624064
2179,6425,2179.0,19346.0,2179.0,29471.0,-313.05417315525904,-127.10446024673068,-262.43089833289787
2179,6479,2179.0,19373.0,2179.0,29507.0,-297.25954863555353,-120.25922601638717,-250.4971669221242
2179,6483,2179.0,19372.0,2179.0,29532.0,-281.4137475472151,-113.33704168196903,-238.4377769421601
2190,6535,2190.0,19362.0,2190.0,29548.0,-265.5380303612785,-106.34549972513247,-226.2653488494802
2190,6530,2190.0,19414.0,2190.0,29538.0,-249.6532614624752,-99.29260370957333,-213.99218568092886
2190,6538,2190.0,19406.0,2190.0,29554.0,-233.77968154996057,-92.18666582285728,-201.63025449077574
2190,6549,2190.0,19397.0,2190.0,29574.0,-217.93697383846234,-85.03607079668366,-189.1913632959824
2190,6577,2190.0,19434.0,2190.0,29590.0,-202.14447769410532,-77.8492013999676,-176.6872295818698
2190,6622,2190.0,19474.0,2190.0,29611.0,-186.42120300814554,-70.63435928960878,-164.1293671293416
2200,6615,2200.0,19430.0,2200.0,29623.0,-170.78555361283384,-63.39940370050786,-151.52891625383035
2200,6626,2200.0,19426.0,2200.0,29608.0,-155.25508291818034,-56.15158328102183,-138.89656683774942
2200,6652,2200.0,19456.0,2200.0,29613.0,-139.84653009045286,-48.89787854247183,-126.2427377150783
2200,6642,2200.0,19444.0,2200.0,29627.0,-124.57597228074951,-41.64534268445544,-113.57796753542578
2200,6670,2200.0,19446.0,2200.0,29653.0,-109.45896486313228,-34.40118760047153,-100.9132030878888
2200,6699,2200.0,19456.0,2200.0,29662.0,-94.5106468960019,-27.172894103985612,-88.2598086745254
2210,6735,2210.0,19465.0,2210.0,29683.0,-79.74561904676227,-19.968360304553755,-75.62942974126645
2210,6726,2210.0,19498.0,2210.0,29715.0,-65.17760360732592,-12.79588349424759,-63.0338277731006
2210,6744,2210.0,19485.0,2210.0,29712.0,-50.81923825479163,-5.663959098229924,-50.48466381650593
2210,6764,2210.0,19480.0,2210.0,29740.0,-36.682128583185374,1.4188647800404226,-37.9933051265441
2210,6792,2210.0,19524.0,2210.0,29746.0,-22.776883769769995,8.443931786105338,-25.570735510471877
2210,6780,2210.0,19581.0,2210.0,29766.0,-9.113009527207169,15.402619662612608,-13.227498169284445
2221,6793,2221.0,19574.0,2221.0,29765.0,4.301101182321645,22.28702685067256,-0.9736524672803171
2221,6801,2221.0,19520.0,2221.0,29757.0,17.457960582910346,29.090618763210443,11.181142385879582
2221,6815,2221.0,19491.0,2221.0,29809.0,30.35075420038345,35.807973902940205,23.22742516450711
2221,6848,2221.0,19554.0,2221.0,29816.0,42.97326501595563,42.43385872027454,35.15590167532815
2221,6845,2221.0,19581.0,2221.0,29817.0,55.319970072381466,48.96277074764319,46.95767032954342
2221,6865,2221.0,19579.0,2221.0,29825.0,67.3861700995734,55.389358976226646,58.624342294898554
2231,6885,2231.0,19571.0,2231.0,29855.0,79.16804305919385,61.70895871147354,70.14795128370264
2231,6887,2231.0,19561.0,2231.0,29860.0,90.66269663931712,67.91761979607392,81.52094061765064
2231,6892,2231.0,19574.0,2231.0,29862.0,101.86820363519257,74.0117882246559,92.73625818541115
2231,6886,2231.0,19634.0,2231.0,29889.0,112.78347662899375,79.9881411389961,103.78737133361102
2231,6923,2231.0,19627.0,2231.0,29906.0,123.40804072314518,85.84392137588287,114.66827477488147
2231,6946,2231.0,19623.0,2231.0,29894.0,133.74198971101612,91.57749239977119,125.37359291146834
2241,6938,2241.0,19558.0,2241.0,29910.0,143.786214746756,97.18841147651179,135.898584517467
2241,6933,2241.0,19584.0,2241.0,29901.0,153.54255338588092,102.67678639146368,146.23894674690666
2241,6956,2241.0,19568.0,2241.0,29904.0,163.01362624218837,108.0424358294888,156.39053195373083
2241,6953,2241.0,19620.0,2241.0,29940.0,172.20261416976996,113.28446863381401,166.34909889185502
2241,6977,2241.0,19614.0,2241.0,29963.0,181.11319040414435,118.40140337966292,176.11031092453317
2241,7000,2241.0,19645.0,2241.0,29976.0,189.74959542108076,123.39156723284495,185.6700623305107
2252,6996,2252.0,19636.0,2252.0,29997.0,198.1168321349163,128.25347867519895,195.02487988121328
2252,6994,2252.0,19637.0,2252.0,29995.0,206.2208092838095,132.9860482021693,204.17218935226407
2252,6997,2252.0,19646.0,2252.0,29975.0,214.06823856477155,137.58857680124135,213.11035601286244
2252,7016,2252.0,19652.0,2252.0,29996.0,221.66641687217293,142.06068985937793,221.83843441917458
2252,7018,2252.0,19664.0,2252.0,30006.0,229.02313424929014,146.40236032550655,230.35584613064879
2252,7015,2252.0,19658.0,2252.0,30026.0,236.1466810126082,150.61399685655402,238.6623010847867
2262,7013,2262.0,19643.0,2262.0,30028.0,243.04575749991,154.69643707471295,246.75793229677112
2262,7018,2262.0,19633.0,2262.0,30024.0,249.7292477274528,158.65070628836764,254.6433949775809
2262,7032,2262.0,19665.0,2262.0,30009.0,256.2060125059204,162.4776630765747,262.31974186225773
2262,7035,2262.0,19679.0,2262.0,30054.0,262.4848231556399,166.17790407209117,269.78813948946106
2262,7053,2262.0,19681.0,2262.0,30069.0,268.57441125336504,169.75203517378583,277.0497977662286
2262,7036,2262.0,19695.0,2262.0,30061.0,274.48352889579223,173.20100561031802,284.1062443238716
2272,7052,2272.0,19682.0,2272.0,30074.0,280.2209099186899,176.52628222348858,290.9595611433008
2272,7053,2272.0,19693.0,2272.0,30069.0,285.79514798105606,179.72987000987797,297.61236079110927
2272,7071,2272.0,19732.0,2272.0,30106.0,291.21464099002446,182.81433267517298,304.0677167136232
2272,7080,2272.0,19713.0,2272.0,30095.0,296.4876744450132,185.78302360213974,310.3292478540576
2272,7088,2272.0,19705.0,2272.0,30093.0,301.62258676663896,188.64035310773295,316.4012461899896
2272,7065,2272.0,19689.0,2272.0,30097.0,306.62786658789184,191.39170332643272,322.28861637142813
2283,7075,2283.0,19657.0,2283.0,30097.0,311.5120198421912,194.04297034215102,327.99666779754637
2283,7083,2283.0,19665.0,2283.0,30101.0,316.2833014921282,196.5999357730778,333.53093706406867
2283,7074,2283.0,19671.0,2283.0,30105.0,320.94954840355854,199.06772463986198,338.89706692236905
2283,7111,2283.0,19696.0,2283.0,30114.0,325.5181515532198,201.4506286106888,344.1007294323291
2283,7119,2283.0,19721.0,2283.0,30115.0,329.9961895797451,203.75235314830053,349.147603247819
2283,7101,2283.0,19667.0,2283.0,30131.0,334.3906951071109,205.97640307474376,354.04339068728905
2293,7107,2293.0,19704.0,2293.0,30117.0,338.7087480302116,208.12616526107962,358.7938440514157
2293,7110,2293.0,19715.0,2293.0,30097.0,342.95730244530944,210.20475713397536,363.40466946370736
2293,7126,2293.0,19744.0,2293.0,30155.0,347.14304043827474,212.21516907929396,367.8812857903836
2293,7115,2293.0,19718.0,2293.0,30149.0,351.27238405084074,214.1607046876686,372.22880475038846
2293,7113,2293.0,19711.0,2293.0,30164.0,355.3514911721396,216.0452087656742,376.45237774889847
2293,7119,2293.0,19694.0,2293.0,30138.0,359.38611372774676,217.87285634784797,380.55747619210683
2304,7108,2304.0,19709.0,2304.0,30133.0,363.38140499064866,219.6477494811307,384.5497813211174
2304,7130,2304.0,19719.0,2304.0,30117.0,367.34177297102906,221.37368592038945,388.43476838656
2304,7128,2304.0,19698.0,2304.0,30154.0,371.27083031523273,223.05417245997097,392.2172784253323
2304,7144,2304.0,19755.0,2304.0,30170.0,375.1714668823073,224.69252492999885,395.9014336423503
2304,7155,2304.0,19716.0,2304.0,30194.0,379.04600036076147,226.2920547429526,399.49099945232194
2304,7151,2304.0,19729.0,2304.0,30138.0,382.89634816799446,227.8562710512216,402.98980449267833
2314,7153,2314.0,19706.0,2314.0,30183.0,386.7241274663875,229.38883532442395,406.4017550523007
2314,7157,2314.0,19726.0,2314.0,30193.0,390.5306225234209,230.89332489792844,409.73065021110915
2314,7169,2314.0,19730.0,2314.0,30181.0,394.31672662237577,232.37310286299237,412.98026706747737
2314,7151,2314.0,19708.0,2314.0,30179.0,398.0829313384363,233.83134275422418,416.15452165513886
2314,7164,2314.0,19704.0,2314.0,30173.0,401.82926196834137,235.270961034001,419.2573593726844
2314,7153,2314.0,19700.0,2314.0,30178.0,405.5551206504515,236.6943378742409,422.2925103900992
2324,7174,2324.0,19710.0,2324.0,30166.0,409.2591505063889,238.10304268259762,425.2632900196338
2324,7169,2324.0,19707.0,2324.0,30168.0,412.9392058233782,239.49774036313744,428.1724135790123
2324,7193,2324.0,19743.0,2324.0,30195.0,416.59242832374434,240.87827826288168,431.02185195228355
2324,7201,2324.0,19745.0,2324.0,30212.0,420.21542149698007,242.24397604257774,433.8129260868151
2324,7214,2324.0,19747.0,2324.0,30191.0,423.804512967567,243.59403752440397,436.546628220152
2324,7201,2324.0,19736.0,2324.0,30201.0,427.35599370259536,244.9278133562825,439.2238095708517
2335,7214,2335.0,19731.0,2335.0,30210.0,430.86619049317244,246.24477487934365,441.84512720301245
2335,7227,2335.0,19753.0,2335.0,30252.0,434.33144266012005,247.54436516426136,444.4111001397365
2335,7219,2335.0,19756.0,2335.0,30245.0,437.7481530962265,248.82599841271673,446.9224973118459
2335,7221,2335.0,19752.0,2335.0,30207.0,441.1128490061325,250.0892421454921,449.3807234088439
2335,7215,2335.0,19707.0,2335.0,30206.0,444.42210675455885,251.33386042495067,451.78770072375505
2335,7223,2335.0,19733.0,2335.0,30211.0,447.6723935546544,252.5594853998058,454.1453582530173
2345,7223,2345.0,19736.0,2345.0,30223.0,450.8599495575929,253.7652247884343,456.45528451693747
2345,7229,2345.0,19737.0,2345.0,30218.0,453.98074486446353,254.94959589439318,458.7187140360821
2345,7261,2345.0,19755.0,2345.0,30230.0,457.03053991651086,256.1106910702713,460.93662075857793
2345,7266,2345.0,19797.0,2345.0,30238.0,460.00514046160527,257.2464633721808,463.1098050704992
2345,7248,2345.0,19747.0,2345.0,30223.0,462.90073795185504,258.3551648415533,465.23898649963644
2345,7251,2345.0,19732.0,2345.0,30231.0,465.71400361698875,259.43553678071333,467.32481304321567
2355,7260,2355.0,19777.0,2355.0,30248.0,468.44192217108866,260.4865173264724,469.36779923932573
2355,7275,2355.0,19780.0,2355.0,30233.0,471.08170322320643,261.5070795497901,471.3683589066243
2355,7267,2355.0,19761.0,2355.0,30239.0,473.6308939384992,262.4965117692067,473.3268718249759
2355,7267,2355.0,19737.0,2355.0,30236.0,476.0874886459609,263.45455728049893,475.2436345893683
2355,7248,2355.0,19733.0,2355.0,30232.0,478.4498492912669,264.3810694941968,477.11875229016766
2355,7250,2355.0,19738.0,2355.0,30225.0,480.7164408499448,265.2755245010578,478.9520135103949
2366,7275,2366.0,19715.0,2366.0,30242.0,482.88557401151274,266.13670879982544,480.74274863955094
2366,7280,2366.0,19746.0,2366.0,30225.0,484.95541422399583,266.96255185413537,482.48975246199166
2366,7285,2366.0,19767.0,2366.0,30265.0,486.9242429889381,267.7501500659479,484.19131354131036
2366,7288,2366.0,19812.0,2366.0,30229.0,488.7907043346771,268.4962068636686,485.84532817929
2366,7298,2366.0,19761.0,2366.0,30266.0,490.55393735954885,269.197733166761,487.4494140082008
2366,7297,2366.0,19767.0,2366.0,30246.0,492.2136819073835,269.8524072828483,489.00097066706917
2376,7310,2376.0,19781.0,2376.0,30277.0,493.770395853237,270.4584223135862,490.4972706106333
2376,7273,2376.0,19771.0,2376.0,30265.0,495.2253071065044,271.0143149308433,491.93562263207167
2376,7292,2376.0,19777.0,2376.0,30253.0,496.5802728237684,271.5189981920587,493.3134948584411
2376,7276,2376.0,19744.0,2376.0,30259.0,497.8375085300154,271.97173536039395,494.62845159790896
2376,7263,2376.0,19749.0,2376.0,30240.0,498.99934696630487,272.37189286921705,495.87794257275505
2376,7279,2376.0,19746.0,2376.0,30250.0,500.06801040770426,272.71859388118196,497.0590822327093
2386,7292,2386.0,19748.0,2386.0,30278.0,501.0454813763797,273.0104970991989,498.168544704991
2386,7329,2386.0,19789.0,2386.0,30262.0,501.9337064308078,273.2458283548415,499.2027039936185
2386,7317,2386.0,19763.0,2386.0,30261.0,502.7351026092131,273.4226670407616,500.1578535901979
2386,7296,2386.0,19754.0,2386.0,30266.0,503.452977906137,273.5392243588379,501.03023241064216
2386,7304,2386.0,19777.0,2386.0,30256.0,504.0915338108555,273.5938382180441,501.8159340784731
2386,7287,2386.0,19782.0,2386.0,30267.0,504.65559753193224,273.5849357793884,502.5108453849554
2397,7309,2397.0,19768.0,2397.0,30287.0,505.1504136409062,273.51120452318895,503.11067274144636
2397,7275,2397.0,19778.0,2397.0,30270.0,505.5815536706576,273.371735113475,503.61111544430673
2397,7276,2397.0,19751.0,2397.0,30256.0,505.95477553370984,273.16597420372307,504.00799768460604
2397,7277,2397.0,19726.0,2397.0,30258.0,506.2757536589487,272.89348519021667,504.29712671412574
2397,7275,2397.0,19735.0,2397.0,30268.0,506.5498557278046,272.5535027691009,504.47405539128846
2397,7277,2397.0,19748.0,2397.0,30268.0,506.7820751107519,272.14454642356645,504.5340366127721
2407,7273,2407.0,19758.0,2407.0,30289.0,506.9770196708261,271.664416664729,504.47217584687394
2407,7288,2407.0,19772.0,2407.0,30292.0,507.13891629953093,271.1105052683009,504.28369692448854
2407,7295,2407.0,19759.0,2407.0,30286.0,507.2717079374189,270.48015042063594,503.9642382702185
2407,7288,2407.0,19760.0,2407.0,30261.0,507.3792490129059,269.7708365062164,503.50997330590127
2407,7272,2407.0,19760.0,2407.0,30257.0,507.4654150122699,268.9802062402666,502.91741148295415
2407,7268,2407.0,19779.0,2407.0,30273.0,507.53396820620463,268.1060653372096,502.1830743463384
2417,7289,2417.0,19770.0,2417.0,30294.0,507.58833321185057,267.1465335926007,501.3034312520642
2417,7282,2417.0,19758.0,2417.0,30270.0,507.6315635676007,266.10021697750267,500.27516365784555
2417,7266,2417.0,19721.0,2417.0,30266.0,507.6664465947789,264.9661195084585,499.09537561705616
2417,7272,2417.0,19732.0,2417.0,30257.0,507.69546717525134,263.7432281573374,497.76149559338864
2417,7266,2417.0,19730.0,2417.0,30266.0,507.72064047449743,262.430078442743,496.2710680145037
2417,7276,2417.0,19744.0,2417.0,30275.0,507.74341792706485,261.02462453528756,494.62170582739924
2428,7285,2428.0,19748.0,2428.0,30281.0,507.7647352272118,259.524401783754,492.81126079948825
2428,7275,2428.0,19779.0,2428.0,30263.0,507.78515573237524,257.9268522086774,490.8380618856728
2428,7291,2428.0,19751.0,2428.0,30256.0,507.8050060385512,256.2297341131595,488.7009869774378
2428,7274,2428.0,19743.0,2428.0,30244.0,507.824449067703,254.4313770900465,486.39930332823667
2428,7283,2428.0,19770.0,2428.0,30269.0,507.84350275077225,252.5306550002707,483.93248108788947
2428,7272,2428.0,19760.0,2428.0,30266.0,507.8620002538021,250.52699065075092,481.300234959202
2438,7283,2438.0,19741.0,2438.0,30256.0,507.87953424546066,248.42051363017794,478.502761613717
2438,7270,2438.0,19721.0,2438.0,30239.0,507.8954317579051,246.2120212178821,475.5408612215201
2438,7277,2438.0,19734.0,2438.0,30238.0,507.9087333468461,243.90266343748522,472.4158034508205
2438,7273,2438.0,19710.0,2438.0,30227.0,507.9181583599994,241.49366388475295,469.12910992813113
2438,7261,2438.0,19709.0,2438.0,30231.0,507.92205836963353,238.98616533946142,465.6824150173256
2438,7287,2438.0,19760.0,2438.0,30260.0,507.9183628591627,236.38118595798002,462.0774979605776
2448,7284,2448.0,19743.0,2448.0,30232.0,507.9046285220656,233.67990861733693,458.3165409673195
2448,7298,2448.0,19721.0,2448.0,30219.0,507.87826306924717,230.88415564243357,454.40236629723347
2448,7285,2448.0,19702.0,2448.0,30219.0,507.83677184287615,227.9964741382875,450.33836692015404
2448,7286,2448.0,19725.0,2448.0,30185.0,507.7778633969059,225.01982781922413,446.12825006066635
2448,7296,2448.0,19731.0,2448.0,30208.0,507.69943840799607,221.95745582291806,441.77578982041837
2448,7280,2448.0,19707.0,2448.0,30218.0,507.5995854373025,218.8130603115497,437.2847425630888
2459,7288,2459.0,19707.0,2459.0,30182.0,507.47658361134717,215.5909422954564,432.6590119598053
2459,7270,2459.0,19680.0,2459.0,30176.0,507.32883335951044,212.29586294954,427.9027418014397
2459,7262,2459.0,19673.0,2459.0,30173.0,507.1546970517815,208.9327436122885,423.02011384189416
2459,7264,2459.0,19688.0,2459.0,30158.0,506.95226780455624,205.50638037991973,418.0151156459236
2459,7278,2459.0,19644.0,2459.0,30143.0,506.71920412311954,202.02129253892625,412.89140175531566
2459,7292,2459.0,19696.0,2459.0,30158.0,506.4528125785809,198.4816642096961,407.65215900280515
2469,7274,2469.0,19659.0,2469.0,30170.0,506.15031383524644,194.8913871501769,402.3001215636088
2469,7277,2469.0,19656.0,2469.0,30159.0,505.80901081653514,191.25418636959085,396.83785908640925
2469,7271,2469.0,19668.0,2469.0,30122.0,505.42624576930655,187.57363010071413,391.26803627802224
2469,7273,2469.0,19659.0,2469.0,30134.0,504.99929809229457,183.85310698139003,385.59332208482823
2469,7289,2469.0,19665.0,2469.0,30145.0,504.52537277031536,180.0959423442925,379.81618920611464
2469,7284,2469.0,19652.0,2469.0,30158.0,504.0017280712825,176.30553410435544,373.93905109379534
2479,7284,2479.0,19621.0,2479.0,30105.0,503.4258616461946,172.4853421898169,367.9646169569666
2479,7268,2479.0,19625.0,2479.0,30113.0,502.7955810791986,168.6386524820925,361.89595471336355
2479,7262,2479.0,19598.0,2479.0,30093.0,502.1088861141029,164.76822038823096,355.736207158148
2479,7261,2479.0,19611.0,2479.0,30080.0,501.36374762555494,160.8759861966508,349.48830933144234
2479,7272,2479.0,19649.0,2479.0,30094.0,500.5579554177579,156.96303616950073,343.1548405509438
2479,7266,2479.0,19616.0,2479.0,30081.0,499.6891401511901,153.02992870728102,336.7380251820586
2490,7267,2490.0,19622.0,2490.0,30078.0,498.7548804253127,149.07709008411283,330.2398658714881
2490,7259,2490.0,19611.0,2490.0,30082.0,497.75275140897594,145.1049134382815,323.66227965216586
2490,7257,2490.0,19626.0,2490.0,30057.0,496.68028676395176,141.113722898285,317.00719233006305
2490,7268,2490.0,19607.0,2490.0,30059.0,495.5349308410758,137.10384567607136,310.27656680394574
2490,7262,2490.0,19584.0,2490.0,30057.0,494.3140783670067,133.0756585507849,303.47236930160597
2490,7267,2490.0,19618.0,2490.0,30048.0,493.0151895610366,129.0294812377494,296.5965989383094
2500,7243,2500.0,19570.0,2500.0,30041.0,491.63584922332564,124.96549471749603,289.6513785085096
2500,7246,2500.0,19582.0,2500.0,30043.0,490.1736707138714,120.88370879962919,282.63901942441595
2500,7252,2500.0,19559.0,2500.0,30018.0,488.6261298970343,116.78380285337163,275.56206680171016
2500,7248,2500.0,19586.0,2500.0,30013.0,486.99052138286277,112.66496517601439,268.42328009432765
2500,7259,2500.0,19610.0,2500.0,29986.0,485.2640634552629,108.52602647234248,261.2254824129054
2500,7254,2500.0,19579.0,2500.0,30015.0,483.44405261086916,104.36590365805426,253.97138974269393
2511,7236,2511.0,19556.0,2511.0,30003.0,481.5279726815488,100.18391284994965,246.66365269693887
2511,7240,2511.0,19582.0,2511.0,29990.0,479.5134533930975,95.97965611154409,239.30510869240305
2511,7246,2511.0,19585.0,2511.0,30010.0,477.398157366075,91.7529049313802,231.89900565903923
2511,7253,2511.0,19580.0,2511.0,29975.0,475.17981824403114,87.50383054881893,224.44915266563012
2511,7241,2511.0,19532.0,2511.0,29982.0,472.85642799981366,83.23321686376953,216.96002163717415
2511,7235,2511.0,19549.0,2511.0,29953.0,470.4263589770036,78.9422734406411,209.4367150422898
2521,7236,2521.0,19524.0,2521.0,29942.0,467.88833370958287,74.63225702507194,201.88481154745574
2521,7203,2521.0,19527.0,2521.0,29926.0,465.24130733072593,70.30423545062324,194.31014006675292
2521,7216,2521.0,19511.0,2521.0,29901.0,462.48426666061187,65.95896961350604,186.7185083370944
2521,7224,2521.0,19537.0,2521.0,29885.0,459.61605124209893,61.59685884198872,179.11538988079036
2521,7204,2521.0,19571.0,2521.0,29910.0,456.6353784924212,57.218154029978635,171.50565416686146
2521,7248,2521.0,19554.0,2521.0,29899.0,453.5410183672153,52.82354577415305,163.89358264132133
2531,7210,2531.0,19512.0,2531.0,29889.0,450.3320366265816,48.41468835241827,156.28314820660557
2531,7206,2531.0,19511.0,2531.0,29899.0,447.0079873396376,43.99413537323019,148.6782564739377
2531,7232,2531.0,19563.0,2531.0,29875.0,443.56891097085423,39.56501488229736,141.08288389634927
2531,7216,2531.0,19456.0,2531.0,29826.0,440.015372811251,35.131004414456214,133.5010681309064
2531,7192,2531.0,19507.0,2531.0,29861.0,436.3486226996839,30.696263883159872,125.93661693586591
2531,7180,2531.0,19468.0,2531.0,29854.0,432.5705198405493,26.26504691788881,118.39287343399886
2542,7184,2542.0,19451.0,2542.0,29845.0,428.68321458280826,21.841366929135603,110.87288569813617
2542,7170,2542.0,19465.0,2542.0,29850.0,424.6889230389823,17.428768360469746,103.37970734687332
2542,7167,2542.0,19466.0,2542.0,29794.0,420.58985721188355,13.030180740024832,95.91649311072112
2542,7180,2542.0,19483.0,2542.0,29858.0,416.3882154432908,8.648071954466815,88.48641152778262
2542,7182,2542.0,19475.0,2542.0,29815.0,412.0863039416157,4.28481767557102,81.09268024610648
2542,7173,2542.0,19450.0,2542.0,29812.0,407.6867974090771,-0.05701467900496482,73.7388068001029
2552,7150,2552.0,19449.0,2552.0,29793.0,403.1929039387514,-4.374671927055601,66.42866846128726
2552,7155,2552.0,19444.0,2552.0,29784.0,398.60828636070516,-8.665411967542383,59.166344027946025
2552,7157,2552.0,19481.0,2552.0,29804.0,393.9369261141148,-12.926545524217858,51.955996937737666
2552,7147,2552.0,19468.0,2552.0,29794.0,389.1831460639968,-17.155128600289686,44.80200384714567
2552,7122,2552.0,19443.0,2552.0,29774.0,384.3516707098224,-21.347558700058386,37.70921925967821
2552,7116,2552.0,19420.0,2552.0,29764.0,379.4474929416442,-25.499540371701926,30.683068452515215
2562,7094,2562.0,19401.0,2562.0,29739.0,374.475579570866,-29.606493042574073,23.729383546100905
2562,7099,2562.0,19412.0,2562.0,29728.0,369.44058951594866,-33.66404106100964,16.85412420150476
2562,7122,2562.0,19423.0,2562.0,29739.0,364.34677852393946,-37.66822181911212,10.063132514017752
2562,7101,2562.0,19419.0,2562.0,29721.0,359.19819955717395,-41.61532507641661,3.362073690319221
2562,7109,2562.0,19432.0,2562.0,29720.0,353.9990125220191,-45.501570033706145,-3.2434761306798237
2562,7090,2562.0,19403.0,2562.0,29710.0,348.7536421443165,-49.32285300902248,-9.74797116164774
2573,7086,2573.0,19387.0,2573.0,29693.0,343.46678182917225,-53.07472571564131,-16.145911059672073
2573,7090,2573.0,19441.0,2573.0,29699.0,338.143354664021,-56.75253142262625,-22.431899653250184
2573,7064,2573.0,19382.0,2573.0,29710.0,332.7885022418225,-60.35135308725327,-28.600634154483487
2573,7059,2573.0,19368.0,2573.0,29685.0,327.4075384088886,-63.865917294611194,-34.646725871268984
2573,7044,2573.0,19360.0,2573.0,29648.0,322.00578479831967,-67.2909034279777,-40.56460758211347
2573,7032,2573.0,19371.0,2573.0,29654.0,316.5883608314807,-70.621395154959,-46.34880499813005
2583,7035,2583.0,19348.0,2583.0,29644.0,311.16001706004016,-73.85304132265625,-51.99432357397586
2583,7034,2583.0,19333.0,2583.0,29656.0,305.7250804899138,-76.98210855233464,-57.49677240760815
2583,7032,2583.0,19322.0,2583.0,29645.0,300.28755220669257,-80.00571101664161,-62.85223146087941
2583,7014,2583.0,19400.0,2583.0,29634.0,294.8512438319396,-82.92197062526716,-68.05708485406717
2583,7019,2583.0,19373.0,2583.0,29624.0,289.4198170889108,-85.72962809307384,-73.10799035639519
2583,7013,2583.0,19339.0,2583.0,29636.0,283.99677694462406,-88.42739232423315,-78.00194269357723
2593,7002,2593.0,19357.0,2593.0,29636.0,278.58551332230854,-91.01379110057658,-82.73622233957838
2593,6999,2593.0,19365.0,2593.0,29646.0,273.1893386521497,-93.48737943611764,-87.30815096752201
2593,6982,2593.0,19370.0,2593.0,29602.0,267.8114584135365,-95.84667627096559,-91.71484590494168
2593,6979,2593.0,19351.0,2593.0,29601.0,262.4548907500257,-98.08989228796528,-95.95326105118346
2593,6966,2593.0,19326.0,2593.0,29595.0,257.1223633847256,-100.21487995386343,-100.02049411399815
2593,6948,2593.0,19319.0,2593.0,29573.0,251.81619178577367,-102.21943536139074,-103.91406682325271
2604,6973,2604.0,19262.0,2604.0,29567.0,246.53816682572142,-104.10183253914784,-107.6321296435932
2604,6955,2604.0,19338.0,2604.0,29589.0,241.28958947182502,-105.86137578005997,-111.17363356207193
2604,6962,2604.0,19323.0,2604.0,29595.0,236.0714686365851,-107.4985369634937,-114.53825854401691
2604,6964,2604.0,19349.0,2604.0,29586.0,230.8847263163608,-109.01450385349116,-117.72607036160042
2604,6939,2604.0,19331.0,2604.0,29585.0,225.73034926922233,-110.41061898349611,-120.73722353384636
2604,6935,2604.0,19342.0,2604.0,29576.0,220.60941839209292,-111.68808955500063,-123.57187632555645
2614,6937,2614.0,19333.0,2614.0,29593.0,215.5230015970569,-112.84789343501117,-126.2301801910944
2614,6931,2614.0,19335.0,2614.0,29578.0,210.47210442735158,-113.89074967461602,-128.71219188147182
2614,6920,2614.0,19314.0,2614.0,29565.0,205.4577330174429,-114.81714744694546,-131.01777904216488
2614,6892,2614.0,19325.0,2614.0,29534.0,200.48087508632585,-115.62746980814595,-133.14674595737017
2614,6910,2614.0,19302.0,2614.0,29562.0,195.54232202925095,-116.32216167141758,-135.09917337303006
2614,6894,2614.0,19322.0,2614.0,29545.0,190.64253039988142,-116.90186507895751,-136.87564456081827
2624,6907,2624.0,19314.0,2624.0,29545.0,185.78167655913444,-117.3674671157817,-138.47723214836617
2624,6895,2624.0,19318.0,2624.0,29532.0,180.95981947768254,-117.72004223108382,-139.90548449531536
2624,6900,2624.0,19321.0,2624.0,29558.0,176.17706442562488,-117.96076381696389,-141.16248241143154
2624,6875,2624.0,19309.0,2624.0,29552.0,171.43366480816374,-118.09085179403141,-142.25076177301702
2624,6882,2624.0,19316.0,2624.0,29552.0,166.73000750033424,-118.11157842786639,-143.1730857828781
2624,6879,2624.0,19319.0,2624.0,29561.0,162.06655857172086,-118.0242979344873,-143.93225500124174
2635,6863,2635.0,19315.0,2635.0,29588.0,157.4438806912794,-117.83041888555275,-144.53092065921845
2635,6874,2635.0,19342.0,2635.0,29573.0,152.86267564986827,-117.53129913331907,-144.9712493907574
2635,6872,2635.0,19343.0,2635.0,29551.0,148.32384388484724,-117.12802476178766,-145.25464369773078
2635,6842,2635.0,19287.0,2635.0,29546.0,143.8285832419096,-116.62120658842093,-145.38183580520888
2635,6821,2635.0,19274.0,2635.0,29512.0,139.37831242891303,-116.01123332885194,-145.35329617368035
2635,6837,2635.0,19286.0,2635.0,29511.0,134.97435031636115,-115.29896925892027,-145.16975022127787
2645,6825,2645.0,19341.0,2645.0,29554.0,130.61769304769382,-114.48615769905041,-144.83257253144905
2645,6832,2645.0,19332.0,2645.0,29525.0,126.30906700427181,-113.57507292992113,-144.34377519881627
2645,6826,2645.0,19328.0,2645.0,29546.0,122.04908557520793,-112.5678717750373,-143.70574002403384
2645,6814,2645.0,19313.0,2645.0,29564.0,117.83836602111978,-111.46630856221296,-142.92100817203215
2645,6804,2645.0,19327.0,2645.0,29531.0,113.67753962587943,-110.27185387331366,-141.99208877060278
2645,6806,2645.0,19344.0,2645.0,29553.0,109.56716118536184,-108.98579811740663,-140.92135112981362
2655,6814,2655.0,19341.0,2655.0,29546.0,105.50767566111091,-107.60910108155224,-139.71107740446593
2655,6810,2655.0,19313.0,2655.0,29542.0,101.49955733062359,-106.14220800403274,-138.36349956103686
2655,6764,2655.0,19308.0,2655.0,29549.0,97.54343928230958,-104.58518426672907,-136.88080438599206
2655,6769,2655.0,19301.0,2655.0,29527.0,93.63993170389762,-102.9381302401811,-135.26519955451238
2655,6773,2655.0,19301.0,2655.0,29545.0,89.78925441435359,-101.20156462265825,-133.51903866520092
2655,6779,2655.0,19308.0,2655.0,29550.0,85.99111871972491,-99.37662853385194,-131.64491005418705
2666,6749,2666.0,19351.0,2666.0,29583.0,82.24486668051065,-97.46504760880401,-129.64550515504723
2666,6763,2666.0,19338.0,2666.0,29580.0,78.5495257898034,-95.46878122651182,-127.52322989726565
2666,6765,2666.0,19328.0,2666.0,29558.0,74.90377098579353,-93.38961381013834,-125.27983428703942
2666,6756,2666.0,19346.0,2666.0,29542.0,71.3060125886937,-91.2290422904239,-122.91642436613796
2666,6760,2666.0,19318.0,2666.0,29556.0,67.75455758527318,-88.9883767049867,-120.43383423228099
2666,6766,2666.0,19356.0,2666.0,29569.0,64.24773705154706,-86.66883127650911,-117.83291488911709
2676,6758,2676.0,19347.0,2676.0,29568.0,60.78406452289977,-84.27150474109098,-115.11448895600671
2676,6756,2676.0,19321.0,2676.0,29559.0,57.36239905291302,-81.79729238601149,-112.2791958427973
2676,6736,2676.0,19318.0,2676.0,29523.0,53.981991582192336,-79.24702117644745,-109.32757746715404
2676,6721,2676.0,19309.0,2676.0,29525.0,50.6423579876527,-76.62186662773115,-106.26052186810693
2676,6734,2676.0,19328.0,2676.0,29551.0,47.34304966614383,-73.9237174790137,-103.07977530254433
2676,6723,2676.0,19338.0,2676.0,29573.0,44.083528087520506,-71.15525539886227,-99.78804519456605
2686,6730,2686.0,19364.0,2686.0,29580.0,40.86322427979621,-68.31973954223,-96.38862507458964
2686,6726,2686.0,19371.0,2686.0,29573.0,37.68166588602014,-65.42059706103848,-92.88495021558228
2686,6719,2686.0,19341.0,2686.0,29581.0,34.538588835372366,-62.4610663616245,-89.2804056368301
2686,6695,2686.0,19348.0,2686.0,29582.0,31.43395269177546,-59.44418644122298,-85.57832970434632
2686,6721,2686.0,19387.0,2686.0,29574.0,28.367829330722316,-56.37299458735053,-81.78205739403387
2686,6703,2686.0,19369.0,2686.0,29600.0,25.34035314979377,-53.25047093455743,-77.89496263573616
2697,6679,2697.0,19383.0,2697.0,29585.0,22.351765188546608,-50.07926823175946,-73.92044701410634
2697,6689,2697.0,19359.0,2697.0,29574.0,19.402312353649336,-46.86161932688634,-69.8619293581973
2697,6681,2697.0,19334.0,2697.0,29584.0,16.492056381036036,-43.599563944041705,-65.72300407809297
2697,6677,2697.0,19362.0,2697.0,29588.0,13.620819182876858,-40.29539551609514,-61.50765885624955
2697,6667,2697.0,19347.0,2697.0,29620.0,10.788191722883141,-36.95202242061437,-57.22028242204996
2697,6681,2697.0,19380.0,2697.0,29621.0,7.993513333156329,-33.573022955676436,-52.86540561753367
2707,6694,2707.0,19394.0,2707.0,29609.0,5.2359651670265634,-30.162446577215434,-48.44738810618435
2707,6669,2707.0,19378.0,2707.0,29609.0,2.5148283982858857,-26.724488778829368,-43.970350092078434
2707,6661,2707.0,19382.0,2707.0,29610.0,-0.17036196544597715,-23.263298522637413,-39.43835902883839
2707,6659,2707.0,19409.0,2707.0,29629.0,-2.819935603881902,-19.782999036951622,-34.85559595918832
2707,6657,2707.0,19439.0,2707.0,29633.0,-5.4342611885830365,-16.287555556025325,-30.226325289386864
2707,6667,2707.0,19416.0,2707.0,29643.0,-8.013763970555374,-12.780346188060278,-25.554724528347236
2718,6657,2718.0,19383.0,2718.0,29625.0,-10.558804854081131,-9.263919455347903,-20.844758013920824
2718,6638,2718.0,19389.0,2718.0,29627.0,-13.069582843326089,-5.740326952568225,-16.100250319219498
2718,6623,2718.0,19402.0,2718.0,29612.0,-15.546249058056105,-2.2116708164011243,-11.325155162936483
2718,6629,2718.0,19385.0,2718.0,29632.0,-17.989193861898627,1.3196298757296887,-6.52386387118932
2718,6637,2718.0,19402.0,2718.0,29657.0,-20.39922580089228,4.85077897281905,-1.701322556575576
2718,6652,2718.0,19465.0,2718.0,29662.0,-22.777452110748015,8.378682680143001,3.137177716799499
2728,6644,2728.0,19436.0,2728.0,29680.0,-25.124947789870475,11.900399342826958,7.986384136830026
2728,6615,2728.0,19408.0,2728.0,29668.0,-27.44251069408284,15.413619693554281,12.841377821879206
2728,6626,2728.0,19421.0,2728.0,29668.0,-29.730725231664962,18.91656244577191,17.697656669037798
2728,6642,2728.0,19442.0,2728.0,29699.0,-31.990120121298844,22.40757874542558,22.55107838253744
2728,6621,2728.0,19428.0,2728.0,29689.0,-34.2210923536058,25.88507063230555,27.397900601365052
2728,6636,2728.0,19431.0,2728.0,29677.0,-36.423716740903444,29.347592024602243,32.23489802168794
2738,6601,2738.0,19417.0,2738.0,29684.0,-38.597694010399096,32.79377610469473,37.05927938505987
2738,6596,2738.0,19408.0,2738.0,29664.0,-40.74249612867811,36.22207498788106,41.8684105084551
2738,6606,2738.0,19426.0,2738.0,29671.0,-42.85762994244266,39.63045540506607,46.659505346289706
2738,6601,2738.0,19429.0,2738.0,29678.0,-44.94277832968436,43.01624068227892,51.42935802721543
2738,6601,2738.0,19455.0,2738.0,29678.0,-46.99772983408809,46.3762124124236,56.17420904962336
2738,6589,2738.0,19454.0,2738.0,29707.0,-49.02229309531862,49.70689095573434,60.88977812020444
2749,6597,2749.0,19449.0,2749.0,29690.0,-51.01629929434887,53.004802616567375,65.57140911588641
2749,6584,2749.0,19446.0,2749.0,29698.0,-52.97962179240352,56.266547423677586,70.214189692614
2749,6586,2749.0,19477.0,2749.0,29712.0,-54.91218059145439,59.488732383620444,74.81294855116458
2749,6595,2749.0,19483.0,2749.0,29741.0,-56.81392959861989,62.66806780233213,79.3623227699862
2749,6572,2749.0,19473.0,2749.0,29706.0,-58.684800391166675,65.80165106745372,83.85700060307553
2749,6579,2749.0,19458.0,2749.0,29718.0,-60.5246814109679,68.8870878920972,88.29182421398349
2759,6563,2759.0,19428.0,2759.0,29727.0,-62.3335034226036,71.92221636226454,92.66162502200717
2759,6560,2759.0,19448.0,2759.0,29701.0,-64.11136648087046,74.90457148124125,96.9610488396874
2759,6555,2759.0,19427.0,2759.0,29737.0,-65.85866793582187,77.8309181293282,101.18443977672926
2759,6557,2759.0,19486.0,2759.0,29733.0,-67.57620111650954,80.69709132277026,105.3257932032448
2759,6588,2759.0,19495.0,2759.0,29741.0,-69.26510528246627,83.49826125369164,109.37887509289186
2759,6557,2759.0,19486.0,2759.0,29739.0,-70.92661218009573,86.22949979530993,113.3373662783961
2769,6557,2769.0,19476.0,2769.0,29741.0,-72.56182797015583,88.88615888305296,117.19488408758009
2769,6553,2769.0,19485.0,2769.0,29757.0,-74.17177714677325,91.4638201039446,120.9449625113298
2769,6556,2769.0,19505.0,2769.0,29760.0,-75.75753235126678,93.9581637220918,124.58111455549957
2769,6544,2769.0,19515.0,2769.0,29740.0,-77.32024184309574,96.36509524361878,128.09692841518876
2769,6562,2769.0,19470.0,2769.0,29766.0,-78.86110316363016,98.68096776206784,131.4860378064099
2769,6538,2769.0,19473.0,2769.0,29759.0,-80.3813133135198,100.90246511671484,134.7420455866453
2780,6545,2780.0,19510.0,2780.0,29757.0,-81.8820399291638,103.02621883665188,137.8585405062429
2780,6539,2780.0,19504.0,2780.0,29758.0,-83.36446603823833,105.04873371551412,140.82908992167836
2780,6542,2780.0,19458.0,2780.0,29768.0,-84.82982538591523,106.96657760524674,143.64716617970117
2780,6543,2780.0,19517.0,2780.0,29785.0,-86.2793615126323,108.77631342306397,146.30617484814925
2780,6528,2780.0,19515.0,2780.0,29818.0,-87.71426923350924,110.47439609092163,148.79972059147394
2780,6523,2780.0,19497.0,2780.0,29783.0,-89.13572371463107,112.05741092858676,151.12203399847175
2790,6528,2790.0,19494.0,2790.0,29769.0,-90.54500115638956,113.52224482293846,153.26816493916127
2790,6503,2790.0,19467.0,2790.0,29807.0,-91.94359188439228,114.86585839337647,155.2337746661446
2790,6532,2790.0,19540.0,2790.0,29792.0,-93.33327747487658,116.08499923957808,157.01498417995637
2790,6529,2790.0,19515.0,2790.0,29803.0,-94.71609901375939,117.17632789697157,158.60851577356175
2790,6517,2790.0,19527.0,2790.0,29780.0,-96.09416988891269,118.13687970217907,160.0118020621316
2790,6502,2790.0,19492.0,2790.0,29773.0,-97.46957994633914,118.96430614998262,161.22285011238856
2800,6495,2800.0,19485.0,2800.0,29764.0,-98.84456700750462,119.65665501288026,162.23992753807835
2800,6493,2800.0,19497.0,2800.0,29775.0,-100.22178771191676,120.21195036001296,163.06125073971668
2800,6498,2800.0,19510.0,2800.0,29790.0,-101.60447916861,120.62796716709221,163.68488581369422
2800,6534,2800.0,19553.0,2800.0,29786.0,-102.99638181277248,120.9024414052108,164.10890873428642
2800,6506,2800.0,19500.0,2800.0,29770.0,-104.40139908144954,121.0335558040743,164.33160023630975
2800,6511,2800.0,19511.0,2800.0,29775.0,-105.82326497084728,121.02019340505726,164.35143463586076
2811,6504,2811.0,19505.0,2811.0,29795.0,-107.26548041387414,120.86175861164133,164.16698406596478
2811,6509,2811.0,19537.0,2811.0,29810.0,-108.73137670067396,120.55800289578531,163.7770599458533
2811,6515,2811.0,19520.0,2811.0,29785.0,-110.2240872697495,120.1091809979064,163.18106744215962
2811,6512,2811.0,19528.0,2811.0,29792.0,-111.74641359817136,119.5163190655573,162.37921071078642
2811,6484,2811.0,19482.0,2811.0,29768.0,-113.3007287764527,118.7812587829267,161.37240525127703
2811,6479,2811.0,19473.0,2811.0,29771.0,-114.88911295628719,117.90632770257795,160.16205521616246
2821,6491,2821.0,19471.0,2821.0,29771.0,-116.51364166959482,116.89377536012718,158.74985147324114
2821,6481,2821.0,19503.0,2821.0,29750.0,-118.17652136949039,115.74540210642867,157.13765108849253
2821,6489,2821.0,19512.0,2821.0,29779.0,-119.88002355677168,114.46269628762414,155.3274138912226
2821,6485,2821.0,19501.0,2821.0,29776.0,-121.62637931965875,113.04729353121621,153.32126081958233
2821,6480,2821.0,19487.0,2821.0,29755.0,-123.4176969515934,111.50128251163709,151.12167421793268
2821,6483,2821.0,19481.0,2821.0,29740.0,-125.25591472026244,109.8271466717942,148.7315445521609
2831,6473,2831.0,19511.0,2831.0,29760.0,-127.14278669844475,108.02760289089247,146.15396632290916
2831,6475,2831.0,19506.0,2831.0,29765.0,-129.07988338268467,106.10569723939625,143.39215544654465
2831,6479,2831.0,19494.0,2831.0,29744.0,-131.06858478405974,104.06510309097584,140.44963573414003
2831,6478,2831.0,19488.0,2831.0,29761.0,-133.11000927841212,101.91026126822379,137.3304110415245
2831,6453,2831.0,19456.0,2831.0,29733.0,-135.20493483804682,99.64622448842712,134.03899345535885
2831,6442,2831.0,19439.0,2831.0,29706.0,-137.35390486353873,97.27827072602686,130.58029547857177
2842,6434,2842.0,19453.0,2842.0,29702.0,-139.55754085131747,94.81142294556491,126.95929095553909
2842,6451,2842.0,19462.0,2842.0,29716.0,-141.81681296062868,92.25019681031057,123.1806287391438
2842,6447,2842.0,19464.0,2842.0,29718.0,-144.13304787350978,89.59874215085223,119.24856928126684
2842,6459,2842.0,19467.0,2842.0,29709.0,-146.5077164157745,86.86115341358911,115.16721364044187
2842,6447,2842.0,19446.0,2842.0,29702.0,-148.94218505827507,84.04167979643897,110.94069894745286
2842,6446,2842.0,19449.0,2842.0,29680.0,-151.43756279729655,81.14473779739984,106.57319020050035
2852,6451,2852.0,19460.0,2852.0,29707.0,-153.9946494451974,78.17483936492013,102.06876539259214
2852,6453,2852.0,19437.0,2852.0,29689.0,-156.61386792318052,75.13661764080614,97.43142251529196
2852,6437,2852.0,19434.0,2852.0,29677.0,-159.29514208275765,72.03486312932161,92.66521640017653
2852,6418,2852.0,19420.0,2852.0,29673.0,-162.03789003703048,68.87440217372212,87.77428444424757
2852,6408,2852.0,19397.0,2852.0,29661.0,-164.84125240455745,65.65985401317718,82.76273275449533
2852,6409,2852.0,19394.0,2852.0,29656.0,-167.70441179975097,62.395316859508455,77.63453030840077
2862,6409,2862.0,19394.0,2862.0,29655.0,-170.62677491568752,59.08406582053407,72.39345147192091
2862,6419,2862.0,19415.0,2862.0,29655.0,-173.6079403238527,55.728466935458705,67.04309305412869
2862,6403,2862.0,19441.0,2862.0,29650.0,-176.64754105514993,52.33025292363152,61.586981964291624
2862,6416,2862.0,19421.0,2862.0,29643.0,-179.74510161497847,48.89106747457351,56.02870049853499
2862,6403,2862.0,19398.0,2862.0,29634.0,-182.89994789859753,45.41286922554517,50.37195021402505
2862,6382,2862.0,19426.0,2862.0,29631.0,-186.1111801438135,41.89794037963208,44.620552248605605
2873,6398,2873.0,19424.0,2873.0,29647.0,-189.37776763232955,38.34885000069501,38.77848717352336
2873,6388,2873.0,19402.0,2873.0,29630.0,-192.69864374678366,34.76863701636646,32.85007746238887
2873,6383,2873.0,19368.0,2873.0,29597.0,-196.07266785256826,31.16085059932722,26.840148523099344
2873,6379,2873.0,19354.0,2873.0,29580.0,-199.4985754633937,27.52915236638411,20.753860546016284
2873,6360,2873.0,19339.0,2873.0,29597.0,-202.97502398624152,23.876710988392745,14.596318269638317
2873,6345,2873.0,19375.0,2873.0,29553.0,-206.50075027715303,20.20579788956634,8.372332886782687
2883,6360,2883.0,19386.0,2883.0,29593.0,-210.07479755260312,16.517871305304652,2.0863723551836983
2883,6375,2883.0,19383.0,2883.0,29583.0,-213.69656885089626,12.814081840658702,-4.2573405180628185
2883,6358,2883.0,19370.0,2883.0,29561.0,-217.36557755825987,9.09575223494906,-10.654562128709983
2883,6350,2883.0,19356.0,2883.0,29563.0,-221.08118643785917,5.364505470549005,-17.100859511787235
2883,6350,2883.0,19321.0,2883.0,29562.0,-224.84258409877117,1.6220573697580534,-23.591632394159774
2883,6331,2883.0,19390.0,2883.0,29516.0,-228.64888357642008,-2.1300713834015994,-30.122156016716247
2893,6358,2893.0,19391.0,2893.0,29532.0,-232.49917508328815,-5.890421969789543,-36.68772784761211
2893,6337,2893.0,19356.0,2893.0,29502.0,-236.3924499874895,-9.656996416971324,-43.283926433389894
2893,6305,2893.0,19319.0,2893.0,29516.0,-240.32751342618064,-13.426978138331577,-49.90677004864986
2893,6315,2893.0,19319.0,2893.0,29503.0,-244.30314867083604,-17.197170745232015,-56.552720646149
2893,6308,2893.0,19293.0,2893.0,29498.0,-248.31840376489748,-20.964643220081044,-63.218602043606154
2893,6307,2893.0,19312.0,2893.0,29484.0,-252.37267870119763,-24.727134305665544,-69.9015356732013
2904,6316,2904.0,19332.0,2904.0,29496.0,-256.4656313833981,-28.483110967273333,-76.59892840216261
2904,6306,2904.0,19326.0,2904.0,29474.0,-260.5970197686169,-32.23146076351418,-83.30841740492104
2904,6306,2904.0,19295.0,2904.0,29470.0,-264.76654091743467,-35.97112173670949,-90.02779443407528
2904,6290,2904.0,19292.0,2904.0,29452.0,-268.97375802980247,-39.70107484327774,-96.75503301488962
2904,6280,2904.0,19299.0,2904.0,29475.0,-273.21815595332527,-43.42060182156371,-103.48834983002024
2904,6303,2904.0,19313.0,2904.0,29468.0,-277.49923208823304,-47.12936331189435,-110.2260878715256
2914,6286,2914.0,19260.0,2914.0,29444.0,-281.81643652491397,-50.827258801244525,-116.96645582411941
2914,6282,2914.0,19315.0,2914.0,29438.0,-286.16899178819824,-54.514388151580135,-123.70742931801539
2914,6253,2914.0,19305.0,2914.0,29423.0,-290.55586338672924,-58.19100746014078,-130.4468910131862
2914,6262,2914.0,19246.0,2914.0,29408.0,-294.9759540477324,-61.85732747219657,-137.182823398756
2914,6237,2914.0,19272.0,2914.0,29371.0,-299.42833751188294,-65.51358761435009,-143.91354425593067
2914,6244,2914.0,19274.0,2914.0,29413.0,-303.9124165702435,-69.16039349889692,-150.63799698939204
2924,6259,2924.0,19289.0,2924.0,29405.0,-308.4279608505442,-72.79871887057362,-157.35578827545822
2924,6247,2924.0,19269.0,2924.0,29401.0,-312.9749434246902,-76.42957602402353,-164.06684152110302
2924,6227,2924.0,19242.0,2924.0,29378.0,-317.55332397923115,-80.05384845023039,-170.77106887050576
2924,6223,2924.0,19261.0,2924.0,29384.0,-322.1630618728899,-83.67245567352077,-177.4683349681041
2924,6250,2924.0,19300.0,2924.0,29398.0,-326.80423563759297,-87.2864475315942,-184.1584696385372
2924,6225,2924.0,19278.0,2924.0,29342.0,-331.4769410836772,-90.89662919842019,-190.84115140294392
2935,6217,2935.0,19259.0,2935.0,29348.0,-336.181085384405,-94.50307309452973,-197.51593908773145
2935,6203,2935.0,19224.0,2935.0,29352.0,-340.91640295741075,-98.10512477818767,-204.18253248503498
2935,6212,2935.0,19218.0,2935.0,29352.0,-345.6826243411536,-101.70189674454735,-210.84085531182234
2935,6188,2935.0,19229.0,2935.0,29325.0,-350.4795653474728,-105.29278671859532,-217.4908896476855
2935,6205,2935.0,19240.0,2935.0,29319.0,-355.3071344750057,-108.87762988818758,-224.13262612423665
2935,6192,2935.0,19244.0,2935.0,29337.0,-360.16529501710244,-112.45645676291014,-230.7661602243013
2945,6187,2945.0,19230.0,2945.0,29303.0,-365.05397579779793,-116.02914808209621,-237.39167160941457
2945,6177,2945.0,19220.0,2945.0,29316.0,-369.9730256536558,-119.59527819035677,-244.00932290072257
2945,6173,2945.0,19212.0,2945.0,29310.0,-374.92225821075556,-123.15419748034026,-250.61921147472623
2945,6160,2945.0,19193.0,2945.0,29298.0,-379.90152220355674,-126.70523249359778,-257.2212892749562
2945,6180,2945.0,19222.0,2945.0,29313.0,-384.91072853567647,-130.24785799123242,-263.8152324256516
2945,6169,2945.0,19209.0,2945.0,29286.0,-389.9497430213955,-133.78167507043614,-270.4003092210347
2956,6146,2956.0,19201.0,2956.0,29266.0,-395.0182136194486,-137.30622165295193,-276.9753335233061
2956,6133,2956.0,19182.0,2956.0,29263.0,-400.1156013197546,-140.82090879900133,-283.53883108808907
2956,6130,2956.0,19170.0,2956.0,29239.0,-405.24143897939797,-144.3252144040527,-290.0893115980078
2956,6107,2956.0,19169.0,2956.0,29237.0,-410.39558741989515,-147.81897644607875,-296.6254885998781
2956,6124,2956.0,19179.0,2956.0,29260.0,-415.5783936835896,-151.30256925972807,-303.14637453804806
2956,6126,2956.0,19193.0,2956.0,29237.0,-420.79069681203856,-154.77681511010832,-309.6511355738936
2966,6127,2966.0,19192.0,2966.0,29229.0,-426.03361233004324,-158.24265736421302,-316.1388499098768
2966,6117,2966.0,19167.0,2966.0,29226.0,-431.3082451665388,-161.70084415463015,-322.60844689740225
2966,6104,2966.0,19172.0,2966.0,29217.0,-436.61554954168696,-165.15187344998637,-329.05875815444443
2966,6125,2966.0,19204.0,2966.0,29225.0,-441.95631555042695,-168.59604570780792,-335.48849454712257
2966,6125,2966.0,19172.0,2966.0,29203.0,-447.3310496867548,-172.03328815863725,-341.89614907432883
2966,6071,2966.0,19201.0,2966.0,29188.0,-452.7397674991701,-175.46285190019503,-348.279961287952
2976,6073,2976.0,19123.0,2976.0,29180.0,-458.18209501085374,-178.88322988638666,-354.6380505551563
2976,6066,2976.0,19153.0,2976.0,29172.0,-463.6576910453936,-182.29244559124092,-360.9686170334435
2976,6086,2976.0,19109.0,2976.0,29168.0,-469.1664865619207,-185.68855251985096,-367.2700545919102
2976,6056,2976.0,19142.0,2976.0,29143.0,-474.70857101642747,-189.07000868803064,-373.54100406782374
2976,6074,2976.0,19169.0,2976.0,29174.0,-480.2840171672946,-192.43568125995336,-379.7804015506239
2976,6057,2976.0,19190.0,2976.0,29167.0,-485.8927940796638,-195.78435794827544,-385.9873740070605
2987,6052,2987.0,19099.0,2987.0,29156.0,-491.5347055934973,-199.11413353577714,-392.1609337155961
2987,6037,2987.0,19126.0,2987.0,29126.0,-497.20938866091814,-202.42243045691563,-398.29979533666244
2987,6057,2987.0,19107.0,2987.0,29135.0,-502.91636144121765,-205.7065786240602,-404.4025119537071
2987,6047,2987.0,19152.0,2987.0,29160.0,-508.65494307919573,-208.9641248545791,-410.46760430909063
2987,6035,2987.0,19098.0,2987.0,29155.0,-514.4240512553487,-212.19265544440643,-416.49331091886637
2987,6032,2987.0,19070.0,2987.0,29091.0,-520.2220981173996,-215.38972491587722,-422.47723029544727
2997,6013,2997.0,19085.0,2997.0,29107.0,-526.0470412940624,-218.5532654046323,-428.41643614457377
2997,6005,2997.0,19068.0,2997.0,29058.0,-531.8965090939339,-221.6820699942873,-434.30800490203194
2997,6001,2997.0,19088.0,2997.0,29072.0,-537.7679534088811,-224.77592912794253,-440.1495104823968
2997,5998,2997.0,19066.0,2997.0,29083.0,-543.6587454010792,-227.83554155613956,-445.93927788559785
2997,5991,2997.0,19109.0,2997.0,29073.0,-549.5661654861722,-230.86235767854373,-451.6763046698286
2997,5961,2997.0,19146.0,2997.0,29139.0,-555.4874050729526,-233.858185268741,-457.3598584417037
3006,5958,3006.0,19094.0,3006.0,29077.0,-561.4197319256778,-236.82450087802147,-462.98887182545286
3006,5971,3006.0,19070.0,3006.0,29068.0,-567.3607140049749,-239.76205779258405,-468.5615214726242
3006,5969,3006.0,19123.0,3006.0,29066.0,-573.308210459197,-242.67111024808895,-474.0753473259239
3006,5973,3006.0,19111.0,3006.0,29070.0,-579.2601055608876,-245.55153950660272,-479.5275438809426
3006,5948,3006.0,19083.0,3006.0,29067.0,-585.2140507673412,-248.40255799336825,-484.9149641404844
3006,5940,3006.0,19059.0,3006.0,29050.0,-591.1674234195493,-251.2226451585644,-490.2339739646732
3017,5919,3017.0,19049.0,3017.0,29015.0,-597.1175082274976,-254.00998829077687,-495.48048071401337
3017,5934,3017.0,19060.0,3017.0,29019.0,-603.0617275854368,-256.76298108607386,-500.65024558308954
3017,5942,3017.0,19045.0,3017.0,29008.0,-608.9976739096048,-259.4804359940856,-505.73925916915044
3017,5934,3017.0,19085.0,3017.0,29025.0,-614.9228651569636,-262.16152050828794,-510.7438849463551
3017,5922,3017.0,19069.0,3017.0,29025.0,-620.8344583564779,-264.80548017513036,-515.6607161337083
3017,5919,3017.0,19065.0,3017.0,29013.0,-626.729155987516,-267.4112920364738,-520.4862998784365
3027,5910,3027.0,19031.0,3027.0,28997.0,-632.6032445878413,-269.97757030448383,-525.2169798091379
3027,5907,3027.0,19056.0,3027.0,28992.0,-638.4526260616997,-272.50279310971746,-529.8489784956141
3027,5923,3027.0,19077.0,3027.0,29025.0,-644.2727709780766,-274.9854415756089,-534.3784973252835
3027,5899,3027.0,19054.0,3027.0,28996.0,-650.0585575657556,-277.42376390080165,-538.8015607171319
3027,5892,3027.0,19038.0,3027.0,29007.0,-655.8041341661401,-279.8155146030608,-543.1137424108767
3027,5844,3027.0,19054.0,3027.0,28970.0,-661.5030481560892,-282.1580211102321,-547.3100916860055
3037,5859,3037.0,19011.0,3037.0,28971.0,-667.148659741292,-284.44839158927874,-551.3853142954365
3037,5866,3037.0,19029.0,3037.0,28950.0,-672.7345048873923,-286.6837224374629,-555.3340787542076
3037,5882,3037.0,19037.0,3037.0,28971.0,-678.2542392837049,-288.86127719416424,-559.1512660165795
3037,5877,3037.0,19066.0,3037.0,28990.0,-683.7012242605181,-290.9783779305378,-562.8319441501956
3037,5859,3037.0,19045.0,3037.0,28966.0,-689.0681393753765,-293.03197682815505,-566.3710418654034
3037,5843,3037.0,19024.0,3037.0,28962.0,-694.3468971128575,-295.01833706541515,-569.7630630705548
3048,5845,3048.0,19029.0,3048.0,28953.0,-699.5288174380473,-296.9331206000334,-573.002107727352
3048,5861,3048.0,19064.0,3048.0,28966.0,-704.6047548594145,-298.77156929315066,-576.0820028844739
3048,5843,3048.0,19029.0,3048.0,28973.0,-709.5649759092762,-300.5283727482463,-578.9962587362925
3048,5832,3048.0,19056.0,3048.0,28966.0,-714.3989816149374,-302.1974051543682,-581.7378397885955
3048,5821,3048.0,18997.0,3048.0,28942.0,-719.0955403831356,-303.7716915290109,-584.2989941894873
3048,5812,3048.0,18992.0,3048.0,28938.0,-723.6428830677568,-305.24371688691343,-586.6713600158037
3058,5800,3058.0,18986.0,3058.0,28905.0,-728.028904755525,-306.6059874889302,-588.8463062664389
3058,5807,3058.0,19007.0,3058.0,28946.0,-732.2413190068587,-307.8514639488689,-590.815288243868
3058,5810,3058.0,19027.0,3058.0,28937.0,-736.267692087325,-308.9735304991474,-592.569936302733
3058,5805,3058.0,19011.0,3058.0,28937.0,-740.095321159561,-309.9656200421071,-594.1018337188636
3058,5797,3058.0,18983.0,3058.0,28930.0,-743.711090403908,-310.8209545877641,-595.4023097693262
3058,5790,3058.0,18988.0,3058.0,28919.0,-747.1014471398081,-311.5327109213133,-596.4624506694099
3068,5779,3068.0,19000.0,3068.0,28920.0,-750.2524943247931,-312.09434863563024,-597.2732396038454
3068,5783,3068.0,19005.0,3068.0,28924.0,-753.1501209430832,-312.49966969541754,-597.8256885263454
3068,5766,3068.0,19007.0,3068.0,28922.0,-755.780107995965,-312.7426178383919,-598.1108669028752
3068,5780,3068.0,18988.0,3068.0,28907.0,-758.1281984059367,-312.81711145434645,-598.1198883999086
3068,5747,3068.0,18951.0,3068.0,28903.0,-760.1801616484839,-312.71716715083267,-597.8440136554229
3068,5757,3068.0,18968.0,3068.0,28884.0,-761.9219244006538,-312.4373587218204,-597.2749038210595
3079,5753,3079.0,18984.0,3079.0,28914.0,-763.3397534980834,-311.9732413675659,-596.404889565857
3079,5765,3079.0,19000.0,3079.0,28910.0,-764.4203257084603,-311.3213224276859,-595.2270412939738
3079,5775,3079.0,18983.0,3079.0,28912.0,-765.1505997682547,-310.4787163834728,-593.7350165385748
3079,5775,3079.0,18991.0,3079.0,28917.0,-765.5175680157417,-309.4429213676077,-591.9229093892375
3079,5748,3079.0,18986.0,3079.0,28909.0,-765.5080782735082,-308.21182858185676,-589.7852154873372
3079,5748,3079.0,18987.0,3079.0,28893.0,-765.1089368683774,-306.78379471205636,-587.3169127805725
3089,5758,3089.0,19014.0,3089.0,28916.0,-764.3071980975947,-305.15764181914153,-584.5136602365587
3089,5752,3089.0,19012.0,3089.0,28906.0,-763.0903289121491,-303.3324936923385,-581.3719548015455
3089,5750,3089.0,18998.0,3089.0,28922.0,-761.4462229242256,-301.30753977168797,-577.8891313903889
3089,5741,3089.0,19010.0,3089.0,28921.0,-759.3632685369797,-299.0819796344788,-574.063299110841
3089,5742,3089.0,18980.0,3089.0,28900.0,-756.830528249784,-296.655176404357,-569.8933392781787
3089,5739,3089.0,18993.0,3089.0,28923.0,-753.8379445149787,-294.02690982595584,-565.3790502761276
3099,5748,3099.0,19005.0,3099.0,28954.0,-750.3764955946974,-291.1976136701947,-560.5212591874742
3099,5767,3099.0,19011.0,3099.0,28954.0,-746.4382309096982,-288.1684052211771,-555.3216047374788
3099,5758,3099.0,19047.0,3099.0,28955.0,-742.0161639094249,-284.9408582608739,-549.7821675880297
3099,5772,3099.0,19000.0,3099.0,28961.0,-737.1041502140902,-281.5167016519058,-543.9053162485372
3099,5770,3099.0,19005.0,3099.0,28943.0,-731.6968625590099,-277.89777738283715,-537.6937948457221
3099,5775,3099.0,19003.0,3099.0,28966.0,-725.7898242884161,-274.0863753950103,-531.1509272036824
3110,5787,3110.0,19051.0,3110.0,28997.0,-719.3794530000745,-270.0855100291216,-524.2807327468247
3110,5787,3110.0,19014.0,3110.0,28981.0,-712.4630861513017,-265.89880207757443,-517.0877699581638
3110,5767,3110.0,19037.0,3110.0,29001.0,-705.0390514749088,-261.5302779967425,-509.57691772934413
3110,5795,3110.0,19030.0,3110.0,28985.0,-697.1068935919559,-256.9843917437391,-501.7533717045803
3110,5790,3110.0,19043.0,3110.0,28954.0,-688.6676212817503,-252.26611328120413,-493.62289998077387
3110,5790,3110.0,19022.0,3110.0,28987.0,-679.7238317349395,-247.38098039503305,-485.1923418007343
3120,5813,3120.0,19013.0,3120.0,29013.0,-670.2798169856057,-242.33528567744307,-476.4700131086212
3120,5840,3120.0,19087.0,3120.0,29046.0,-660.3416018419157,-237.13631552054784,-467.4655816183779
3120,5841,3120.0,19068.0,3120.0,29039.0,-649.9167654433516,-231.79219974489266,-458.189573022937
3120,5851,3120.0,19067.0,3120.0,29041.0,-639.0142263597904,-226.31144650579424,-448.65303420071945
3120,5859,3120.0,19079.0,3120.0,29053.0,-627.6442115720616,-220.7027430239941,-438.8675554529782
3120,5911,3120.0,19146.0,3120.0,29118.0,-615.8182613131457,-214.9749105639388,-428.8453134542313
3130,5924,3130.0,19093.0,3130.0,29070.0,-603.5489759996351,-209.13654590306572,-418.59880872205
3130,5910,3130.0,19114.0,3130.0,29088.0,-590.8496121379096,-203.1956788750777,-408.14064933924675
3130,5900,3130.0,19091.0,3130.0,29097.0,-577.7340246322976,-197.15990914186975,-397.4837488397481
3130,5926,3130.0,19083.0,3130.0,29107.0,-564.2170724394219,-191.0368337266678,-386.6416079815705
3130,5951,3130.0,19102.0,3130.0,29117.0,-550.314997374985,-184.83447971249774,-375.6283986880007
3130,5949,3130.0,19122.0,3130.0,29123.0,-536.0454639330763,-178.56154352936016,-364.45898935252904
3141,5991,3141.0,19129.0,3141.0,29170.0,-521.4274538645545,-172.227290858916,-353.1489353310971
3141,6008,3141.0,19180.0,3141.0,29161.0,-506.4811302929035,-165.84121401365894,-341.71430259820755
3141,6034,3141.0,19122.0,3141.0,29192.0,-491.22758373344703,-159.41265088943743,-330.1714029888788
3141,6040,3141.0,19137.0,3141.0,29193.0,-475.68855852611887,-152.95070921884513,-318.53662668969645
3141,6071,3141.0,19121.0,3141.0,29206.0,-459.8863047074551,-146.46465771991245,-306.82638157040236
3141,6095,3141.0,19199.0,3141.0,29226.0,-443.8434716457312,-139.96428600692406,-295.0570781135937
3151,6109,3151.0,19199.0,3151.0,29241.0,-427.5829273668933,-133.45966834350168,-283.2450865565313
3151,6122,3151.0,19179.0,3151.0,29249.0,-411.1275918811575,-126.96056162609639,-271.4066292861125
3151,6124,3151.0,19176.0,3151.0,29250.0,-394.50043554766694,-120.47617997969797,-259.55772533179515
3151,6145,3151.0,19190.0,3151.0,29252.0,-377.7246417324467,-114.01548124085669,-247.71430178152573
3151,6155,3151.0,19145.0,3151.0,29275.0,-360.82380551729136,-107.58754814122968,-235.89240683997355
3151,6205,3151.0,19244.0,3151.0,29324.0,-343.82200580674424,-101.20185140577641,-224.10825890305603
3162,6222,3162.0,19265.0,3162.0,29327.0,-326.7436266194024,-94.8680484131612,-212.37792875637098
3162,6241,3162.0,19190.0,3162.0,29363.0,-309.6130097558986,-88.5953009243738,-200.716838532623
3162,6255,3162.0,19248.0,3162.0,29334.0,-292.45420316202046,-82.39199998296755,-189.13942903865888
3162,6284,3162.0,19246.0,3162.0,29362.0,-275.29088312454405,-76.26603935291071,-177.6591548287512
3162,6304,3162.0,19267.0,3162.0,29376.0,-258.1462855996349,-70.22484594916757,-166.28865882463404
3162,6298,3162.0,19283.0,3162.0,29379.0,-241.04311757366344,-64.27507796108955,-155.0398467709364
3172,6343,3172.0,19271.0,3172.0,29396.0,-224.00357317231033,-58.422354698673615,-143.92385908997176
3172,6344,3172.0,19238.0,3172.0,29383.0,-207.04938295001006,-52.67124865185596,-132.95111783494093
