c_ts,c_val,d_ts,d_val,e_ts,e_val,c_val_filtered,d_val_filtered,e_val_filtered
172908.0,1992.0,172908.0,71414.0,172908.0,89175.0,104.01135253931939,71.85928608767267,69.30192849848652
172908.0,1990.0,172908.0,71353.0,172908.0,89164.0,101.51062899932458,65.18384879206954,65.817087929891
172918.0,1964.0,172918.0,71300.0,172918.0,89121.0,98.9717259741009,58.55776308643506,62.338339345479625
172918.0,1947.0,172918.0,71216.0,172918.0,89105.0,96.40103558367966,52.0085850326231,58.875900060927684
172918.0,1961.0,172918.0,71266.0,172918.0,89116.0,93.80433400383899,45.5600083991756,55.43850067456132
172918.0,1971.0,172918.0,71370.0,172918.0,89176.0,91.18658611036842,39.231135008524745,52.03315063834441
172918.0,1992.0,172918.0,71429.0,172918.0,89175.0,88.55214146483036,33.03748023146025,48.665657824352614
172918.0,1964.0,172918.0,71313.0,172918.0,89164.0,85.90514136715909,26.992933867633,45.341501157888565
172929.0,1947.0,172929.0,71253.0,172929.0,89117.0,83.249715896244,21.110575272968234,42.06625877450887
172929.0,1944.0,172929.0,71249.0,172929.0,89088.0,80.58978461936297,15.401670400566516,38.845263676409814
172929.0,1947.0,172929.0,71286.0,172929.0,89110.0,77.92874213358252,9.874372171978536,35.68286514414358
172929.0,1966.0,172929.0,71387.0,172929.0,89161.0,75.26938448792276,4.5336557775856505,32.58206677364228
172929.0,1975.0,172929.0,71383.0,172929.0,89167.0,72.61415327714653,-0.6173818408948364,29.544998359278964
172929.0,1944.0,172929.0,71334.0,172929.0,89117.0,69.9654888700748,-5.575947261107245,26.57370952033625
172939.0,1908.0,172939.0,71215.0,172939.0,89082.0,67.3258697325071,-10.339161844165517,23.67032980035283
172939.0,1924.0,172939.0,71207.0,172939.0,89072.0,64.697381938772,-14.905288115367966,20.836413036202927
172939.0,1947.0,172939.0,71321.0,172939.0,89147.0,62.081318652170445,-19.27524378597232,18.07229160842057
172939.0,1938.0,172939.0,71389.0,172939.0,89117.0,59.47828103494932,-23.452537594383216,15.377215610809998
172939.0,1944.0,172939.0,71406.0,172939.0,89141.0,56.888545793546356,-27.44144885314968,12.750013843643046
172939.0,1932.0,172939.0,71296.0,172939.0,89094.0,54.31229054443875,-31.245229453536354,10.189509659776036
172949.0,1913.0,172949.0,71204.0,172949.0,89082.0,51.749596038680636,-34.86604836711801,7.69440837565601
172949.0,1907.0,172949.0,71222.0,172949.0,89076.0,49.20025559370673,-38.30662187692873,5.2628404429163425
172949.0,1930.0,172949.0,71316.0,172949.0,89134.0,46.66354755684277,-41.571718228134486,2.8920400471333068
172949.0,1943.0,172949.0,71348.0,172949.0,89145.0,44.13828650742984,-44.66795405091639,0.5786570292407163
172949.0,1930.0,172949.0,71329.0,172949.0,89110.0,41.62318357445517,-47.60235190422178,-1.6805102753654921
172949.0,1909.0,172949.0,71252.0,172949.0,89066.0,39.117119255207285,-50.381348542707855,-3.8882151872578135
172960.0,1898.0,172960.0,71213.0,172960.0,89050.0,36.61903331038772,-53.011168410384926,-6.047290346940002
172960.0,1898.0,172960.0,71240.0,172960.0,89091.0,34.127589621377965,-55.49900360538838,-8.161411874465415
172960.0,1924.0,172960.0,71368.0,172960.0,89138.0,31.64098638592057,-57.853571361138194,-10.235217586409306
172960.0,1926.0,172960.0,71387.0,172960.0,89139.0,29.15712620990803,-60.08408754410665,-12.273570709119781
172960.0,1916.0,172960.0,71322.0,172960.0,89096.0,26.673992348203996,-62.1984593135861,-14.280695460132975
172960.0,1889.0,172960.0,71227.0,172960.0,89064.0,24.189834509280672,-64.20259490862986,-16.260042405337103
172970.0,1878.0,172970.0,71197.0,172970.0,89058.0,21.70296191441831,-66.1015264724515,-18.214907742598385
172970.0,1894.0,172970.0,71255.0,172970.0,89088.0,19.211368301360707,-67.9010970803819,-20.14908595284315
172970.0,1903.0,172970.0,71333.0,172970.0,89117.0,16.71259367269181,-69.60852198987624,-22.06691823516151
172970.0,1912.0,172970.0,71368.0,172970.0,89106.0,14.203952371946329,-71.23134429746642,-23.972760887895873
172970.0,1898.0,172970.0,71310.0,172970.0,89093.0,11.682880670393544,-72.77584318342815,-25.87045026015319
172970.0,1875.0,172970.0,71201.0,172970.0,89058.0,9.147078128390376,-74.2464831339087,-27.763249830758852
172980.0,1865.0,172980.0,71198.0,172980.0,89051.0,6.5943092463997175,-75.64700093915687,-29.654269173653304
172980.0,1889.0,172980.0,71301.0,172980.0,89093.0,4.02208404211548,-76.9818816816612,-31.546921625961375
172980.0,1903.0,172980.0,71343.0,172980.0,89134.0,1.4276324892162648,-78.2564164031223,-33.44482962962515
172980.0,1894.0,172980.0,71351.0,172980.0,89118.0,-1.1917481779943557,-79.47528261758737,-35.3510764537877
172980.0,1886.0,172980.0,71230.0,172980.0,89049.0,-3.8383496200210345,-80.6413312441409,-37.26758534274566
172980.0,1864.0,172980.0,71169.0,172980.0,89036.0,-6.514019529850572,-81.75599034962303,-39.19541524505142
172991.0,1856.0,172991.0,71179.0,172991.0,89027.0,-9.220407301158147,-82.82100633212221,-41.13570188115776
172991.0,1869.0,172991.0,71263.0,172991.0,89060.0,-11.95926150967891,-83.83984684517804,-43.09034557680178
172991.0,1887.0,172991.0,71362.0,172991.0,89085.0,-14.732487737464908,-84.8173892664999,-45.06198036322236
172991.0,1881.0,172991.0,71288.0,172991.0,89082.0,-17.541873593330322,-85.75824470458775,-47.05340844103232
172991.0,1845.0,172991.0,71224.0,172991.0,89062.0,-20.38880871338388,-86.6655387470571,-49.06704430879232
172991.0,1837.0,172991.0,71153.0,172991.0,89013.0,-23.27439835906766,-87.54145613374266,-51.1048744009522
173000.0,1846.0,173000.0,71213.0,173000.0,89053.0,-26.19986331079521,-88.3888267833918,-53.168920016547006
173000.0,1865.0,173000.0,71280.0,173000.0,89110.0,-29.166732232539857,-89.21199245652815,-55.26149112398883
173000.0,1865.0,173000.0,71359.0,173000.0,89087.0,-32.17661802449487,-90.0160392354336,-57.38465219400989
173000.0,1856.0,173000.0,71267.0,173000.0,89048.0,-35.23084929538187,-90.80514851194644,-59.53949901172
173000.0,1829.0,173000.0,71212.0,173000.0,89024.0,-38.33032522335736,-91.58179054046286,-61.7261874355918
173000.0,1828.0,173000.0,71164.0,173000.0,89001.0,-41.47570506973703,-92.34756991660907,-63.94464526211485
173010.0,1834.0,173010.0,71235.0,173010.0,89033.0,-44.66770161238168,-93.1046847280779,-66.19527305038395
173010.0,1837.0,173010.0,71310.0,173010.0,89085.0,-47.90717087094599,-93.85637629344953,-68.47905714291218
173010.0,1847.0,173010.0,71293.0,173010.0,89081.0,-51.194951555488345,-94.60595657559963,-70.79692690119954
173010.0,1838.0,173010.0,71238.0,173010.0,89017.0,-54.53161206337424,-95.35563145024398,-73.14899562585458
173010.0,1804.0,173010.0,71191.0,173010.0,88993.0,-57.917325586275425,-96.10645943437683,-75.53461200007627
173010.0,1820.0,173010.0,71132.0,173010.0,89022.0,-61.35202508982181,-96.8594680648275,-77.95312086802846
173021.0,1812.0,173021.0,71236.0,173021.0,89016.0,-64.83564388346628,-97.61693423732476,-80.40437816929673
173021.0,1842.0,173021.0,71278.0,173021.0,89064.0,-68.36810584527808,-98.3826283965009,-82.88859304203166
173021.0,1830.0,173021.0,71320.0,173021.0,89037.0,-71.94902887850955,-99.16066228088596,-85.40579863463228
173021.0,1807.0,173021.0,71210.0,173021.0,89004.0,-75.57742087944655,-99.95410172568938,-87.955461601383
173021.0,1796.0,173021.0,71174.0,173021.0,88971.0,-79.25169000383966,-100.7648318354399,-90.53668359822501
173021.0,1783.0,173021.0,71170.0,173021.0,88971.0,-82.96995712283532,-101.59472907017215,-93.1489057500512
173031.0,1790.0,173031.0,71262.0,173031.0,89035.0,-86.73037100797845,-102.4467114310622,-95.79241590677069
173031.0,1807.0,173031.0,71336.0,173031.0,89053.0,-90.53118952890955,-103.3243674512498,-98.46804146945303
173031.0,1796.0,173031.0,71284.0,173031.0,89023.0,-94.37058442579058,-104.23041079552226,-101.17626657987552
173031.0,1776.0,173031.0,71198.0,173031.0,88980.0,-98.24641053787818,-105.1655995784048,-103.91673694442943
173031.0,1757.0,173031.0,71151.0,173031.0,88958.0,-102.15626334487564,-106.12933252885622,-106.68865214029509
173031.0,1758.0,173031.0,71190.0,173031.0,88982.0,-106.0978026300051,-107.12122379085702,-109.4915334129376
173041.0,1780.0,173041.0,71280.0,173041.0,89018.0,-110.06898819049087,-108.1419341826205,-112.3255413080388
173041.0,1780.0,173041.0,71337.0,173041.0,89073.0,-114.06795649231961,-109.19236443747596,-115.19095459801747
173041.0,1766.0,173041.0,71247.0,173041.0,88995.0,-118.09268404510644,-110.27201787634274,-118.08720310567566
173041.0,1744.0,173041.0,71167.0,173041.0,88954.0,-122.14083623354952,-111.3783457478986,-121.0124804496889
173041.0,1738.0,173041.0,71123.0,173041.0,88945.0,-126.2099534523172,-112.50788676902104,-123.96442849756741
173041.0,1732.0,173041.0,71181.0,173041.0,88976.0,-130.29776212922258,-113.6580433715215,-126.94106992679286
173052.0,1752.0,173052.0,71260.0,173052.0,88995.0,-134.40233144135547,-114.82776852066252,-129.9410216260045
173052.0,1755.0,173052.0,71315.0,173052.0,89010.0,-138.52194020824166,-116.01658035224239,-132.96299304505757
173052.0,1743.0,173052.0,71243.0,173052.0,88985.0,-142.65476330778466,-117.22287403271346,-136.0051543975136
173052.0,1712.0,173052.0,71102.0,173052.0,88931.0,-146.7987136116501,-118.44331579223194,-139.06495152419993
173052.0,1698.0,173052.0,71100.0,173052.0,88906.0,-150.95167020501387,-119.67420759878382,-142.1396386564507
173052.0,1727.0,173052.0,71175.0,173052.0,88951.0,-155.11186832457804,-120.9134848918701,-145.2271183425908
173062.0,1733.0,173062.0,71298.0,173062.0,88973.0,-159.27796538950165,-122.1611213902741,-148.32622449196407
173062.0,1723.0,173062.0,71289.0,173062.0,88978.0,-163.44870425795702,-123.41749177258967,-151.43619968525962
173062.0,1719.0,173062.0,71174.0,173062.0,88943.0,-167.62259064218202,-124.68152978106258,-154.55604473832878
173062.0,1686.0,173062.0,71131.0,173062.0,88906.0,-171.79787411858317,-125.9506569014631,-157.68444682821212
173062.0,1695.0,173062.0,71122.0,173062.0,88943.0,-175.97278219004448,-127.22231773532926,-160.82024371710892
173062.0,1706.0,173062.0,71196.0,173062.0,88951.0,-180.14574639664042,-128.4953230514147,-163.9627299802085
173072.0,1699.0,173072.0,71263.0,173072.0,88993.0,-184.31536149549478,-129.769753977021,-167.11132767650767
173072.0,1705.0,173072.0,71222.0,173072.0,88974.0,-188.48015871038476,-131.04571271138238,-170.26486231209586
173072.0,1676.0,173072.0,71148.0,173072.0,88911.0,-192.63846225380948,-132.32235863305348,-173.42109373600425
173072.0,1664.0,173072.0,71098.0,173072.0,88873.0,-196.78847892646073,-133.59836308743772,-176.57707674604447
173072.0,1654.0,173072.0,71142.0,173072.0,88895.0,-200.92860263456336,-134.87326885451984,-179.73015719712905
173072.0,1683.0,173072.0,71246.0,173072.0,88931.0,-205.05767484518097,-136.14816166357141,-182.87863029005874
173083.0,1686.0,173083.0,71276.0,173083.0,88955.0,-209.17489140164398,-137.4247370220952,-186.02146817186224
173083.0,1673.0,173083.0,71225.0,173083.0,88942.0,-213.27942859240392,-138.70359205744464,-189.15751355370713
173083.0,1644.0,173083.0,71122.0,173083.0,88890.0,-217.3702276499808,-139.98350094286047,-192.28496304038413
173083.0,1623.0,173083.0,71070.0,173083.0,88871.0,-221.44621900585923,-141.2624692160193,-195.4016178120753
173083.0,1647.0,173083.0,71157.0,173083.0,88901.0,-225.50676777296772,-142.5395308772456,-198.50556577812856
173083.0,1652.0,173083.0,71231.0,173083.0,88922.0,-229.55185884269252,-143.81541233034739,-201.59547566409526
173093.0,1651.0,173093.0,71274.0,173093.0,88930.0,-233.5818698371496,-145.0913690570059,-204.67020762868705
173093.0,1644.0,173093.0,71190.0,173093.0,88896.0,-237.59725571430886,-146.36745983474697,-207.7282605526884
173093.0,1622.0,173093.0,71115.0,173093.0,88868.0,-241.59844857522953,-147.6420312508151,-210.76767934654467
173093.0,1619.0,173093.0,71066.0,173093.0,88848.0,-245.58600099302294,-148.91289618353866,-213.78653160738256
173093.0,1638.0,173093.0,71150.0,173093.0,88862.0,-249.56077452516723,-150.17901432510962,-216.783544893346
173093.0,1636.0,173093.0,71220.0,173093.0,88916.0,-253.5238961417277,-151.44099309226783,-219.75832791266768
173103.0,1647.0,173103.0,71240.0,173103.0,88906.0,-257.47646837721084,-152.6999596888988,-222.71090853668454
173103.0,1608.0,173103.0,71125.0,173103.0,88875.0,-261.4193144698326,-153.95615210572086,-225.64105613288308
173103.0,1602.0,173103.0,71069.0,173103.0,88848.0,-265.3530296336912,-155.20893502617034,-228.54815116462945
173103.0,1595.0,173103.0,71080.0,173103.0,88830.0,-269.2783121290134,-156.45827503343824,-231.43169718167658
173103.0,1616.0,173103.0,71172.0,173103.0,88887.0,-273.1962240059536,-157.70598734724967,-234.29186000784645
173103.0,1621.0,173103.0,71237.0,173103.0,88887.0,-277.10810424854253,-158.9553637879671,-237.12941690410256
173114.0,1617.0,173114.0,71241.0,173114.0,88907.0,-281.0152314243212,-160.20949761268201,-239.94513594007705
173114.0,1586.0,173114.0,71127.0,173114.0,88828.0,-284.9185838794772,-161.46987756241217,-242.73926147588298
173114.0,1577.0,173114.0,71085.0,173114.0,88825.0,-288.81895647673105,-162.73658668688418,-245.51171487322466
173114.0,1576.0,173114.0,71079.0,173114.0,88824.0,-292.7173164683254,-164.0098266254685,-248.26283233867417
173114.0,1596.0,173114.0,71199.0,173114.0,88854.0,-296.6150220645145,-165.29109978514512,-250.99386278831264
173114.0,1596.0,173114.0,71226.0,173114.0,88884.0,-300.51369117453163,-166.58277850486476,-253.7067764528699
173124.0,1592.0,173124.0,71191.0,173124.0,88871.0,-304.4148761040221,-167.8865853040473,-256.4036148884833
173124.0,1580.0,173124.0,71111.0,173124.0,88835.0,-308.3198436705651,-169.20270228752392,-259.08598135649424
173124.0,1554.0,173124.0,71074.0,173124.0,88800.0,-312.22961651638263,-170.53040818995726,-261.75517541676896
173124.0,1554.0,173124.0,71099.0,173124.0,88829.0,-316.1452452216356,-171.86947808424412,-264.41281787902653
173124.0,1574.0,173124.0,71231.0,173124.0,88893.0,-320.06807238440473,-173.22083202479166,-267.061148484779
173124.0,1579.0,173124.0,71225.0,173124.0,88877.0,-323.9996790030676,-174.58558671464212,-269.70246402808164
173134.0,1547.0,173134.0,71136.0,173134.0,88852.0,-327.9416021619908,-175.96350382068619,-272.33827765535636
173134.0,1543.0,173134.0,71032.0,173134.0,88793.0,-331.89526311810425,-177.35282422678551,-274.9691787560894
173134.0,1525.0,173134.0,71029.0,173134.0,88768.0,-335.86222716250387,-178.75192737871356,-277.59558564936685
173134.0,1553.0,173134.0,71140.0,173134.0,88830.0,-339.84447343856334,-180.16107536679567,-280.21869488169614
173134.0,1562.0,173134.0,71233.0,173134.0,88864.0,-343.84434884579224,-181.5823334183347,-282.84066382436936
173134.0,1559.0,173134.0,71190.0,173134.0,88882.0,-347.8641978717891,-183.01773964631062,-285.463789755648
173145.0,1549.0,173145.0,71123.0,173145.0,88834.0,-351.9059900516022,-184.4677153413162,-288.0895191372001
173145.0,1516.0,173145.0,71047.0,173145.0,88759.0,-355.97125663539714,-185.93125378123787,-290.7182907832472
173145.0,1514.0,173145.0,71052.0,173145.0,88788.0,-360.0613708050828,-187.4074463750087,-293.35037477486185
173145.0,1549.0,173145.0,71130.0,173145.0,88807.0,-364.1778617596124,-188.8967838494076,-295.986784282636
173145.0,1537.0,173145.0,71188.0,173145.0,88834.0,-368.322347760646,-190.40104457381955,-298.62934151352675
173145.0,1526.0,173145.0,71180.0,173145.0,88824.0,-372.4961933231132,-191.92195416595592,-301.2800879756299
173155.0,1513.0,173155.0,71085.0,173155.0,88796.0,-376.7003701218937,-193.46004305361203,-303.9408039719973
173155.0,1497.0,173155.0,71078.0,173155.0,88769.0,-380.935632876725,-195.01484534786843,-306.6130764083392
173155.0,1498.0,173155.0,71060.0,173155.0,88787.0,-385.20279566882317,-196.58603831406367,-309.2987691495215
173155.0,1514.0,173155.0,71159.0,173155.0,88820.0,-389.5028901006708,-198.17420298283133,-312.00030696836666
173155.0,1524.0,173155.0,71222.0,173155.0,88861.0,-393.8370352792832,-199.78030737518776,-314.7203035223308
173155.0,1517.0,173155.0,71153.0,173155.0,88848.0,-398.2060762556274,-201.40423814760615,-317.46068506364577
173165.0,1487.0,173165.0,71051.0,173165.0,88778.0,-402.6103227774298,-203.04397937546523,-320.22205655884386
173165.0,1483.0,173165.0,70996.0,173165.0,88751.0,-407.0496453428001,-204.69662033435768,-323.0040022720576
173165.0,1473.0,173165.0,71072.0,173165.0,88766.0,-411.5238010500079,-206.36025940130463,-325.8060658010603
173165.0,1493.0,173165.0,71161.0,173165.0,88833.0,-416.03265128408856,-208.0347844833834,-328.6283329534284
173165.0,1499.0,173165.0,71187.0,173165.0,88826.0,-420.5760729218812,-209.72077113436904,-331.4710002384485
173165.0,1473.0,173165.0,71134.0,173165.0,88777.0,-425.1536784126814,-211.4177368868462,-334.3335684694329
173176.0,1462.0,173176.0,71025.0,173176.0,88754.0,-429.7647029386602,-213.12354278749325,-337.2147158321301
173176.0,1440.0,173176.0,70995.0,173176.0,88747.0,-434.4082327080343,-214.83553105806317,-340.1129313857218
173176.0,1472.0,173176.0,71059.0,173176.0,88811.0,-439.0835173918444,-216.55227982543056,-343.02704895479116
173176.0,1481.0,173176.0,71157.0,173176.0,88801.0,-443.78996805940017,-218.27418197704094,-345.9560358909885
173176.0,1477.0,173176.0,71177.0,173176.0,88789.0,-448.52676980717104,-220.00223904372797,-348.89834030109955
173176.0,1460.0,173176.0,71121.0,173176.0,88770.0,-453.2924895627232,-221.73630659966648,-351.8515597213652
173186.0,1443.0,173186.0,71023.0,173186.0,88728.0,-458.0850231260201,-223.4745214416119,-354.81269235108743
173186.0,1426.0,173186.0,71023.0,173186.0,88734.0,-462.90185113979396,-225.2143557760781,-357.77872807478917
173186.0,1442.0,173186.0,71073.0,173186.0,88775.0,-467.74035918485384,-226.95405995136628,-360.74711997977397
173186.0,1451.0,173186.0,71161.0,173186.0,88798.0,-472.597930663394,-228.69292744662152,-363.71562648515976
173186.0,1454.0,173186.0,71139.0,173186.0,88776.0,-477.4717073208164,-230.43015956256903,-366.68162332865177
173186.0,1430.0,173186.0,71062.0,173186.0,88749.0,-482.3582704574837,-232.1636675234974,-369.64162819389685
173197.0,1399.0,173197.0,70991.0,173197.0,88733.0,-487.2536173131143,-233.8902346987264,-372.5914650719139
173197.0,1408.0,173197.0,71043.0,173197.0,88755.0,-492.1535035643636,-235.60686294636542,-375.52672443678296
173197.0,1442.0,173197.0,71108.0,173197.0,88777.0,-497.05372708180664,-237.311692294069,-378.4429142759599
173197.0,1434.0,173197.0,71167.0,173197.0,88784.0,-501.94992000645397,-239.00339719140135,-381.3351017682596
173197.0,1428.0,173197.0,71113.0,173197.0,88761.0,-506.83706379757155,-240.67969484665005,-384.1974080036197
173197.0,1399.0,173197.0,71037.0,173197.0,88708.0,-511.70926165852296,-242.33653206146124,-387.0229124302753
173207.0,1380.0,173207.0,70983.0,173207.0,88707.0,-516.559942545038,-243.96880060558465,-389.8041817336782
173207.0,1394.0,173207.0,71037.0,173207.0,88745.0,-521.3822662410789,-245.571850694288,-392.5339376729847
173207.0,1417.0,173207.0,71125.0,173207.0,88773.0,-526.1693047305082,-247.14220196004038,-395.20510319265446
173207.0,1418.0,173207.0,71153.0,173207.0,88786.0,-530.9137612857805,-248.67665674182552,-397.8101278817794
173207.0,1399.0,173207.0,71105.0,173207.0,88755.0,-535.6075128443335,-250.17072243815133,-400.3402264400111
173207.0,1376.0,173207.0,70983.0,173207.0,88693.0,-540.2414514862487,-251.61803486831408,-402.7852225128644
173217.0,1360.0,173217.0,70971.0,173217.0,88685.0,-544.8057487242505,-253.01149918800962,-405.1342126954128
173217.0,1371.0,173217.0,71074.0,173217.0,88729.0,-549.2902656488894,-254.3449444427411,-407.3764540301833
173217.0,1377.0,173217.0,71147.0,173217.0,88732.0,-553.6847449734498,-255.61332694609848,-409.5016010973454
173217.0,1382.0,173217.0,71146.0,173217.0,88752.0,-557.9786719758873,-256.81119126578096,-411.49923840099774
173217.0,1354.0,173217.0,71034.0,173217.0,88703.0,-562.161041444944,-257.9311678406808,-413.35838633373794
173217.0,1345.0,173217.0,70973.0,173217.0,88666.0,-566.2203547666612,-258.96417698485243,-415.0675659145069
173228.0,1339.0,173228.0,70979.0,173228.0,88679.0,-570.1448798863564,-259.9010946454057,-416.6154530091628
173228.0,1355.0,173228.0,70987.0,173228.0,88726.0,-573.9228851240048,-260.7343037160854,-417.9914424299636
173228.0,1352.0,173228.0,71124.0,173228.0,88725.0,-577.5426144926073,-261.4579695709577,-419.18547468541874
173228.0,1345.0,173228.0,71142.0,173228.0,88715.0,-580.9921000132101,-262.06684578452405,-420.1874333291941
173228.0,1339.0,173228.0,71018.0,173228.0,88674.0,-584.2590562776825,-262.5546160267803,-420.98689034495266
173228.0,1319.0,173228.0,70927.0,173228.0,88651.0,-587.3309588329249,-262.91371913194996,-421.573501429499
173238.0,1332.0,173238.0,70947.0,173238.0,88670.0,-590.1952339289768,-263.13711288167923,-421.93772366516066
173238.0,1328.0,173238.0,71089.0,173238.0,88725.0,-592.839392065335,-263.219886232434,-422.071177963094
173238.0,1333.0,173238.0,71085.0,173238.0,88728.0,-595.2509984833819,-263.1588563583095,-421.9662396970733
173238.0,1335.0,173238.0,71087.0,173238.0,88711.0,-597.4175518385819,-262.95089337345627,-421.61528480613015
173238.0,1297.0,173238.0,70984.0,173238.0,88666.0,-599.3264373998593,-262.5919743063671,-421.0104172954036
173238.0,1296.0,173238.0,70956.0,173238.0,88655.0,-600.9651352904009,-262.0778022318209,-420.14395360893946
173248.0,1301.0,173248.0,71029.0,173248.0,88689.0,-602.3216173918432,-261.4051407248687,-419.0091561722827
173248.0,1322.0,173248.0,71128.0,173248.0,88715.0,-603.3845528536317,-260.57221038821035,-417.6004817361617
173248.0,1325.0,173248.0,71115.0,173248.0,88742.0,-604.143138435706,-259.57748580030943,-415.91313629323764
173248.0,1310.0,173248.0,71057.0,173248.0,88710.0,-604.5868029686412,-258.41821039121504,-413.94241434730895
173248.0,1294.0,173248.0,70995.0,173248.0,88676.0,-604.7051465039742,-257.0902341159667,-411.68349052259333
173248.0,1287.0,173248.0,70963.0,173248.0,88676.0,-604.4882116346764,-255.58922865707785,-409.1318923456658
173259.0,1300.0,173259.0,71056.0,173259.0,88700.0,-603.9268464963249,-253.9120518822702,-406.28415854061035
173259.0,1314.0,173259.0,71096.0,173259.0,88719.0,-603.0128501377674,-252.0569725759225,-403.1380455039706
173259.0,1316.0,173259.0,71125.0,173259.0,88740.0,-601.7388317481816,-250.02259971672783,-399.6922173084115
173259.0,1297.0,173259.0,71018.0,173259.0,88737.0,-600.0980288752479,-247.80675285715003,-395.9457754837974
173259.0,1303.0,173259.0,70952.0,173259.0,88674.0,-598.0843540279994,-245.40666597519095,-391.8980819346759
173259.0,1286.0,173259.0,70981.0,173259.0,88683.0,-595.6926476205604,-242.82052081802306,-387.54921703086717
173269.0,1304.0,173269.0,71065.0,173269.0,88724.0,-592.9189492440867,-240.04873131264802,-382.90071873538375
173269.0,1327.0,173269.0,71134.0,173269.0,88753.0,-589.7606073186589,-237.09360903437076,-377.95575684587226
173269.0,1325.0,173269.0,71094.0,173269.0,88747.0,-586.2161220176615,-233.95785696260648,-372.7186350391081
173269.0,1328.0,173269.0,71050.0,173269.0,88738.0,-582.2848955901454,-230.6435043646196,-367.19433296695576
173269.0,1314.0,173269.0,70972.0,173269.0,88706.0,-577.9671815456312,-227.15228244560473,-361.3885861010352
173269.0,1316.0,173269.0,71008.0,173269.0,88733.0,-573.264283312664,-223.48701166764593,-355.30838578791963
173279.0,1349.0,173279.0,71096.0,173279.0,88787.0,-568.1787898693681,-219.65263263488225,-348.9623306588838
173279.0,1365.0,173279.0,71157.0,173279.0,88825.0,-562.7145406955623,-215.65577549412828,-342.36027668988396
173279.0,1358.0,173279.0,71134.0,173279.0,88811.0,-556.8763159142269,-211.50323803517384,-335.51247181855416
173279.0,1359.0,173279.0,71044.0,173279.0,88783.0,-550.6696319576664,-207.20096090678513,-328.42900452989323
173279.0,1357.0,173279.0,70994.0,173279.0,88766.0,-544.1008449756207,-202.7546026627019,-321.1200578463634
173279.0,1372.0,173279.0,71053.0,173279.0,88811.0,-537.1773796701038,-198.1711235138689,-313.5965798392465
173290.0,1402.0,173290.0,71162.0,173290.0,88829.0,-529.9078202643643,-193.45961695520606,-305.87059928828074
173290.0,1420.0,173290.0,71206.0,173290.0,88888.0,-522.301717655753,-188.6303609863999,-297.9548704309278
173290.0,1426.0,173290.0,71160.0,173290.0,88851.0,-514.3692156848199,-183.69301145519853,-289.86219044547266
173290.0,1404.0,173290.0,71074.0,173290.0,88828.0,-506.1208321504332,-178.6557727180515,-281.6050672053755
173290.0,1411.0,173290.0,71061.0,173290.0,88847.0,-497.56763101752813,-173.52626575645283,-273.1960829477217
173290.0,1440.0,173290.0,71129.0,173290.0,88862.0,-488.72158714940514,-168.3129905498852,-264.6484556121016
173300.0,1468.0,173300.0,71198.0,173300.0,88914.0,-479.59568381794907,-163.0257533534608,-255.97613365754557
173300.0,1480.0,173300.0,71247.0,173300.0,88939.0,-470.203615107282,-157.674635642845,-247.19333083604903
173300.0,1478.0,173300.0,71146.0,173300.0,88918.0,-460.55943075184956,-152.26861543810168,-238.31387486205313
173300.0,1477.0,173300.0,71098.0,173300.0,88866.0,-450.6774589041178,-146.81536859773013,-229.35103127769472
173300.0,1493.0,173300.0,71103.0,173300.0,88901.0,-440.5724962577648,-141.32251692293278,-220.31810764668705
173300.0,1526.0,173300.0,71156.0,173300.0,88930.0,-430.2599675729987,-135.79896287434755,-211.22917183743942
173310.0,1539.0,173310.0,71255.0,173310.0,88991.0,-419.7558092522375,-130.2549749875864,-202.09904411451373
173310.0,1556.0,173310.0,71214.0,173310.0,88987.0,-409.076167533224,-124.70106619491224,-192.9425949605854
173310.0,1553.0,173310.0,71210.0,173310.0,88966.0,-398.2371819626712,-119.1468769360039,-183.77408883460356
173310.0,1562.0,173310.0,71126.0,173310.0,88947.0,-387.2549912409108,-113.60115148720374,-174.60720478833525
173310.0,1575.0,173310.0,71163.0,173310.0,88977.0,-376.1458900831711,-108.07270803501547,-165.45561003248113
173310.0,1615.0,173310.0,71259.0,173310.0,89012.0,-364.926411939225,-102.57126487287786,-156.33337163048978
173321.0,1639.0,173321.0,71316.0,173321.0,89077.0,-353.6131245514931,-97.1069709342206,-147.2546898254944
173321.0,1648.0,173321.0,71253.0,173321.0,89088.0,-342.2222045996459,-91.68896009885299,-138.23303551877075
173321.0,1634.0,173321.0,71212.0,173321.0,89039.0,-330.76915111917447,-86.32458233255181,-129.28034106163577
173321.0,1639.0,173321.0,71156.0,173321.0,89005.0,-319.26890632514494,-81.02013906969836,-120.40704734572185
173321.0,1667.0,173321.0,71193.0,173321.0,89049.0,-307.7362113203708,-75.782333344401,-111.62297442397517
173321.0,1684.0,173321.0,71293.0,173321.0,89119.0,-296.18578538443654,-70.61908463128916,-102.93791846097875
173331.0,1712.0,173331.0,71347.0,173331.0,89140.0,-284.63218670192356,-65.53887237531492,-94.36118746314219
173331.0,1720.0,173331.0,71335.0,173331.0,89101.0,-273.0895341628395,-60.54909567656722,-85.90067449311573
173331.0,1719.0,173331.0,71259.0,173331.0,89041.0,-261.57131844459957,-55.65495451617505,-77.56268230261264
173331.0,1736.0,173331.0,71181.0,173331.0,89056.0,-250.09042536508665,-50.85989653206917,-69.35283506405352
173331.0,1759.0,173331.0,71296.0,173331.0,89164.0,-238.65924964512118,-46.16709086267264,-61.27703072542954
173331.0,1779.0,173331.0,71369.0,173331.0,89172.0,-227.2896598619766,-41.580097470778185,-53.34121956779444
173341.0,1805.0,173341.0,71392.0,173341.0,89188.0,-215.9927737168053,-37.101776645294905,-45.55027792827144
173341.0,1806.0,173341.0,71285.0,173341.0,89130.0,-204.77868489223022,-32.73281470055997,-37.907272082952886
173341.0,1784.0,173341.0,71236.0,173341.0,89107.0,-193.65637589179937,-28.471737728823598,-30.413769845428135
173341.0,1800.0,173341.0,71196.0,173341.0,89131.0,-182.63399866683983,-24.316502425852235,-23.070805152570927
173341.0,1835.0,173341.0,71324.0,173341.0,89172.0,-171.71927584117844,-20.26611992475125,-15.8795808560007
173341.0,1854.0,173341.0,71380.0,173341.0,89195.0,-160.9195527617469,-16.320746330807168,-8.841361248730209
173352.0,1880.0,173352.0,71385.0,173352.0,89197.0,-150.24146976626287,-12.480225820888933,-1.9568902229748915
173352.0,1862.0,173352.0,71290.0,173352.0,89190.0,-139.69062679449416,-8.742741714233631,4.774021436555927
173352.0,1865.0,173352.0,71256.0,173352.0,89157.0,-129.27156392366385,-5.105012370185477,11.35242192142664
173352.0,1883.0,173352.0,71272.0,173352.0,89172.0,-118.9880475260913,-1.5636616294437147,17.779720162093497
173352.0,1910.0,173352.0,71340.0,173352.0,89239.0,-108.84329965214403,1.8837518712843746,24.05725521991411
173352.0,1914.0,173352.0,71411.0,173352.0,89258.0,-98.8399337371452,5.239033987178061,30.18654847759126
173362.0,1929.0,173362.0,71380.0,173362.0,89221.0,-88.9797766361358,8.50463479567307,36.17002609336447
173362.0,1920.0,173362.0,71306.0,173362.0,89204.0,-79.26382177044542,11.684577094261186,42.01126861402031
173362.0,1915.0,173362.0,71231.0,173362.0,89193.0,-69.6923983207954,14.783928630311834,47.71447601535567
173362.0,1945.0,173362.0,71312.0,173362.0,89219.0,-60.2654815525911,17.80724291980954,53.283753152276915
173362.0,1969.0,173362.0,71399.0,173362.0,89275.0,-50.98285081831733,20.75771092577682,58.72288129336209
173362.0,1981.0,173362.0,71424.0,173362.0,89273.0,-41.843907028441606,23.638037338799876,64.03575774674283
173372.0,1981.0,173372.0,71375.0,173372.0,89249.0,-32.84738839549095,26.452001159820014,69.22700156998906
173372.0,1981.0,173372.0,71250.0,173372.0,89224.0,-23.991302194285936,29.204877116222036,74.30199669738204
173372.0,1980.0,173372.0,71245.0,173372.0,89199.0,-15.273109004517607,31.902098530343608,79.266254960438
173372.0,1986.0,173372.0,71350.0,173372.0,89250.0,-6.690017835548758,34.54746880399364,84.12462905031884
173372.0,2031.0,173372.0,71414.0,173372.0,89300.0,1.7608223041137876,37.1428742468847,88.88108962471654
173372.0,2033.0,173372.0,71413.0,173372.0,89301.0,10.082440725568233,39.689688359461684,93.53931937087151
173383.0,2028.0,173383.0,71370.0,173383.0,89259.0,18.27833353917555,42.19020197964332,98.103429757632
173383.0,2025.0,173383.0,71304.0,173383.0,89247.0,26.352511383030162,44.64776989032816,102.57794432087155
173383.0,2017.0,173383.0,71276.0,173383.0,89241.0,34.30920307984047,47.06573047609248,106.96711918077904
173383.0,2042.0,173383.0,71390.0,173383.0,89293.0,42.152470086207074,49.446170901499215,111.27434942759118
173383.0,2078.0,173383.0,71439.0,173383.0,89314.0,49.88605539857184,51.78990169993983,115.5022137199125
173383.0,2086.0,173383.0,71436.0,173383.0,89340.0,57.51363273289223,54.09778641319082,119.6530942520061
173393.0,2076.0,173393.0,71388.0,173393.0,89303.0,65.03918670268934,56.37199750072941,123.72981750364949
173393.0,2064.0,173393.0,71262.0,173393.0,89255.0,72.4670624684502,58.61588103999645,127.73569238549373
173393.0,2075.0,173393.0,71307.0,173393.0,89292.0,79.801626043581,60.83243824583559,131.67384652869634
173393.0,2113.0,173393.0,71409.0,173393.0,89353.0,87.0469418885159,63.02289091056946,135.5466680811665
173393.0,2116.0,173393.0,71462.0,173393.0,89356.0,94.20682787843117,65.18696382077007,139.35614216424682
173393.0,2134.0,173393.0,71442.0,173393.0,89340.0,101.28517013970674,67.32454210114719,143.1046387177243
173403.0,2104.0,173403.0,71395.0,173403.0,89325.0,108.28610503037754,69.43689630188007,146.79521265939616
173403.0,2116.0,173403.0,71293.0,173403.0,89287.0,115.21385362566537,71.52641074613521,150.431215932454
173403.0,2116.0,173403.0,71323.0,173403.0,89323.0,122.07234214415166,73.59511663346228,154.0156159719902
173403.0,2155.0,173403.0,71438.0,173403.0,89368.0,128.864958287143,75.64343227348175,157.55062355816375
173403.0,2175.0,173403.0,71467.0,173403.0,89394.0,135.5946841911193,77.67052092595594,161.03807113480258
173403.0,2164.0,173403.0,71495.0,173403.0,89351.0,142.26447636680751,79.67594041299597,164.48016106137925
173414.0,2158.0,173414.0,71318.0,173414.0,89333.0,148.8774675468568,81.66078138480228,167.8796993697856
173414.0,2160.0,173414.0,71299.0,173414.0,89305.0,155.43677583293288,83.62693025992257,171.23953972903246
173414.0,2174.0,173414.0,71420.0,173414.0,89362.0,161.94517603289012,85.57522380074366,174.5618264349535
173414.0,2203.0,173414.0,71503.0,173414.0,89410.0,168.4049751005826,87.50491766711295,177.84784987531003
173414.0,2221.0,173414.0,71514.0,173414.0,89408.0,174.8182089676389,89.41526626933509,181.0987309407726
173414.0,2205.0,173414.0,71429.0,173414.0,89362.0,181.1869785583744,91.30731770998966,184.31617139448292
173424.0,2195.0,173424.0,71353.0,173424.0,89346.0,187.5135363677685,93.18405188504525,187.50240198437547
173424.0,2198.0,173424.0,71321.0,173424.0,89338.0,193.79997782878354,95.04885563773487,190.65943347825424
173424.0,2222.0,173424.0,71426.0,173424.0,89389.0,200.0478571485287,96.90381826882924,193.78839980716538
173424.0,2253.0,173424.0,71495.0,173424.0,89421.0,206.25812622350276,98.74947640325414,196.88959228044905
173424.0,2248.0,173424.0,71499.0,173424.0,89439.0,212.43143098984797,100.58617409399812,199.96315448089655
173424.0,2246.0,173424.0,71437.0,173424.0,89376.0,218.56840495609384,102.41552439481944,203.00976392771526
173435.0,2244.0,173435.0,71315.0,173435.0,89366.0,224.66965026841393,104.24041209230313,206.03056184154934
173435.0,2242.0,173435.0,71343.0,173435.0,89385.0,230.7354791437745,106.06341410020119,209.02643622441673
173435.0,2270.0,173435.0,71438.0,173435.0,89424.0,236.76566862085053,107.88517546324508,211.99754056561244
173435.0,2281.0,173435.0,71510.0,173435.0,89438.0,242.75943099515132,109.704483323045,214.94354193761586
173435.0,2293.0,173435.0,71472.0,173435.0,89448.0,248.71561411422533,111.51983847779991,217.864244326132
173435.0,2293.0,173435.0,71402.0,173435.0,89388.0,254.6329231159907,113.33063845919344,220.7599558013397
173445.0,2283.0,173445.0,71351.0,173445.0,89364.0,260.50996127581163,115.13675388720102,223.6311522932417
173445.0,2287.0,173445.0,71392.0,173445.0,89390.0,266.3450475080126,116.93711940704924,226.47760188834957
173445.0,2310.0,173445.0,71502.0,173445.0,89456.0,272.13597044478206,118.72895819848446,229.29783805348137
173445.0,2338.0,173445.0,71549.0,173445.0,89478.0,277.8799725900308,120.50864386224129,232.0896253415156
173445.0,2331.0,173445.0,71486.0,173445.0,89459.0,283.5740293807546,122.27345099029597,234.85095014534983
173445.0,2320.0,173445.0,71418.0,173445.0,89411.0,289.2150812369629,124.02238531876174,237.58051256365195
173455.0,2334.0,173455.0,71346.0,173455.0,89403.0,294.7999394254432,125.75525977339831,240.27729243536857
173455.0,2343.0,173455.0,71445.0,173455.0,89458.0,300.32506416300896,127.47100604671652,242.93979468124297
173455.0,2374.0,173455.0,71502.0,173455.0,89474.0,305.78654897923,129.16697426755724,245.56589478345592
173455.0,2386.0,173455.0,71548.0,173455.0,89457.0,311.1803802615476,130.83990482189546,248.15333302467855
173455.0,2373.0,173455.0,71472.0,173455.0,89468.0,316.50277176050884,132.4874310266838,250.7001168731611
173455.0,2365.0,173455.0,71387.0,173455.0,89413.0,321.750246341804,134.10844925490284,253.2044288650951
173466.0,2363.0,173466.0,71368.0,173466.0,89423.0,326.91935987587794,135.70189517862656,255.66412707001865
173466.0,2390.0,173466.0,71466.0,173466.0,89478.0,332.00635475007175,137.26517278776691,258.0762227122291
173466.0,2418.0,173466.0,71540.0,173466.0,89516.0,337.0071154838671,138.79396448752226,260.4370008244233
173466.0,2410.0,173466.0,71534.0,173466.0,89490.0,341.9174731168064,140.2836227092925,262.74281438614963
173466.0,2406.0,173466.0,71497.0,173466.0,89479.0,346.733488161712,141.73064156493712,264.99068186282955
173466.0,2407.0,173466.0,71421.0,173466.0,89439.0,351.4514087000856,143.13287100405734,267.1781256653047
173476.0,2408.0,173476.0,71368.0,173476.0,89465.0,356.0674312431978,144.48839061307092,269.3025410203074
173476.0,2435.0,173476.0,71509.0,173476.0,89512.0,360.5775376861193,145.7940772570641,271.3607834023122
173476.0,2456.0,173476.0,71560.0,173476.0,89534.0,364.9775825208942,147.04546335237927,273.3494744735944
173476.0,2460.0,173476.0,71541.0,173476.0,89519.0,369.26362639204604,148.23818942958803,275.26576354921445
173476.0,2443.0,173476.0,71443.0,173476.0,89474.0,373.43223078298433,149.36925608381063,277.1077311564712
173476.0,2437.0,173476.0,71405.0,173476.0,89461.0,377.48040635504174,150.43657384588806,278.8740077740734
173486.0,2447.0,173486.0,71467.0,173486.0,89506.0,381.40528183540164,151.4374950914849,280.56305708290495
173486.0,2464.0,173486.0,71557.0,173486.0,89530.0,385.20384972966974,152.3681615552843,282.17295957463847
173486.0,2485.0,173486.0,71602.0,173486.0,89537.0,388.87302168388226,153.22452964458344,283.70189691922286
173486.0,2480.0,173486.0,71556.0,173486.0,89509.0,392.4099045512743,154.00412049744935,285.14870979878964
173486.0,2478.0,173486.0,71461.0,173486.0,89499.0,395.81201394267043,154.70681926189724,286.5129525030576
173486.0,2455.0,173486.0,71394.0,173486.0,89467.0,399.07720476879786,155.33392430137926,287.79444634799165
173497.0,2480.0,173497.0,71472.0,173497.0,89510.0,402.20336742671304,155.88629630184857,288.9927103727252
173497.0,2498.0,173497.0,71583.0,173497.0,89558.0,405.18821957007856,156.36350954973332,290.1068197781471
173497.0,2526.0,173497.0,71587.0,173497.0,89542.0,408.0294849499321,156.76494436581368,291.1359471124906
173497.0,2506.0,173497.0,71515.0,173497.0,89536.0,410.725321786818,157.09149314224695,292.08003173162695
173497.0,2490.0,173497.0,71439.0,173497.0,89495.0,413.2745373146355,157.34590686509696,292.9398773493039
173497.0,2489.0,173497.0,71398.0,173497.0,89484.0,415.6763538044288,157.5314603195368,293.71664327608875
173507.0,2528.0,173507.0,71529.0,173507.0,89524.0,417.930062046887,157.6503707164482,294.4112109710816
173507.0,2538.0,173507.0,71542.0,173507.0,89547.0,420.03506218065263,157.70361088399602,295.02403299172164
173507.0,2532.0,173507.0,71582.0,173507.0,89571.0,421.99125748736867,157.69218778544789,295.5556403777488
173507.0,2519.0,173507.0,71516.0,173507.0,89525.0,423.7993114318499,157.61845757706453,296.0072863329375
173507.0,2512.0,173507.0,71410.0,173507.0,89485.0,425.4605170086736,157.4862244805618,296.38101585696336
173507.0,2519.0,173507.0,71415.0,173507.0,89497.0,426.97647467655077,157.29943518795375,296.67901558073174
173517.0,2537.0,173517.0,71520.0,173517.0,89557.0,428.348894543024,157.060686967018,296.90299252016104
173517.0,2551.0,173517.0,71597.0,173517.0,89572.0,429.5796886960072,156.771299867304,297.05439116994035
173517.0,2551.0,173517.0,71584.0,173517.0,89556.0,430.67126660750455,156.4330136532873,297.13520198726576
173517.0,2540.0,173517.0,71438.0,173517.0,89532.0,431.6267684390866,156.04938282914097,297.1484525641331
173517.0,2506.0,173517.0,71423.0,173517.0,89487.0,432.44998725323694,155.62524464311764,297.0979503673249
173517.0,2529.0,173517.0,71430.0,173517.0,89501.0,433.144969912998,155.1648933844522,296.9875380110281
173528.0,2552.0,173528.0,71531.0,173528.0,89548.0,433.7156871296504,154.67095621788528,296.82051258392613
173528.0,2556.0,173528.0,71591.0,173528.0,89549.0,434.16615299029263,154.14500657125942,296.59975126896614
173528.0,2550.0,173528.0,71535.0,173528.0,89512.0,434.50078944208246,153.58919656729392,296.32822542641117
173528.0,2533.0,173528.0,71454.0,173528.0,89512.0,434.7245762179091,153.00720851119948,296.0091117711947
173528.0,2527.0,173528.0,71391.0,173528.0,89504.0,434.8428626132362,152.40349123799925,295.6454216231735
173528.0,2544.0,173528.0,71516.0,173528.0,89516.0,434.86106558825156,151.78169794976742,295.2396560833757
173538.0,2559.0,173538.0,71539.0,173538.0,89561.0,434.784577820727,151.1442216350873,294.79381690848504
173538.0,2564.0,173538.0,71583.0,173538.0,89577.0,434.61898874576696,150.49332579112487,294.30988025977405
173538.0,2540.0,173538.0,71491.0,173538.0,89540.0,434.370353300284,149.83249018718544,293.7904762439107
173538.0,2510.0,173538.0,71407.0,173538.0,89486.0,434.04512570809334,149.1664821296655,293.2390618279608
173538.0,2506.0,173538.0,71403.0,173538.0,89473.0,433.64966299773073,148.4999669340729,292.65922884545586
173538.0,2537.0,173538.0,71464.0,173538.0,89549.0,433.189684580467,147.83593645316466,292.0538310054135
173548.0,2545.0,173548.0,71568.0,173548.0,89563.0,432.670179452445,147.17551176384447,291.42495986756717
173548.0,2557.0,173548.0,71557.0,173548.0,89527.0,432.0957608382914,146.51931419485263,290.7746968389441
173548.0,2541.0,173548.0,71492.0,173548.0,89528.0,431.4710552745039,145.8690062583162,290.1055867631636
173548.0,2536.0,173548.0,71434.0,173548.0,89472.0,430.80082242246897,145.22749275762675,289.42036757606934
173548.0,2518.0,173548.0,71419.0,173548.0,89489.0,430.08978522331756,144.59776582545857,288.72130605088853
173548.0,2545.0,173548.0,71524.0,173548.0,89540.0,429.342362496065,143.98175576881513,288.0097001213881
173559.0,2553.0,173559.0,71544.0,173559.0,89565.0,428.5626033394745,143.3804504345988,287.2861042363405
173559.0,2558.0,173559.0,71532.0,173559.0,89552.0,427.7544264054296,142.7950806608177,286.55115627835505
173559.0,2537.0,173559.0,71455.0,173559.0,89490.0,426.9218907098078,142.22794100434905,285.8061054677895
173559.0,2521.0,173559.0,71377.0,173559.0,89478.0,426.0691679868429,141.681848006944,285.05244220699046
173559.0,2521.0,173559.0,71458.0,173559.0,89519.0,425.20021038574407,141.1586912672903,284.2910851640019
173559.0,2546.0,173559.0,71554.0,173559.0,89543.0,424.31844324437714,140.65869823797732,283.52209693891155
173569.0,2562.0,173569.0,71597.0,173569.0,89560.0,423.42682482368934,140.18150347460707,282.7451974400583
173569.0,2550.0,173569.0,71566.0,173569.0,89554.0,422.52822027552503,139.72810557503,281.96049820553276
173569.0,2530.0,173569.0,71411.0,173569.0,89482.0,421.6256586939763,139.30177308117706,281.16880198678734
173569.0,2519.0,173569.0,71379.0,173569.0,89482.0,420.72218174081553,138.90689756382523,280.3711437943581
173569.0,2525.0,173569.0,71441.0,173569.0,89511.0,419.82045778862005,138.54681982078543,279.56797205670244
173569.0,2543.0,173569.0,71554.0,173569.0,89538.0,418.9225459936856,138.2228592027235,278.75885423076363
173579.0,2561.0,173579.0,71558.0,173579.0,89561.0,418.03002068200595,137.9354202141776,277.9429598174489
173579.0,2567.0,173579.0,71502.0,173579.0,89551.0,417.14437300846816,137.6857233107259,277.1198006972249
173579.0,2529.0,173579.0,71423.0,173579.0,89484.0,416.2673579451043,137.476281854296,276.2895832392216
173579.0,2516.0,173579.0,71395.0,173579.0,89499.0,415.40091418373527,137.30978722149328,275.4528281648079
173579.0,2536.0,173579.0,71444.0,173579.0,89501.0,414.5467216565915,137.1875757494589,274.60966088255816
173579.0,2552.0,173579.0,71515.0,173579.0,89564.0,413.70594099609974,137.10907381270354,273.759587841458
173590.0,2553.0,173590.0,71549.0,173590.0,89566.0,412.879404036766,137.0726459741367,272.9020341262372
173590.0,2556.0,173590.0,71473.0,173590.0,89511.0,412.0679558109587,137.07691328866858,272.03707364138336
173590.0,2533.0,173590.0,71421.0,173590.0,89478.0,411.2726120719107,137.12111305604324,271.1654695564818
173590.0,2517.0,173590.0,71386.0,173590.0,89475.0,410.494414939746,137.20409532164746,270.28789144526945
173590.0,2542.0,173590.0,71507.0,173590.0,89540.0,409.7340979441527,137.3230975348952,269.4041954888087
173590.0,2562.0,173590.0,71609.0,173590.0,89568.0,408.99195101059894,137.4739204325372,268.51360756987486
173600.0,2547.0,173600.0,71524.0,173600.0,89521.0,408.26807559709175,137.65265094025952,267.61556843936637
173600.0,2542.0,173600.0,71483.0,173600.0,89488.0,407.56266165437165,137.85702587228255,266.7101623327414
173600.0,2520.0,173600.0,71394.0,173600.0,89497.0,406.87592820673075,138.08594506461378,265.7976716906202
173600.0,2531.0,173600.0,71394.0,173600.0,89473.0,406.20782063898025,138.33775732338557,264.877893431105
173600.0,2545.0,173600.0,71515.0,173600.0,89533.0,405.5577844328876,138.60890583572896,263.94982995780003
173600.0,2566.0,173600.0,71603.0,173600.0,89561.0,404.92486022695664,138.89426673880658,263.0119633567093
173610.0,2554.0,173610.0,71552.0,173610.0,89534.0,404.3080374814999,139.18903120282124,262.0629974589667
173610.0,2539.0,173610.0,71461.0,173610.0,89494.0,403.70651060286184,139.4901398397479,261.10235343909153
173610.0,2522.0,173610.0,71401.0,173610.0,89469.0,403.1195684031263,139.79574572137818,260.129834132674
173610.0,2537.0,173610.0,71462.0,173610.0,89495.0,402.5462423930485,140.1034953592793,259.1448456487418
173610.0,2555.0,173610.0,71561.0,173610.0,89541.0,401.98510451192686,140.4096372713081,258.14603839317954
173610.0,2558.0,173610.0,71576.0,173610.0,89558.0,401.4344247944145,140.70990734261483,257.1317661981202
173621.0,2553.0,173621.0,71530.0,173621.0,89514.0,400.8924826004401,141.00111447800572,256.10087385722113
173621.0,2535.0,173621.0,71438.0,173621.0,89472.0,400.35769350093733,141.28167210746926,255.05290851182215
173621.0,2531.0,173621.0,71426.0,173621.0,89468.0,399.8284466406512,141.55057578481433,253.98748981714118
173621.0,2548.0,173621.0,71468.0,173621.0,89512.0,399.30284488391015,141.80591569987803,252.90355732766363
173621.0,2556.0,173621.0,71583.0,173621.0,89539.0,398.77864528425204,142.04445003319492,251.7993268684356
173621.0,2569.0,173621.0,71569.0,173621.0,89547.0,398.25347886482956,142.26271883965546,250.672966045488
173631.0,2546.0,173631.0,71497.0,173631.0,89490.0,397.72512717138386,142.45848230231536,249.5232442198401
173631.0,2536.0,173631.0,71426.0,173631.0,89471.0,397.1915642568148,142.6308260323246,248.34946286289792
173631.0,2532.0,173631.0,71416.0,173631.0,89460.0,396.6507014337387,142.778797897414,247.15073311676338
173631.0,2551.0,173631.0,71480.0,173631.0,89520.0,396.10010401733643,142.8999707624193,245.92535948220356
173631.0,2562.0,173631.0,71595.0,173631.0,89551.0,395.53698368621593,142.9903396934692,244.67101368483898
173631.0,2565.0,173631.0,71564.0,173631.0,89547.0,394.95846451652494,143.04573179169205,243.3856077043808
173641.0,2558.0,173641.0,71489.0,173641.0,89480.0,394.36186576494407,143.06328788696584,242.06799583619258
173641.0,2538.0,173641.0,71435.0,173641.0,89456.0,393.7447626920594,143.04142152417552,240.7177388570784
173641.0,2545.0,173641.0,71438.0,173641.0,89480.0,393.1047951563129,142.97845163482708,239.33420758389093
173641.0,2548.0,173641.0,71540.0,173641.0,89535.0,392.4394325014872,142.87150162153978,237.91608020251635
173641.0,2575.0,173641.0,71626.0,173641.0,89544.0,391.74595789927196,142.71694188491625,236.46180205654142
173641.0,2574.0,173641.0,71575.0,173641.0,89536.0,391.021734963776,142.5121330339196,234.9704918860258
173652.0,2550.0,173652.0,71462.0,173652.0,89478.0,390.2645159007955,142.25665865478717,233.44240007516282
173652.0,2538.0,173652.0,71410.0,173652.0,89455.0,389.47243510026135,141.95158861368662,231.878518236398
173652.0,2545.0,173652.0,71513.0,173652.0,89480.0,388.64368217344816,141.59765727695236,230.27973272745967
173652.0,2572.0,173652.0,71611.0,173652.0,89537.0,387.7762734070226,141.19464949940664,228.64641858300485
173652.0,2577.0,173652.0,71582.0,173652.0,89539.0,386.8682232278128,140.74274111334222,226.97894738516436
173652.0,2556.0,173652.0,71525.0,173652.0,89509.0,385.9179072980579,140.24407375572775,225.27853432066559
173662.0,2551.0,173662.0,71429.0,173662.0,89449.0,384.92418220307707,139.70275683493927,223.54745504449642
173662.0,2532.0,173662.0,71392.0,173662.0,89441.0,383.8861545254443,139.1232965679289,221.78835708311766
173662.0,2556.0,173662.0,71499.0,173662.0,89510.0,382.8028644512591,138.50883821660778,220.0034144849655
173662.0,2565.0,173662.0,71582.0,173662.0,89512.0,381.67319559253554,137.86087072394992,218.1942949993764
173662.0,2579.0,173662.0,71573.0,173662.0,89519.0,380.4961162904806,137.18069923226665,216.36289114507264
173662.0,2550.0,173662.0,71472.0,173662.0,89464.0,379.2710136345356,136.47098145277818,214.51188217458707
173673.0,2541.0,173673.0,71409.0,173673.0,89441.0,377.99774786338617,135.73557731608867,212.6445339189845
173673.0,2530.0,173673.0,71412.0,173673.0,89427.0,376.67635431317353,134.97793037990806,210.76392868062806
173673.0,2547.0,173673.0,71510.0,173673.0,89474.0,375.3066924299287,134.19970711355595,208.87228885511786
173673.0,2577.0,173673.0,71574.0,173673.0,89504.0,373.8884000457972,133.40105996981993,206.97100332780477
173673.0,2554.0,173673.0,71561.0,173673.0,89481.0,372.4212116112784,132.58222479581764,205.0612877660178
173673.0,2540.0,173673.0,71476.0,173673.0,89454.0,370.90524779113457,131.74483966065432,203.14471379138382
173683.0,2526.0,173683.0,71407.0,173683.0,89425.0,369.34089799484786,130.89169597149953,201.22304439385246
173683.0,2543.0,173683.0,71429.0,173683.0,89470.0,367.72847392498784,130.02523752660971,199.29769123700518
173683.0,2543.0,173683.0,71506.0,173683.0,89499.0,366.0680469714358,129.14636366706094,197.36957495498766
173683.0,2559.0,173683.0,71562.0,173683.0,89489.0,364.3595766997041,128.25472438076682,195.439651478709
173683.0,2553.0,173683.0,71552.0,173683.0,89465.0,362.6031705558262,127.35014912944912,193.50949521776502
173683.0,2541.0,173683.0,71469.0,173683.0,89429.0,360.7992744376957,126.43376850960647,191.58129147221027
173693.0,2514.0,173693.0,71383.0,173693.0,89411.0,358.9486140160816,125.50767927119266,189.65725016482028
173693.0,2535.0,173693.0,71450.0,173693.0,89434.0,357.0518948860064,124.5734319338454,187.73891033167934
173693.0,2542.0,173693.0,71516.0,173693.0,89479.0,355.10958936913045,123.63099432223713,185.82691408873967
173693.0,2556.0,173693.0,71594.0,173693.0,89518.0,353.1220750522058,122.67941735137526,183.92156572611137
173693.0,2536.0,173693.0,71537.0,173693.0,89442.0,351.0899510048898,121.71854534824428,182.02374485033624
173693.0,2520.0,173693.0,71415.0,173693.0,89416.0,349.01415727375286,120.74994957948729,180.13517788763403
173704.0,2519.0,173704.0,71390.0,173704.0,89391.0,346.8957741845272,119.77598812776972,178.25771579030953
173704.0,2519.0,173704.0,71417.0,173704.0,89418.0,344.73573415053096,118.79789869980908,176.39238893249973
173704.0,2533.0,173704.0,71564.0,173704.0,89465.0,342.53471713244767,117.81493385777132,174.53910731869178
173704.0,2543.0,173704.0,71566.0,173704.0,89462.0,340.2932944786814,116.82545943278757,172.6971619013214
173704.0,2526.0,173704.0,71480.0,173704.0,89447.0,338.0121956515421,115.8287755964035,170.8659623879883
173704.0,2509.0,173704.0,71410.0,173704.0,89392.0,335.692424615683,114.82557417518586,169.04525670768962
173714.0,2491.0,173714.0,71353.0,173714.0,89393.0,333.3350437291584,113.81655260552245,167.23462978067374
173714.0,2515.0,173714.0,71489.0,173714.0,89451.0,330.9408092642409,112.80071242461833,165.4328866947564
173714.0,2542.0,173714.0,71557.0,173714.0,89464.0,328.51008755374255,111.77519196695266,163.6381378869969
173714.0,2518.0,173714.0,71562.0,173714.0,89459.0,326.0431954217539,110.73690245370116,161.8485479172627
173714.0,2493.0,173714.0,71488.0,173714.0,89415.0,323.5407014524803,109.68425751125528,160.06288780777376
173714.0,2502.0,173714.0,71389.0,173714.0,89391.0,321.00327929304547,108.61728818546595,158.28034459911177
173724.0,2495.0,173724.0,71428.0,173724.0,89396.0,318.4313861732544,107.53622849587454,156.49984112745818
173724.0,2514.0,173724.0,71504.0,173724.0,89450.0,315.82516731800075,106.44022289374603,154.71958042694212
173724.0,2518.0,173724.0,71568.0,173724.0,89477.0,313.1846206410596,105.32762282153844,152.93736726992242
173724.0,2509.0,173724.0,71548.0,173724.0,89445.0,310.50986993416944,104.19753241432642,151.15146202927693
173724.0,2499.0,173724.0,71439.0,173724.0,89411.0,307.801327986087,103.05092774477023,149.36108053714509
173724.0,2470.0,173724.0,71364.0,173724.0,89368.0,305.05958772770117,101.89008278404384,147.5660239433962
173735.0,2499.0,173735.0,71411.0,173735.0,89411.0,302.2851304335038,100.71673310471684,145.76585346371826
173735.0,2499.0,173735.0,71511.0,173735.0,89434.0,299.4781808275475,99.53085730164686,143.959476181231
173735.0,2508.0,173735.0,71542.0,173735.0,89439.0,296.63889526029357,98.33132471909278,142.14550011757018
173735.0,2496.0,173735.0,71504.0,173735.0,89410.0,293.76766033758787,97.11754535261562,140.3228101784499
173735.0,2468.0,173735.0,71420.0,173735.0,89387.0,290.8651822456578,95.89030667309049,138.49067492619935
173735.0,2462.0,173735.0,71379.0,173735.0,89373.0,287.93225140596564,94.65103646603391,136.64832147769545
173745.0,2481.0,173745.0,71461.0,173745.0,89400.0,284.96939088118654,93.4004063857149,134.79442782007678
173745.0,2497.0,173745.0,71522.0,173745.0,89453.0,281.9767972993409,92.13789921044827,132.9270890949013
173745.0,2489.0,173745.0,71537.0,173745.0,89439.0,278.95465927448777,90.86286189903328,131.04444205023287
173745.0,2485.0,173745.0,71451.0,173745.0,89407.0,275.90350118692294,89.57580998905064,129.1453770272801
173745.0,2455.0,173745.0,71371.0,173745.0,89354.0,272.8242426834159,88.27844734537493,127.22954221420918
173745.0,2447.0,173745.0,71398.0,173745.0,89372.0,269.71794149910215,86.97231017494276,125.29661389397924
173755.0,2464.0,173755.0,71485.0,173755.0,89416.0,266.5854340867555,85.65756114667631,123.34565837959717
173755.0,2478.0,173755.0,71519.0,173755.0,89439.0,263.4272382903898,84.3333056564719,121.37531823733401
173755.0,2476.0,173755.0,71543.0,173755.0,89414.0,260.24382934011794,82.99906595992219,119.38457998004003
173755.0,2455.0,173755.0,71377.0,173755.0,89393.0,257.0359592821525,81.65584885483209,117.37326116352627
173755.0,2444.0,173755.0,71389.0,173755.0,89348.0,253.80467579256097,80.30560685517133,115.34178181397266
173755.0,2434.0,173755.0,71375.0,173755.0,89393.0,250.55105856217085,78.94959268684181,113.29054196404661
173766.0,2460.0,173766.0,71500.0,173766.0,89424.0,247.2759727297771,77.58738792707987,111.21964394481395
173766.0,2459.0,173766.0,71508.0,173766.0,89418.0,243.98011455502177,76.21756095041422,109.12933380957453
173766.0,2447.0,173766.0,71497.0,173766.0,89380.0,240.6642825186787,74.83917708113769,107.02058917004453
173766.0,2427.0,173766.0,71407.0,173766.0,89355.0,237.32950955547994,73.45264724407657,104.89509453795311
173766.0,2422.0,173766.0,71360.0,173766.0,89334.0,233.9768823516647,72.05912790887575,102.7546142583889
173766.0,2438.0,173766.0,71395.0,173766.0,89360.0,230.60728444867095,70.65908550586926,100.60031748430498
173776.0,2445.0,173776.0,71499.0,173776.0,89412.0,227.2213869131013,69.25150867349484,98.4326258294967
173776.0,2443.0,173776.0,71539.0,173776.0,89431.0,223.81990880386172,67.83473364078013,96.25183460303833
173776.0,2427.0,173776.0,71498.0,173776.0,89393.0,220.4038681380962,66.40817649148912,94.05905631461673
173776.0,2402.0,173776.0,71400.0,173776.0,89338.0,216.9745622694253,64.97324206867481,91.85657373498198
173776.0,2400.0,173776.0,71356.0,173776.0,89336.0,213.5332614548272,63.53251909429564,89.64725641555016
173776.0,2412.0,173776.0,71444.0,173776.0,89319.0,210.08087662939704,62.088202492540916,87.43364164165165
173786.0,2424.0,173786.0,71534.0,173786.0,89352.0,206.61791907323484,60.64161883152302,85.2173860129852
173786.0,2419.0,173786.0,71469.0,173786.0,89390.0,203.14476408238573,59.19437895797861,82.99934458745611
173786.0,2408.0,173786.0,71441.0,173786.0,89353.0,199.661925184572,57.749552966960614,80.78013182569164
173786.0,2381.0,173786.0,71375.0,173786.0,89307.0,196.17006972912827,56.31146905498108,78.56049242946222
173786.0,2386.0,173786.0,71329.0,173786.0,89317.0,192.66975964314614,54.88444376354474,76.34094374175027
173786.0,2394.0,173786.0,71370.0,173786.0,89370.0,189.16118041637185,53.47137439609394,74.12125227882643
173797.0,2421.0,173797.0,71486.0,173797.0,89391.0,185.6441800683713,52.073197247760326,71.90064898063855
173797.0,2413.0,173797.0,71478.0,173797.0,89355.0,182.11865451647924,50.689842957983686,69.67862735730822
173797.0,2386.0,173797.0,71432.0,173797.0,89325.0,178.58493126473545,49.32176613078661,67.45536530764247
173797.0,2366.0,173797.0,71320.0,173797.0,89306.0,175.04374869247798,47.97031083857746,65.23135373512156
173797.0,2359.0,173797.0,71361.0,173797.0,89313.0,171.49584307301032,46.63653760322335,63.00671360243436
173797.0,2394.0,173797.0,71454.0,173797.0,89365.0,167.94158649460513,45.32003365423132,60.7808813826079
173807.0,2388.0,173807.0,71500.0,173807.0,89400.0,164.38105814422528,44.01929505544664,58.55304133994562
173807.0,2382.0,173807.0,71469.0,173807.0,89367.0,160.81441335109608,42.73330834575401,56.323061806385994
173807.0,2353.0,173807.0,71361.0,173807.0,89319.0,157.24207480972325,41.46251240662762,54.092061223909525
173807.0,2351.0,173807.0,71332.0,173807.0,89302.0,153.66454562603576,40.208086224321235,51.86204338113981
173807.0,2355.0,173807.0,71339.0,173807.0,89304.0,150.0820910662074,38.9702951236217,49.63505512257282
173807.0,2358.0,173807.0,71462.0,173807.0,89336.0,146.494608740547,37.7475427560427,47.4126759595124
173817.0,2365.0,173817.0,71473.0,173817.0,89359.0,142.90174387805536,36.53705570453268,45.19618355317692
173817.0,2357.0,173817.0,71424.0,173817.0,89339.0,139.30309791374495,35.336399358626984,42.98714002878097
173817.0,2345.0,173817.0,71354.0,173817.0,89267.0,135.69836040413404,34.14411711862658,40.78769684347128
173817.0,2329.0,173817.0,71321.0,173817.0,89258.0,132.08724892896925,32.95887374401253,38.60007175189466
173817.0,2329.0,173817.0,71397.0,173817.0,89314.0,128.46928734412216,31.778151184634908,36.42566932997045
173817.0,2358.0,173817.0,71472.0,173817.0,89333.0,124.84366119374559,30.597982356703525,34.26490946640837
173828.0,2357.0,173828.0,71518.0,173828.0,89321.0,121.20940123700842,29.414198519474844,32.117887224109666
173828.0,2342.0,173828.0,71406.0,173828.0,89307.0,117.56576964155403,28.224067204393144,29.984981711396955
173828.0,2314.0,173828.0,71339.0,173828.0,89272.0,113.9124097235393,27.02660268110175,27.866861478538794
173828.0,2315.0,173828.0,71302.0,173828.0,89250.0,110.2490953340822,25.821146325869506,25.763995705600678
173828.0,2326.0,173828.0,71435.0,173828.0,89298.0,106.57540369858597,24.605742819273246,23.676077931961544
173828.0,2351.0,173828.0,71483.0,173828.0,89333.0,102.89071646053961,23.377129505627124,21.601973478483842
173838.0,2338.0,173838.0,71500.0,173838.0,89325.0,99.19458739215167,22.132373380164182,19.5403868715795
173838.0,2312.0,173838.0,71394.0,173838.0,89293.0,95.48708620945516,20.870413373850425,17.490567306163683
173838.0,2294.0,173838.0,71305.0,173838.0,89255.0,91.76872590062987,19.591921422104548,15.452321619905632
173838.0,2283.0,173838.0,71336.0,173838.0,89271.0,88.04003225215465,18.29762805969827,13.425421821400448
173838.0,2301.0,173838.0,71431.0,173838.0,89321.0,84.30114411248746,16.986897453489277,11.409164051917344
173838.0,2312.0,173838.0,71456.0,173838.0,89322.0,80.55175805501295,15.658025127376462,9.402661820911078
173848.0,2329.0,173848.0,71416.0,173848.0,89307.0,76.79145386160013,14.309620928317386,7.405547716134748
173848.0,2286.0,173848.0,71343.0,173848.0,89264.0,73.0201114400501,12.941310572698313,5.418278170758583
173848.0,2271.0,173848.0,71336.0,173848.0,89231.0,69.23797396581696,11.553077865431945,3.4417094059975284
173848.0,2287.0,173848.0,71363.0,173848.0,89253.0,65.44530665658192,10.144142090843332,1.4762966649277018
173848.0,2281.0,173848.0,71471.0,173848.0,89311.0,61.64212876955787,8.712677905976264,-0.47832641339886095
173848.0,2312.0,173848.0,71489.0,173848.0,89334.0,57.82832439475851,7.256889762148077,-2.4228560543917013
173859.0,2291.0,173859.0,71411.0,173859.0,89305.0,54.00398835712832,5.77655653801915,-4.357312909712448
173859.0,2260.0,173859.0,71345.0,173859.0,89235.0,50.16966521809496,4.273455785435644,-6.280563098439785
173859.0,2242.0,173859.0,71304.0,173859.0,89222.0,46.326157575325794,2.7502061838789587,-8.190897969872026
173859.0,2251.0,173859.0,71373.0,173859.0,89252.0,42.47402709031155,1.2087221485914483,-10.087055386746357
173859.0,2271.0,173859.0,71458.0,173859.0,89295.0,38.61330831586935,-0.350201689989575,-11.96861202934727
173859.0,2278.0,173859.0,71450.0,173859.0,89307.0,34.74369838968772,-1.92580180663181,-13.835433082489914
173869.0,2251.0,173869.0,71424.0,173869.0,89251.0,30.864951411722984,-3.5159105035388336,-15.686889648387506
173869.0,2245.0,173869.0,71312.0,173869.0,89195.0,26.97702622127946,-5.1166169834649935,-17.52181123403517
173869.0,2227.0,173869.0,71245.0,173869.0,89217.0,23.0798843687067,-6.72347208835447,-19.339331183729456
173869.0,2247.0,173869.0,71395.0,173869.0,89248.0,19.17322160302615,-8.333267457520392,-21.13969620230054
173869.0,2258.0,173869.0,71445.0,173869.0,89293.0,15.256444529623934,-9.944446465742175,-22.92416574520132
173869.0,2241.0,173869.0,71405.0,173869.0,89270.0,11.328924825729189,-11.555681587556691,-24.694195545610057
173879.0,2232.0,173879.0,71370.0,173879.0,89228.0,7.390217352995762,-13.164536732402212,-26.45080984716577
173879.0,2216.0,173879.0,71271.0,173879.0,89210.0,3.439993266734575,-14.767681800710633,-28.19477346509987
173879.0,2212.0,173879.0,71278.0,173879.0,89226.0,-0.5222066319062151,-16.362281104450105,-29.92725401377544
173879.0,2230.0,173879.0,71407.0,173879.0,89284.0,-4.4971534198404015,-17.94719580951275,-31.65012431115099
173879.0,2239.0,173879.0,71438.0,173879.0,89268.0,-8.48584608934732,-19.52261828313479,-33.36550624863733
173879.0,2232.0,173879.0,71387.0,173879.0,89264.0,-12.489182313980336,-21.088456111882678,-35.07505592902126
173890.0,2210.0,173890.0,71320.0,173890.0,89223.0,-16.507695568136967,-22.6434004701852,-36.77971652536587
173890.0,2199.0,173890.0,71267.0,173890.0,89183.0,-20.541613563859812,-24.18563809408755,-38.480137135828585
173890.0,2199.0,173890.0,71322.0,173890.0,89227.0,-24.591134779551908,-25.714288130091873,-40.17741559149158
173890.0,2212.0,173890.0,71386.0,173890.0,89262.0,-28.65660939650911,-27.230072425739976,-41.87344272366832
173890.0,2215.0,173890.0,71410.0,173890.0,89290.0,-32.738442502380735,-28.734602050760984,-43.57038057466116
173890.0,2208.0,173890.0,71395.0,173890.0,89259.0,-36.83682883352583,-30.22905511582114,-45.26974399958297
173900.0,2171.0,173900.0,71281.0,173900.0,89191.0,-40.95162260471301,-31.713565313374033,-46.97202257952213
173900.0,2170.0,173900.0,71271.0,173900.0,89181.0,-45.08255288885914,-33.1879808799427,-48.6772758768231
173900.0,2185.0,173900.0,71328.0,173900.0,89222.0,-49.2295801557749,-34.65324519390617,-50.38609692043465
173900.0,2194.0,173900.0,71412.0,173900.0,89253.0,-53.39296090216834,-36.111798242235295,-52.09989765038307
173900.0,2196.0,173900.0,71428.0,173900.0,89251.0,-57.57294954527765,-37.56644240162868,-53.82032809385498
173900.0,2173.0,173900.0,71378.0,173900.0,89239.0,-61.76947756056393,-39.018811818597726,-55.54857396064608
173911.0,2158.0,173911.0,71275.0,173911.0,89175.0,-65.9821194887831,-40.46895500594849,-57.28521865207048
173911.0,2146.0,173911.0,71266.0,173911.0,89184.0,-70.21035998287363,-41.916453564111634,-59.030787022994645
173911.0,2169.0,173911.0,71321.0,173911.0,89221.0,-74.45388465850579,-43.36196599491987,-60.786420423043666
173911.0,2167.0,173911.0,71436.0,173911.0,89252.0,-78.71258715912103,-44.80755334980567,-62.55389172187944
173911.0,2187.0,173911.0,71410.0,173911.0,89253.0,-82.98626816280915,-46.2553738512195,-64.33490361859637
173911.0,2142.0,173911.0,71314.0,173911.0,89203.0,-87.2743015647489,-47.706223745200916,-66.13043110291093
173921.0,2115.0,173921.0,71248.0,173921.0,89180.0,-91.57565437611271,-49.15968091428182,-67.94077786980344
173921.0,2123.0,173921.0,71253.0,173921.0,89180.0,-95.889351427782,-50.615731824170126,-69.76624142408247
173921.0,2133.0,173921.0,71378.0,173921.0,89228.0,-100.21491540734428,-52.076068554422164,-71.60764010838452
173921.0,2152.0,173921.0,71427.0,173921.0,89251.0,-104.55233299341708,-53.5436048974546,-73.46610706854588
173921.0,2136.0,173921.0,71378.0,173921.0,89210.0,-108.90167459832224,-55.02071335817112,-75.34239195503463
173921.0,2120.0,173921.0,71303.0,173921.0,89188.0,-113.26280079991892,-56.50811562514032,-77.23651017268966
173931.0,2107.0,173931.0,71235.0,173931.0,89165.0,-117.63541045339048,-58.00553139764631,-79.14812214120474
173931.0,2102.0,173931.0,71276.0,173931.0,89181.0,-122.01931311362418,-59.51331248000638,-81.07717913225676
173931.0,2114.0,173931.0,71358.0,173931.0,89219.0,-126.4146363856546,-61.03343506916136,-83.0241961947942
173931.0,2132.0,173931.0,71412.0,173931.0,89221.0,-130.82176178992864,-62.56888894947319,-84.98991539315782
173931.0,2110.0,173931.0,71344.0,173931.0,89179.0,-135.24101544911764,-64.12214552908972,-86.97476813579922
173931.0,2102.0,173931.0,71261.0,173931.0,89163.0,-139.67242726483312,-65.69443086545458,-88.97882059190053
173942.0,2080.0,173942.0,71239.0,173942.0,89138.0,-144.11580749475036,-67.28662118814293,-91.0023074161584
173942.0,2080.0,173942.0,71308.0,173942.0,89186.0,-148.5710334733269,-68.90068627911974,-93.04620332488452
173942.0,2097.0,173942.0,71402.0,173942.0,89207.0,-153.03826113710613,-70.53997265334075,-95.11224563303603
173942.0,2088.0,173942.0,71418.0,173942.0,89232.0,-157.51786910499038,-72.20787316244511,-97.20230046523199
173942.0,2093.0,173942.0,71334.0,173942.0,89181.0,-162.0102284013346,-73.90616596321708,-99.31760482949079
173942.0,2061.0,173942.0,71244.0,173942.0,89121.0,-166.51556696750185,-75.63473482095519,-101.4586636321834
173952.0,2063.0,173952.0,71275.0,173952.0,89102.0,-171.03407061291853,-77.39288723190836,-103.62608086762438
173952.0,2067.0,173952.0,71313.0,173952.0,89157.0,-175.56609290493293,-79.18071816697969,-105.8216247523136
173952.0,2069.0,173952.0,71409.0,173952.0,89197.0,-180.11221090823096,-80.99908058446657,-108.04845218112607
173952.0,2083.0,173952.0,71403.0,173952.0,89221.0,-184.67304783864324,-82.84823961068182,-110.31027388560838
173952.0,2059.0,173952.0,71305.0,173952.0,89192.0,-189.24901439486547,-84.72653186100719,-112.61025552200564
173952.0,2031.0,173952.0,71207.0,173952.0,89122.0,-193.84023183511613,-86.6305234082852,-114.95059560931577
173962.0,2033.0,173962.0,71203.0,173962.0,89140.0,-198.44679463711213,-88.55680203840583,-117.33305949381347
173962.0,2049.0,173962.0,71334.0,173962.0,89184.0,-203.06909346369747,-90.50368575152348,-119.75970632480082
173962.0,2051.0,173962.0,71360.0,173962.0,89205.0,-207.7077977341341,-92.47109506518944,-122.23282140627
173962.0,2048.0,173962.0,71353.0,173962.0,89198.0,-212.36355647763378,-94.45894130080492,-124.75414492628911
173962.0,2039.0,173962.0,71259.0,173962.0,89145.0,-217.0367473174756,-96.46594935312211,-127.32430969397748
173962.0,2024.0,173962.0,71219.0,173962.0,89105.0,-221.72743141913924,-98.49005228661244,-129.9430969716639
173973.0,2004.0,173973.0,71247.0,173973.0,89121.0,-226.43550832136737,-100.52974663546465,-132.6103039614377
173973.0,2024.0,173973.0,71346.0,173973.0,89185.0,-231.16096136719148,-102.58486841450147,-135.32633048619098
173973.0,2024.0,173973.0,71357.0,173973.0,89201.0,-235.90394077278893,-104.65588528224185,-138.09178061446326
173973.0,2014.0,173973.0,71320.0,173973.0,89180.0,-240.66459529189888,-106.74247590417997,-140.9064637271036
173973.0,2006.0,173973.0,71278.0,173973.0,89098.0,-245.44290948545392,-108.84286370957093,-143.7688979413072
173973.0,1992.0,173973.0,71190.0,173973.0,89074.0,-250.23873884752078,-110.95443527333569,-146.6769290891399
173983.0,1988.0,173983.0,71225.0,173983.0,89132.0,-255.05196993560833,-113.07510911372552,-149.6288500836297
173983.0,1989.0,173983.0,71317.0,173983.0,89159.0,-259.8826658733423,-115.2042893152013,-152.623782218036
173983.0,2001.0,173983.0,71365.0,173983.0,89146.0,-264.7310717586405,-117.3423355136523,-155.66104524870406
173983.0,1988.0,173983.0,71302.0,173983.0,89133.0,-269.5974516448262,-119.48901877141006,-158.73944518026454
173983.0,1965.0,173983.0,71215.0,173983.0,89072.0,-274.4819533899982,-121.64274826219201,-161.8572285579417
173983.0,1959.0,173983.0,71198.0,173983.0,89098.0,-279.3847239770484,-123.80143897845016,-165.01263450116383
173993.0,1969.0,173993.0,71234.0,173993.0,89112.0,-284.3061559005477,-125.96398436325882,-168.20442932114148
173993.0,1979.0,173993.0,71348.0,173993.0,89133.0,-289.2469286783632,-128.1307109003416,-171.431855110978
173993.0,1985.0,173993.0,71340.0,173993.0,89157.0,-294.20774631450706,-130.3022865047708,-174.6940530608498
173993.0,1966.0,173993.0,71273.0,173993.0,89111.0,-299.1889933041603,-132.47821801934867,-177.98943912681878
173993.0,1941.0,173993.0,71150.0,173993.0,89069.0,-304.1906208152691,-134.65668225177467,-181.3155683731295
173993.0,1940.0,173993.0,71171.0,173993.0,89061.0,-309.21236826998154,-136.83606495699985,-184.66970862624754
174003.0,1941.0,174003.0,71292.0,174003.0,89119.0,-314.25406938599616,-139.01653622015615,-188.0495163993977
174003.0,1949.0,174003.0,71304.0,174003.0,89128.0,-319.3157350796719,-141.1998611711523,-191.45297330628006
174003.0,1945.0,174003.0,71334.0,174003.0,89104.0,-324.397397046576,-143.38779005874585,-194.87770041538158
174003.0,1927.0,174003.0,71233.0,174003.0,89070.0,-329.49892653543577,-145.58079029829122,-198.32055117047082
174003.0,1908.0,174003.0,71194.0,174003.0,89046.0,-334.6200529496982,-147.7781748074603,-201.77792817604245
174003.0,1905.0,174003.0,71187.0,174003.0,89025.0,-339.760610613621,-149.97932912795557,-205.2465001527595
174013.0,1919.0,174013.0,71281.0,174013.0,89097.0,-344.920770864453,-152.18474621367545,-208.72373229431201
174013.0,1919.0,174013.0,71321.0,174013.0,89090.0,-350.10100651058065,-154.39572751992324,-212.2077262233409
174013.0,1916.0,174013.0,71272.0,174013.0,89093.0,-355.3018412681072,-156.6130903650691,-215.6965052201399
174013.0,1891.0,174013.0,71223.0,174013.0,89042.0,-360.5236674842225,-158.83636896534887,-219.18752797051292
174013.0,1882.0,174013.0,71137.0,174013.0,89006.0,-365.7668243862893,-161.06440360693227,-222.67793885517563
174013.0,1871.0,174013.0,71211.0,174013.0,89022.0,-371.0318700615747,-163.29673513391336,-226.16532618078998
174023.0,1907.0,174023.0,71303.0,174023.0,89064.0,-376.31976383486943,-165.53429710899448,-229.64824168695003
174023.0,1892.0,174023.0,71330.0,174023.0,89089.0,-381.631710108527,-167.77845046259844,-233.1259005964614
174023.0,1892.0,174023.0,71244.0,174023.0,89038.0,-386.96879720186286,-170.02933401716243,-236.59740629073332
174023.0,1860.0,174023.0,71156.0,174023.0,88999.0,-392.3318217325374,-172.2854533879463,-240.0614568604991
174023.0,1858.0,174023.0,71137.0,174023.0,88987.0,-397.7214462388702,-174.54500811733064,-243.51690795118327
174023.0,1865.0,174023.0,71245.0,174023.0,89037.0,-403.13846538467925,-176.807473695106,-246.9634957826409
174034.0,1882.0,174034.0,71257.0,174034.0,89051.0,-408.5838427633968,-179.07375680020002,-250.40186029510437
174034.0,1870.0,174034.0,71291.0,174034.0,89052.0,-414.05843732796217,-181.34498651351825,-253.8328906906778
174034.0,1858.0,174034.0,71225.0,174034.0,89030.0,-419.56270881022755,-183.621327728765,-257.2571036806812
174034.0,1846.0,174034.0,71153.0,174034.0,88989.0,-425.0966753076923,-185.90186907007794,-260.6745704648746
174034.0,1828.0,174034.0,71125.0,174034.0,88989.0,-430.6600967161213,-188.18570066393497,-264.08537219032837
174034.0,1833.0,174034.0,71233.0,174034.0,89021.0,-436.25271806169417,-190.4731982579805,-267.49010223933703
174044.0,1850.0,174044.0,71287.0,174044.0,89047.0,-441.87437441444496,-192.76603234467242,-270.88982441487985
174044.0,1838.0,174044.0,71287.0,174044.0,89018.0,-447.52482584967373,-195.0657282389261,-274.28550926580147
174044.0,1809.0,174044.0,71204.0,174044.0,88986.0,-453.2035410261039,-197.37229688073592,-277.67765277591417
174044.0,1805.0,174044.0,71136.0,174044.0,88952.0,-458.9097754461145,-199.6843245956818,-281.0665752228373
174044.0,1809.0,174044.0,71159.0,174044.0,88990.0,-464.6428472769936,-202.00031134657308,-284.4530844886362
174044.0,1814.0,174044.0,71247.0,174044.0,89044.0,-470.4022383921836,-204.3197397233138,-287.8386842012942
174054.0,1820.0,174054.0,71286.0,174054.0,89038.0,-476.18741946852373,-206.64265845615972,-291.22492193758734
174054.0,1814.0,174054.0,71237.0,174054.0,88999.0,-481.99756307975474,-208.96828437838315,-294.61251693927966
174054.0,1789.0,174054.0,71143.0,174054.0,88940.0,-487.8313552738958,-211.29429241464064,-298.0012488034713
174054.0,1762.0,174054.0,71108.0,174054.0,88965.0,-493.6870999405022,-213.6176840613389,-301.39069212125844
174054.0,1791.0,174054.0,71163.0,174054.0,88974.0,-499.56305125077665,-215.93635410941104,-304.780934962595
174054.0,1797.0,174054.0,71256.0,174054.0,89028.0,-505.4575411481711,-218.2496780313139,-308.1725445818074
174065.0,1792.0,174065.0,71297.0,174065.0,89044.0,-511.368689455679,-220.55741786557329,-311.5658005785748
174065.0,1793.0,174065.0,71231.0,174065.0,89000.0,-517.2940204515953,-222.8579564651836,-314.9597702408507
174065.0,1740.0,174065.0,71136.0,174065.0,88938.0,-523.2303462005598,-225.14759850702347,-318.3520355565073
174065.0,1737.0,174065.0,71100.0,174065.0,88913.0,-529.1740482631485,-227.42163043253447,-321.73943619554956
174065.0,1753.0,174065.0,71153.0,174065.0,88983.0,-535.1215453943096,-229.6760466225546,-325.11910201996164
174065.0,1769.0,174065.0,71250.0,174065.0,88981.0,-541.0694252252358,-231.90820154580237,-328.4886803830083
174075.0,1763.0,174075.0,71232.0,174075.0,88983.0,-547.0140943362908,-234.11583957694253,-331.8457218811231
174075.0,1739.0,174075.0,71213.0,174075.0,88939.0,-552.9513880048653,-236.2956844277756,-335.1871575717536
174075.0,1717.0,174075.0,71096.0,174075.0,88917.0,-558.8765505629815,-238.44309594661638,-338.50944652416024
174075.0,1705.0,174075.0,71061.0,174075.0,88910.0,-564.7845763816443,-240.5532092568905,-341.8091873825476
174075.0,1723.0,174075.0,71191.0,174075.0,88976.0,-570.6705756959768,-242.62250808778742,-345.0835586035964
174075.0,1734.0,174075.0,71243.0,174075.0,88996.0,-576.5298112795128,-244.64902121471908,-348.32999452613575
174085.0,1735.0,174085.0,71253.0,174085.0,88974.0,-582.3573636278757,-246.63076773530437,-351.54526736106527
174085.0,1704.0,174085.0,71195.0,174085.0,88945.0,-588.1477647930408,-248.56412689564976,-354.72486158136087
174085.0,1692.0,174085.0,71063.0,174085.0,88895.0,-593.8949713713185,-250.44371711734377,-357.8631831791799
174085.0,1682.0,174085.0,71097.0,174085.0,88915.0,-599.5926646805003,-252.26386326854342,-360.95431656720774
174085.0,1711.0,174085.0,71237.0,174085.0,88948.0,-605.2345059557346,-254.0200414616334,-363.99258659400107
174085.0,1705.0,174085.0,71238.0,174085.0,88959.0,-610.8140351144057,-255.7084700862196,-366.9723956452851
174096.0,1704.0,174096.0,71181.0,174096.0,88947.0,-616.324316505861,-257.3244644598635,-369.88760517021626
174096.0,1678.0,174096.0,71120.0,174096.0,88910.0,-621.7577021986666,-258.86176512945565,-372.73117619127083
174096.0,1655.0,174096.0,71056.0,174096.0,88890.0,-627.105937664884,-260.31352197379374,-375.49541100758097
174096.0,1660.0,174096.0,71118.0,174096.0,88895.0,-632.3605230880671,-261.6738495884516,-378.1725433532002
174096.0,1676.0,174096.0,71192.0,174096.0,88919.0,-637.5129845030983,-262.9385274391252,-380.7551328734961
174096.0,1677.0,174096.0,71246.0,174096.0,88952.0,-642.5547757675864,-264.10414880793235,-383.23589989802804
174106.0,1670.0,174106.0,71161.0,174106.0,88941.0,-647.4769553236342,-265.16655649649795,-385.60711205690694
174106.0,1647.0,174106.0,71090.0,174106.0,88879.0,-652.2700002746994,-266.12026937904216,-387.86011997876085
174106.0,1636.0,174106.0,71087.0,174106.0,88880.0,-656.9239260373004,-266.95948682316964,-389.9856049175073
174106.0,1649.0,174106.0,71139.0,174106.0,88902.0,-661.4285540249327,-267.6794306091165,-391.97423502800905
174106.0,1656.0,174106.0,71223.0,174106.0,88927.0,-665.7736018667031,-268.276522925486,-393.81688669754124
174106.0,1668.0,174106.0,71224.0,174106.0,88920.0,-669.9484609004303,-268.7472306018748,-395.5042490979163
174116.0,1626.0,174116.0,71171.0,174116.0,88876.0,-673.9419020971541,-269.0867231521743,-397.0264335366936
174116.0,1614.0,174116.0,71066.0,174116.0,88826.0,-677.74210336345,-269.2887148118516,-398.3732213342866
174116.0,1612.0,174116.0,71056.0,174116.0,88864.0,-681.3370471532195,-269.3468023778187,-399.53488983154415
174116.0,1617.0,174116.0,71155.0,174116.0,88906.0,-684.7148921190833,-269.2560544550081,-400.5027608186142
174116.0,1630.0,174116.0,71204.0,174116.0,88924.0,-687.8640237253812,-269.0132009488341,-401.2688261292334
174116.0,1631.0,174116.0,71247.0,174116.0,88915.0,-690.7728449160271,-268.6152570163666,-401.82487971221656
174127.0,1612.0,174127.0,71116.0,174127.0,88852.0,-693.4295379183636,-268.0580852149552,-402.1620650959883
174127.0,1590.0,174127.0,71050.0,174127.0,88826.0,-695.8220687381122,-267.33649671788373,-402.2713059941689
174127.0,1588.0,174127.0,71073.0,174127.0,88845.0,-697.9385075807568,-266.44591398903344,-402.14427630200066
174127.0,1607.0,174127.0,71165.0,174127.0,88884.0,-699.7673761936669,-265.3838101511884,-401.7740152843943
174127.0,1620.0,174127.0,71252.0,174127.0,88882.0,-701.2976683609108,-264.1493507310999,-401.15473490551227
174127.0,1594.0,174127.0,71165.0,174127.0,88895.0,-702.5185965377202,-262.7417437945451,-400.28125462375635
174137.0,1588.0,174137.0,71114.0,174137.0,88856.0,-703.4194859146651,-261.15925342158096,-399.1486729830999
174137.0,1569.0,174137.0,71049.0,174137.0,88832.0,-703.990022679563,-259.3999693632747,-397.7525473494343
174137.0,1582.0,174137.0,71109.0,174137.0,88855.0,-704.2206382580182,-257.46342428012963,-396.0894585013076
174137.0,1598.0,174137.0,71199.0,174137.0,88899.0,-704.1027141618109,-255.35137487617163,-394.157369287787
174137.0,1609.0,174137.0,71217.0,174137.0,88919.0,-703.6284600204581,-253.0670143503218,-391.95528367424504
174137.0,1588.0,174137.0,71223.0,174137.0,88903.0,-702.7906391145966,-250.61344988557784,-389.48251587331293
174148.0,1580.0,174148.0,71136.0,174148.0,88843.0,-701.5825099809654,-247.99284954725812,-386.73837503861625
174148.0,1577.0,174148.0,71067.0,174148.0,88851.0,-699.9980875321748,-245.20697894113925,-383.7226662409571
174148.0,1586.0,174148.0,71159.0,174148.0,88904.0,-698.0324628466076,-242.25864388681836,-380.43643300887055
174148.0,1613.0,174148.0,71297.0,174148.0,88933.0,-695.6819005212835,-239.15230066408583,-376.88199635777164
174148.0,1611.0,174148.0,71258.0,174148.0,88923.0,-692.9436489855018,-235.89274497849163,-373.0622680116534
174148.0,1606.0,174148.0,71213.0,174148.0,88923.0,-689.8156784107293,-232.48335277856432,-368.98015735247355
174158.0,1597.0,174158.0,71123.0,174158.0,88869.0,-686.2966458170356,-228.92591673722626,-364.63859210350097
174158.0,1613.0,174158.0,71071.0,174158.0,88870.0,-682.3860894648974,-225.22218757056737,-360.041116224759
174158.0,1604.0,174158.0,71195.0,174158.0,88922.0,-678.0846157982197,-221.37570958850762,-355.1926014869376
174158.0,1642.0,174158.0,71263.0,174158.0,88965.0,-673.3939413374303,-217.39226464578755,-350.0993218030922
174158.0,1638.0,174158.0,71268.0,174158.0,88953.0,-668.3167611692143,-213.27854796171198,-344.76826468841443
174158.0,1634.0,174158.0,71183.0,174158.0,88909.0,-662.8565512343989,-209.04071888912665,-339.20654580046744
174168.0,1631.0,174168.0,71136.0,174168.0,88925.0,-657.0175613388963,-204.68446968584612,-333.4216063063868
174168.0,1635.0,174168.0,71184.0,174168.0,88898.0,-650.8050432953587,-200.21631460275884,-327.4218710737725
174168.0,1669.0,174168.0,71264.0,174168.0,88987.0,-644.2254469239932,-195.6444436931949,-321.2171692550589
174168.0,1686.0,174168.0,71319.0,174168.0,89034.0,-637.286326727539,-190.97809284004532,-314.818409035463
174168.0,1682.0,174168.0,71292.0,174168.0,88989.0,-629.9960177189836,-186.2260510215469,-308.2366033680251
174168.0,1683.0,174168.0,71215.0,174168.0,88968.0,-622.3634322855106,-181.3957879146352,-301.48225618556654
174179.0,1683.0,174179.0,71182.0,174179.0,88959.0,-614.398161977535,-176.49403330678044,-294.56575835047465
174179.0,1696.0,174179.0,71207.0,174179.0,88964.0,-606.1107159636322,-171.52820702411148,-287.4982020735781
174179.0,1731.0,174179.0,71300.0,174179.0,89029.0,-597.5126347775849,-166.5072805182517,-280.2918120647159
174179.0,1753.0,174179.0,71392.0,174179.0,89076.0,-588.6163029515856,-161.44113288187756,-272.95961663931365
174179.0,1747.0,174179.0,71324.0,174179.0,89039.0,-579.434563372135,-156.33885634574403,-265.51457290168366
174179.0,1750.0,174179.0,71233.0,174179.0,89009.0,-569.9805032998629,-151.207749324569,-257.96906638140774
174189.0,1761.0,174189.0,71184.0,174189.0,89011.0,-560.2675613931877,-146.0542251210753,-250.33533718131875
174189.0,1776.0,174189.0,71289.0,174189.0,89073.0,-550.3097144878514,-140.88564644527077,-242.62616035843413
174189.0,1803.0,174189.0,71379.0,174189.0,89103.0,-540.1215028716676,-135.71094443252028,-234.85483303629061
174189.0,1824.0,174189.0,71402.0,174189.0,89099.0,-529.717847054501,-130.53933182855332,-227.03449009489498
174189.0,1817.0,174189.0,71349.0,174189.0,89106.0,-519.1137830570746,-125.37856309084833,-219.1775129774855
174189.0,1831.0,174189.0,71270.0,174189.0,89072.0,-508.32435655857955,-120.23448556783109,-211.29548450669174
174199.0,1832.0,174199.0,71253.0,174199.0,89067.0,-497.3647442219243,-115.11217090055904,-203.39962455038247
174199.0,1869.0,174199.0,71330.0,174199.0,89129.0,-486.25039731151435,-110.01742031142459,-195.50133379249394
174199.0,1894.0,174199.0,71415.0,174199.0,89162.0,-474.99696831085254,-104.95710355186408,-187.61221181626516
174199.0,1923.0,174199.0,71436.0,174199.0,89182.0,-463.61995730404624,-99.93797109588496,-179.74337104355487
174199.0,1895.0,174199.0,71387.0,174199.0,89150.0,-452.13432653360695,-94.96514145488398,-171.90471196289906
174199.0,1901.0,174199.0,71265.0,174199.0,89119.0,-440.5544873775054,-90.04182369405378,-164.104873664045
174210.0,1908.0,174210.0,71307.0,174210.0,89152.0,-428.8946977095181,-85.17064937342587,-156.35184114515695
174210.0,1956.0,174210.0,71414.0,174210.0,89169.0,-417.1694118107536,-80.35512636492764,-148.653500805107
174210.0,1994.0,174210.0,71434.0,174210.0,89206.0,-405.3931492903997,-75.59948214605052,-141.0176035237542
174210.0,1988.0,174210.0,71450.0,174210.0,89221.0,-393.579961472088,-70.90724858238748,-133.45128280440136
174210.0,1992.0,174210.0,71390.0,174210.0,89195.0,-381.7430229687685,-66.28022930740151,-125.96058913828206
174210.0,1990.0,174210.0,71302.0,174210.0,89163.0,-369.89468797771326,-61.71875824371948,-118.55050379460454
174220.0,1999.0,174220.0,71357.0,174220.0,89176.0,-358.04682873264187,-57.223024571484686,-111.22554314217513
174220.0,2052.0,174220.0,71416.0,174220.0,89246.0,-346.2110772727347,-52.79419322459026,-103.99033002997427
174220.0,2060.0,174220.0,71510.0,174220.0,89265.0,-334.39869693800745,-48.4340641699645,-96.84938937050345
174220.0,2076.0,174220.0,71452.0,174220.0,89236.0,-322.6201904705134,-44.14360434786687,-89.80640657544728
174220.0,2071.0,174220.0,71358.0,174220.0,89214.0,-310.8850531488047,-39.92203393493068,-82.86392413263022
174220.0,2076.0,174220.0,71358.0,174220.0,89201.0,-299.20185275057986,-35.767565783636115,-76.02384047540323
174230.0,2091.0,174230.0,71391.0,174230.0,89243.0,-287.57848830212663,-31.678911668335957,-69.28812822598803
174230.0,2124.0,174230.0,71501.0,174230.0,89287.0,-276.02236222548805,-27.65582105646996,-62.65903106320104
174230.0,2132.0,174230.0,71500.0,174230.0,89292.0,-264.54029563138886,-23.69813032196052,-56.1385651074485
174230.0,2137.0,174230.0,71423.0,174230.0,89277.0,-253.13833020017933,-19.804469862574564,-49.72788532298463
174230.0,2126.0,174230.0,71368.0,174230.0,89249.0,-241.82172200999236,-15.972197516838747,-43.42718267977648
174230.0,2139.0,174230.0,71371.0,174230.0,89253.0,-230.59521615712904,-12.198699984404044,-37.23617274858191
174241.0,2173.0,174241.0,71423.0,174241.0,89277.0,-219.463351052458,-8.482696313130333,-31.154679906951856
174241.0,2201.0,174241.0,71565.0,174241.0,89334.0,-208.43044617957477,-4.824232156066728,-25.182746469759365
174241.0,2223.0,174241.0,71532.0,174241.0,89357.0,-197.5002306677893,-1.223188776550444,-19.320064377141108
174241.0,2203.0,174241.0,71426.0,174241.0,89292.0,-186.67545657322734,2.322252299892938,-13.565229300528046
174241.0,2208.0,174241.0,71389.0,174241.0,89277.0,-175.95787720734717,5.815397982153513,-7.915707617200184
174241.0,2209.0,174241.0,71403.0,174241.0,89273.0,-165.34859851646837,9.259374993254283,-2.3686498625693275
174251.0,2234.0,174251.0,71501.0,174251.0,89325.0,-154.8484594178513,12.655938514756343,3.078327559891619
174251.0,2271.0,174251.0,71528.0,174251.0,89358.0,-144.45812130276266,16.005848790888194,8.42713907877527
174251.0,2276.0,174251.0,71501.0,174251.0,89354.0,-134.17781203545434,19.310137689791077,13.679871425138288
174251.0,2255.0,174251.0,71439.0,174251.0,89313.0,-124.00704619713332,22.570789898119415,18.839298770863735
174251.0,2263.0,174251.0,71398.0,174251.0,89297.0,-113.94473642876261,25.790124338162997,23.908662326116456
174251.0,2277.0,174251.0,71446.0,174251.0,89347.0,-103.989604817469,28.96952131553863,28.89100167622746
174261.0,2322.0,174261.0,71556.0,174261.0,89390.0,-94.14040259269501,32.10885932031732,33.788938313679864
174261.0,2333.0,174261.0,71590.0,174261.0,89402.0,-84.3956892519127,35.20748104628103,38.60527149059223
174261.0,2331.0,174261.0,71537.0,174261.0,89383.0,-74.75342614400705,38.265885207860975,43.343762997833096
174261.0,2319.0,174261.0,71477.0,174261.0,89336.0,-65.21084191798701,41.28646042824781,48.009317477253035
174261.0,2323.0,174261.0,71425.0,174261.0,89309.0,-55.764713585630204,44.272633823494374,52.607337559600865
174261.0,2346.0,174261.0,71418.0,174261.0,89363.0,-46.41177186743528,47.227233583128935,57.142753536211785
174272.0,2384.0,174272.0,71529.0,174272.0,89451.0,-37.14883224761559,50.15132015939764,61.619733186706696
174272.0,2393.0,174272.0,71598.0,174272.0,89431.0,-27.97252029860846,53.044485703442234,66.04253908475275
174272.0,2382.0,174272.0,71551.0,174272.0,89376.0,-18.87890100674292,55.90639303122859,70.41655173835295
174272.0,2374.0,174272.0,71450.0,174272.0,89341.0,-9.863453379115128,58.73780360535906,74.74817943050644
174272.0,2372.0,174272.0,71427.0,174272.0,89339.0,-0.9214531917556883,61.53981757110469,79.0437679166433
174272.0,2395.0,174272.0,71572.0,174272.0,89393.0,7.9515617994792365,64.31240649301952,83.30863294519435
174282.0,2423.0,174282.0,71571.0,174282.0,89396.0,16.759598190485235,67.05428676868036,87.54693585149013
174282.0,2438.0,174282.0,71631.0,174282.0,89455.0,25.50638787300204,69.76429764372477,91.76224825440679
174282.0,2439.0,174282.0,71524.0,174282.0,89398.0,34.19571275893162,72.44268107510439,95.95823705288905
174282.0,2423.0,174282.0,71458.0,174282.0,89363.0,42.83151698953691,75.09099257500944,100.13883617738952
174282.0,2436.0,174282.0,71472.0,174282.0,89388.0,51.417676990780706,77.71067743265743,104.30766010817743
174282.0,2468.0,174282.0,71588.0,174282.0,89441.0,59.957700429590886,80.30177137784295,108.46740174283266
174292.0,2485.0,174292.0,71635.0,174292.0,89461.0,68.45473643287835,82.86325355728397,112.62006243874134
174292.0,2487.0,174292.0,71633.0,174292.0,89462.0,76.91186660254357,85.39471183581796,116.76774701191573
174292.0,2481.0,174292.0,71531.0,174292.0,89403.0,85.33229019499333,87.89755980748106,120.91313116274196
174292.0,2480.0,174292.0,71458.0,174292.0,89395.0,93.71919087607034,90.37455688615702,125.05910544679028
174292.0,2483.0,174292.0,71505.0,174292.0,89431.0,102.07540435098491,92.82805641633001,129.20797211992345
174292.0,2526.0,174292.0,71595.0,174292.0,89464.0,110.40316604511702,95.25875653176053,133.36108723152938
174303.0,2542.0,174303.0,71652.0,174303.0,89515.0,118.7042018319039,97.6662225689357,137.5193404965055
174303.0,2548.0,174303.0,71644.0,174303.0,89457.0,126.980109120198,100.05056377560334,141.68398315999667
174303.0,2529.0,174303.0,71517.0,174303.0,89434.0,135.2326113586501,102.41353403596702,145.85692754963014
174303.0,2550.0,174303.0,71496.0,174303.0,89410.0,143.46343294088473,104.75791522328007,150.04014388643702
174303.0,2546.0,174303.0,71568.0,174303.0,89469.0,151.67400897272125,107.08590964366607,154.23479581747006
174303.0,2585.0,174303.0,71650.0,174303.0,89502.0,159.86534352681838,109.3984984287963,158.44104552481713
174313.0,2581.0,174313.0,71669.0,174313.0,89523.0,168.038099314882,111.69650042176076,162.65869432146332
174313.0,2600.0,174313.0,71584.0,174313.0,89465.0,176.19278720523408,113.98199991160251,166.8879200679026
174313.0,2582.0,174313.0,71520.0,174313.0,89440.0,184.32984307485071,116.25847968312007,171.12925335499028
174313.0,2585.0,174313.0,71502.0,174313.0,89444.0,192.44946651092715,118.5294650382196,175.382770187846
174313.0,2615.0,174313.0,71553.0,174313.0,89484.0,200.55133468031272,120.79696577362427,179.64732886302033
174313.0,2639.0,174313.0,71697.0,174313.0,89541.0,208.63452527848085,123.06118321213017,183.920591724862
174323.0,2650.0,174323.0,71668.0,174323.0,89547.0,216.69778820769255,125.32187280243983,188.19981969689331
174323.0,2640.0,174323.0,71561.0,174323.0,89502.0,224.73985840934927,127.57992947811945,192.48270707157775
174323.0,2633.0,174323.0,71490.0,174323.0,89451.0,232.75945371658173,129.83720645818093,196.7673823948811
174323.0,2649.0,174323.0,71522.0,174323.0,89456.0,240.7549719363996,132.0946747205084,201.05147636001323
174323.0,2663.0,174323.0,71610.0,174323.0,89516.0,248.724211002758,134.3509852723446,205.33116542978672
174323.0,2685.0,174323.0,71695.0,174323.0,89555.0,256.66435105631274,136.60286294494185,209.6011464691308
174334.0,2699.0,174334.0,71694.0,174334.0,89570.0,264.57215400336656,138.84688855967565,213.8555020386051
174334.0,2682.0,174334.0,71590.0,174334.0,89511.0,272.4441641081952,141.0810020120194,218.08852560469916
174334.0,2694.0,174334.0,71536.0,174334.0,89505.0,280.27668104421457,143.30431786285226,222.29470545917655
174334.0,2706.0,174334.0,71574.0,174334.0,89513.0,288.0655439690446,145.51557932411342,226.46803145405505
174334.0,2734.0,174334.0,71698.0,174334.0,89604.0,295.80603435199,147.7121307134815,230.60157993044584
174334.0,2743.0,174334.0,71683.0,174334.0,89613.0,303.4930433991959,149.89061861087643,234.68805498473552
174344.0,2760.0,174344.0,71672.0,174344.0,89592.0,311.1213564985145,152.04846660402626,238.72083500226557
174344.0,2738.0,174344.0,71576.0,174344.0,89552.0,318.6858241449952,154.18440558483337,242.69444402155233
174344.0,2741.0,174344.0,71532.0,174344.0,89549.0,326.1812454768717,156.29751934278414,246.60408589388788
174344.0,2772.0,174344.0,71597.0,174344.0,89577.0,333.6020657780848,158.3856514214247,250.4449031751376
174344.0,2794.0,174344.0,71714.0,174344.0,89608.0,340.9422888161382,160.44475178188276,254.2117299251728
174344.0,2809.0,174344.0,71732.0,174344.0,89640.0,348.19576811876027,162.47001735804665,257.89951059209716
174354.0,2803.0,174354.0,71687.0,174354.0,89594.0,355.35656977810584,164.45772369796154,261.5039338570479
174354.0,2795.0,174354.0,71579.0,174354.0,89559.0,362.4190629482815,166.40585970339058,265.0215591314173
174354.0,2799.0,174354.0,71552.0,174354.0,89549.0,369.37769168386524,168.31295644322756,268.44915252695256
174354.0,2827.0,174354.0,71655.0,174354.0,89594.0,376.2266873416065,170.1763607748559,271.78284357999036
174354.0,2841.0,174354.0,71734.0,174354.0,89641.0,382.96003742973437,171.991860177586,275.01796899420816
174354.0,2856.0,174354.0,71740.0,174354.0,89644.0,389.57173133129356,173.7550737505409,278.1497391186752
174365.0,2857.0,174365.0,71663.0,174365.0,89601.0,396.05603822623436,175.4630107633965,281.17397853222747
174365.0,2829.0,174365.0,71612.0,174365.0,89574.0,402.4075644415368,177.11419410473692,284.0871233018129
174365.0,2847.0,174365.0,71590.0,174365.0,89596.0,408.62098315978415,178.70740741065865,286.8855398094299
174365.0,2866.0,174365.0,71711.0,174365.0,89635.0,414.6906795116597,180.24046432135543,289.56501118317124
174365.0,2901.0,174365.0,71749.0,174365.0,89659.0,420.61073621029584,181.71036390181956,292.120966190519
174365.0,2905.0,174365.0,71744.0,174365.0,89679.0,426.37531657522175,183.11471289692054,294.54921800197144
174375.0,2890.0,174375.0,71642.0,174375.0,89619.0,431.97905860594756,184.4528141462748,296.84656740024053
174375.0,2889.0,174375.0,71614.0,174375.0,89612.0,437.41710388095123,185.72521711633124,299.0107342806593
174375.0,2910.0,174375.0,71617.0,174375.0,89633.0,442.68484038157897,186.93223852907707,301.0397450408738
174375.0,2922.0,174375.0,71693.0,174375.0,89664.0,447.77776414491757,188.07291016070394,302.93155911828006
174375.0,2950.0,174375.0,71771.0,174375.0,89691.0,452.69164810351947,189.14530293491075,304.6843799600375
174375.0,2929.0,174375.0,71732.0,174375.0,89672.0,457.4228442184707,190.14791973370205,306.2973003870004
174386.0,2929.0,174386.0,71646.0,174386.0,89638.0,461.96840334190813,191.08072620888564,307.77063886246344
174386.0,2939.0,174386.0,71626.0,174386.0,89600.0,466.3259076944378,191.94468028086024,309.1055801625209
174386.0,2937.0,174386.0,71670.0,174386.0,89641.0,470.49325687813723,192.74041399074312,310.3033855500577
174386.0,2970.0,174386.0,71776.0,174386.0,89684.0,474.46862606864124,193.46774534639977,311.3649879792515
174386.0,2967.0,174386.0,71733.0,174386.0,89685.0,478.25061871749404,194.12660904797957,312.2914195357172
174386.0,2978.0,174386.0,71725.0,174386.0,89667.0,481.8385106142284,194.71825864466996,313.084520628436
174396.0,2966.0,174396.0,71633.0,174396.0,89627.0,485.2323890519475,195.24540648548862,313.74712140786676
174396.0,2942.0,174396.0,71587.0,174396.0,89620.0,488.433037365226,195.7111233353447,314.28254964143974
174396.0,2964.0,174396.0,71693.0,174396.0,89653.0,491.4415830543778,196.11738194581457,314.6939850555427
174396.0,3004.0,174396.0,71758.0,174396.0,89672.0,494.2592575550095,196.4646995474828,314.9842975132595
174396.0,2996.0,174396.0,71767.0,174396.0,89688.0,496.88762581734466,196.75338513223306,315.1564782086201
174396.0,2972.0,174396.0,71687.0,174396.0,89661.0,499.32896793188706,196.98498096778673,315.2141841597731
174406.0,2979.0,174406.0,71622.0,174406.0,89588.0,501.58625622772263,197.16231172826556,315.1617766430289
174406.0,2973.0,174406.0,71629.0,174406.0,89623.0,503.66281681448027,197.28818571170257,315.00363488910165
174406.0,2989.0,174406.0,71686.0,174406.0,89684.0,505.56208629046114,197.3641302641731,314.7434876113816
174406.0,3005.0,174406.0,71779.0,174406.0,89674.0,507.2876132687095,197.3904221074293,314.38466683065
174406.0,3005.0,174406.0,71769.0,174406.0,89668.0,508.8432580660012,197.36742263922662,313.9308953209899
174406.0,2998.0,174406.0,71653.0,174406.0,89635.0,510.23340628103676,197.29685419982195,313.3866220132808
174417.0,2967.0,174417.0,71612.0,174417.0,89597.0,511.46293305336997,197.18151366141214,312.7566583388319
174417.0,2983.0,174417.0,71623.0,174417.0,89622.0,512.5368591756189,197.02365196815575,312.0454654760142
174417.0,3002.0,174417.0,71726.0,174417.0,89680.0,513.4600186531517,196.823806492653,311.25675005970953
174417.0,3020.0,174417.0,71779.0,174417.0,89676.0,514.2371159878994,196.58130240120607,310.3938741418211
174417.0,3018.0,174417.0,71748.0,174417.0,89619.0,514.8731082716392,196.29587053143777,309.46055918467874
174417.0,2988.0,174417.0,71639.0,174417.0,89649.0,515.3734808826961,195.96867174934272,308.46098139584524
174427.0,2983.0,174427.0,71616.0,174427.0,89591.0,515.7441069957481,195.6016268831256,307.3993169701361
174427.0,2992.0,174427.0,71673.0,174427.0,89623.0,515.9908384609416,195.19587787877188,306.2792612501418
174427.0,3011.0,174427.0,71728.0,174427.0,89661.0,516.1192710609912,194.7511367146577,305.1038191627845
174427.0,3016.0,174427.0,71797.0,174427.0,89676.0,516.1348822846863,194.26655749191875,303.87565620526925
174427.0,3006.0,174427.0,71699.0,174427.0,89644.0,516.0433147797496,193.74218257915967,302.59779334162533
174427.0,2983.0,174427.0,71643.0,174427.0,89596.0,515.8504552035441,193.17943896758135,301.2738423022638
174437.0,2982.0,174437.0,71605.0,174437.0,89585.0,515.5621807954315,192.5800939052014,299.9074432266204
174437.0,3021.0,174437.0,71681.0,174437.0,89635.0,515.1840608512077,191.94477472406777,298.50150558120504
174437.0,3020.0,174437.0,71798.0,174437.0,89658.0,514.7214358691808,191.27271631080362,297.0581143452941
174437.0,3018.0,174437.0,71780.0,174437.0,89698.0,514.1798114524839,190.5631834434822,295.57926124441997
174437.0,2996.0,174437.0,71722.0,174437.0,89628.0,513.5650891953312,189.817177712257,294.06773313018823
174437.0,2987.0,174437.0,71623.0,174437.0,89591.0,512.8834097411045,189.03766232746042,292.52728925890244
174448.0,2977.0,174448.0,71572.0,174448.0,89567.0,512.1407697209162,188.2280578870957,290.9618804847561
174448.0,3003.0,174448.0,71750.0,174448.0,89646.0,511.342699746799,187.39049645486776,289.37472783418343
174448.0,3013.0,174448.0,71789.0,174448.0,89639.0,510.49425623436554,186.52581911869157,287.7682641055757
174448.0,3011.0,174448.0,71766.0,174448.0,89662.0,509.6003167583226,185.63541005180699,286.1448635140548
174448.0,2987.0,174448.0,71689.0,174448.0,89605.0,508.66583069621095,184.72268344350022,284.50746886131594
174448.0,2985.0,174448.0,71626.0,174448.0,89578.0,507.69573560960094,183.79274795118664,282.8595090326631
174458.0,2980.0,174458.0,71613.0,174458.0,89582.0,506.694650508301,182.8508475849603,281.2042200545949
174458.0,2996.0,174458.0,71692.0,174458.0,89657.0,505.6666534463382,181.90100154801638,279.5441386202692
174458.0,3018.0,174458.0,71749.0,174458.0,89655.0,504.6153396036849,180.9459559221887,277.8814722351558
174458.0,3010.0,174458.0,71723.0,174458.0,89619.0,503.5441435318311,179.98833981312035,276.2189512722337
174458.0,2981.0,174458.0,71618.0,174458.0,89583.0,502.4566137919498,179.03156878085403,274.56010850259247
174458.0,2981.0,174458.0,71622.0,174458.0,89569.0,501.3563039358961,178.07932980350208,272.9087107842683
174468.0,2980.0,174468.0,71634.0,174468.0,89568.0,500.2464112582489,177.1342891855223,271.26796408147106
174468.0,2995.0,174468.0,71739.0,174468.0,89621.0,499.12956188034406,176.19756942167135,269.6401311949028
174468.0,3003.0,174468.0,71795.0,174468.0,89633.0,498.00789182086106,175.26969918753667,268.02683935320124
174468.0,3019.0,174468.0,71684.0,174468.0,89596.0,496.8833329005395,174.35224311324262,266.42976188918
174468.0,2975.0,174468.0,71627.0,174468.0,89555.0,495.7578848477884,173.44836281736463,264.85086040850746
174468.0,2971.0,174468.0,71576.0,174468.0,89540.0,494.63355581732696,172.5615907265263,263.2918291969918
174479.0,2979.0,174479.0,71652.0,174479.0,89581.0,493.5119732822466,171.69411379228808,261.7533347571015
174479.0,3004.0,174479.0,71745.0,174479.0,89626.0,492.39414283521006,170.84629121361658,260.23490038618763
174479.0,3004.0,174479.0,71749.0,174479.0,89619.0,491.2806422162859,170.01782905618438,258.7355996966931
174479.0,2999.0,174479.0,71669.0,174479.0,89587.0,490.1719874507022,169.209310496691,257.25483257283656
174479.0,2975.0,174479.0,71609.0,174479.0,89555.0,489.06877847381463,168.42239997923332,255.79241255030027
174479.0,2971.0,174479.0,71594.0,174479.0,89553.0,487.9715028023828,167.65859376856923,254.3479980154331
174489.0,2987.0,174489.0,71690.0,174489.0,89591.0,486.8802198436088,166.9179415534947,252.9205391093457
174489.0,3000.0,174489.0,71752.0,174489.0,89609.0,485.7944799796366,166.19913542791073,251.50832115874124
174489.0,3004.0,174489.0,71733.0,174489.0,89599.0,484.71356747013664,165.50091160650373,250.10951764802394
174489.0,2971.0,174489.0,71663.0,174489.0,89557.0,483.6367616046548,164.8232693780203,248.72259305115153
174489.0,2973.0,174489.0,71579.0,174489.0,89543.0,482.56327614175586,164.16721417074334,247.346082029471
174489.0,2973.0,174489.0,71597.0,174489.0,89565.0,481.4919499128024,163.53324936537268,245.97801217711304
174499.0,2993.0,174499.0,71693.0,174499.0,89633.0,480.42106907724366,162.9201042691784,244.61573533051853
174499.0,3017.0,174499.0,71774.0,174499.0,89621.0,479.34854367741826,162.32508449225486,243.25656820163212
174499.0,3001.0,174499.0,71724.0,174499.0,89591.0,478.2723333130692,161.74577965615805,241.8986555358002
174499.0,2980.0,174499.0,71619.0,174499.0,89545.0,477.19074558765016,161.18125454541212,240.54112901084466
174499.0,2968.0,174499.0,71600.0,174499.0,89524.0,476.1022997848445,160.6314144241671,239.18341420440328
174499.0,2964.0,174499.0,71639.0,174499.0,89594.0,475.00530356270986,160.09542486965768,237.8244222962082
174510.0,3007.0,174510.0,71720.0,174510.0,89595.0,473.8975778164991,159.57101962618265,236.4624764922607
174510.0,3011.0,174510.0,71760.0,174510.0,89611.0,472.7766434434354,159.05535422110356,235.09598534908906
174510.0,2997.0,174510.0,71683.0,174510.0,89594.0,471.640210204413,158.5464441434466,233.7241203422402
174510.0,2961.0,174510.0,71615.0,174510.0,89536.0,470.4863990943165,158.04363344953293,232.34695131883143
174510.0,2969.0,174510.0,71579.0,174510.0,89506.0,469.3134372337352,157.54653328636527,230.96488808119483
174510.0,2984.0,174510.0,71675.0,174510.0,89549.0,468.11923211214156,157.05356566874946,229.57776201860224
174520.0,3011.0,174520.0,71741.0,174520.0,89594.0,466.90134736218283,156.5617396033615,228.1844442891423
174520.0,3019.0,174520.0,71774.0,174520.0,89623.0,465.65743477309053,156.06799757295173,226.78347815665728
174520.0,2988.0,174520.0,71717.0,174520.0,89561.0,464.38572596910603,155.5708818069562,225.37406982890838
174520.0,2961.0,174520.0,71580.0,174520.0,89516.0,463.08509813203574,155.070933826773,223.95634705171625
174520.0,2966.0,174520.0,71584.0,174520.0,89536.0,461.7546348994912,154.56931126215474,222.53065680123945
174520.0,2987.0,174520.0,71708.0,174520.0,89575.0,460.39317424197714,154.06602234571838,221.09686536430254
174530.0,2993.0,174530.0,71742.0,174530.0,89578.0,458.99929868880474,153.55983213593194,219.65448242978647
174530.0,2996.0,174530.0,71749.0,174530.0,89585.0,457.57166068407173,153.04982225551703,218.20329349514896
174530.0,2971.0,174530.0,71643.0,174530.0,89529.0,456.109240396103,152.5366674763023,216.74374575198138
174530.0,2962.0,174530.0,71582.0,174530.0,89500.0,454.6112850802649,152.0222753016451,215.27667461517385
174530.0,2957.0,174530.0,71581.0,174530.0,89515.0,453.07699276363576,151.50813863083408,213.80253278148393
174530.0,2972.0,174530.0,71672.0,174530.0,89566.0,451.50523169393574,150.9939374609167,212.32087461997693
174541.0,3002.0,174541.0,71728.0,174541.0,89578.0,449.8945748539023,150.47767869920992,210.8306787140389
174541.0,2976.0,174541.0,71691.0,174541.0,89565.0,448.24365160048535,149.95705839642415,209.33115239179077
174541.0,2969.0,174541.0,71623.0,174541.0,89525.0,446.551438036435,149.43044974054945,207.82218652246883
174541.0,2954.0,174541.0,71555.0,174541.0,89480.0,444.81716843208443,148.89641395208784,206.30403561846555
174541.0,2955.0,174541.0,71628.0,174541.0,89504.0,443.0400235565995,148.35229672982499,204.77648835672608
174541.0,2978.0,174541.0,71751.0,174541.0,89541.0,441.2189379538871,147.7936284407484,203.23829348351268
174551.0,2987.0,174551.0,71780.0,174551.0,89576.0,439.35272653892287,147.21538856975172,201.68743001601996
174551.0,2983.0,174551.0,71712.0,174551.0,89546.0,437.44045364567444,146.61406199037953,200.12193643407045
174551.0,2952.0,174551.0,71594.0,174551.0,89509.0,435.48168433926315,145.9883582498483,198.5404206260461
174551.0,2931.0,174551.0,71578.0,174551.0,89472.0,433.4763124388098,145.3378957923084,196.94173459925133
174551.0,2954.0,174551.0,71664.0,174551.0,89532.0,431.4240988316279,144.66133658153558,195.32423088742823
174551.0,2974.0,174551.0,71714.0,174551.0,89576.0,429.3244381571013,143.95591189663196,193.6855842236949
174561.0,2977.0,174561.0,71759.0,174561.0,89553.0,427.17662909475615,143.21861052775688,192.02351244546685
174561.0,2953.0,174561.0,71687.0,174561.0,89532.0,424.9802941229992,142.44768570276523,190.3365507863797
174561.0,2929.0,174561.0,71612.0,174561.0,89489.0,422.735440814198,141.6430642255813,188.62405192126744
174561.0,2937.0,174561.0,71588.0,174561.0,89482.0,420.44211813145273,140.80530170348678,186.88553120919602
174561.0,2948.0,174561.0,71656.0,174561.0,89526.0,418.10008663820565,139.93414430346004,185.1200209403213
174561.0,2960.0,174561.0,71764.0,174561.0,89533.0,415.70885070066146,139.02827553045896,183.32602655704522
174572.0,2971.0,174572.0,71743.0,174572.0,89546.0,413.2679940020555,138.0866507569969,181.5020626199169
174572.0,2939.0,174572.0,71662.0,174572.0,89501.0,410.7775229179118,137.11000090830356,179.64715739887345
174572.0,2933.0,174572.0,71579.0,174572.0,89478.0,408.2379182512783,136.1007912357116,177.7608100847492
174572.0,2919.0,174572.0,71571.0,174572.0,89479.0,405.6498548519997,135.0616250361825,175.84244517382933
174572.0,2938.0,174572.0,71658.0,174572.0,89528.0,403.0138906399052,133.99367682322327,173.89096913696415
174572.0,2943.0,174572.0,71728.0,174572.0,89547.0,400.3304224985988,132.89663421714943,171.9050081777801
174582.0,2946.0,174582.0,71676.0,174582.0,89528.0,397.5999150926979,131.77001292891387,169.88364902419858
174582.0,2929.0,174582.0,71599.0,174582.0,89481.0,394.8231556992293,130.61414896254354,167.8268894939667
174582.0,2903.0,174582.0,71538.0,174582.0,89479.0,392.00125980940817,129.42959512603562,165.7353475693193
174582.0,2914.0,174582.0,71629.0,174582.0,89476.0,389.13539307129224,128.21563014528252,163.60962563090263
174582.0,2926.0,174582.0,71733.0,174582.0,89522.0,386.2265211910027,126.96977052565447,161.45000980455973
174582.0,2928.0,174582.0,71751.0,174582.0,89561.0,383.2754852422016,125.68913919488391,159.25684843501338
174592.0,2895.0,174592.0,71706.0,174592.0,89483.0,380.28322021699586,124.37243224170656,157.03131623353391
174592.0,2902.0,174592.0,71612.0,174592.0,89473.0,377.25073430652793,123.02064628815847,154.77567971629418
174592.0,2877.0,174592.0,71561.0,174592.0,89423.0,374.17884483282717,121.63606262374638,152.49265510262225
174592.0,2898.0,174592.0,71658.0,174592.0,89471.0,371.06793186019814,120.22060112185127,150.1845061939445
174592.0,2905.0,174592.0,71718.0,174592.0,89513.0,367.917901714361,118.77529641759679,147.85275235185216
174592.0,2926.0,174592.0,71711.0,174592.0,89513.0,364.72844741575716,117.30138602943272,145.49874756356493
174603.0,2896.0,174603.0,71660.0,174603.0,89482.0,361.49945829433466,115.80160389884009,143.12449711608343
174603.0,2875.0,174603.0,71578.0,174603.0,89441.0,358.23118618952253,114.28024245735419,140.73284365226783
174603.0,2876.0,174603.0,71525.0,174603.0,89433.0,354.923996220322,112.74187182715032,138.32691123667308
174603.0,2886.0,174603.0,71610.0,174603.0,89442.0,351.57804007863706,111.18970562736845,135.9093942206734
174603.0,2902.0,174603.0,71713.0,174603.0,89490.0,348.193252531354,109.62513306521527,133.48232018850032
174603.0,2893.0,174603.0,71682.0,174603.0,89460.0,344.7696529117363,108.04897373345956,131.04742451117866
174613.0,2868.0,174613.0,71652.0,174613.0,89442.0,341.3076035191512,106.46304452691207,128.6065961074179
174613.0,2853.0,174613.0,71547.0,174613.0,89403.0,337.8077233892392,104.87038121277888,126.16178116470522
174613.0,2864.0,174613.0,71550.0,174613.0,89420.0,334.2705525369661,103.27403566734861,123.71442368453987
174613.0,2870.0,174613.0,71653.0,174613.0,89448.0,330.69635925506685,101.6757762488623,121.26506609757196
174613.0,2885.0,174613.0,71692.0,174613.0,89475.0,327.0852907988301,100.07617460313024,118.8135713116323
174613.0,2879.0,174613.0,71658.0,174613.0,89450.0,323.4377257855118,98.47596349104614,116.35977594255061
174624.0,2850.0,174624.0,71582.0,174624.0,89430.0,319.7545328358588,96.87696973404196,113.90392308811283
174624.0,2834.0,174624.0,71489.0,174624.0,89407.0,316.03697842960673,95.28147075063623,111.44651239954608
174624.0,2846.0,174624.0,71582.0,174624.0,89418.0,312.2863669187473,93.69055948510399,108.98783254941037
174624.0,2840.0,174624.0,71667.0,174624.0,89451.0,308.50380121302373,92.10330461030509,106.5277123672423
174624.0,2844.0,174624.0,71705.0,174624.0,89468.0,304.69021789929604,90.51778664006946,104.06581645340594
174624.0,2838.0,174624.0,71656.0,174624.0,89448.0,300.8465186711873,88.93295156690407,101.6022727817192
174634.0,2825.0,174634.0,71566.0,174634.0,89396.0,296.9736401862118,87.34941822588033,99.13798875298552
174634.0,2813.0,174634.0,71517.0,174634.0,89384.0,293.07249351269803,85.76858372532016,96.67425499592547
174634.0,2803.0,174634.0,71613.0,174634.0,89380.0,289.1437711119396,84.19105700303422,94.21196877882296
174634.0,2817.0,174634.0,71686.0,174634.0,89440.0,285.18775489213,82.61620944147019,91.75120351109507
174634.0,2835.0,174634.0,71700.0,174634.0,89450.0,281.2043458968999,81.04342940245567,89.29155131326283
174634.0,2820.0,174634.0,71631.0,174634.0,89408.0,277.19337025730107,79.4737086102437,86.83287842679258
174644.0,2791.0,174644.0,71518.0,174644.0,89359.0,273.154837611416,77.90985844196801,84.3755726792401
174644.0,2782.0,174644.0,71438.0,174644.0,89335.0,269.08880796191426,76.35490480320804,81.91987826286606
174644.0,2797.0,174644.0,71596.0,174644.0,89410.0,264.9950410102935,74.80990610067988,79.46502612047175
174644.0,2815.0,174644.0,71663.0,174644.0,89421.0,260.87290961135557,73.27338996678407,77.00917786576551
174644.0,2812.0,174644.0,71678.0,174644.0,89444.0,256.7217210384133,71.74301582124511,74.55026623550529
174644.0,2783.0,174644.0,71600.0,174644.0,89375.0,252.54108787723985,70.21751648721336,72.08682145127588
174655.0,2770.0,174655.0,71508.0,174655.0,89337.0,248.33093977547853,68.69697210330995,69.617943706934
174655.0,2771.0,174655.0,71508.0,174655.0,89353.0,244.0912145085954,67.18142243823509,67.14248658664778
174655.0,2786.0,174655.0,71583.0,174655.0,89439.0,239.82163310864817,65.66934754708831,64.65847544940806
174655.0,2780.0,174655.0,71657.0,174655.0,89418.0,235.5217938094461,64.15756897260107,62.16359661429311
174655.0,2790.0,174655.0,71648.0,174655.0,89392.0,231.19144517840118,62.642601896590975,59.656160409327555
174655.0,2762.0,174655.0,71604.0,174655.0,89369.0,226.83069964496448,61.12204577754761,57.13540689187013
174665.0,2738.0,174665.0,71519.0,174665.0,89342.0,222.44000124793502,59.5947447017077,54.601042985649144
174665.0,2743.0,174665.0,71534.0,174665.0,89360.0,218.0198111701262,58.059719545915726,52.05261817630239
174665.0,2750.0,174665.0,71623.0,174665.0,89382.0,213.57030651006863,56.515110512765744,49.48923863883334
174665.0,2767.0,174665.0,71684.0,174665.0,89403.0,209.09142416628416,54.958473824936945,46.909832303582306
174665.0,2751.0,174665.0,71631.0,174665.0,89382.0,204.58318709113257,53.38824645303366,44.31372608791543
174665.0,2731.0,174665.0,71530.0,174665.0,89322.0,200.04595269003937,51.80465271276239,41.70091606395417
174675.0,2709.0,174675.0,71476.0,174675.0,89312.0,195.48031015961203,50.20885675752152,39.07161369631234
174675.0,2727.0,174675.0,71527.0,174675.0,89375.0,190.88674817515601,48.60114616989492,36.42552956031872
174675.0,2739.0,174675.0,71651.0,174675.0,89394.0,186.26551181866654,46.98006511288085,33.76186592208569
174675.0,2733.0,174675.0,71684.0,174675.0,89399.0,181.61683693640546,45.343512944720345,31.08013758713895
174675.0,2711.0,174675.0,71595.0,174675.0,89345.0,176.94125430959852,43.69069124129673,28.380918457543572
174675.0,2702.0,174675.0,71532.0,174675.0,89328.0,172.23960542839063,42.02281484754795,25.66580752751588
174686.0,2698.0,174686.0,71449.0,174686.0,89282.0,167.5128224660628,40.34192319709618,22.936717507063122
174686.0,2682.0,174686.0,71560.0,174686.0,89328.0,162.76171729607694,38.64906681200256,20.195058740624773
174686.0,2715.0,174686.0,71623.0,174686.0,89371.0,157.98690701664404,36.94368825484648,17.441490240182702
174686.0,2709.0,174686.0,71618.0,174686.0,89355.0,153.18897916472767,35.22472367112486,14.676484681895403
174686.0,2681.0,174686.0,71603.0,174686.0,89310.0,148.36880552831434,33.4920811824942,11.901007133359343
174686.0,2673.0,174686.0,71481.0,174686.0,89292.0,143.5276180036323,31.747000623939186,9.116459552353518
174696.0,2654.0,174696.0,71484.0,174696.0,89283.0,138.66674123339322,29.99103153983559,6.3240266137608785
174696.0,2670.0,174696.0,71572.0,174696.0,89330.0,133.78729363893348,28.224677693021746,3.5241817174146206
174696.0,2682.0,174696.0,71665.0,174696.0,89350.0,128.89014821954225,26.44737154174983,0.7168610948941136
174696.0,2666.0,174696.0,71628.0,174696.0,89350.0,123.97618141337051,24.65905389190503,-2.097813402254758
174696.0,2648.0,174696.0,71523.0,174696.0,89296.0,119.04650440647464,22.861565715192285,-4.918938761008292
174696.0,2625.0,174696.0,71444.0,174696.0,89254.0,114.10236722935974,21.058176485752966,-7.744995945410636
174706.0,2633.0,174706.0,71481.0,174706.0,89272.0,109.14482667131034,19.25169014966076,-10.574668486905665
174706.0,2641.0,174706.0,71577.0,174706.0,89323.0,104.17453212354269,17.443111880815124,-13.407440323546467
174706.0,2654.0,174706.0,71635.0,174706.0,89347.0,99.191853949564,15.632197031359809,-16.243264626138114
174706.0,2648.0,174706.0,71564.0,174706.0,89324.0,94.19725519621039,13.819139535459641,-19.081635521676674
174706.0,2616.0,174706.0,71519.0,174706.0,89268.0,89.19158080917578,12.005519725938825,-21.921046251645407
174706.0,2601.0,174706.0,71438.0,174706.0,89249.0,84.17598101292816,10.193635277703237,-24.759361978153578
174717.0,2604.0,174717.0,71497.0,174717.0,89251.0,79.15154977506973,8.385018647511117,-27.59468635110494
174717.0,2618.0,174717.0,71583.0,174717.0,89304.0,74.11908913353915,6.579654688303549,-30.425867890280102
174717.0,2617.0,174717.0,71615.0,174717.0,89305.0,69.07923612637751,4.776768593618556,-33.252211140227985
174717.0,2596.0,174717.0,71548.0,174717.0,89299.0,64.03274182890323,2.976364558841027,-36.07275893120294
174717.0,2581.0,174717.0,71454.0,174717.0,89230.0,58.980544275679904,1.1797545367998055,-38.885935026028704
174717.0,2563.0,174717.0,71434.0,174717.0,89223.0,53.92354214944936,-0.6115664592782082,-41.68997419196998
174727.0,2579.0,174727.0,71520.0,174727.0,89248.0,48.86229383939235,-2.3974701423658757,-44.48371274136741
174727.0,2596.0,174727.0,71594.0,174727.0,89280.0,43.79696563502546,-4.1794314910310675,-47.26687748908347
174727.0,2594.0,174727.0,71585.0,174727.0,89281.0,38.72765045869869,-5.959199079672857,-50.03961817394537
174727.0,2576.0,174727.0,71519.0,174727.0,89261.0,33.65478190050544,-7.737390643272931,-52.801864165090166
174727.0,2552.0,174727.0,71436.0,174727.0,89197.0,28.5792529691426,-9.513474957479787,-55.55319554196828
174727.0,2533.0,174727.0,71439.0,174727.0,89225.0,23.502150497828836,-11.28710561200532,-58.293376284667715
174737.0,2556.0,174737.0,71561.0,174737.0,89246.0,18.424374331180445,-13.05935365485223,-61.02292425557653
174737.0,2552.0,174737.0,71565.0,174737.0,89267.0,13.346521718252745,-14.832424530499651,-63.7430197945973
174737.0,2561.0,174737.0,71558.0,174737.0,89260.0,8.269117830589494,-16.60824581028453,-66.45490064415785
174737.0,2530.0,174737.0,71517.0,174737.0,89235.0,3.1928928721264924,-18.387508202948766,-69.1593907614286
174737.0,2519.0,174737.0,71470.0,174737.0,89191.0,-1.8811998217624364,-20.169841787339067,-71.85696772730915
174737.0,2502.0,174737.0,71436.0,174737.0,89198.0,-6.952251030159573,-21.95475508135499,-74.54832622774003
174748.0,2529.0,174748.0,71554.0,174748.0,89264.0,-12.01967708975377,-23.742531510561776,-77.23484261472433
174748.0,2525.0,174748.0,71575.0,174748.0,89279.0,-17.08319986442359,-25.53405119017532,-79.9182362698755
174748.0,2510.0,174748.0,71543.0,174748.0,89237.0,-22.142573831364075,-27.329566346562927,-82.59966855266973
174748.0,2497.0,174748.0,71429.0,174748.0,89204.0,-27.19743063690396,-29.12799266926116,-85.279323524765
174748.0,2483.0,174748.0,71409.0,174748.0,89178.0,-32.2474050544472,-30.927795231438964,-87.95688730312636
174748.0,2498.0,174748.0,71465.0,174748.0,89231.0,-37.292337962411864,-32.728580594554984,-90.63226630231057
174758.0,2513.0,174758.0,71544.0,174758.0,89253.0,-42.33226291572623,-34.53165676072136,-93.30568631502325
174758.0,2510.0,174758.0,71593.0,174758.0,89249.0,-47.367081204209796,-36.33894981871043,-95.97706113014502
174758.0,2480.0,174758.0,71505.0,174758.0,89223.0,-52.396204675066315,-38.15135589350835,-98.64533898786857
174758.0,2454.0,174758.0,71439.0,174758.0,89161.0,-57.418569047434914,-39.96818172987467,-101.30850685111253
174758.0,2452.0,174758.0,71404.0,174758.0,89142.0,-62.433040000559686,-41.78820410115651,-103.96433954708468
174758.0,2463.0,174758.0,71477.0,174758.0,89202.0,-67.43880530110584,-43.611162158953604,-106.61130898326104
174768.0,2479.0,174768.0,71563.0,174768.0,89228.0,-72.43538266428828,-45.43807187223055,-109.24873675815809
174768.0,2482.0,174768.0,71565.0,174768.0,89238.0,-77.42225349549557,-47.269998293287514,-111.87602022407023
174768.0,2456.0,174768.0,71499.0,174768.0,89174.0,-82.39844632847314,-49.10655045257042,-114.49182449036022
174768.0,2428.0,174768.0,71417.0,174768.0,89147.0,-87.36245044181811,-50.94565510123111,-117.0941085698623
174768.0,2424.0,174768.0,71406.0,174768.0,89153.0,-92.31254468414977,-52.78479549884432,-119.68088250283887
174768.0,2436.0,174768.0,71477.0,174768.0,89202.0,-97.24718538175574,-54.622424171309746,-122.25079294232401
174779.0,2440.0,174779.0,71542.0,174779.0,89199.0,-102.16506482910239,-56.45812905883075,-124.80291597909968
174779.0,2428.0,174779.0,71536.0,174779.0,89197.0,-107.06488291098776,-58.29145394042105,-127.33610533240744
174779.0,2416.0,174779.0,71494.0,174779.0,89139.0,-111.9451678390858,-60.12063191147257,-129.84866293044144
174779.0,2388.0,174779.0,71373.0,174779.0,89121.0,-116.80435651500142,-61.94251497845387,-132.33870428614478
174779.0,2385.0,174779.0,71367.0,174779.0,89142.0,-121.64110016517628,-63.753934579274386,-134.80489897284792
174779.0,2406.0,174779.0,71480.0,174779.0,89188.0,-126.4545463797657,-65.55328495889813,-137.2468111716297
174789.0,2420.0,174789.0,71538.0,174789.0,89181.0,-131.24426773289497,-67.34057087996814,-139.66446189624986
174789.0,2400.0,174789.0,71520.0,174789.0,89164.0,-136.00985522831843,-69.11583877197145,-142.05764110444505
174789.0,2366.0,174789.0,71393.0,174789.0,89116.0,-140.75065621052062,-70.87791588690601,-144.4257265720796
174789.0,2360.0,174789.0,71368.0,174789.0,89108.0,-145.4659906717215,-72.6249529974136,-146.7681734605689
174789.0,2372.0,174789.0,71413.0,174789.0,89124.0,-150.15556467957663,-74.35605022952231,-149.08519699703868
174789.0,2376.0,174789.0,71509.0,174789.0,89170.0,-154.81959727770266,-76.07201116605833,-151.37798652362534
174799.0,2373.0,174799.0,71555.0,174799.0,89176.0,-159.45861027584613,-77.77433076210932,-153.6482060381648
174799.0,2368.0,174799.0,71444.0,174799.0,89150.0,-164.07317436484846,-79.46351391028406,-155.8972446252302
174799.0,2343.0,174799.0,71380.0,174799.0,89110.0,-168.66382605808673,-81.13862286926462,-158.12594931674107
174799.0,2334.0,174799.0,71349.0,174799.0,89089.0,-173.2312121078147,-82.79858578113598,-160.33508521088385
174799.0,2345.0,174799.0,71426.0,174799.0,89137.0,-177.77633793268018,-84.44382136303796,-162.5260128418526
174799.0,2353.0,174799.0,71523.0,174799.0,89163.0,-182.30063266743088,-86.07648594271123,-164.70079959271192
174810.0,2363.0,174810.0,71524.0,174810.0,89163.0,-186.80570330977042,-87.69907973962276,-166.8615991623994
174810.0,2325.0,174810.0,71456.0,174810.0,89118.0,-191.29301267348467,-89.31278643930295,-169.01000327962078
174810.0,2317.0,174810.0,71353.0,174810.0,89082.0,-195.76384536945375,-90.91722770524152,-171.14709413864182
174810.0,2312.0,174810.0,71360.0,174810.0,89078.0,-200.21959819623333,-92.5118531780362,-173.27416107873233
174810.0,2322.0,174810.0,71425.0,174810.0,89162.0,-204.6620367002268,-94.09750079110944,-175.3932881695299
174810.0,2326.0,174810.0,71506.0,174810.0,89159.0,-209.09326084757583,-95.6765428364136,-177.50703555006544
174820.0,2346.0,174820.0,71488.0,174820.0,89146.0,-213.51542022699869,-97.25157930091947,-179.61749980203422
174820.0,2309.0,174820.0,71423.0,174820.0,89089.0,-217.9303608553028,-98.82414155629712,-181.72582382948025
174820.0,2284.0,174820.0,71332.0,174820.0,89065.0,-222.33953338708625,-100.3947844810601,-183.83264389827252
174820.0,2280.0,174820.0,71354.0,174820.0,89074.0,-226.74433671060495,-101.96450018282837,-185.93899417420738
174820.0,2300.0,174820.0,71494.0,174820.0,89149.0,-231.14652654131123,-103.53587479138449,-188.0467863907122
174820.0,2317.0,174820.0,71508.0,174820.0,89153.0,-235.5481992267159,-105.1124785899676,-190.15832022932562
174830.0,2294.0,174830.0,71468.0,174830.0,89108.0,-239.95139522918385,-106.6970904512333,-192.2753323094641
174830.0,2286.0,174830.0,71371.0,174830.0,89071.0,-244.35779577350036,-108.29082066901725,-194.39868664734888
174830.0,2266.0,174830.0,71333.0,174830.0,89082.0,-248.7687837760106,-109.89401242165755,-196.528939259533
174830.0,2276.0,174830.0,71367.0,174830.0,89100.0,-253.1856888920159,-111.50790389404483,-198.66694310887112
174830.0,2276.0,174830.0,71494.0,174830.0,89128.0,-257.60991510257384,-113.13537337107206,-200.813827567666
174830.0,2283.0,174830.0,71517.0,174830.0,89124.0,-262.0428374698671,-114.77990515307678,-202.97047176948735
174841.0,2260.0,174841.0,71478.0,174841.0,89097.0,-266.48560563085675,-116.44369093149862,-205.13700810417413
174841.0,2242.0,174841.0,71329.0,174841.0,89079.0,-270.93911504723974,-118.12681941652443,-207.31278688486998
174841.0,2229.0,174841.0,71343.0,174841.0,89044.0,-275.4042552565807,-119.82843244727172,-209.49682039735
174841.0,2248.0,174841.0,71378.0,174841.0,89060.0,-279.8822205806698,-121.54856655850699,-211.68840279085276
174841.0,2251.0,174841.0,71498.0,174841.0,89105.0,-284.37455339524877,-123.28868867900644,-213.88743835739746
