c_ts,c_val,d_ts,d_val,e_ts,e_val,c_val_filtered,d_val_filtered,e_val_filtered
310338.0,3311.0,310338.0,16676.0,310338.0,44811.0,41.3729408060844,30.687845876335665,95.86263085509736
310338.0,3301.0,310338.0,16624.0,310338.0,44803.0,34.13044926362929,24.774353424332972,87.49636836342853
310338.0,3271.0,310338.0,16616.0,310338.0,44785.0,26.72822568626053,18.812919243226744,78.87377406444972
310338.0,3266.0,310338.0,16604.0,310338.0,44752.0,19.177090805913153,12.819942965882419,70.00611875559758
310338.0,3284.0,310338.0,16600.0,310338.0,44780.0,11.48750632129611,6.810159611074269,60.90478493160981
310338.0,3274.0,310338.0,16635.0,310338.0,44771.0,3.6696282056489906,0.7965637163899544,51.58121883188477
310348.0,3244.0,310348.0,16606.0,310348.0,44717.0,-4.266461540274207,-5.209326018726955,42.0470984273376
310348.0,3257.0,310348.0,16605.0,310348.0,44709.0,-12.310697147972078,-11.197133181781211,32.314251520250565
310348.0,3224.0,310348.0,16582.0,310348.0,44689.0,-20.45313556355707,-17.15755345427209,22.394206204304197
310348.0,3197.0,310348.0,16560.0,310348.0,44700.0,-28.684116174244707,-23.082560257016837,12.29783268813594
310348.0,3192.0,310348.0,16556.0,310348.0,44666.0,-36.99457528448623,-28.96573677830638,2.0352865790883357
310348.0,3201.0,310348.0,16596.0,310348.0,44674.0,-45.37636387269606,-34.80248370089154,-8.383949095867223
310358.0,3197.0,310358.0,16607.0,310358.0,44691.0,-53.82225322020062,-40.5897486848465,-18.95097810274885
310358.0,3176.0,310358.0,16588.0,310358.0,44652.0,-62.32571772009646,-46.32537085057399,-29.657232239543447
310358.0,3166.0,310358.0,16562.0,310358.0,44633.0,-70.88083103934036,-52.007643435703045,-40.494262502453466
310358.0,3162.0,310358.0,16569.0,310358.0,44614.0,-79.48234263024014,-57.635378022036804,-51.45388604086608
310358.0,3178.0,310358.0,16604.0,310358.0,44673.0,-88.12569396227389,-63.20803326755703,-62.528363357341505
310358.0,3165.0,310358.0,16597.0,310358.0,44620.0,-96.80680263019428,-68.72542046798938,-73.71011830339572
310369.0,3145.0,310369.0,16586.0,310369.0,44575.0,-105.52178043414347,-74.18716608053555,-84.99135729954963
310369.0,3123.0,310369.0,16521.0,310369.0,44561.0,-114.26688912500134,-79.59253428879464,-96.36428621003105
310369.0,3119.0,310369.0,16522.0,310369.0,44542.0,-123.03875417956797,-84.94088687186783,-107.82173489407967
310369.0,3124.0,310369.0,16552.0,310369.0,44556.0,-131.83455340566275,-90.23232506138919,-119.35753804517776
310369.0,3118.0,310369.0,16535.0,310369.0,44580.0,-140.6519659717444,-95.46783748053966,-130.96641958242617
310369.0,3117.0,310369.0,16543.0,310369.0,44557.0,-149.48894873641265,-100.64900272889528,-142.64346579261877
310379.0,3101.0,310379.0,16564.0,310379.0,44543.0,-158.34352613820505,-105.77766751678973,-154.38358000191153
310379.0,3093.0,310379.0,16540.0,310379.0,44526.0,-167.21369490133682,-110.85563065951584,-166.18129130802998
310379.0,3075.0,310379.0,16501.0,310379.0,44489.0,-176.09744767122683,-115.88445834689114,-178.03087706803768
310379.0,3069.0,310379.0,16546.0,310379.0,44495.0,-184.99286707632456,-120.86564312241867,-189.92661718512124
310379.0,3074.0,310379.0,16544.0,310379.0,44508.0,-193.89818707175408,-125.8006997549607,-201.86293348488522
310379.0,3061.0,310379.0,16545.0,310379.0,44492.0,-202.81172044159757,-130.69082963972784,-213.8341755684038
310389.0,3049.0,310389.0,16516.0,310389.0,44449.0,-211.73171930127012,-135.5365442602389,-225.83430224301094
310389.0,3030.0,310389.0,16516.0,310389.0,44379.0,-220.65634674365486,-140.3376483723612,-237.85704357034342
310389.0,3001.0,310389.0,16448.0,310389.0,44403.0,-229.5838365876445,-145.0935626576245,-249.89663883996207
310389.0,2996.0,310389.0,16441.0,310389.0,44401.0,-238.51279878906462,-149.80395953945356,-261.9484706965685
310389.0,3022.0,310389.0,16509.0,310389.0,44388.0,-247.44244391231535,-154.46940659207277,-274.00906336438754
310389.0,3012.0,310389.0,16504.0,310389.0,44391.0,-256.37243326795317,-159.09130317558703,-286.07574665106046
310400.0,2991.0,310400.0,16476.0,310400.0,44392.0,-265.3024923568551,-163.6711892049728,-298.14634809340026
310400.0,2981.0,310400.0,16455.0,310400.0,44374.0,-274.23222880632386,-168.2103832309414,-310.2188870293173
310400.0,2969.0,310400.0,16483.0,310400.0,44362.0,-283.16122766408785,-172.7101845389283,-322.29132733608833
310400.0,2974.0,310400.0,16484.0,310400.0,44374.0,-292.08915693331227,-177.17198354081913,-334.36144759170304
310400.0,2964.0,310400.0,16461.0,310400.0,44346.0,-301.01572348855643,-181.5970355480412,-346.4266830218461
310400.0,2963.0,310400.0,16489.0,310400.0,44323.0,-309.94051985896795,-185.9862439384381,-358.4839797820903
310410.0,2925.0,310410.0,16440.0,310410.0,44314.0,-318.86292176399706,-190.34009838692873,-370.5298599848824
310410.0,2932.0,310410.0,16421.0,310410.0,44291.0,-327.7821720053331,-194.65880658257507,-382.56061662198016
310410.0,2930.0,310410.0,16416.0,310410.0,44260.0,-336.6975252650277,-198.94272667086847,-394.57250897596447
310410.0,2926.0,310410.0,16444.0,310410.0,44270.0,-345.6082049171788,-203.1927766154336,-406.5619869705022
310410.0,2924.0,310410.0,16487.0,310410.0,44326.0,-354.51319211571916,-207.41029025115364,-418.5256734017723
310410.0,2911.0,310410.0,16442.0,310410.0,44252.0,-363.4110272971348,-211.59635642844756,-430.45983299097827
310421.0,2887.0,310421.0,16426.0,310421.0,44264.0,-372.2997334149496,-215.75133534690437,-442.35984644493254
310421.0,2874.0,310421.0,16434.0,310421.0,44214.0,-381.17692773731727,-219.87497298158152,-454.22023807885284
310421.0,2874.0,310421.0,16405.0,310421.0,44220.0,-390.0400372750146,-223.96672706157906,-466.03500823579486
310421.0,2874.0,310421.0,16440.0,310421.0,44237.0,-398.88638721190966,-228.02591605317704,-477.79781129512867
310421.0,2874.0,310421.0,16439.0,310421.0,44209.0,-407.71306528261897,-232.05162033355313,-489.5017851866287
310421.0,2860.0,310421.0,16430.0,310421.0,44181.0,-416.51668765631445,-236.04236593462215,-501.1392855823933
310431.0,2824.0,310431.0,16383.0,310431.0,44167.0,-425.2932971275031,-239.9959450404882,-512.70193782934
310431.0,2824.0,310431.0,16406.0,310431.0,44140.0,-434.03853740843493,-243.90966267896,-524.1809461587296
310431.0,2824.0,310431.0,16391.0,310431.0,44138.0,-442.7479174682662,-247.7806939773902,-535.5673811686638
310431.0,2828.0,310431.0,16390.0,310431.0,44184.0,-451.416838216278,-251.60619589284582,-546.8522151583105
310431.0,2818.0,310431.0,16380.0,310431.0,44132.0,-460.04036953240274,-255.383296952527,-558.0259437068961
310431.0,2800.0,310431.0,16397.0,310431.0,44142.0,-468.6130368320257,-259.1091027088447,-569.0781196130165
310441.0,2813.0,310441.0,16400.0,310441.0,44081.0,-477.1287488692994,-262.780585461623,-579.9972831752075
310441.0,2789.0,310441.0,16394.0,310441.0,44104.0,-485.5807536304044,-266.3943239402913,-590.7712446325332
310441.0,2798.0,310441.0,16418.0,310441.0,44105.0,-493.9615456143581,-269.94622661309404,-601.387294154529
310441.0,2774.0,310441.0,16394.0,310441.0,44110.0,-502.2627894803499,-273.4312792128383,-611.832015980083
310441.0,2773.0,310441.0,16382.0,310441.0,44084.0,-510.4753028039651,-276.84339554054,-622.0908690165143
310441.0,2757.0,310441.0,16362.0,310441.0,44068.0,-518.5890941653615,-280.1755477741196,-632.1479633658201
310452.0,2746.0,310452.0,16336.0,310452.0,44036.0,-526.5934366293604,-283.4201582641091,-641.9861830071201
310452.0,2727.0,310452.0,16353.0,310452.0,44030.0,-534.4769830111393,-286.5695526911062,-651.587513489091
310452.0,2720.0,310452.0,16348.0,310452.0,44012.0,-542.2279394628482,-289.6162259078118,-660.9333667403572
310452.0,2740.0,310452.0,16372.0,310452.0,44053.0,-549.8341783474773,-292.5527729796036,-670.0046850164922
310452.0,2726.0,310452.0,16381.0,310452.0,44037.0,-557.2831147180037,-295.3715504265887,-678.7816586403654
310452.0,2697.0,310452.0,16356.0,310452.0,44018.0,-564.561484408496,-298.06427028280467,-687.2432483862382
310462.0,2697.0,310462.0,16333.0,310462.0,43995.0,-571.6553600831303,-300.6218611379231,-695.3669887272313
310462.0,2693.0,310462.0,16337.0,310462.0,43972.0,-578.550349008761,-303.03473809138336,-703.1292122665931
310462.0,2703.0,310462.0,16393.0,310462.0,43987.0,-585.2316390878151,-305.29303467008947,-710.5053965686607
310462.0,2675.0,310462.0,16345.0,310462.0,43944.0,-591.6838592139065,-307.3863538253173,-717.4703710691796
310462.0,2686.0,310462.0,16318.0,310462.0,43892.0,-597.8909790630985,-309.30346938128946,-723.9985710364955
310462.0,2660.0,310462.0,16301.0,310462.0,43908.0,-603.8363317919857,-311.0326299094278,-730.064636879238
310472.0,2641.0,310472.0,16296.0,310472.0,43924.0,-609.5027358767941,-312.56224480332116,-735.643979162359
310472.0,2645.0,310472.0,16286.0,310472.0,43921.0,-614.8727328207506,-313.8814085476771,-740.7127617202393
310472.0,2647.0,310472.0,16326.0,310472.0,43896.0,-619.9287874806471,-314.9801016518037,-745.2475667446397
310472.0,2641.0,310472.0,16325.0,310472.0,43917.0,-624.6532694412313,-315.84902002871604,-749.2252546218635
310472.0,2645.0,310472.0,16330.0,310472.0,43906.0,-629.0283131431013,-316.4791404033065,-752.6229545211361
310472.0,2622.0,310472.0,16301.0,310472.0,43876.0,-633.035729351826,-316.86141668001164,-755.4180286347332
310483.0,2611.0,310483.0,16302.0,310483.0,43859.0,-636.6570697331342,-316.9868564825931,-757.5882435367381
310483.0,2612.0,310483.0,16326.0,310483.0,43887.0,-639.8738451218542,-316.84676364508584,-759.1121615329097
310483.0,2629.0,310483.0,16319.0,310483.0,43872.0,-642.6676795181513,-316.4327644612026,-759.969335832113
310483.0,2602.0,310483.0,16326.0,310483.0,43860.0,-645.0202486291955,-315.73661190216023,-760.1402555901234
310483.0,2606.0,310483.0,16251.0,310483.0,43862.0,-646.913209969635,-314.7501809126512,-759.606391589366
310483.0,2584.0,310483.0,16293.0,310483.0,43822.0,-648.3283295090034,-313.46593432300347,-758.3504565125053
310493.0,2583.0,310493.0,16312.0,310493.0,43881.0,-649.2477386752989,-311.87744275010675,-756.3567205330437
310493.0,2596.0,310493.0,16240.0,310493.0,43829.0,-649.6541624279816,-309.9794993419249,-753.6111642169706
310493.0,2594.0,310493.0,16331.0,310493.0,43872.0,-649.5309732681521,-307.7681493169422,-750.1014712660219
310493.0,2585.0,310493.0,16315.0,310493.0,43848.0,-648.8621101942488,-305.24068101160594,-745.8170436891619
310493.0,2575.0,310493.0,16301.0,310493.0,43879.0,-647.6320999156969,-302.3952932216895,-740.7490175398626
310493.0,2585.0,310493.0,16295.0,310493.0,43835.0,-645.8262415547455,-299.23090438227524,-734.8902795615086
310503.0,2574.0,310503.0,16329.0,310503.0,43864.0,-643.4307893902246,-295.7473383971711,-728.2356509707545
310503.0,2593.0,310503.0,16335.0,310503.0,43882.0,-640.433043048985,-291.9453569392389,-720.7821293257442
310503.0,2579.0,310503.0,16345.0,310503.0,43898.0,-636.8213759434975,-287.82636621182075,-712.5288587786947
310503.0,2589.0,310503.0,16344.0,310503.0,43886.0,-632.5852671241845,-283.3921239673065,-703.4768935683253
310503.0,2573.0,310503.0,16308.0,310503.0,43890.0,-627.715411798699,-278.6447138705992,-693.6291473814908
310503.0,2583.0,310503.0,16308.0,310503.0,43889.0,-622.203925022169,-273.5868984543631,-682.9906277113571
310514.0,2573.0,310514.0,16303.0,310514.0,43904.0,-616.044584215585,-268.2227069096811,-671.5687406008171
310514.0,2603.0,310514.0,16352.0,310514.0,43915.0,-609.2330196962232,-262.5578326350335,-659.373487517177
310514.0,2615.0,310514.0,16360.0,310514.0,43954.0,-601.7667239005955,-256.59952673246414,-646.4174772137075
310514.0,2622.0,310514.0,16377.0,310514.0,43983.0,-593.6448612270376,-250.35612690338053,-632.7156854708578
310514.0,2613.0,310514.0,16352.0,310514.0,43968.0,-584.8681072597087,-243.83667887347693,-618.2850695681177
310514.0,2625.0,310514.0,16368.0,310514.0,44008.0,-575.4387217967289,-237.05093744836432,-603.1443547283927
310524.0,2653.0,310524.0,16402.0,310524.0,44024.0,-565.3607119754402,-230.00952834668706,-587.3140061541332
310524.0,2658.0,310524.0,16413.0,310524.0,44068.0,-554.6398182890919,-222.7238434904045,-570.8160703506398
310524.0,2675.0,310524.0,16415.0,310524.0,44036.0,-543.283351696196,-215.2056835753784,-553.673901265002
310524.0,2663.0,310524.0,16375.0,310524.0,44076.0,-531.300120435201,-207.4671170579453,-535.9121206309344
310524.0,2681.0,310524.0,16408.0,310524.0,44076.0,-518.7005596351728,-199.52079802153864,-517.5568421182753
310524.0,2699.0,310524.0,16409.0,310524.0,44118.0,-505.4969399881227,-191.38039445008377,-498.63583874005565
310534.0,2712.0,310534.0,16442.0,310534.0,44127.0,-491.7034527701721,-183.0606893710662,-479.17851303214434
310534.0,2746.0,310534.0,16452.0,310534.0,44213.0,-477.33612831386824,-174.5773584709826,-459.2156650581288
310534.0,2767.0,310534.0,16517.0,310534.0,44171.0,-462.41262996997295,-165.94655120094114,-438.7790552660638
310534.0,2768.0,310534.0,16457.0,310534.0,44202.0,-446.951997918738,-157.18436998518973,-417.90111940131885
310534.0,2779.0,310534.0,16485.0,310534.0,44225.0,-430.97455070301737,-148.30664163965525,-396.61512181599244
310534.0,2818.0,310534.0,16488.0,310534.0,44259.0,-414.5019721987993,-139.3291504734013,-374.95535959394323
310545.0,2843.0,310545.0,16523.0,310545.0,44280.0,-397.5572838543993,-130.267844843734,-352.9570824981989
310545.0,2846.0,310545.0,16543.0,310545.0,44324.0,-380.1646104286028,-121.13866250188576,-330.65626726611816
310545.0,2872.0,310545.0,16540.0,310545.0,44328.0,-362.34901573208106,-111.95716241953521,-308.08938272468464
310545.0,2862.0,310545.0,16516.0,310545.0,44340.0,-344.13656341729813,-102.73836125513668,-285.2932761044144
310545.0,2902.0,310545.0,16508.0,310545.0,44383.0,-325.5545089125725,-93.49704513452764,-262.30526639038237
310545.0,2914.0,310545.0,16551.0,310545.0,44372.0,-306.6314516606987,-84.24832150434489,-239.16328364214587
310555.0,2968.0,310555.0,16568.0,310555.0,44427.0,-287.39727880827763,-75.0078338146922,-215.9059579560961
310555.0,2987.0,310555.0,16596.0,310555.0,44496.0,-267.88285894505464,-65.79145842801644,-192.57253946454716
310555.0,2997.0,310555.0,16620.0,310555.0,44506.0,-248.11966301484028,-56.61479085506855,-169.2024012287147
310555.0,3018.0,310555.0,16594.0,310555.0,44524.0,-228.13958662675026,-47.49273853293208,-145.83441112714368
310555.0,3036.0,310555.0,16601.0,310555.0,44544.0,-207.97500512831115,-38.43946249057626,-122.50670573086882
310555.0,3074.0,310555.0,16633.0,310555.0,44588.0,-187.65882970302178,-29.468616826948164,-99.25675158181394
310565.0,3089.0,310565.0,16634.0,310565.0,44594.0,-167.2244197586377,-20.593458537322533,-76.12131825172995
310565.0,3141.0,310565.0,16665.0,310565.0,44621.0,-146.70537077736958,-11.826675465524119,-53.13639029945443
310565.0,3136.0,310565.0,16627.0,310565.0,44651.0,-126.13524535557863,-3.1802152735137668,-30.33716264219146
310565.0,3168.0,310565.0,16634.0,310565.0,44663.0,-105.54739003081892,5.3345854722767285,-7.75804734490282
310565.0,3199.0,310565.0,16661.0,310565.0,44694.0,-84.97489549821441,13.706623079957126,14.567347764141005
310565.0,3201.0,310565.0,16656.0,310565.0,44695.0,-64.45056152360974,21.924798419957284,36.606188818647524
310576.0,3258.0,310576.0,16718.0,310576.0,44740.0,-44.0068128646609,29.97813720824908,58.32633102354811
310576.0,3277.0,310576.0,16703.0,310576.0,44849.0,-23.67553073458788,37.85616615275046,79.69648174580135
310576.0,3294.0,310576.0,16698.0,310576.0,44796.0,-3.487762333096498,45.54928627870103,100.68689392146467
310576.0,3318.0,310576.0,16695.0,310576.0,44808.0,16.526496285556163,53.04877950014952,121.26996343442926
310576.0,3341.0,310576.0,16715.0,310576.0,44823.0,36.33835596785025,60.34651755471944,141.42001098353762
310576.0,3357.0,310576.0,16755.0,310576.0,44900.0,55.92006539977962,67.43485320690752,161.11283418721058
310586.0,3377.0,310586.0,16742.0,310586.0,44934.0,75.24504042642047,74.30688826105899,180.32592321897147
310586.0,3395.0,310586.0,16756.0,310586.0,44919.0,94.287850154289,80.95680697748915,199.0391525512311
310586.0,3407.0,310586.0,16724.0,310586.0,44907.0,113.0241728413564,87.3799067963418,217.23508338132444
310586.0,3442.0,310586.0,16747.0,310586.0,44911.0,131.43075275608066,93.57231441531931,234.89852121641593
310586.0,3458.0,310586.0,16757.0,310586.0,44960.0,149.48543367234157,99.53068081576146,252.01586344819964
310586.0,3470.0,310586.0,16750.0,310586.0,44957.0,167.1672677306757,105.25209416490381,268.5748425086533
310596.0,3496.0,310596.0,16801.0,310596.0,45018.0,184.45657491349039,110.73417427815573,284.5646771951474
310596.0,3521.0,310596.0,16792.0,310596.0,45012.0,201.33497000281443,115.97532242648606,299.9763897167911
310596.0,3518.0,310596.0,16759.0,310596.0,45006.0,217.78543658342596,120.9749849033469,314.8030459629364
310596.0,3551.0,310596.0,16770.0,310596.0,45018.0,233.792353573,125.7335256584181,329.0396501294654
310596.0,3555.0,310596.0,16805.0,310596.0,45074.0,249.341448523297,130.25185170172597,342.6828801112854
310596.0,3603.0,310596.0,16808.0,310596.0,45052.0,264.41982795454874,134.53139433650568,355.73112320913367
310607.0,3606.0,310607.0,16798.0,310607.0,45085.0,279.016170181818,138.57441178927309,368.18469083663615
310607.0,3614.0,310607.0,16765.0,310607.0,45021.0,293.1209515322147,142.38404250211937,380.0457468261742
310607.0,3605.0,310607.0,16745.0,310607.0,45050.0,306.72644525971737,145.96383783745404,391.3177833821013
310607.0,3625.0,310607.0,16737.0,310607.0,45045.0,319.82644287493247,149.31698254310805,402.004909726376
310607.0,3661.0,310607.0,16838.0,310607.0,45114.0,332.41600170148297,152.44578570245233,412.1114896174481
310607.0,3669.0,310607.0,16832.0,310607.0,45110.0,344.49150623151183,155.35204918618814,421.6423927217802
310617.0,3656.0,310617.0,16814.0,310617.0,45151.0,356.05087142603236,158.0379998514789,430.60357637532115
310617.0,3669.0,310617.0,16818.0,310617.0,45110.0,367.0934934532165,160.50678368236265,439.0025280700128
310617.0,3668.0,310617.0,16809.0,310617.0,45143.0,377.6199499580662,162.76232751631449,446.84831752709715
310617.0,3692.0,310617.0,16829.0,310617.0,45120.0,387.63174332626534,164.8091146575942,454.15137346629217
310617.0,3697.0,310617.0,16841.0,310617.0,45128.0,397.1312225172004,166.6521818573347,460.9232134603685
310617.0,3728.0,310617.0,16836.0,310617.0,45151.0,406.12166318308834,168.29731525486108,467.17622570437527
310627.0,3713.0,310627.0,16792.0,310627.0,45132.0,414.6074250500991,169.7511476300573,472.9235772084256
310627.0,3718.0,310627.0,16808.0,310627.0,45106.0,422.59400634460087,171.02085524651108,478.1791043322329
310627.0,3719.0,310627.0,16799.0,310627.0,45116.0,430.0878817964033,172.11366858850778,482.9569100144581
310627.0,3714.0,310627.0,16794.0,310627.0,45154.0,437.09623534856837,173.03657317664783,487.27093033779727
310627.0,3738.0,310627.0,16819.0,310627.0,45150.0,443.62673914749746,173.79621237544643,491.13495364621906
310627.0,3744.0,310627.0,16820.0,310627.0,45177.0,449.68748179436386,174.39895756571445,494.5629946260491
310638.0,3743.0,310638.0,16818.0,310638.0,45157.0,455.2870476355631,174.85112927626432,497.5696282771909
310638.0,3745.0,310638.0,16801.0,310638.0,45124.0,460.4345646969133,175.15912824467722,500.1700242822021
310638.0,3741.0,310638.0,16809.0,310638.0,45126.0,465.1396076566439,175.32933049411866,502.3795558320377
310638.0,3764.0,310638.0,16821.0,310638.0,45192.0,469.4120648443461,175.36794252021838,504.21335883325673
310638.0,3773.0,310638.0,16823.0,310638.0,45179.0,473.262147045015,175.28104911010877,505.68648656836353
310638.0,3776.0,310638.0,16827.0,310638.0,45136.0,476.70057016823955,175.07480907075643,506.81441040187406
310648.0,3757.0,310648.0,16801.0,310648.0,45108.0,479.73869491379037,174.75557201197708,507.6129492999165
310648.0,3756.0,310648.0,16806.0,310648.0,45127.0,482.38840654917794,174.32977027645555,508.0975527871948
310648.0,3753.0,310648.0,16810.0,310648.0,45133.0,484.6618052639234,173.8036950932728,508.2827281095224
310648.0,3761.0,310648.0,16788.0,310648.0,45155.0,486.5709434950196,173.1833530497117,508.18203608937733
310648.0,3757.0,310648.0,16828.0,310648.0,45160.0,488.12771709330025,172.47441887000662,507.80844474037053
310648.0,3782.0,310648.0,16833.0,310648.0,45158.0,489.343883635044,171.68236120817528,507.1747244987059
310659.0,3768.0,310659.0,16803.0,310659.0,45124.0,490.2311872572466,170.81275745919527,506.29362763570305
310659.0,3759.0,310659.0,16789.0,310659.0,45119.0,490.80146618884567,169.8713845710063,505.1776854920446
310659.0,3763.0,310659.0,16810.0,310659.0,45146.0,491.06657462940336,168.86392985050654,503.8388335895984
310659.0,3764.0,310659.0,16802.0,310659.0,45125.0,491.0382177555267,167.79576881974796,502.2882851523234
310659.0,3772.0,310659.0,16790.0,310659.0,45151.0,490.72790589244346,166.67198600426428,500.5366769365246
310659.0,3766.0,310659.0,16818.0,310659.0,45109.0,490.14702544957174,165.49740980085298,498.5941996398767
310669.0,3742.0,310669.0,16741.0,310669.0,45102.0,489.3068562559598,164.2765479325028,496.47050207801374
310669.0,3762.0,310669.0,16778.0,310669.0,45110.0,488.2184216000136,163.01329988940844,494.17437284804294
310669.0,3735.0,310669.0,16762.0,310669.0,45075.0,486.8922900099251,161.71052716320168,491.71343189820277
310669.0,3750.0,310669.0,16788.0,310669.0,45151.0,485.33844984402185,160.36989601437955,489.09403207102787
310669.0,3762.0,310669.0,16815.0,310669.0,45138.0,483.56627456487195,158.99213029490127,486.32155453231314
310669.0,3759.0,310669.0,16815.0,310669.0,45126.0,481.58465932310094,157.57753058513995,483.40102097515705
310679.0,3756.0,310679.0,16782.0,310679.0,45115.0,479.4022516451098,156.12645403431603,480.3374517307316
310679.0,3738.0,310679.0,16805.0,310679.0,45095.0,477.0275371365915,154.63940681013145,477.13573486839414
310679.0,3750.0,310679.0,16824.0,310679.0,45136.0,474.4687434943728,153.11696568092745,473.80039062843537
310679.0,3744.0,310679.0,16794.0,310679.0,45152.0,471.7337446872633,151.5599273849951,470.3356843429839
310679.0,3758.0,310679.0,16775.0,310679.0,45111.0,468.8301087245328,149.96942268466364,466.74609579177616
310679.0,3740.0,310679.0,16793.0,310679.0,45116.0,465.76524221164493,148.34668140356106,463.03659642395075
310690.0,3731.0,310690.0,16746.0,310690.0,45088.0,462.5464574078678,146.69269530630564,459.21246514375576
310690.0,3722.0,310690.0,16788.0,310690.0,45078.0,459.18085428907375,145.00797508549377,455.2789237973606
310690.0,3736.0,310690.0,16779.0,310690.0,45093.0,455.6751448746167,143.29245809168592,451.2408289690447
310690.0,3737.0,310690.0,16839.0,310690.0,45112.0,452.0356502938637,141.54577320916468,447.1026222931768
310690.0,3729.0,310690.0,16827.0,310690.0,45092.0,448.26847644661217,139.76788918344366,442.8686200737699
310690.0,3721.0,310690.0,16790.0,310690.0,45071.0,444.37964949029646,137.9597355904048,438.54327577304394
310700.0,3724.0,310700.0,16789.0,310700.0,45090.0,440.3751097692963,136.12327634631708,434.13112785891917
310700.0,3726.0,310700.0,16746.0,310700.0,45098.0,436.2606975560743,134.26104382237918,429.63673237654916
310700.0,3706.0,310700.0,16801.0,310700.0,45072.0,432.0422052893726,132.37562122026563,425.0648391317929
310700.0,3711.0,310700.0,16778.0,310700.0,45063.0,427.72538279242616,130.46949204174564,420.4205178995179
310700.0,3711.0,310700.0,16759.0,310700.0,45056.0,423.3158851653201,128.54518978898497,415.7090078459031
310700.0,3693.0,310700.0,16770.0,310700.0,45056.0,418.81927042268075,126.60530259807012,410.935508563075
310710.0,3686.0,310710.0,16749.0,310710.0,45031.0,414.24097384053795,124.65227201246884,406.10507242233774
310710.0,3683.0,310710.0,16733.0,310710.0,45021.0,409.58617383749333,122.68818211532295,401.2224624910119
310710.0,3688.0,310710.0,16766.0,310710.0,45049.0,404.8596868283706,120.71455108697845,396.2919677569008
310710.0,3698.0,310710.0,16777.0,310710.0,45042.0,400.06604063860533,118.73233761269768,391.31745073255667
310710.0,3682.0,310710.0,16753.0,310710.0,45029.0,395.20968989570804,116.74226934744149,386.30263337056425
310710.0,3672.0,310710.0,16767.0,310710.0,45033.0,390.2951688538091,114.7451048504497,381.25128320179005
310721.0,3666.0,310721.0,16772.0,310721.0,45056.0,385.32704389284675,112.7416812314022,376.16729754897676
310721.0,3666.0,310721.0,16761.0,310721.0,45023.0,380.3097849449368,110.73299032728914,371.05491639440305
310721.0,3689.0,310721.0,16798.0,310721.0,45045.0,375.24777830957646,108.72035016379148,365.91895044428503
310721.0,3673.0,310721.0,16763.0,310721.0,45011.0,370.1455657083317,106.70562916855654,360.76485021036376
310721.0,3645.0,310721.0,16770.0,310721.0,44997.0,365.0080807546599,104.69140773894752,355.5986159512902
310721.0,3653.0,310721.0,16698.0,310721.0,44973.0,359.8405872273148,102.68080187743905,350.4265017535878
310731.0,3637.0,310731.0,16772.0,310731.0,44994.0,354.6484464818734,100.67696702730056,345.2546309370702
310731.0,3638.0,310731.0,16732.0,310731.0,45033.0,349.4369870336323,98.68278794148242,340.08893947089047
310731.0,3650.0,310731.0,16765.0,310731.0,45001.0,344.211510543301,96.70101149785759,334.93562731240985
310731.0,3634.0,310731.0,16770.0,310731.0,44973.0,338.9774158194561,94.73455118890399,329.8016054717606
310731.0,3625.0,310731.0,16724.0,310731.0,44958.0,333.7403334077241,92.78672034760123,324.694376004514
310731.0,3605.0,310731.0,16735.0,310731.0,44937.0,328.50607833779776,90.8611875935756,319.62151470110695
310741.0,3609.0,310741.0,16733.0,310741.0,44965.0,323.28044310733543,88.96166855877756,314.5902500217385
310741.0,3619.0,310741.0,16763.0,310741.0,44966.0,318.0690634435677,87.09179899362877,309.6074233801372
310741.0,3609.0,310741.0,16755.0,310741.0,44951.0,312.87750843481234,85.25538948185348,304.6797698310419
310741.0,3611.0,310741.0,16713.0,310741.0,44935.0,307.71147747299216,83.45670142293571,299.8141222891416
310741.0,3576.0,310741.0,16705.0,310741.0,44958.0,302.5768731212844,81.70028679731273,295.0173710902709
310741.0,3573.0,310741.0,16683.0,310741.0,44905.0,297.4796343698905,79.99041788695692,290.2963871151111
310752.0,3588.0,310752.0,16702.0,310752.0,44881.0,292.4254717505006,78.3305459567307,285.6578192102773
310752.0,3581.0,310752.0,16728.0,310752.0,44949.0,287.4198157715351,76.72314089122155,281.1077009283252
310752.0,3589.0,310752.0,16737.0,310752.0,44935.0,282.46801896389707,75.17000476815899,276.65144920403907
310752.0,3573.0,310752.0,16731.0,310752.0,44921.0,277.57557256087796,73.67280429664785,272.29439440640294
310752.0,3555.0,310752.0,16682.0,310752.0,44896.0,272.7481635966337,72.23332624581771,268.04209281173655
310752.0,3546.0,310752.0,16702.0,310752.0,44886.0,267.99151760421546,70.85321700872223,263.90009955072026
310762.0,3553.0,310762.0,16759.0,310762.0,44884.0,263.3111562482701,69.5336757468659,259.87357623772186
310762.0,3560.0,310762.0,16730.0,310762.0,44932.0,258.7123267209398,68.27573043865495,255.96715403859326
310762.0,3546.0,310762.0,16706.0,310762.0,44889.0,254.2001492681481,67.08074668770031,252.1852098602688
310762.0,3540.0,310762.0,16671.0,310762.0,44857.0,249.77975601887988,65.95034762575341,248.5321264819208
310762.0,3518.0,310762.0,16688.0,310762.0,44822.0,245.45623679203442,64.88578736500935,245.01194758357545
310762.0,3515.0,310762.0,16684.0,310762.0,44880.0,241.23441802333966,63.88743363712554,241.62769061654353
310772.0,3521.0,310772.0,16712.0,310772.0,44876.0,237.1186385706654,62.95469552131631,238.38115116098263
310772.0,3513.0,310772.0,16717.0,310772.0,44896.0,233.11268414096662,62.08630518401279,235.2733767612999
310772.0,3521.0,310772.0,16715.0,310772.0,44858.0,229.21986805678546,61.28072091865909,232.30520710928107
310772.0,3510.0,310772.0,16711.0,310772.0,44868.0,225.44314086321842,60.53640462823877,229.47741507979708
310772.0,3492.0,310772.0,16714.0,310772.0,44857.0,221.78512748068812,59.851888800199866,226.79055382157725
310772.0,3514.0,310772.0,16716.0,310772.0,44830.0,218.24805538026806,59.22576861060357,224.24475879520037
310783.0,3505.0,310783.0,16724.0,310783.0,44873.0,214.83373356985126,58.65675074557189,221.83957354874548
310783.0,3503.0,310783.0,16690.0,310783.0,44875.0,211.5436814803545,58.14370434473357,219.57398743337953
310783.0,3490.0,310783.0,16716.0,310783.0,44833.0,208.37922151013055,57.68557042449953,217.44672574615757
310783.0,3490.0,310783.0,16690.0,310783.0,44822.0,205.3414198252937,57.28118648286541,215.45627830670347
310783.0,3474.0,310783.0,16692.0,310783.0,44800.0,202.4309563217575,56.92914572120252,213.6004277109601
310783.0,3485.0,310783.0,16680.0,310783.0,44834.0,199.64799859305785,56.62762211683939,211.87573467456508
310793.0,3477.0,310793.0,16699.0,310793.0,44861.0,196.99214059457654,56.37418365542596,210.27748647104585
310793.0,3497.0,310793.0,16728.0,310793.0,44873.0,194.46246468659916,56.165826510946985,208.8002077376889
310793.0,3475.0,310793.0,16727.0,310793.0,44845.0,192.05769671225772,55.999347626173524,207.43831083862767
310793.0,3467.0,310793.0,16701.0,310793.0,44819.0,189.776286169639,55.87176639505557,206.18629705343218
310793.0,3467.0,310793.0,16705.0,310793.0,44836.0,187.6162900952595,55.78038270827769,205.0384359146389
310793.0,3486.0,310793.0,16722.0,310793.0,44867.0,185.57524284372363,55.72257668998625,203.98848748990957
310803.0,3484.0,310803.0,16729.0,310803.0,44844.0,183.65025871981106,55.6957934071318,203.02988265721422
310803.0,3475.0,310803.0,16724.0,310803.0,44856.0,181.8382704028249,55.69777132378823,202.1560559919224
310803.0,3465.0,310803.0,16718.0,310803.0,44829.0,180.1361199337156,55.72671507114996,201.3605247081896
310803.0,3455.0,310803.0,16686.0,310803.0,44820.0,178.54042141410022,55.781206185742384,200.63670172250818
310803.0,3457.0,310803.0,16689.0,310803.0,44842.0,177.04733313285251,55.859843780391216,199.97761506645256
310803.0,3462.0,310803.0,16695.0,310803.0,44834.0,175.6524072003488,55.96082566468101,199.37578885215538
310814.0,3476.0,310814.0,16725.0,310814.0,44897.0,174.35062204913925,56.081813996369725,198.8234661267279
310814.0,3488.0,310814.0,16728.0,310814.0,44854.0,173.1366141335178,56.220206946304764,198.31311314222728
310814.0,3473.0,310814.0,16707.0,310814.0,44844.0,172.00499363511176,56.37352908207757,197.83781268462826
310814.0,3483.0,310814.0,16712.0,310814.0,44827.0,170.95054399575844,56.53955199705833,197.3911358868705
310814.0,3464.0,310814.0,16652.0,310814.0,44845.0,169.9682366423808,56.716031935494314,196.96671333448774
310814.0,3475.0,310814.0,16755.0,310814.0,44849.0,169.05315011481497,56.900317452674024,196.55802779361227
310824.0,3470.0,310824.0,16724.0,310824.0,44859.0,168.20039292149153,57.08937763633717,196.15854007354704
310824.0,3482.0,310824.0,16739.0,310824.0,44852.0,167.4051092073224,57.2803440648342,195.7619276483025
310824.0,3451.0,310824.0,16712.0,310824.0,44840.0,166.6625228699071,57.47090079273175,195.36220554178632
310824.0,3452.0,310824.0,16709.0,310824.0,44813.0,165.96783409915997,57.65918651556128,194.9535900428073
310824.0,3444.0,310824.0,16682.0,310824.0,44835.0,165.31593814042776,57.84343362103253,194.53015401386128
310824.0,3457.0,310824.0,16707.0,310824.0,44838.0,164.7011870239865,58.02156275259971,194.0855836120763
310834.0,3481.0,310834.0,16764.0,310834.0,44872.0,164.11740489449068,58.191081025924056,193.6133077933182
310834.0,3459.0,310834.0,16707.0,310834.0,44834.0,163.55814498003423,58.3494944320702,193.10686926022404
310834.0,3459.0,310834.0,16713.0,310834.0,44845.0,163.01690305372588,58.494686077689934,192.56013434270355
310834.0,3468.0,310834.0,16708.0,310834.0,44836.0,162.48709938789662,58.62476250553212,191.9671983327117
310834.0,3471.0,310834.0,16740.0,310834.0,44857.0,161.96203785251964,58.737793143806044,191.32226574337543
310834.0,3472.0,310834.0,16727.0,310834.0,44846.0,161.43500629074316,58.83190435399724,190.6197181733666
310845.0,3487.0,310845.0,16727.0,310845.0,44831.0,160.8994333904099,58.905523743837705,189.85421818432204
310845.0,3468.0,310845.0,16698.0,310845.0,44812.0,160.3490354833652,58.95740244051368,189.02058831250986
310845.0,3460.0,310845.0,16663.0,310845.0,44805.0,159.77785229698497,58.98625954922025,188.1134370567745
310845.0,3460.0,310845.0,16714.0,310845.0,44827.0,159.1800848407631,58.99021478667391,187.12679712042004
310845.0,3462.0,310845.0,16702.0,310845.0,44854.0,158.54988942421542,58.96650919471592,186.05411606834818
310845.0,3486.0,310845.0,16702.0,310845.0,44880.0,157.8813506037308,58.91167791910436,184.8887291088757
310855.0,3472.0,310855.0,16721.0,310855.0,44871.0,157.1686676501682,58.821778493890534,183.62457540649342
310855.0,3468.0,310855.0,16722.0,310855.0,44824.0,156.40635437823562,58.692547246346095,182.25664410796537
310855.0,3451.0,310855.0,16717.0,310855.0,44825.0,155.58921574812328,58.51959929832293,180.78079005052462
310855.0,3461.0,310855.0,16726.0,310855.0,44833.0,154.7121337957956,58.29856908979962,179.19320870563533
310855.0,3459.0,310855.0,16724.0,310855.0,44870.0,153.76989578864533,58.0251632321026,177.490234274703
310855.0,3467.0,310855.0,16763.0,310855.0,44819.0,152.75719024373885,57.69529379845564,175.6685946263301
310866.0,3458.0,310866.0,16746.0,310866.0,44828.0,151.66869812331169,57.3053994447014,173.72558488329383
310866.0,3464.0,310866.0,16697.0,310866.0,44791.0,150.4991579549279,56.852687358227946,171.6588177555641
310866.0,3454.0,310866.0,16714.0,310866.0,44821.0,149.2433726673304,56.33488128705323,169.46581581458253
310866.0,3464.0,310866.0,16701.0,310866.0,44785.0,147.89619473800332,55.749686208372395,167.14376553685113
310866.0,3467.0,310866.0,16733.0,310866.0,44815.0,146.45255457854807,55.09453230824731,164.68943724697166
310866.0,3509.0,310866.0,16736.0,310866.0,44832.0,144.90765779278604,54.36673191491787,162.09926498032885
310876.0,3452.0,310876.0,16776.0,310876.0,44834.0,143.25734539650014,53.56391590175177,159.36969767107047
310876.0,3454.0,310876.0,16714.0,310876.0,44802.0,141.4982326436751,52.68451691359913,156.49760726124575
310876.0,3446.0,310876.0,16716.0,310876.0,44803.0,139.62740803074135,51.72786438887025,153.4803389792002
310876.0,3452.0,310876.0,16733.0,310876.0,44816.0,137.64207709598506,50.693832738914125,150.31549697657405
310876.0,3473.0,310876.0,16723.0,310876.0,44831.0,135.53950930868166,49.58258506421162,147.00093086393477
310876.0,3466.0,310876.0,16746.0,310876.0,44821.0,133.31726183019973,48.394661330838055,143.53503654880268
310886.0,3452.0,310886.0,16696.0,310886.0,44786.0,130.97344143388983,47.13111149202412,139.91699705452544
310886.0,3447.0,310886.0,16720.0,310886.0,44799.0,128.5067415762212,45.7934023586635,136.14665981109556
310886.0,3439.0,310886.0,16699.0,310886.0,44780.0,125.91626884479321,44.38316092070097,132.22424067326395
310886.0,3440.0,310886.0,16720.0,310886.0,44792.0,123.20136322138386,42.90201513349114,128.15016632453847
310886.0,3449.0,310886.0,16712.0,310886.0,44801.0,120.36153361306955,41.351623185324925,123.92511577238669
310886.0,3456.0,310886.0,16724.0,310886.0,44805.0,117.39656128910525,39.733806197049795,119.55024675305428
310897.0,3428.0,310897.0,16710.0,310897.0,44763.0,114.30668421753955,38.05068918359193,115.0274430987019
310897.0,3430.0,310897.0,16705.0,310897.0,44757.0,111.09262148394625,36.304744983184285,110.35924506587274
310897.0,3423.0,310897.0,16690.0,310897.0,44759.0,107.75540135648541,34.49868037333326,105.54848684820138
310897.0,3425.0,310897.0,16707.0,310897.0,44760.0,104.29621558312009,32.635247266804484,100.59805605509963
310897.0,3424.0,310897.0,16720.0,310897.0,44777.0,100.71640714529444,30.71720555748794,95.51097743715232
310897.0,3415.0,310897.0,16708.0,310897.0,44747.0,97.01751857531332,28.747530617576018,90.29066088958821
310907.0,3398.0,310907.0,16678.0,310907.0,44746.0,93.20128139360656,26.729573939748665,84.94103435946384
310907.0,3393.0,310907.0,16685.0,310907.0,44683.0,89.26946566692186,24.666883388104267,79.46634702984788
310907.0,3403.0,310907.0,16638.0,310907.0,44687.0,85.22369284161027,22.562786160691783,73.87061432398063
310907.0,3396.0,310907.0,16685.0,310907.0,44728.0,81.06540404848023,20.419979223283423,68.15707088952405
310907.0,3407.0,310907.0,16696.0,310907.0,44738.0,76.7959939446653,18.240416502550858,62.32823450399752
310907.0,3383.0,310907.0,16707.0,310907.0,44746.0,72.41696231226385,16.025685004480273,56.38658484154175
310917.0,3381.0,310917.0,16683.0,310917.0,44683.0,67.9299417058208,13.777525758878863,50.33514466358585
310917.0,3373.0,310917.0,16664.0,310917.0,44706.0,63.33658086153359,11.49798146164947,44.17746348746033
310917.0,3412.0,310917.0,16681.0,310917.0,44708.0,58.638498328657136,9.189160637249415,37.91731730809079
310917.0,3377.0,310917.0,16695.0,310917.0,44697.0,53.837504592315796,6.853065497074173,31.55868077950572
310917.0,3373.0,310917.0,16679.0,310917.0,44686.0,48.93585788103297,4.4917424618840815,25.10589483231354
310917.0,3370.0,310917.0,16635.0,310917.0,44635.0,43.93624599220979,2.1073991089415856,18.56360259279967
310928.0,3355.0,310928.0,16638.0,310928.0,44657.0,38.841627626054944,-0.2979253601897973,11.936364419756814
310928.0,3333.0,310928.0,16658.0,310928.0,44643.0,33.65507884901663,-2.7228629977286047,5.228281777213397
310928.0,3344.0,310928.0,16672.0,310928.0,44654.0,28.379577810104138,-5.166810565333034,-1.5570545023260536
310928.0,3340.0,310928.0,16688.0,310928.0,44670.0,23.01784903505282,-7.629536709784247,-8.416328124273008
310928.0,3344.0,310928.0,16663.0,310928.0,44632.0,17.572425052179938,-10.110695483331373,-15.346167804797005
310928.0,3326.0,310928.0,16679.0,310928.0,44622.0,12.045801813690275,-12.609578111821723,-22.3430057192692
310938.0,3319.0,310938.0,16630.0,310938.0,44613.0,6.440483432768644,-15.125157666184244,-29.40326974571306
310938.0,3313.0,310938.0,16641.0,310938.0,44615.0,0.7588878219487469,-17.656367972430388,-36.523630346220614
310938.0,3322.0,310938.0,16696.0,310938.0,44653.0,-4.996735070157797,-20.202347636764443,-43.700954122268286
310938.0,3315.0,310938.0,16656.0,310938.0,44638.0,-10.824236913745892,-22.762234357483706,-50.931873087390926
310938.0,3304.0,310938.0,16654.0,310938.0,44599.0,-16.72142744896385,-25.334762518308352,-58.212301654491625
310938.0,3298.0,310938.0,16619.0,310938.0,44573.0,-22.686021773712213,-27.91829549318056,-65.53744987962816
310948.0,3307.0,310948.0,16645.0,310948.0,44547.0,-28.715662351352734,-30.511219850210544,-72.90237761719621
310948.0,3295.0,310948.0,16620.0,310948.0,44551.0,-34.80786403532295,-33.11223402614401,-80.30263035360656
310948.0,3263.0,310948.0,16662.0,310948.0,44579.0,-40.959953018624304,-35.72036355195548,-87.73452582157967
310948.0,3279.0,310948.0,16621.0,310948.0,44540.0,-47.16919204255814,-38.334793938481,-95.19499035094532
310948.0,3276.0,310948.0,16635.0,310948.0,44562.0,-53.43293612522987,-40.954739816620815,-102.68127899046942
310948.0,3260.0,310948.0,16630.0,310948.0,44550.0,-59.74858819485718,-43.579475830576634,-110.1908284214301
310959.0,3252.0,310959.0,16620.0,310959.0,44539.0,-66.11352470644027,-46.20839979241384,-117.72113549954784
310959.0,3271.0,310959.0,16616.0,310959.0,44544.0,-72.52511477409612,-48.8410775281219,-125.2696493693239
310959.0,3251.0,310959.0,16673.0,310959.0,44520.0,-78.98064470039509,-51.477218841784456,-132.83373187505111
310959.0,3251.0,310959.0,16616.0,310959.0,44523.0,-85.47715001391663,-54.116396408167105,-140.41066409224464
310959.0,3246.0,310959.0,16600.0,310959.0,44494.0,-92.01133319259526,-56.7578253294769,-147.9977193035582
310959.0,3229.0,310959.0,16595.0,310959.0,44495.0,-98.57956312387935,-59.40066680206614,-155.59230857814515
310969.0,3212.0,310969.0,16597.0,310969.0,44483.0,-105.17794831474637,-62.044530097713846,-163.19213833097797
310969.0,3200.0,310969.0,16613.0,310969.0,44485.0,-111.80254468016867,-64.68965481076059,-170.79528483059357
310969.0,3215.0,310969.0,16626.0,310969.0,44497.0,-118.44957458783503,-67.33672885970122,-178.40011490005145
310969.0,3203.0,310969.0,16633.0,310969.0,44482.0,-125.11544479553535,-69.98649401647756,-186.0050548998629
310969.0,3195.0,310969.0,16606.0,310969.0,44441.0,-131.79660590207214,-72.63937774484835,-193.60842256330767
310969.0,3206.0,310969.0,16603.0,310969.0,44477.0,-138.48943961209497,-75.29542048274922,-201.20853220431803
310979.0,3166.0,310979.0,16625.0,310979.0,44469.0,-145.19021035933528,-77.95442550286172,-208.80377991507805
310979.0,3184.0,310979.0,16632.0,310979.0,44422.0,-151.89510366797376,-80.6159326784722,-216.39249429532492
310979.0,3184.0,310979.0,16634.0,310979.0,44495.0,-158.60028863871878,-83.2788947395213,-223.97282394518533
310979.0,3162.0,310979.0,16573.0,310979.0,44413.0,-165.30184076317516,-85.94145268516161,-231.54264154184523
310979.0,3139.0,310979.0,16556.0,310979.0,44403.0,-171.99569720760763,-88.60126370012101,-239.0995050368694
310979.0,3151.0,310979.0,16575.0,310979.0,44405.0,-178.67784504155384,-91.25623592356207,-246.64100186121914
310990.0,3135.0,310990.0,16570.0,310990.0,44397.0,-185.34450981493046,-93.90500635986959,-254.16515444383577
310990.0,3136.0,310990.0,16607.0,310990.0,44387.0,-191.99216450192966,-96.54686248364547,-261.6704965420399
310990.0,3122.0,310990.0,16610.0,310990.0,44432.0,-198.61749047550427,-99.18130388382299,-269.15593377494173
310990.0,3123.0,310990.0,16588.0,310990.0,44396.0,-205.21737967119765,-101.80754146169977,-276.6204046006407
310990.0,3120.0,310990.0,16561.0,310990.0,44416.0,-211.7889254324545,-104.42433085331369,-284.0624530829955
310990.0,3111.0,310990.0,16589.0,310990.0,44365.0,-218.32936368879615,-107.03022914769583,-291.48003525923747
311000.0,3126.0,311000.0,16584.0,311000.0,44380.0,-224.83597265770976,-109.6238054381605,-298.8706320132525
311000.0,3099.0,311000.0,16577.0,311000.0,44379.0,-231.30593925714095,-112.20354621622255,-306.23143377051576
311000.0,3103.0,311000.0,16563.0,311000.0,44375.0,-237.736269220552,-114.76775718802455,-313.5593218707222
311000.0,3092.0,311000.0,16565.0,311000.0,44331.0,-244.12380576651418,-117.31467000563836,-320.85076003793716
311000.0,3069.0,311000.0,16572.0,311000.0,44319.0,-250.4653103752418,-119.84257790430172,-328.1019785321352
311000.0,3064.0,311000.0,16537.0,311000.0,44313.0,-256.7576219635021,-122.34988292621729,-335.30943085762743
311009.0,3061.0,311009.0,16533.0,311009.0,44331.0,-262.99787230034553,-124.83524501373155,-342.47009614283184
311009.0,3059.0,311009.0,16598.0,311009.0,44346.0,-269.18359384344524,-127.29777838139134,-349.58134398392497
311009.0,3077.0,311009.0,16587.0,311009.0,44349.0,-275.31263509249493,-129.7367973763947,-356.64044482534655
311009.0,3063.0,311009.0,16547.0,311009.0,44311.0,-281.3829159210527,-132.15123328259324,-363.64409226151184
311009.0,3047.0,311009.0,16542.0,311009.0,44302.0,-287.39219295236865,-134.53951741528786,-370.5883218605703
311009.0,3044.0,311009.0,16533.0,311009.0,44291.0,-293.33804146892777,-136.90001756279997,-377.4688023351977
311020.0,3048.0,311020.0,16550.0,311020.0,44293.0,-299.2179628627997,-139.23141868400057,-384.2811227761889
311020.0,3031.0,311020.0,16561.0,311020.0,44275.0,-305.02940319181937,-141.53273018730277,-391.02088990486203
311020.0,3024.0,311020.0,16530.0,311020.0,44291.0,-310.7697375629819,-143.80307363517773,-397.68372048181703
311020.0,3017.0,311020.0,16525.0,311020.0,44261.0,-316.43634792008373,-146.04162934241532,-404.2651957978234
311020.0,3013.0,311020.0,16513.0,311020.0,44212.0,-322.02673158529024,-148.24789367535834,-410.76095242871736
311020.0,2985.0,311020.0,16540.0,311020.0,44196.0,-327.5385981406295,-150.42195161393533,-417.1671866443235
311030.0,3015.0,311030.0,16538.0,311030.0,44256.0,-332.96998913255277,-152.5644529382921,-423.48127512094686
311030.0,3011.0,311030.0,16575.0,311030.0,44251.0,-338.3192668710502,-154.67627584808486,-429.70176127750636
311030.0,2985.0,311030.0,16506.0,311030.0,44217.0,-343.58490965281175,-156.75814108050523,-435.82777815097745
311030.0,2976.0,311030.0,16530.0,311030.0,44233.0,-348.76544535278435,-158.8105792218696,-441.8587153259902
311030.0,2985.0,311030.0,16548.0,311030.0,44203.0,-353.85963878623795,-160.83418845530423,-447.79430196777867
311030.0,2986.0,311030.0,16561.0,311030.0,44242.0,-358.8665929044484,-162.82960192045715,-453.6346850472745
311040.0,2982.0,311040.0,16540.0,311040.0,44229.0,-363.7856161326431,-164.7970999079576,-459.3802700407788
311040.0,2968.0,311040.0,16537.0,311040.0,44258.0,-368.6160703945597,-166.73638291886417,-465.03133422133834
311040.0,2964.0,311040.0,16514.0,311040.0,44197.0,-373.3573718638399,-168.64670593045145,-470.58765133247766
311040.0,2961.0,311040.0,16503.0,311040.0,44173.0,-378.00908982349824,-170.52721805071783,-476.0485445251844
311040.0,2956.0,311040.0,16507.0,311040.0,44178.0,-382.57101413429575,-172.3773416366917,-481.4134424422033
311040.0,2962.0,311040.0,16523.0,311040.0,44179.0,-387.0431468039471,-174.19698650398158,-486.68240622912634
311051.0,2969.0,311051.0,16546.0,311051.0,44191.0,-391.42560147498006,-175.9864150858457,-491.85620048169744
311051.0,2949.0,311051.0,16531.0,311051.0,44194.0,-395.7184330940527,-177.7458374713446,-496.93603561992774
311051.0,2936.0,311051.0,16528.0,311051.0,44177.0,-399.92157787186426,-179.47507832660744,-501.9232670111953
311051.0,2917.0,311051.0,16513.0,311051.0,44137.0,-404.03504923995786,-181.17355247103694,-506.81933412712067
311051.0,2922.0,311051.0,16490.0,311051.0,44148.0,-408.0592683815389,-182.8405025694196,-511.6260793272275
311051.0,2941.0,311051.0,16532.0,311051.0,44225.0,-411.9952460124832,-184.47529658471035,-516.3459827901543
311061.0,2939.0,311061.0,16524.0,311061.0,44191.0,-415.8444393341577,-186.07747133718348,-520.9816983235858
311061.0,2921.0,311061.0,16510.0,311061.0,44142.0,-419.6084622139151,-187.64649385788366,-525.5353534086283
311061.0,2896.0,311061.0,16499.0,311061.0,44138.0,-423.28903507844757,-189.18166350919444,-530.0085928768447
311061.0,2893.0,311061.0,16468.0,311061.0,44116.0,-426.88828577258,-190.6823774987076,-534.4032447285294
311061.0,2914.0,311061.0,16474.0,311061.0,44124.0,-430.4090836018094,-192.1485979085095,-538.7218734242651
311061.0,2915.0,311061.0,16494.0,311061.0,44138.0,-433.8550442416897,-193.58122276737575,-542.9679655953496
311071.0,2923.0,311071.0,16527.0,311071.0,44145.0,-437.23022970577404,-194.98202522632172,-547.145774395542
311071.0,2913.0,311071.0,16530.0,311071.0,44139.0,-440.5388346734294,-196.3531203353019,-551.2599701141955
311071.0,2907.0,311071.0,16486.0,311071.0,44123.0,-443.7850411845879,-197.6964248238984,-555.3153944036933
311071.0,2927.0,311071.0,16497.0,311071.0,44110.0,-446.97299299929455,-199.0136177757887,-559.3170940359656
311071.0,2927.0,311071.0,16523.0,311071.0,44129.0,-450.1066850931961,-200.30641393101138,-563.2705085616899
311071.0,2913.0,311071.0,16525.0,311071.0,44167.0,-453.18973375378494,-201.57653839876286,-567.1814332732124
311082.0,2898.0,311082.0,16491.0,311082.0,44151.0,-456.2252882096335,-202.82543712843977,-571.0555468307077
311082.0,2884.0,311082.0,16504.0,311082.0,44127.0,-459.2162293836989,-204.0542431793939,-574.8978979937565
311082.0,2896.0,311082.0,16475.0,311082.0,44107.0,-462.16547555600806,-205.26404933556196,-578.712887564445
311082.0,2889.0,311082.0,16471.0,311082.0,44116.0,-465.0761418746528,-206.4562401319726,-582.5046563356864
311082.0,2879.0,311082.0,16501.0,311082.0,44090.0,-467.9515394521275,-207.63275575881465,-586.2774357050865
311082.0,2894.0,311082.0,16503.0,311082.0,44130.0,-470.795167747646,-208.79607935246602,-590.0356807050212
311092.0,2899.0,311092.0,16527.0,311092.0,44117.0,-473.6106637016723,-209.94887678100747,-593.783959001665
311092.0,2892.0,311092.0,16507.0,311092.0,44136.0,-476.4016164435153,-211.0935620494281,-597.5266280994671
311092.0,2876.0,311092.0,16493.0,311092.0,44120.0,-479.1714235193513,-212.23209787166854,-601.2675050026492
311092.0,2878.0,311092.0,16496.0,311092.0,44106.0,-481.92336054151014,-213.36612644839863,-605.0097224731717
311092.0,2903.0,311092.0,16535.0,311092.0,44133.0,-484.6606860618844,-214.497128852831,-608.7557596215813
311092.0,2900.0,311092.0,16548.0,311092.0,44139.0,-487.38649621941977,-215.62617989614517,-612.5073775761961
311103.0,2868.0,311103.0,16483.0,311103.0,44112.0,-490.1034585753987,-216.75348460892673,-616.2653488474074
311103.0,2884.0,311103.0,16498.0,311103.0,44117.0,-492.81380144921764,-217.87837425174547,-620.0293081741181
311103.0,2869.0,311103.0,16462.0,311103.0,44092.0,-495.51951009938017,-218.99984279612625,-623.7978927970084
311103.0,2887.0,311103.0,16507.0,311103.0,44101.0,-498.22241600015946,-220.11704510952995,-627.5689778921239
311103.0,2885.0,311103.0,16505.0,311103.0,44102.0,-500.9241062946277,-221.22936427002378,-631.339825071726
311103.0,2898.0,311103.0,16504.0,311103.0,44108.0,-503.62571812447095,-222.33612493751295,-635.1070509279584
311113.0,2876.0,311113.0,16519.0,311113.0,44082.0,-506.3277209970925,-223.43628469304832,-638.866502727351
311113.0,2860.0,311113.0,16494.0,311113.0,44090.0,-509.0298834556207,-224.52828145871996,-642.6132599273769
311113.0,2870.0,311113.0,16468.0,311113.0,44063.0,-511.7314827242173,-225.61009976883597,-646.3417960518791
311113.0,2880.0,311113.0,16528.0,311113.0,44100.0,-514.4314841324697,-226.67952558601382,-650.0461310906421
311113.0,2888.0,311113.0,16515.0,311113.0,44091.0,-517.1284313049509,-227.73415665047435,-653.7197742523585
311113.0,2886.0,311113.0,16486.0,311113.0,44079.0,-519.8201503596933,-228.77108141440664,-657.3554835731906
311123.0,2862.0,311123.0,16493.0,311123.0,44059.0,-522.5035514855301,-229.78680744698772,-660.9451785291631
311123.0,2847.0,311123.0,16475.0,311123.0,44056.0,-525.1747283180769,-230.77756082717775,-664.4801637365947
311123.0,2861.0,311123.0,16465.0,311123.0,44056.0,-527.8292783115796,-231.73961260265713,-667.9514252007799
311123.0,2869.0,311123.0,16480.0,311123.0,44056.0,-530.4624900793242,-232.6695352936967,-671.349768687106
311123.0,2877.0,311123.0,16507.0,311123.0,44089.0,-533.0691995186669,-233.56426611212254,-674.6657357448167
311123.0,2864.0,311123.0,16494.0,311123.0,44119.0,-535.6435091505234,-234.42083736947998,-677.8892025677915
311134.0,2871.0,311134.0,16482.0,311134.0,44091.0,-538.1786278547893,-235.23606559076012,-681.0087166442647
311134.0,2857.0,311134.0,16481.0,311134.0,44047.0,-540.6668595264791,-236.00654953500447,-684.0111078146965
311134.0,2865.0,311134.0,16479.0,311134.0,44068.0,-543.0996457579565,-236.72886996917833,-686.8817626649845
311134.0,2865.0,311134.0,16534.0,311134.0,44055.0,-545.4675838706628,-237.3996229878055,-689.6051154378129
311134.0,2849.0,311134.0,16526.0,311134.0,44072.0,-547.7604064065526,-238.0150421198398,-692.1648155977335
311134.0,2856.0,311134.0,16517.0,311134.0,44072.0,-549.967007378837,-238.57042789868098,-694.5436110005433
311144.0,2837.0,311144.0,16495.0,311144.0,44032.0,-552.0755520399694,-239.0599192836316,-696.7232345633992
311144.0,2850.0,311144.0,16522.0,311144.0,44037.0,-554.0736017180268,-239.47667994149182,-698.6845621236893
311144.0,2843.0,311144.0,16501.0,311144.0,44010.0,-555.948185295948,-239.81308066792857,-700.4080400511666
311144.0,2847.0,311144.0,16500.0,311144.0,44073.0,-557.6857894025527,-240.0607446021132,-701.8740088392049
311144.0,2854.0,311144.0,16464.0,311144.0,44048.0,-559.2722940427914,-240.21071653803116,-703.0625893910346
311144.0,2837.0,311144.0,16485.0,311144.0,44044.0,-560.6929006501125,-240.25384969083987,-703.9533228664245
311154.0,2826.0,311154.0,16483.0,311154.0,44023.0,-561.9321622983804,-240.1811410488054,-704.5250888760954
311154.0,2823.0,311154.0,16465.0,311154.0,44025.0,-562.9741995229225,-239.98383953879176,-704.756399824459
311154.0,2849.0,311154.0,16528.0,311154.0,44043.0,-563.8029140420068,-239.65341229006572,-704.6257017405601
311154.0,2841.0,311154.0,16519.0,311154.0,44036.0,-564.4019459018386,-239.18127011819018,-704.1114232530401
311154.0,2840.0,311154.0,16485.0,311154.0,44029.0,-564.7544696800761,-238.558323338781,-703.1918928032896
311154.0,2818.0,311154.0,16428.0,311154.0,43968.0,-564.8431459775368,-237.77504208895834,-701.8455052515187
311165.0,2822.0,311165.0,16447.0,311165.0,43977.0,-564.6503299277908,-236.82227643586742,-700.0513672519271
311165.0,2807.0,311165.0,16479.0,311165.0,43999.0,-564.1583834801323,-235.69206755960454,-697.7900699600641
311165.0,2817.0,311165.0,16504.0,311165.0,44008.0,-563.3499402433367,-234.37768735688428,-695.0439846479795
311165.0,2836.0,311165.0,16522.0,311165.0,44069.0,-562.2080222706911,-232.87302814407997,-691.7969584031383
311165.0,2834.0,311165.0,16498.0,311165.0,44062.0,-560.7159344685188,-231.17196598719138,-688.033653329879
311165.0,2815.0,311165.0,16486.0,311165.0,44027.0,-558.8571010983837,-229.26816129429005,-683.7389567869117
311175.0,2811.0,311175.0,16468.0,311175.0,44009.0,-556.615152517871,-227.15536162963846,-678.8980318260868
311175.0,2826.0,311175.0,16496.0,311175.0,44031.0,-553.9742222198896,-224.82787506183868,-673.4969516555873
311175.0,2828.0,311175.0,16519.0,311175.0,44064.0,-550.9191268545145,-222.28074878831868,-667.5231637547365
311175.0,2844.0,311175.0,16527.0,311175.0,44046.0,-547.4353184391629,-219.50949132048626,-660.9654198155047
311175.0,2831.0,311175.0,16525.0,311175.0,44061.0,-543.508769120723,-216.5096439728666,-653.8135786809364
311175.0,2821.0,311175.0,16485.0,311175.0,44029.0,-539.125995378897,-213.27664702262803,-646.0587056001291
311185.0,2825.0,311185.0,16483.0,311185.0,44034.0,-534.2743091424038,-209.8061969843292,-637.6934863379391
311185.0,2830.0,311185.0,16486.0,311185.0,44058.0,-528.9421384002653,-206.09486646260135,-628.7127297656768
311185.0,2848.0,311185.0,16504.0,311185.0,44091.0,-523.1191930812619,-202.14052733049945,-619.1135827503258
311185.0,2858.0,311185.0,16525.0,311185.0,44102.0,-516.7964259794983,-197.94236282435827,-608.8953016802741
311185.0,2857.0,311185.0,16536.0,311185.0,44100.0,-509.9659023857362,-193.5005839741025,-598.0589105850647
311185.0,2855.0,311185.0,16518.0,311185.0,44124.0,-502.62076692239873,-188.81612562282214,-586.607087882713
311196.0,2855.0,311196.0,16518.0,311196.0,44116.0,-494.7554029521731,-183.89061546984976,-574.5442452945738
311196.0,2893.0,311196.0,16547.0,311196.0,44160.0,-486.3656330002391,-178.72657360891228,-561.8766146807737
311196.0,2887.0,311196.0,16584.0,311196.0,44199.0,-477.448723593803,-173.32740538466084,-548.6121483742129
311196.0,2897.0,311196.0,16553.0,311196.0,44178.0,-468.0032553635669,-167.69703570742254,-534.7601761472929
311196.0,2908.0,311196.0,16533.0,311196.0,44182.0,-458.02910134042423,-161.83971088380986,-520.3312212741556
311196.0,2926.0,311196.0,16544.0,311196.0,44195.0,-447.5274851601302,-155.76035841312273,-505.33727894263495
311206.0,2926.0,311206.0,16558.0,311206.0,44238.0,-436.5009835892477,-149.4650978409695,-489.79217216486893
311206.0,2949.0,311206.0,16564.0,311206.0,44243.0,-424.9535198760962,-142.96142288362893,-473.711569931015
311206.0,2950.0,311206.0,16607.0,311206.0,44274.0,-412.89039236305643,-136.25807081078287,-457.11279060169954
311206.0,2968.0,311206.0,16620.0,311206.0,44275.0,-400.3183159701685,-129.3646699117816,-440.01467335148976
311206.0,2980.0,311206.0,16595.0,311206.0,44304.0,-387.2454723285475,-122.29132261613043,-422.43758388414545
311206.0,2998.0,311206.0,16598.0,311206.0,44340.0,-373.6815379879421,-115.0485266791757,-404.4034263143466
311216.0,3022.0,311216.0,16641.0,311216.0,44356.0,-359.637647933411,-107.6474239877027,-385.9355047285019
311216.0,3031.0,311216.0,16658.0,311216.0,44398.0,-345.126298143872,-100.09981202725383,-367.05825799969193
311216.0,3034.0,311216.0,16656.0,311216.0,44425.0,-330.1612880167785,-92.41777396632745,-347.79695817075356
311216.0,3065.0,311216.0,16648.0,311216.0,44432.0,-314.75779129623436,-84.61341469292063,-328.1774161381288
311216.0,3077.0,311216.0,16645.0,311216.0,44424.0,-298.93243565609896,-76.69899989986612,-308.22590428550666
311216.0,3106.0,311216.0,16645.0,311216.0,44488.0,-282.7032548553666,-68.68733188003671,-287.969378202263
311227.0,3111.0,311227.0,16683.0,311227.0,44438.0,-266.0895817320886,-60.59205402432937,-267.43573152462307
311227.0,3137.0,311227.0,16703.0,311227.0,44537.0,-249.11199680269408,-52.427622544166866,-246.65396969289037
311227.0,3173.0,311227.0,16735.0,311227.0,44541.0,-231.79229136545243,-44.2089065258256,-225.65421064948765
311227.0,3183.0,311227.0,16726.0,311227.0,44568.0,-214.15331897060057,-35.9506809591507,-204.46738404268763
311227.0,3207.0,311227.0,16730.0,311227.0,44609.0,-196.21879728667844,-27.667350224769166,-183.12490116317827
311227.0,3224.0,311227.0,16737.0,311227.0,44603.0,-178.01321342563958,-19.37299870264846,-161.65850103244435
311237.0,3259.0,311237.0,16799.0,311237.0,44673.0,-159.56177934192522,-11.081456383388314,-140.10016436948814
311237.0,3286.0,311237.0,16775.0,311237.0,44691.0,-140.8902908045617,-2.806034994581097,-118.4819325107905
311237.0,3305.0,311237.0,16805.0,311237.0,44721.0,-122.02488507869913,5.440867479412674,-96.83555537119156
311237.0,3317.0,311237.0,16803.0,311237.0,44729.0,-102.99185028454883,13.6479421856059,-75.19220013726601
311237.0,3342.0,311237.0,16745.0,311237.0,44761.0,-83.81759689204853,21.804844149841756,-53.582411918976675
311237.0,3351.0,311237.0,16775.0,311237.0,44756.0,-64.52872776353831,29.90166759145899,-32.03623023440906
311247.0,3397.0,311247.0,16784.0,311247.0,44810.0,-45.15208244010984,37.928262970271334,-10.583347006710142
311247.0,3412.0,311247.0,16830.0,311247.0,44860.0,-25.71465159847702,45.87401130451664,10.746907393661559
311247.0,3443.0,311247.0,16835.0,311247.0,44909.0,-6.24336687963762,53.728161325695055,31.92601208269116
311247.0,3445.0,311247.0,16831.0,311247.0,44887.0,13.235068839716178,61.480276500131765,52.9269098393421
311247.0,3478.0,311247.0,16828.0,311247.0,44882.0,32.69419625341743,69.12037335257466,73.72420061828757
311247.0,3497.0,311247.0,16864.0,311247.0,44916.0,52.107751442891015,76.63878380786866,94.29367897517392
311258.0,3536.0,311258.0,16871.0,311258.0,44971.0,71.44971948472488,84.02613447554825,114.61186584586909
311258.0,3554.0,311258.0,16881.0,311258.0,44996.0,90.6945311745493,91.27356461405762,134.65612437112122
311258.0,3561.0,311258.0,16888.0,311258.0,45000.0,109.81726204932818,98.37293213630261,154.40510351751675
311258.0,3580.0,311258.0,16892.0,311258.0,45012.0,128.79364835422263,105.31687437671138,173.83892132533026
311258.0,3611.0,311258.0,16893.0,311258.0,45013.0,147.59996528446072,112.09877245237777,192.93894479140448
311258.0,3629.0,311258.0,16887.0,311258.0,45030.0,166.21299494676958,118.71262755302021,211.68738964427098
311268.0,3653.0,311268.0,16900.0,311268.0,45088.0,184.61012730899648,125.1528574719095,230.0670320373505
311268.0,3678.0,311268.0,16950.0,311268.0,45128.0,202.76948156285522,131.4142118992371,248.06134844075143
311268.0,3709.0,311268.0,16933.0,311268.0,45143.0,220.67004660835676,137.492025220887,265.6550761953057
311268.0,3723.0,311268.0,16919.0,311268.0,45132.0,238.29187779494418,143.3825277185607,282.83467718878615
311268.0,3729.0,311268.0,16914.0,311268.0,45157.0,255.61624131861254,149.08272962936627,299.5883105218892
311268.0,3773.0,311268.0,16959.0,311268.0,45192.0,272.6256239487444,154.590054251999,315.9055756626444
311278.0,3791.0,311278.0,16977.0,311278.0,45241.0,289.3037847553951,159.90232529049825,331.7775546661877
311278.0,3793.0,311278.0,16940.0,311278.0,45211.0,305.6359364245749,165.018116614944,347.1971821301323
311278.0,3802.0,311278.0,16949.0,311278.0,45222.0,321.6087976525142,169.93685132276295,362.1593967710277
311278.0,3826.0,311278.0,16954.0,311278.0,45224.0,337.21041591376434,174.65848622618944,376.66079557954026
311278.0,3823.0,311278.0,16945.0,311278.0,45253.0,352.4299715032214,179.18320069709574,390.6991711825905
311278.0,3854.0,311278.0,16964.0,311278.0,45226.0,367.25765026352644,183.51124772549525,404.27323204059167
311289.0,3896.0,311289.0,17007.0,311289.0,45312.0,381.68463392112403,187.64297730765992,417.3824509182051
311289.0,3890.0,311289.0,17009.0,311289.0,45320.0,395.7033196545807,191.57919607617174,430.02720559528234
311289.0,3907.0,311289.0,16994.0,311289.0,45295.0,409.3075647850661,195.32165673787563,442.2092098114292
311289.0,3904.0,311289.0,16957.0,311289.0,45311.0,422.49266541988413,198.8731248156102,453.9316293400467
311289.0,3928.0,311289.0,16987.0,311289.0,45308.0,435.25515424575997,202.2369194278013,465.19870302717516
311289.0,3947.0,311289.0,16985.0,311289.0,45354.0,447.59266654487465,205.41645014017496,476.0153968877196
311299.0,3939.0,311299.0,17028.0,311299.0,45368.0,459.50393728477036,208.41519298144175,486.38743920650234
311299.0,3959.0,311299.0,17001.0,311299.0,45366.0,470.988767464333,211.2370043286225,496.32160292081767
311299.0,3956.0,311299.0,17005.0,311299.0,45329.0,482.047870716249,213.88635970971222,505.8257716683456
311299.0,3966.0,311299.0,16999.0,311299.0,45351.0,492.68268517221213,216.36827859876632,514.9085019166843
311299.0,3979.0,311299.0,16986.0,311299.0,45353.0,502.89520318888765,218.68806053013446,523.5784168629664
311299.0,3995.0,311299.0,17001.0,311299.0,45394.0,512.6878735325837,220.85101450764859,531.8439316934225
311310.0,4015.0,311310.0,17050.0,311310.0,45415.0,522.0636447673418,222.86238593633607,539.7134313522549
311310.0,4018.0,311310.0,17016.0,311310.0,45412.0,531.026107270393,224.72765899265312,547.1956819866894
311310.0,4017.0,311310.0,16984.0,311310.0,45407.0,539.5795820011641,226.45282142372122,554.3000892648769
311310.0,4029.0,311310.0,16997.0,311310.0,45422.0,547.7290486514956,228.044065431592,561.0366191234654
311310.0,4043.0,311310.0,17043.0,311310.0,45418.0,555.4800182725511,229.50734538457112,567.415595156301
311310.0,4058.0,311310.0,17042.0,311310.0,45451.0,562.8385283067233,230.8485065301643,573.4476070763762
311320.0,4038.0,311320.0,17006.0,311320.0,45432.0,569.8112092551638,232.07373560002094,579.1435521809076
311320.0,4056.0,311320.0,16991.0,311320.0,45414.0,576.4052123207736,233.18956208003408,584.5146050838296
311320.0,4044.0,311320.0,16977.0,311320.0,45411.0,582.627983648734,234.20229661853335,589.5718664499868
311320.0,4055.0,311320.0,17002.0,311320.0,45431.0,588.4870346922019,235.11743658120463,594.3258563200292
311320.0,4056.0,311320.0,17001.0,311320.0,45433.0,593.9897631072444,235.93944937042778,598.7862523702474
311320.0,4098.0,311320.0,17060.0,311320.0,45469.0,599.1434008388466,236.6719940463135,602.9619638392203
311330.0,4086.0,311330.0,16991.0,311330.0,45479.0,603.9552004643896,237.31837468407366,606.8614355760119
311330.0,4083.0,311330.0,17019.0,311330.0,45444.0,608.4326774254777,237.88175381967875,610.4929734767392
311330.0,4084.0,311330.0,17010.0,311330.0,45445.0,612.5836003078168,238.36495790661587,613.8647105764468
311330.0,4081.0,311330.0,17014.0,311330.0,45472.0,616.4157714250128,238.77027537829963,616.9842378139361
311330.0,4092.0,311330.0,17042.0,311330.0,45487.0,619.9368261380753,239.0994880492433,619.8584496611949
311330.0,4094.0,311330.0,17060.0,311330.0,45486.0,623.154139705417,239.3541337572264,622.4937844853442
311341.0,4116.0,311341.0,17015.0,311341.0,45469.0,626.074857608496,239.53588483395367,624.8964486057838
311341.0,4102.0,311341.0,17033.0,311341.0,45474.0,628.7060207831194,239.6466457030989,627.0723243280404
311341.0,4100.0,311341.0,17027.0,311341.0,45494.0,631.0546317227432,239.68831693414353,629.0267459132176
311341.0,4097.0,311341.0,17000.0,311341.0,45495.0,633.1275317088089,239.66255960581663,630.7644711378587
311341.0,4118.0,311341.0,17024.0,311341.0,45477.0,634.9312225089033,239.57058623007504,632.2897956569866
311341.0,4140.0,311341.0,17045.0,311341.0,45520.0,636.4719055250995,239.41303889780022,633.6065793138071
311351.0,4135.0,311351.0,17077.0,311351.0,45499.0,637.7557907986562,239.19026828343436,634.7182894904604
311351.0,4100.0,311351.0,17022.0,311351.0,45469.0,638.7893397315135,238.90286170605032,635.628063399385
311351.0,4113.0,311351.0,17028.0,311351.0,45514.0,639.5790993146909,238.55180502150893,636.3385342165233
311351.0,4137.0,311351.0,17065.0,311351.0,45516.0,640.1313745497978,238.13822975578097,636.8516799932252
311351.0,4120.0,311351.0,17051.0,311351.0,45547.0,640.4522002622198,237.66336875253268,637.1690979820223
311351.0,4120.0,311351.0,17043.0,311351.0,45501.0,640.5474846098581,237.12880731887634,637.2924311093997
311361.0,4119.0,311361.0,17009.0,311361.0,45505.0,640.4229841083737,236.53648747311314,637.2234345408793
311361.0,4107.0,311361.0,17022.0,311361.0,45499.0,640.0841524806133,235.8883215606528,636.9636458590103
311361.0,4107.0,311361.0,17031.0,311361.0,45552.0,639.5359744507219,235.18580980393568,636.5141424688871
311361.0,4132.0,311361.0,17051.0,311361.0,45504.0,638.7828470446138,234.43002195029607,635.875705931546
311361.0,4135.0,311361.0,17029.0,311361.0,45525.0,637.828680252779,233.62186404534242,635.0490511831124
311361.0,4129.0,311361.0,17047.0,311361.0,45538.0,636.6771865565925,232.76228424008156,634.0348352693827
311372.0,4130.0,311372.0,17025.0,311372.0,45545.0,635.3320778926812,231.85229415352185,632.8337349633404
311372.0,4121.0,311372.0,17007.0,311372.0,45499.0,633.7970687474448,230.89284421041845,631.4466316943409
311372.0,4128.0,311372.0,17053.0,311372.0,45546.0,632.0758046605304,229.88461565856696,629.874563782913
311372.0,4136.0,311372.0,17039.0,311372.0,45530.0,630.1718455357457,228.82801660443397,628.1186017795708
311372.0,4114.0,311372.0,16992.0,311372.0,45545.0,628.08872995028,227.72335573726153,626.1799706693666
311372.0,4126.0,311372.0,17053.0,311372.0,45540.0,625.8299928531009,226.57076672457168,624.0602691523846
311382.0,4122.0,311382.0,17026.0,311382.0,45532.0,623.3991082063029,225.3700734986091,621.7615815639778
311382.0,4106.0,311382.0,17030.0,311382.0,45517.0,620.7994556177262,224.12093034301583,619.2864378602188
311382.0,4118.0,311382.0,17048.0,311382.0,45512.0,618.0342724029581,222.8229817966971,616.637607436803
311382.0,4123.0,311382.0,17039.0,311382.0,45538.0,615.1066172765561,221.47596548305833,613.8178926471926
311382.0,4135.0,311382.0,17056.0,311382.0,45563.0,612.0195074648593,220.07989346286305,610.8302356083349
311382.0,4128.0,311382.0,17037.0,311382.0,45541.0,608.7761967601647,218.63522104977346,607.6781705815627
311392.0,4112.0,311392.0,17036.0,311392.0,45535.0,605.380371806994,217.1428877346072,604.366192801472
311392.0,4100.0,311392.0,17033.0,311392.0,45522.0,601.8361005684565,215.6042200846179,600.8997319828998
311392.0,4116.0,311392.0,17049.0,311392.0,45549.0,598.147625944756,214.02083824835395,597.2849671345908
311392.0,4122.0,311392.0,17068.0,311392.0,45543.0,594.3193079711137,212.3947724425736,593.528852845065
311392.0,4129.0,311392.0,17037.0,311392.0,45522.0,590.355845999528,210.72875496408446,589.6393143429628
311392.0,4110.0,311392.0,17036.0,311392.0,45473.0,586.262574301981,209.0263557688681,585.6251780315183
311403.0,4076.0,311403.0,17002.0,311403.0,45489.0,582.045509169378,207.29175106280059,581.495642966542
311403.0,4066.0,311403.0,17008.0,311403.0,45501.0,577.7109996024707,205.5292725226612,577.2597463108596
311403.0,4088.0,311403.0,17004.0,311403.0,45494.0,573.2652505581641,203.7430021246766,572.9262939989959
311403.0,4087.0,311403.0,17038.0,311403.0,45518.0,568.7141799576939,201.93664314928048,568.50412478052
311403.0,4076.0,311403.0,17042.0,311403.0,45504.0,564.0636254476615,200.11377448828392,564.0024199869652
311403.0,4082.0,311403.0,17041.0,311403.0,45489.0,559.3195364523115,198.27831409213564,559.4309211197376
311413.0,4073.0,311413.0,17023.0,311413.0,45480.0,554.4880339500155,196.43483121473668,554.7999052042763
311413.0,4065.0,311413.0,17016.0,311413.0,45465.0,549.5754328943003,194.58851709581648,550.1199418803827
311413.0,4084.0,311413.0,17052.0,311413.0,45486.0,544.5882655310661,192.7450243986754,545.4016646257321
311413.0,4048.0,311413.0,16988.0,311413.0,45475.0,539.5333398099183,190.91043831924014,540.6557439788478
311413.0,4053.0,311413.0,16992.0,311413.0,45455.0,534.4177436339984,189.0911525291228,535.8929855170478
311413.0,4040.0,311413.0,16981.0,311413.0,45444.0,529.2486996135231,187.2934210792546,531.1242648765281
311423.0,4026.0,311423.0,16976.0,311423.0,45429.0,524.0333813992813,185.52290378575847,526.3602326836635
311423.0,4048.0,311423.0,16989.0,311423.0,45425.0,518.7787986211929,183.78446191318906,521.6109813021158
311423.0,4013.0,311423.0,16988.0,311423.0,45481.0,513.4917846041401,182.08215945380994,516.8859280429399
311423.0,4035.0,311423.0,17002.0,311423.0,45449.0,508.179031993977,180.41941722910835,512.194124977914
311423.0,4024.0,311423.0,17017.0,311423.0,45431.0,502.84712143150136,178.7992771817024,507.54469351453815
311423.0,4015.0,311423.0,16979.0,311423.0,45449.0,497.5025916257245,177.22467151003076,502.9468835775834
311434.0,4002.0,311434.0,16968.0,311434.0,45395.0,492.1519635925257,175.69842131925662,498.4098562625823
311434.0,4012.0,311434.0,17006.0,311434.0,45441.0,486.80165206396174,174.22294648009063,493.9424567938768
311434.0,3998.0,311434.0,17004.0,311434.0,45426.0,481.457915635754,172.80019051098276,489.5531171296864
311434.0,3996.0,311434.0,16998.0,311434.0,45400.0,476.12688794334326,171.43191825528993,485.24994459312654
311434.0,4003.0,311434.0,17004.0,311434.0,45417.0,470.8146107383962,170.1199694028303,481.0407291255337
311434.0,3977.0,311434.0,16980.0,311434.0,45345.0,465.52707068977776,168.8662735188672,476.93269081356937
311444.0,3965.0,311444.0,16960.0,311444.0,45404.0,460.270154716658,167.67266092359915,472.9320787453673
311444.0,3969.0,311444.0,16958.0,311444.0,45371.0,455.04944675930204,166.5404653153443,469.04388607336676
311444.0,3979.0,311444.0,17022.0,311444.0,45431.0,449.8700863832507,165.47023378206444,465.27196238068143
311444.0,3964.0,311444.0,16988.0,311444.0,45408.0,444.736865099939,164.4619610456062,461.6194705709146
311444.0,3957.0,311444.0,16972.0,311444.0,45384.0,439.6543659595666,163.5155200770428,458.08931578765856
311444.0,3956.0,311444.0,16981.0,311444.0,45348.0,434.6269560300362,162.63066779930057,454.6840969920291
311454.0,3940.0,311454.0,16972.0,311454.0,45355.0,429.6587024425696,161.80677361133846,451.4055487252065
311454.0,3973.0,311454.0,16994.0,311454.0,45374.0,424.75335149876526,161.04271393693332,448.2540294989976
311454.0,3931.0,311454.0,17012.0,311454.0,45406.0,419.9144334417832,160.33702793420048,445.2285525735061
311454.0,3935.0,311454.0,17030.0,311454.0,45418.0,415.1453369427228,159.68832023355708,442.3273469671842
311454.0,3926.0,311454.0,16965.0,311454.0,45366.0,410.4491831948121,159.0956598056019,439.54846505653614
311454.0,3913.0,311454.0,16955.0,311454.0,45375.0,405.82863509501834,158.55844681082618,436.88987827063823
311465.0,3904.0,311465.0,16999.0,311465.0,45350.0,401.28574259942775,158.07581626927004,434.3490811783118
311465.0,3922.0,311465.0,16979.0,311465.0,45384.0,396.82181202560866,157.64634353877253,431.9227180604471
311465.0,3927.0,311465.0,16983.0,311465.0,45384.0,392.4374550619479,157.26821150704626,429.60656596501764
311465.0,3913.0,311465.0,17004.0,311465.0,45408.0,388.1328437481346,156.93937611265721,427.39585209252925
311465.0,3906.0,311465.0,16955.0,311465.0,45397.0,383.9078921308618,156.65760882873212,425.2856870830233
311465.0,3903.0,311465.0,16974.0,311465.0,45366.0,379.76221887867155,156.42037974793269,423.27130674867095
311475.0,3912.0,311475.0,17000.0,311475.0,45416.0,375.69506894424654,156.2246400299837,421.3480131257606
311475.0,3907.0,311475.0,16986.0,311475.0,45380.0,371.7053683252923,156.0668721109331,419.5111165326
311475.0,3898.0,311475.0,17008.0,311475.0,45359.0,367.79184718804413,155.94338146364436,417.75595973371946
311475.0,3887.0,311475.0,16978.0,311475.0,45343.0,363.95305937040587,155.85048194152898,416.0776418813998
311475.0,3886.0,311475.0,16960.0,311475.0,45366.0,360.18726592521466,155.78441090188244,414.47050917133583
311475.0,3883.0,311475.0,16987.0,311475.0,45334.0,356.4923082209129,155.74101065595326,412.927855569542
311485.0,3874.0,311485.0,16987.0,311485.0,45367.0,352.8655475576253,155.71551635462413,411.4418520112912
311485.0,3876.0,311485.0,17008.0,311485.0,45359.0,349.3038288706689,155.70270543410203,410.0035747723682
311485.0,3892.0,311485.0,17002.0,311485.0,45344.0,345.803490867148,155.69722259245998,408.6031089806489
311485.0,3880.0,311485.0,16986.0,311485.0,45383.0,342.36051173944907,155.69379309478217,407.2296202981893
311485.0,3872.0,311485.0,16998.0,311485.0,45366.0,338.9706812907078,155.6871991068665,405.87146389885476
311485.0,3891.0,311485.0,16984.0,311485.0,45365.0,335.6296538918955,155.67213255578577,404.5163877533454
311496.0,3872.0,311496.0,16987.0,311496.0,45380.0,332.3329916847831,155.64307646608592,403.1516403664467
311496.0,3861.0,311496.0,16989.0,311496.0,45380.0,329.0762184066437,155.59421292130622,401.7640278823037
311496.0,3867.0,311496.0,16979.0,311496.0,45420.0,325.8547362479625,155.51935175962575,400.34014155212486
311496.0,3852.0,311496.0,17014.0,311496.0,45368.0,322.6636807652314,155.41192673789004,398.86670337099645
311496.0,3846.0,311496.0,17004.0,311496.0,45360.0,319.49781720768607,155.2651463835092,397.33065390241427
311496.0,3858.0,311496.0,16996.0,311496.0,45394.0,316.3514440129486,155.0722329617221,395.7188592724002
311506.0,3863.0,311506.0,17021.0,311506.0,45396.0,313.21840077912276,154.82653930889202,394.01796594632754
311506.0,3870.0,311506.0,17010.0,311506.0,45406.0,310.09227196318795,154.52161255478723,392.2146951284018
311506.0,3851.0,311506.0,17027.0,311506.0,45414.0,306.96663269910107,154.15135065446376,390.29624127561254
311506.0,3838.0,311506.0,17000.0,311506.0,45377.0,303.8351001647533,153.7101325371424,388.2504898066046
311506.0,3855.0,311506.0,17005.0,311506.0,45399.0,300.6911805851281,153.19277433690254,386.0659694199444
311506.0,3862.0,311506.0,17026.0,311506.0,45412.0,297.5282055164312,152.59439890671513,383.73172154712915
311516.0,3867.0,311516.0,17018.0,311516.0,45405.0,294.3395438018372,151.91046770085774,381.23740908149915
311516.0,3853.0,311516.0,16990.0,311516.0,45401.0,291.118893110724,151.1369043531267,378.57355140782676
311516.0,3840.0,311516.0,16996.0,311516.0,45407.0,287.86037604634555,150.26997011316502,375.7316128623105
311516.0,3838.0,311516.0,16977.0,311516.0,45358.0,284.5584005489689,149.30592163006136,372.7039226666783
311516.0,3829.0,311516.0,16989.0,311516.0,45392.0,281.2074507292907,148.24072440931312,369.48342863668785
311516.0,3828.0,311516.0,17012.0,311516.0,45366.0,277.80194187955266,147.0699738462866,366.06342657540483
311527.0,3843.0,311527.0,17047.0,311527.0,45408.0,274.33618031591254,145.78917574539292,362.4375306878712
311527.0,3843.0,311527.0,17023.0,311527.0,45393.0,270.8044869194801,144.39434194109376,358.5999176129103
311527.0,3835.0,311527.0,17017.0,311527.0,45395.0,267.20142991688977,142.88244582291654,354.5456580927462
311527.0,3819.0,311527.0,16997.0,311527.0,45365.0,263.5219424479624,141.25140195101025,350.270865286359
311527.0,3824.0,311527.0,16994.0,311527.0,45362.0,259.76123402626894,139.49973580373265,345.77252834161754
311527.0,3839.0,311527.0,17042.0,311527.0,45410.0,255.9147024742917,137.62635454143344,341.04830860090084
311537.0,3851.0,311537.0,16988.0,311537.0,45370.0,251.97809742739247,135.6306576343432,336.09668101960807
311537.0,3810.0,311537.0,17025.0,311537.0,45382.0,247.947830318829,133.51273847220193,330.9172488548603
311537.0,3820.0,311537.0,17002.0,311537.0,45330.0,243.82104849692308,131.27341388976066,325.51075609703594
311537.0,3801.0,311537.0,16951.0,311537.0,45352.0,239.59541894780497,128.9140977938386,319.87876122883847
311537.0,3808.0,311537.0,17006.0,311537.0,45377.0,235.26891717868972,126.43646827440655,314.02338917452846
311537.0,3811.0,311537.0,16975.0,311537.0,45311.0,230.83977514047703,123.84218112155892,307.9474163780976
311548.0,3804.0,311548.0,17016.0,311548.0,45337.0,226.3065639700109,121.13297575156524,301.6543186010896
311548.0,3794.0,311548.0,17027.0,311548.0,45345.0,221.66829625518784,118.31106420599909,295.148103262125
311548.0,3790.0,311548.0,16982.0,311548.0,45316.0,216.92441834884147,115.37956031640992,288.4333147577912
311548.0,3782.0,311548.0,16965.0,311548.0,45317.0,212.0747210937149,112.34256040437202,281.5151498987737
311548.0,3781.0,311548.0,16984.0,311548.0,45332.0,207.1192640902466,109.20474994457514,274.39944249026445
311548.0,3784.0,311548.0,17004.0,311548.0,45355.0,202.05836208237744,105.97113305655918,267.0928123474548
311558.0,3782.0,311558.0,16983.0,311558.0,45298.0,196.89266178981677,102.64724084901093,259.6030615254511
311558.0,3760.0,311558.0,16946.0,311558.0,45280.0,191.62323834400877,99.2393388328519,251.93927923602334
311558.0,3761.0,311558.0,16940.0,311558.0,45266.0,186.25156559693377,95.75415360245348,244.11139818517552
311558.0,3746.0,311558.0,16918.0,311558.0,45236.0,180.77936836150946,92.19829667174378,236.12959868850055
311558.0,3738.0,311558.0,16949.0,311558.0,45238.0,175.20846986389517,88.57783249459791,228.00385571167706
311558.0,3763.0,311558.0,16974.0,311558.0,45275.0,169.54071732441028,84.89828996985514,219.7437377920761
311568.0,3758.0,311568.0,16953.0,311568.0,45261.0,163.77811917190112,81.16511116270757,211.3586578667393
311568.0,3738.0,311568.0,16925.0,311568.0,45228.0,157.92313716404982,77.38403922447259,202.85832879959636
311568.0,3726.0,311568.0,16926.0,311568.0,45225.0,151.97879335994475,73.56101023150322,194.2528586807574
311568.0,3710.0,311568.0,16936.0,311568.0,45208.0,145.94847853428223,69.70183005307854,185.55249165138974
311568.0,3739.0,311568.0,16937.0,311568.0,45242.0,139.8357371603171,65.81210960720196,176.7674492626295
311568.0,3714.0,311568.0,16948.0,311568.0,45182.0,133.64429598227602,61.897478553858335,167.9080319104483
311579.0,3706.0,311579.0,16929.0,311579.0,45205.0,127.37822273280537,57.963842490243835,158.98469669347884
311579.0,3683.0,311579.0,16888.0,311579.0,45183.0,121.04189512527881,54.01742037948901,150.0079616036251
311579.0,3668.0,311579.0,16894.0,311579.0,45146.0,114.63972737163098,50.06439810042917,140.98826725114174
311579.0,3686.0,311579.0,16906.0,311579.0,45168.0,108.17587669393473,46.110485287840916,131.93577352362013
311579.0,3683.0,311579.0,16872.0,311579.0,45178.0,101.65418670002524,42.16075977300753,122.86023250155705
311579.0,3686.0,311579.0,16927.0,311579.0,45152.0,95.07840998538967,38.219728611992835,113.77119633599003
311589.0,3653.0,311589.0,16915.0,311589.0,45149.0,88.45243663147986,34.2915589902759,104.67828251988777
311589.0,3657.0,311589.0,16910.0,311589.0,45141.0,81.78027753416663,30.380501114335004,95.59120077739968
311589.0,3658.0,311589.0,16873.0,311589.0,45099.0,75.06591171475807,26.49111642013942,86.51963434771912
311589.0,3647.0,311589.0,16910.0,311589.0,45109.0,68.31325651835718,22.628118704992218,77.47300368118636
311589.0,3647.0,311589.0,16919.0,311589.0,45130.0,61.52625449819254,18.796289441101493,68.46026603762175
311589.0,3642.0,311589.0,16885.0,311589.0,45095.0,54.70894531511385,15.000732224171045,59.490036025633515
311599.0,3630.0,311599.0,16859.0,311599.0,45092.0,47.86551442670958,11.246988603388928,50.570802157900715
311599.0,3620.0,311599.0,16870.0,311599.0,45085.0,41.00029414815495,7.540693356128358,41.71090725116352
311599.0,3610.0,311599.0,16838.0,311599.0,45053.0,34.117678496984865,3.8871332995245638,32.918401674350605
311599.0,3600.0,311599.0,16855.0,311599.0,45064.0,27.221996202485798,0.2909826627749226,24.200876431838225
311599.0,3594.0,311599.0,16850.0,311599.0,45062.0,20.31739435387351,-3.243817526596544,15.565344627831621
311599.0,3607.0,311599.0,16862.0,311599.0,45037.0,13.40779730559683,-6.714003813372429,7.018280346338486
311610.0,3598.0,311610.0,16852.0,311610.0,45048.0,6.497023676084098,-10.116801069127902,-1.4343188471261783
311610.0,3580.0,311610.0,16839.0,311610.0,45032.0,-0.41102975756962223,-13.449791991791784,-9.786933013914677
311610.0,3575.0,311610.0,16842.0,311610.0,45023.0,-7.312355957452212,-16.710954722948912,-18.034503808273826
311610.0,3578.0,311610.0,16887.0,311610.0,45023.0,-14.202933159382667,-19.898668314499105,-26.172429813835265
311610.0,3564.0,311610.0,16833.0,311610.0,45008.0,-21.0787498513169,-23.01145540869065,-34.19658353455509
311610.0,3566.0,311610.0,16841.0,311610.0,45007.0,-27.93575123253163,-26.047769791638643,-42.103313763985454
311620.0,3539.0,311620.0,16824.0,311620.0,44988.0,-34.76983073213057,-29.006164807102962,-49.8894698949407
311620.0,3545.0,311620.0,16818.0,311620.0,44946.0,-41.57691731279334,-31.885607928953192,-57.55255554524922
311620.0,3530.0,311620.0,16817.0,311620.0,44987.0,-48.35309595840846,-34.68570071396347,-65.09103993297168
311620.0,3533.0,311620.0,16816.0,311620.0,44998.0,-55.09466433960074,-37.406804165623,-72.50445876434537
311620.0,3534.0,311620.0,16830.0,311620.0,44970.0,-61.798095429340265,-40.05003714114375,-79.793055768892
311620.0,3516.0,311620.0,16829.0,311620.0,44980.0,-68.45994059396816,-42.61712350624637,-86.95740607135852
311630.0,3515.0,311630.0,16829.0,311630.0,44943.0,-75.07677446246623,-45.11016895281692,-93.99837959605563
311630.0,3488.0,311630.0,16787.0,311630.0,44940.0,-81.6452666839487,-47.531577892992274,-100.91733520728565
311630.0,3500.0,311630.0,16848.0,311630.0,44976.0,-88.16233818724345,-49.88418321681176,-107.7163067592661
311630.0,3495.0,311630.0,16848.0,311630.0,44964.0,-94.62525431939741,-52.17120028314322,-114.39786531253097
311630.0,3498.0,311630.0,16820.0,311630.0,44947.0,-101.03154365950223,-54.39582089650584,-120.96473030827002
311630.0,3476.0,311630.0,16832.0,311630.0,44912.0,-107.3788478321294,-56.56094702767068,-127.41965983564842
311641.0,3463.0,311641.0,16805.0,311641.0,44929.0,-113.66491894096094,-58.6693070240039,-133.76575549550256
311641.0,3446.0,311641.0,16792.0,311641.0,44908.0,-119.88782743567216,-60.72372553588325,-140.0067830985198
311641.0,3434.0,311641.0,16804.0,311641.0,44926.0,-126.0462712033729,-62.72743778718959,-146.1472500598358
311641.0,3454.0,311641.0,16863.0,311641.0,44946.0,-132.13980785803466,-64.68417287025372,-152.1922434159792
311641.0,3473.0,311641.0,16830.0,311641.0,44909.0,-138.16878563707525,-66.59770645171722,-158.1470991520397
311641.0,3445.0,311641.0,16822.0,311641.0,44910.0,-144.13395875646842,-68.47130775418245,-164.01719611864218
311651.0,3439.0,311651.0,16792.0,311651.0,44887.0,-150.03618386699384,-70.30771614373435,-169.8080909067508
311651.0,3434.0,311651.0,16816.0,311651.0,44895.0,-155.8764525805675,-72.10953389120215,-175.525783040899
311651.0,3414.0,311651.0,16820.0,311651.0,44921.0,-161.65606374097524,-73.87947444679884,-181.1767946102426
311651.0,3436.0,311651.0,16830.0,311651.0,44915.0,-167.37673910670065,-75.62023341469845,-186.76791236605465
311651.0,3428.0,311651.0,16815.0,311651.0,44888.0,-173.04059133706903,-77.33421284451029,-192.30581266363555
311651.0,3415.0,311651.0,16778.0,311651.0,44874.0,-178.6499563704839,-79.02347314261871,-197.79701222787241
311661.0,3394.0,311661.0,16791.0,311661.0,44878.0,-184.20733904634852,-80.69005823354976,-203.24815667075
311661.0,3393.0,311661.0,16771.0,311661.0,44865.0,-189.7156034384122,-82.33644093717365,-208.66627620905598
311661.0,3413.0,311661.0,16800.0,311661.0,44896.0,-195.178158901603,-83.96575862529153,-214.05881004165724
311661.0,3391.0,311661.0,16815.0,311661.0,44904.0,-200.59889484655065,-85.58172169944993,-219.4333566621325
311661.0,3409.0,311661.0,16781.0,311661.0,44868.0,-205.98197543788723,-87.18830609429693,-224.79726724619195
311661.0,3394.0,311661.0,16813.0,311661.0,44873.0,-211.3316782524558,-88.78954943689479,-230.1574704271551
311672.0,3371.0,311672.0,16785.0,311672.0,44877.0,-216.65232938320094,-90.38954382760159,-235.52059905539886
311672.0,3390.0,311672.0,16845.0,311672.0,44868.0,-221.94838139818404,-91.99236000723008,-240.89305647398146
311672.0,3391.0,311672.0,16809.0,311672.0,44897.0,-227.22447211882593,-93.60174695474774,-246.28088043701558
311672.0,3387.0,311672.0,16804.0,311672.0,44852.0,-232.4852617036055,-95.2208293964477,-251.68953196034204
311672.0,3388.0,311672.0,16821.0,311672.0,44857.0,-237.73519562171356,-96.8520844054209,-257.1238274739769
311672.0,3347.0,311672.0,16768.0,311672.0,44844.0,-242.97843419196136,-98.49750390078052,-262.58811933465614
311682.0,3354.0,311682.0,16786.0,311682.0,44813.0,-248.21904163615727,-100.1588559450785,-268.08657276329006
311682.0,3363.0,311682.0,16781.0,311682.0,44808.0,-253.4612624960484,-101.83802655846026,-273.6234985893611
311682.0,3357.0,311682.0,16806.0,311682.0,44853.0,-258.70955946315235,-103.53714652658377,-279.2036364309048
311682.0,3356.0,311682.0,16787.0,311682.0,44854.0,-263.9684347457997,-105.25841004941006,-284.831987474062
311682.0,3359.0,311682.0,16779.0,311682.0,44812.0,-269.2422716066635,-107.00390491050126,-290.5133080065843
311682.0,3338.0,311682.0,16772.0,311682.0,44827.0,-274.5352485454553,-108.77568884855577,-296.25191113795876
311692.0,3336.0,311692.0,16776.0,311692.0,44791.0,-279.85135027226863,-110.57599671191875,-302.0518858368381
311692.0,3341.0,311692.0,16795.0,311692.0,44828.0,-285.19445914804265,-112.40731524501479,-307.9173243558145
311692.0,3344.0,311692.0,16776.0,311692.0,44795.0,-290.56834887730446,-114.27224853310156,-313.8523433963472
311692.0,3331.0,311692.0,16786.0,311692.0,44817.0,-295.97653580765865,-116.17335818437024,-319.8609697118916
311692.0,3310.0,311692.0,16772.0,311692.0,44770.0,-301.42220425402144,-118.11313399339167,-325.94708024729016
311692.0,3294.0,311692.0,16765.0,311692.0,44777.0,-306.9083817986655,-120.09406869581994,-332.1145403692221
311703.0,3297.0,311703.0,16745.0,311703.0,44788.0,-312.4382653011509,-122.11883470926475,-338.36742875768437
311703.0,3301.0,311703.0,16799.0,311703.0,44772.0,-318.0154263400948,-124.1904656395044,-344.7100736072182
311703.0,3322.0,311703.0,16771.0,311703.0,44800.0,-323.64371789551495,-126.31225307352724,-351.14686965101345
311703.0,3303.0,311703.0,16797.0,311703.0,44770.0,-329.32694691756683,-128.48738891878733,-357.68203979194465
311703.0,3281.0,311703.0,16761.0,311703.0,44760.0,-335.06862229027746,-130.71871745504816,-364.3194990521593
311703.0,3286.0,311703.0,16758.0,311703.0,44725.0,-340.87201686949135,-133.00877913316413,-371.06300688874063
311713.0,3285.0,311713.0,16786.0,311713.0,44776.0,-346.7403471825997,-135.3600043692617,-377.9164822776217
311713.0,3279.0,311713.0,16786.0,311713.0,44778.0,-352.6767873640994,-137.7747031012958,-384.88397753816866
311713.0,3290.0,311713.0,16770.0,311713.0,44742.0,-358.68434757953,-140.25479336617383,-391.96923994336686
311713.0,3256.0,311713.0,16753.0,311713.0,44717.0,-364.7657584975657,-142.801681663028,-399.175504530488
311713.0,3253.0,311713.0,16780.0,311713.0,44728.0,-370.92350135153976,-145.41641848872376,-406.5058053610455
311713.0,3224.0,311713.0,16739.0,311713.0,44708.0,-377.1600563561321,-148.09983151369087,-413.9633275275878
311723.0,3249.0,311723.0,16723.0,311723.0,44725.0,-383.47820345249613,-150.85266267032432,-421.5514820829036
311723.0,3260.0,311723.0,16762.0,311723.0,44733.0,-389.8810676950269,-153.6758609032639,-429.27375842846726
311723.0,3254.0,311723.0,16804.0,311723.0,44729.0,-396.3718019340181,-156.57057926722214,-437.1333985765392
311723.0,3229.0,311723.0,16720.0,311723.0,44680.0,-402.9532284682297,-159.53766790072632,-445.13312792890287
311723.0,3236.0,311723.0,16742.0,311723.0,44681.0,-409.6277775307626,-162.57743792536647,-453.2752885257913
311723.0,3214.0,311723.0,16723.0,311723.0,44698.0,-416.39761931018586,-165.69004230047187,-461.56219254234674
311734.0,3221.0,311734.0,16741.0,311734.0,44686.0,-423.2647688436307,-168.87583817460703,-469.99618193144244
311734.0,3223.0,311734.0,16738.0,311734.0,44698.0,-430.2310949051268,-172.13538467007007,-478.57936175869264
311734.0,3201.0,311734.0,16711.0,311734.0,44652.0,-437.298232824955,-175.46932500477138,-487.31337344922997
311734.0,3219.0,311734.0,16723.0,311734.0,44644.0,-444.46749224867614,-178.8784200645114,-496.1994669170099
311734.0,3184.0,311734.0,16727.0,311734.0,44615.0,-451.7398184729049,-182.3636666223581,-505.2388715227877
311734.0,3179.0,311734.0,16719.0,311734.0,44658.0,-459.1158376726653,-185.92626542941173,-514.4331460703979
311744.0,3193.0,311744.0,16723.0,311744.0,44663.0,-466.5959859900586,-189.56748973801018,-523.7840828187807
311744.0,3181.0,311744.0,16770.0,311744.0,44667.0,-474.1805180688909,-193.28849874249286,-533.2931351061624
311744.0,3182.0,311744.0,16727.0,311744.0,44620.0,-481.869330263507,-197.0899501929337,-542.9608724405272
311744.0,3165.0,311744.0,16729.0,311744.0,44654.0,-489.6618130300007,-200.9716529716039,-552.7868535936393
311744.0,3161.0,311744.0,16713.0,311744.0,44592.0,-497.55683369168554,-204.93260971741068,-562.7697375733454
311744.0,3146.0,311744.0,16733.0,311744.0,44595.0,-505.55279900720654,-208.9712248730902,-572.9074665437428
311754.0,3144.0,311754.0,16727.0,311754.0,44589.0,-513.6477388904877,-213.08530784658004,-583.1975490660467
311754.0,3124.0,311754.0,16684.0,311754.0,44573.0,-521.8393830018139,-217.2719765710502,-593.6372555186941
311754.0,3119.0,311754.0,16702.0,311754.0,44574.0,-530.1252545578942,-221.52779544737916,-604.2236326841722
311754.0,3113.0,311754.0,16651.0,311754.0,44537.0,-538.5027773863695,-225.84914371297896,-614.9535156774622
311754.0,3096.0,311754.0,16649.0,311754.0,44543.0,-546.9693477351661,-230.23265244627464,-625.8236486156063
311754.0,3101.0,311754.0,16672.0,311754.0,44565.0,-555.5223749671524,-234.67561115566014,-636.8307643754936
311765.0,3090.0,311765.0,16724.0,311765.0,44565.0,-564.1592851534168,-239.17595145729337,-647.9713260600728
311765.0,3091.0,311765.0,16664.0,311765.0,44563.0,-572.8774512230856,-243.73166019957264,-659.2409808760773
311765.0,3102.0,311765.0,16694.0,311765.0,44519.0,-581.6740416600454,-248.3402616012132,-670.6341616432521
311765.0,3067.0,311765.0,16650.0,311765.0,44516.0,-590.545818190345,-252.9987934543478,-682.1441113064676
311765.0,3062.0,311765.0,16701.0,311765.0,44503.0,-599.4890565943597,-257.7039435623136,-693.7631626637527
311765.0,3057.0,311765.0,16684.0,311765.0,44521.0,-608.4996757460525,-262.4519498601713,-705.4828789025254
311775.0,3057.0,311775.0,16666.0,311775.0,44480.0,-617.5733422725351,-267.2383149194917,-717.2939337683498
311775.0,3047.0,311775.0,16665.0,311775.0,44501.0,-626.7054032346306,-272.05769923062496,-729.1859623435176
311775.0,3037.0,311775.0,16621.0,311775.0,44456.0,-635.8907764873935,-276.9041330453594,-741.1475264232887
311775.0,3011.0,311775.0,16627.0,311775.0,44437.0,-645.1239526749864,-281.7714133852286,-753.1662211341686
311775.0,3001.0,311775.0,16653.0,311775.0,44421.0,-654.3991636649203,-286.6534415342091,-765.2289818504973
311775.0,3022.0,311775.0,16641.0,311775.0,44429.0,-663.7105718911338,-291.54418146626165,-777.3224096729207
311786.0,3007.0,311786.0,16642.0,311786.0,44448.0,-673.0522156849148,-296.43733856727306,-789.4327657858001
311786.0,2986.0,311786.0,16653.0,311786.0,44412.0,-682.4177836372568,-301.326110976563,-801.5456189381331
311786.0,2993.0,311786.0,16629.0,311786.0,44401.0,-691.8005338874393,-306.20304006390796,-813.6455532628199
311786.0,2979.0,311786.0,16591.0,311786.0,44360.0,-701.1933302119543,-311.0600229996186,-825.7162647461881
311786.0,2981.0,311786.0,16648.0,311786.0,44391.0,-710.5885968088786,-315.888564559631,-837.7408748307372
311786.0,2978.0,311786.0,16613.0,311786.0,44390.0,-719.978194033438,-320.6798798729568,-849.7020002692394
311796.0,2961.0,311796.0,16610.0,311796.0,44372.0,-729.3532821145217,-325.42470874925647,-861.5814360927415
311796.0,2965.0,311796.0,16618.0,311796.0,44319.0,-738.7042297817817,-330.11322637763976,-873.3599156882165
311796.0,2915.0,311796.0,16573.0,311796.0,44351.0,-748.0206409444968,-334.7351377171251,-885.0173047508778
311796.0,2935.0,311796.0,16559.0,311796.0,44269.0,-757.2915462789357,-339.27993363458614,-896.5329686738731
311796.0,2913.0,311796.0,16576.0,311796.0,44296.0,-766.5056285170787,-343.73732530889095,-907.8861318876952
311796.0,2926.0,311796.0,16557.0,311796.0,44291.0,-775.6512632283477,-348.09753344186043,-919.0561913610184
311806.0,2927.0,311806.0,16598.0,311806.0,44313.0,-784.7163552230874,-352.35123023409125,-930.0226672087263
311806.0,2918.0,311806.0,16562.0,311806.0,44285.0,-793.6880680945794,-356.48927812597896,-940.7647789324765
311806.0,2887.0,311806.0,16567.0,311806.0,44276.0,-802.5526294288353,-360.50251250189,-951.2611053201671
311806.0,2905.0,311806.0,16571.0,311806.0,44257.0,-811.2953659022974,-364.38172043440153,-961.4895715266267
311806.0,2881.0,311806.0,16576.0,311806.0,44281.0,-819.9008027690184,-368.11763363226424,-971.4275576110867
311806.0,2875.0,311806.0,16555.0,311806.0,44252.0,-828.3526744091819,-371.7008063732631,-981.0518439015315
311817.0,2870.0,311817.0,16567.0,311817.0,44238.0,-836.6339496485101,-375.1215547859836,-990.3384849853977
311817.0,2872.0,311817.0,16532.0,311817.0,44210.0,-844.7268622560387,-378.3700387352898,-999.2629166351874
311817.0,2832.0,311817.0,16557.0,311817.0,44252.0,-852.6129026494561,-381.436415793769,-1007.8002053752303
311817.0,2838.0,311817.0,16522.0,311817.0,44200.0,-860.2729332793198,-384.3109927380318,-1015.9250893557445
311817.0,2849.0,311817.0,16552.0,311817.0,44206.0,-867.6873797203499,-386.9843222694917,-1023.611908477823
311817.0,2843.0,311817.0,16564.0,311817.0,44214.0,-874.8361904830499,-389.447154204966,-1030.8346775504401
311827.0,2828.0,311827.0,16565.0,311827.0,44199.0,-881.6986127248075,-391.6901362108519,-1037.5671191511574
311827.0,2810.0,311827.0,16525.0,311827.0,44189.0,-888.253128542433,-393.7035072293152,-1043.7825841771273
311827.0,2807.0,311827.0,16543.0,311827.0,44183.0,-894.4776314429898,-395.4771603126787,-1049.4540855684872
311827.0,2789.0,311827.0,16561.0,311827.0,44205.0,-900.3496656003293,-397.0008667392405,-1054.5543813069785
311827.0,2825.0,311827.0,16536.0,311827.0,44212.0,-905.8465484990046,-398.2642448508111,-1059.0558363847103
311827.0,2783.0,311827.0,16532.0,311827.0,44159.0,-910.9452926944665,-399.2566560766123,-1062.9301637877925
311837.0,2781.0,311837.0,16522.0,311837.0,44139.0,-915.6225257474555,-399.96735632075615,-1066.1485513183602
311837.0,2775.0,311837.0,16509.0,311837.0,44134.0,-919.8546478744121,-400.38580389347527,-1068.6823046844847
311837.0,2762.0,311837.0,16501.0,311837.0,44118.0,-923.6180864081039,-400.50198064552256,-1070.5035281615733
311837.0,2753.0,311837.0,16507.0,311837.0,44146.0,-926.8894960498701,-400.306696285834,-1071.5854997122005
311837.0,2773.0,311837.0,16524.0,311837.0,44130.0,-929.6459198385353,-399.7917426369259,-1071.9027475313644
311837.0,2767.0,311837.0,16554.0,311837.0,44136.0,-931.8648002846494,-398.949738250031,-1071.4309867283268
311848.0,2747.0,311848.0,16518.0,311848.0,44144.0,-933.5238758151559,-397.77375471428184,-1070.1470991026308
311848.0,2750.0,311848.0,16518.0,311848.0,44113.0,-934.601234435763,-396.25713976364864,-1068.0292013208573
311848.0,2750.0,311848.0,16509.0,311848.0,44131.0,-935.0755273535646,-394.39375192066234,-1065.056842713755
311848.0,2759.0,311848.0,16544.0,311848.0,44150.0,-934.9260943492968,-392.17826083470777,-1061.2112443546132
311848.0,2759.0,311848.0,16523.0,311848.0,44146.0,-934.1329327813597,-389.606167454907,-1056.4753210412441
311848.0,2725.0,311848.0,16533.0,311848.0,44108.0,-932.6766970705327,-386.67369193951595,-1050.8336567785122
311858.0,2737.0,311858.0,16532.0,311858.0,44158.0,-930.5389438243188,-383.3777864589541,-1044.2727783426544
311858.0,2743.0,311858.0,16524.0,311858.0,44121.0,-927.7025058472327,-379.71625075317775,-1036.7815189787284
311858.0,2735.0,311858.0,16523.0,311858.0,44159.0,-924.1517001660812,-375.68789792318796,-1028.3512176729082
311858.0,2768.0,311858.0,16537.0,311858.0,44152.0,-919.8723584790798,-371.292756358559,-1018.9758454225364
311858.0,2774.0,311858.0,16593.0,311858.0,44174.0,-914.8517291035153,-366.5320710620151,-1008.6520830645803
311858.0,2789.0,311858.0,16569.0,311858.0,44204.0,-909.0782306437367,-361.4079141412692,-997.3792941905881
311868.0,2763.0,311868.0,16543.0,311868.0,44207.0,-902.5412642125118,-355.9228132212985,-985.1593790879913
311868.0,2761.0,311868.0,16571.0,311868.0,44200.0,-895.2313598057981,-350.0798995935976,-971.9966574584935
311868.0,2785.0,311868.0,16613.0,311868.0,44238.0,-887.1405802693575,-343.88318948991207,-957.897976151075
311868.0,2786.0,311868.0,16563.0,311868.0,44288.0,-878.2628087704577,-337.3374722108249,-942.8727827313319
311868.0,2799.0,311868.0,16603.0,311868.0,44267.0,-868.5937965793389,-330.4481692466161,-926.932865153788
311868.0,2812.0,311868.0,16592.0,311868.0,44295.0,-858.1311595603177,-323.22147386323945,-910.0921073337083
311879.0,2807.0,311879.0,16585.0,311879.0,44279.0,-846.8744246934511,-315.6645301541213,-892.3666406941902
311879.0,2828.0,311879.0,16595.0,311879.0,44318.0,-834.8251449146261,-307.78563313985376,-873.7752252903108
311879.0,2836.0,311879.0,16616.0,311879.0,44335.0,-821.9870499063115,-299.5944618226473,-854.3395402340564
311879.0,2864.0,311879.0,16623.0,311879.0,44392.0,-808.3661174331605,-291.10212636208314,-834.0841885295981
311879.0,2876.0,311879.0,16666.0,311879.0,44406.0,-793.970524624414,-282.32098655931566,-813.0364034719348
311879.0,2901.0,311879.0,16660.0,311879.0,44443.0,-778.8105376956453,-273.2643343822232,-791.22566425556
311889.0,2909.0,311889.0,16682.0,311889.0,44469.0,-762.8984147217345,-263.9460797708567,-768.6834162140979
311889.0,2924.0,311889.0,16667.0,311889.0,44511.0,-746.2483879102606,-254.38062547759878,-745.4428603348387
311889.0,2940.0,311889.0,16704.0,311889.0,44550.0,-728.8767452134874,-244.58292846886766,-721.5386774661905
311889.0,2972.0,311889.0,16723.0,311889.0,44571.0,-710.8019217715845,-234.56850659919334,-697.0066841207025
311889.0,3006.0,311889.0,16719.0,311889.0,44580.0,-692.0444468544324,-224.35325650779245,-671.8836089813625
311889.0,3034.0,311889.0,16767.0,311889.0,44623.0,-672.6266930873234,-213.95323199097885,-646.2071285875951
311899.0,3015.0,311899.0,16725.0,311899.0,44641.0,-652.5726357389372,-203.38450983151242,-620.0159950642233
311899.0,3072.0,311899.0,16735.0,311899.0,44660.0,-631.9078844300728,-192.66327613048574,-593.3501028905113
311899.0,3100.0,311899.0,16757.0,311899.0,44716.0,-610.6597942320395,-181.8061913060267,-566.250542019235
311899.0,3125.0,311899.0,16814.0,311899.0,44760.0,-588.8573072442083,-170.83058396552224,-538.7595126039125
311899.0,3154.0,311899.0,16812.0,311899.0,44810.0,-566.5306613768371,-159.75410074617992,-510.91993203451744
311899.0,3178.0,311899.0,16813.0,311899.0,44821.0,-543.7112122959747,-148.5942041657293,-482.77492921752673
311910.0,3187.0,311910.0,16803.0,311910.0,44837.0,-520.4313776701713,-137.36808050837567,-454.36760517185
311910.0,3208.0,311910.0,16851.0,311910.0,44904.0,-496.72472901010246,-126.0928924223008,-425.741109137177
311910.0,3276.0,311910.0,16893.0,311910.0,44950.0,-472.62612076732586,-114.7858049826187,-396.9385957220329
311910.0,3289.0,311910.0,16879.0,311910.0,44990.0,-448.17155002114714,-103.46355396024056,-368.0027905155374
311910.0,3317.0,311910.0,16861.0,311910.0,44981.0,-423.3978063356873,-92.14210214650461,-338.97554120160925
311910.0,3331.0,311910.0,16893.0,311910.0,45011.0,-398.34230322293024,-80.83683852926217,-309.897830390011
311920.0,3362.0,311920.0,16876.0,311920.0,45024.0,-373.0431669212192,-69.56298588798867,-280.8101961893807
311920.0,3393.0,311920.0,16899.0,311920.0,45062.0,-347.53935664246217,-58.33586215379833,-251.75317670479092
311920.0,3448.0,311920.0,16921.0,311920.0,45133.0,-321.87062077325527,-47.171017296626076,-222.76747560510353
311920.0,3474.0,311920.0,16959.0,311920.0,45196.0,-296.0772149129993,-36.084154173503464,-193.89363090477252
311920.0,3508.0,311920.0,16944.0,311920.0,45195.0,-270.1995180754974,-25.09081259745483,-165.17130706634117
311920.0,3542.0,311920.0,16964.0,311920.0,45235.0,-244.2777461005537,-14.206141938575769,-136.63879801658982
311930.0,3569.0,311930.0,16987.0,311930.0,45252.0,-218.35177108837206,-3.44489734472333,-108.33301502021891
311930.0,3605.0,311930.0,17032.0,311930.0,45327.0,-192.46097472498957,7.178664702460594,-80.2895736639631
311930.0,3630.0,311930.0,17031.0,311930.0,45307.0,-166.6441200412337,17.65119232018057,-52.54267317213919
311930.0,3674.0,311930.0,17049.0,311930.0,45380.0,-140.93922009215714,27.960676949511992,-25.124947008033928
311930.0,3684.0,311930.0,17023.0,311930.0,45383.0,-115.38339420618343,38.09658734085377,1.9325767115899453
311930.0,3736.0,311930.0,17002.0,311930.0,45409.0,-90.01275104656958,48.04956562336238,28.600482949225693
311941.0,3743.0,311941.0,17018.0,311941.0,45442.0,-64.86229930591054,57.810770801020965,54.85090008959787
311941.0,3792.0,311941.0,17063.0,311941.0,45455.0,-39.96585855484466,67.37132937092684,80.65735992106613
311941.0,3811.0,311941.0,17085.0,311941.0,45510.0,-15.355958991352736,76.7223810727007,105.99472375188327
311941.0,3838.0,311941.0,17090.0,311941.0,45525.0,8.936271005764752,85.85557232646781,130.83924230533603
311941.0,3868.0,311941.0,17097.0,311941.0,45542.0,32.88118200480892,94.76345326345074,155.16867330958644
311941.0,3898.0,311941.0,17087.0,311941.0,45554.0,56.45065443497174,103.4395296988805,178.9622349454686
311951.0,3907.0,311951.0,17126.0,311951.0,45638.0,79.61815865113431,111.87812409036496,202.20046670634565
311951.0,3937.0,311951.0,17110.0,311951.0,45687.0,102.35874006662095,120.07430472945413,224.86549415607806
311951.0,3970.0,311951.0,17156.0,311951.0,45675.0,124.64894438206898,128.0239643007934,246.94174273589272
311951.0,4003.0,311951.0,17120.0,311951.0,45688.0,146.46686585589646,135.7239366647526,268.41637468131705
311951.0,4016.0,311951.0,17121.0,311951.0,45667.0,167.7923335439068,143.17193950708224,289.27900028795386
311951.0,4041.0,311951.0,17118.0,311951.0,45703.0,188.60704194174218,150.36621141945568,309.52098774231285
311961.0,4050.0,311961.0,17125.0,311961.0,45731.0,208.8945254989742,157.3050559807947,329.13490410269264
311961.0,4090.0,311961.0,17170.0,311961.0,45775.0,228.64006664384294,163.98663693446463,348.1144115148203
311961.0,4103.0,311961.0,17170.0,311961.0,45801.0,247.83067951542853,170.4091621327047,366.4545723627084
311961.0,4120.0,311961.0,17190.0,311961.0,45803.0,266.45517190668727,176.57128631474296,384.15222560001143
311961.0,4135.0,311961.0,17161.0,311961.0,45817.0,284.5041441814825,182.47236648108554,401.20610860287763
311961.0,4148.0,311961.0,17194.0,311961.0,45827.0,301.9698789857306,188.1124100319513,417.6166841739014
311972.0,4173.0,311972.0,17205.0,311972.0,45853.0,318.84621110462,193.49196460815438,433.38590344655336
311972.0,4182.0,311972.0,17217.0,311972.0,45895.0,335.1284485503612,198.6122370030675,448.5171515738806
311972.0,4206.0,311972.0,17216.0,311972.0,45873.0,350.8133390130988,203.47533791815175,463.0154004271359
311972.0,4208.0,311972.0,17182.0,311972.0,45883.0,365.8990312376786,208.08432265661776,476.8872444028681
311972.0,4227.0,311972.0,17183.0,311972.0,45871.0,380.38498893725466,212.4428496013573,490.1405560988053
311972.0,4243.0,311972.0,17191.0,311972.0,45900.0,394.2718775448558,216.554640541874,502.78397009532273
311982.0,4270.0,311982.0,17233.0,311982.0,45928.0,407.5615270337811,220.42320616963514,514.8265791026886
311982.0,4284.0,311982.0,17231.0,311982.0,45942.0,420.25703352338587,224.05206732903667,526.2779980278209
311982.0,4276.0,311982.0,17207.0,311982.0,45967.0,432.362874142496,227.44512383081803,537.1486317483374
311982.0,4293.0,311982.0,17243.0,311982.0,45943.0,443.88483875182214,230.6067295417035,547.4498568917411
311982.0,4299.0,311982.0,17209.0,311982.0,45948.0,454.8298107634231,233.54156469043647,557.1939027705113
311982.0,4290.0,311982.0,17241.0,311982.0,46012.0,465.20554663002497,236.25454404937614,566.3935707452918
311993.0,4324.0,311993.0,17258.0,311993.0,45999.0,475.0204639059966,238.7508276247613,575.0622712453554
311993.0,4359.0,311993.0,17259.0,311993.0,45968.0,484.28357727042464,241.03604095370338,583.2142707782311
311993.0,4338.0,311993.0,17231.0,311993.0,45998.0,493.0047259262723,243.11652472857912,590.8645353109357
311993.0,4340.0,311993.0,17231.0,311993.0,45981.0,501.19474198195496,244.9992310837378,598.0282667042709
311993.0,4327.0,311993.0,17237.0,311993.0,46017.0,508.8652073721512,246.69135336107547,604.7206214622363
311993.0,4362.0,311993.0,17220.0,311993.0,46017.0,516.0280316994564,248.2000372133548,610.9566882125013
312002.0,4372.0,312002.0,17259.0,312002.0,46009.0,522.6952756088716,249.53226590824568,616.7515595104168
312002.0,4389.0,312002.0,17253.0,312002.0,46032.0,528.8793103814545,250.69493984159453,622.1203133227908
312002.0,4392.0,312002.0,17246.0,312002.0,46041.0,534.5930765831903,251.6951014645412,627.0779502509325
312002.0,4374.0,312002.0,17253.0,312002.0,46035.0,539.8501823326942,252.5400463642846,631.6394398101437
312002.0,4373.0,312002.0,17220.0,312002.0,46036.0,544.6647173236196,253.23720896593227,635.81973766991
312002.0,4389.0,312002.0,17257.0,312002.0,46078.0,549.050899541308,253.7939420203611,639.6337227802965
312012.0,4404.0,312012.0,17225.0,312012.0,46056.0,553.0228800417334,254.21735356184251,643.0962846057848
312012.0,4405.0,312012.0,17243.0,312012.0,46049.0,556.5948267600273,254.51424562226316,646.222458801206
312012.0,4404.0,312012.0,17262.0,312012.0,46043.0,559.7810642839254,254.69111197594214,649.0272668183233
312012.0,4405.0,312012.0,17238.0,312012.0,46043.0,562.596070810438,254.75425135923837,651.525333838545
312012.0,4404.0,312012.0,17226.0,312012.0,46045.0,565.0543601560402,254.70983810493328,653.7305739437381
312012.0,4399.0,312012.0,17251.0,312012.0,46051.0,567.1703313274937,254.56375571147697,655.6560209834312
312023.0,4433.0,312023.0,17249.0,312023.0,46095.0,568.9581641123988,254.32147849293972,657.3138532622934
312023.0,4423.0,312023.0,17275.0,312023.0,46103.0,570.4318917677451,253.9882540846952,658.7157391210985
312023.0,4422.0,312023.0,17238.0,312023.0,46018.0,571.605583566071,253.56938425508469,659.8732095766746
312023.0,4413.0,312023.0,17218.0,312023.0,46063.0,572.4933675913916,253.070229464283,660.7974282677659
312023.0,4417.0,312023.0,17238.0,312023.0,46080.0,573.1092569043699,252.49584188524722,661.4986214209188
312023.0,4416.0,312023.0,17272.0,312023.0,46130.0,573.4669668285029,251.85070633759153,661.9861085085494
312033.0,4433.0,312033.0,17250.0,312033.0,46065.0,573.5798483781316,251.13897955046377,662.2688988669167
312033.0,4413.0,312033.0,17236.0,312033.0,46106.0,573.460929292395,250.36482286529025,662.3560161516948
312033.0,4418.0,312033.0,17235.0,312033.0,46059.0,573.1229185611776,249.53234255043122,662.2563236817184
312033.0,4418.0,312033.0,17218.0,312033.0,46090.0,572.5780971222961,248.64527723006995,661.9782247687372
312033.0,4403.0,312033.0,17224.0,312033.0,46056.0,571.8381853887112,247.70671359497624,661.5294259577552
312033.0,4417.0,312033.0,17234.0,312033.0,46100.0,570.9142216150756,246.71892539329303,660.9167871962269
312043.0,4431.0,312043.0,17264.0,312043.0,46103.0,569.8165094152625,245.6834630980731,660.1463902278465
312043.0,4417.0,312043.0,17256.0,312043.0,46124.0,568.5547352612925,244.60153262739175,659.2238958193594
312043.0,4385.0,312043.0,17250.0,312043.0,46085.0,567.1380330225118,243.47439390884284,658.1549326095329
312043.0,4412.0,312043.0,17247.0,312043.0,46077.0,565.574746316557,242.303491877647,656.9451126518877
312043.0,4416.0,312043.0,17247.0,312043.0,46136.0,563.8721818188931,241.09037652973183,655.5997726323162
312043.0,4444.0,312043.0,17243.0,312043.0,46103.0,562.0367438411624,239.8366163789322,654.1240031753521
312054.0,4422.0,312054.0,17247.0,312054.0,46106.0,560.0743285190316,238.5437619337672,652.5229539256518
312054.0,4431.0,312054.0,17234.0,312054.0,46089.0,557.9906050359992,237.21332271753613,650.8018820028252
312054.0,4417.0,312054.0,17230.0,312054.0,46081.0,555.7910460774574,235.8466970712953,648.9658890237924
312054.0,4418.0,312054.0,17239.0,312054.0,46085.0,553.480826731022,234.44505266887657,647.0196217524432
312054.0,4424.0,312054.0,17238.0,312054.0,46101.0,551.0647292709072,233.00928114697297,644.9671183510799
312054.0,4432.0,312054.0,17269.0,312054.0,46111.0,548.5471548470127,231.5401340700301,642.8119215097967
312064.0,4418.0,312064.0,17292.0,312064.0,46106.0,545.9322459725672,230.03860495788217,640.5573773747399
312064.0,4425.0,312064.0,17231.0,312064.0,46098.0,543.2239719369404,228.50641163945988,638.2068590996671
312064.0,4416.0,312064.0,17237.0,312064.0,46086.0,540.4261142747476,226.94607701465566,635.7637550378792
312064.0,4432.0,312064.0,17208.0,312064.0,46132.0,537.5422573969189,225.3604624612216,633.2313752687345
312064.0,4427.0,312064.0,17291.0,312064.0,46119.0,534.5758733057611,223.7523629477534,630.6131082392777
312064.0,4433.0,312064.0,17251.0,312064.0,46090.0,531.5304780171851,222.1247081432538,627.9127363463615
312074.0,4423.0,312074.0,17219.0,312074.0,46108.0,528.409762438708,220.48099706854862,625.1344651311375
312074.0,4391.0,312074.0,17211.0,312074.0,46072.0,525.2175660478318,218.82518908605826,622.2826720355729
312074.0,4410.0,312074.0,17207.0,312074.0,46061.0,521.957630518181,217.16112599374074,619.3615931503326
312074.0,4392.0,312074.0,17207.0,312074.0,46088.0,518.6333193550003,215.49210233430261,616.374984245525
312074.0,4415.0,312074.0,17193.0,312074.0,46119.0,515.2475321030989,213.82069915374612,613.3260615331084
312074.0,4427.0,312074.0,17233.0,312074.0,46147.0,511.80284944753714,212.1487434937441,610.2180255972407
312085.0,4406.0,312085.0,17236.0,312085.0,46097.0,508.3018261401687,210.47750079161113,607.0548122095352
312085.0,4412.0,312085.0,17229.0,312085.0,46078.0,504.7471969152605,208.8080981022532,603.8413494762904
312085.0,4412.0,312085.0,17234.0,312085.0,46136.0,501.14188400558135,207.14185025463954,600.5832604763555
312085.0,4425.0,312085.0,17254.0,312085.0,46075.0,497.489022707598,205.48040188214173,597.2866891766528
312085.0,4429.0,312085.0,17209.0,312085.0,46114.0,493.7921546558588,203.82584920214782,593.9583951540013
312085.0,4422.0,312085.0,17240.0,312085.0,46098.0,490.05549156518873,202.1807483997005,590.6057890840578
312095.0,4386.0,312095.0,17194.0,312095.0,46068.0,486.2840165968496,200.54793971779233,587.2369027077868
312095.0,4376.0,312095.0,17203.0,312095.0,46063.0,482.48322488873225,198.93028633621745,583.8601979233531
312095.0,4385.0,312095.0,17208.0,312095.0,46039.0,478.6586548710982,197.33039878102772,580.4841277279962
312095.0,4382.0,312095.0,17206.0,312095.0,46078.0,474.81560886803675,195.75051072043746,577.1167502761098
312095.0,4396.0,312095.0,17231.0,312095.0,46069.0,470.95919435141064,194.19259308399836,573.7656993424465
312095.0,4377.0,312095.0,17224.0,312095.0,46061.0,467.0944974714386,192.65861536461026,570.4384299829104
312105.0,4390.0,312105.0,17190.0,312105.0,46105.0,463.22670251584685,191.15075571252305,567.1424659428512
312105.0,4362.0,312105.0,17217.0,312105.0,46039.0,459.36110046812854,189.67133107599037,563.8855959521193
312105.0,4360.0,312105.0,17188.0,312105.0,46048.0,455.5029743554712,188.22257481267454,560.6758729541848
312105.0,4394.0,312105.0,17251.0,312105.0,46085.0,451.65746240284784,186.80660370644628,557.5213634020735
312105.0,4374.0,312105.0,17217.0,312105.0,46035.0,447.8296517880977,185.42569169279622,554.4300713426661
312105.0,4371.0,312105.0,17213.0,312105.0,45997.0,444.02483402491845,184.0826053519937,551.4099054897425
312116.0,4363.0,312116.0,17176.0,312116.0,46028.0,440.248575752373,182.78056801854711,548.4682033388913
312116.0,4352.0,312116.0,17175.0,312116.0,46014.0,436.506584522067,181.52279373082237,545.6112188413249
312116.0,4334.0,312116.0,17189.0,312116.0,46017.0,432.8045029700275,180.31198756994087,542.8440368359577
312116.0,4348.0,312116.0,17198.0,312116.0,46046.0,429.14766761909607,179.15018667725602,540.1707116689746
312116.0,4360.0,312116.0,17236.0,312116.0,46058.0,425.5410021247423,178.0390248374066,537.5945610289175
312116.0,4346.0,312116.0,17188.0,312116.0,46033.0,421.9891662160194,176.98018985457355,535.1186067670178
312126.0,4339.0,312126.0,17186.0,312126.0,45991.0,418.49672744453966,175.97561832864386,532.7457173741329
312126.0,4339.0,312126.0,17152.0,312126.0,46016.0,415.0681350046962,175.0271768342385,530.4782111940766
312126.0,4347.0,312126.0,17210.0,312126.0,46081.0,411.7076351137076,174.13618966449053,528.31753954069
312126.0,4358.0,312126.0,17217.0,312126.0,46044.0,408.41934434559346,173.30341615035852,526.2646850920646
312126.0,4343.0,312126.0,17214.0,312126.0,46044.0,405.20746054383716,172.52954429532673,524.3207999387339
312126.0,4326.0,312126.0,17158.0,312126.0,46007.0,402.0763723795185,171.81555513161027,522.4872859052036
312136.0,4309.0,312136.0,17167.0,312136.0,45988.0,399.0304751658579,171.1624397017369,520.7653130591227
312136.0,4307.0,312136.0,17166.0,312136.0,46029.0,396.0737858808388,170.57059243089518,519.1552458702263
312136.0,4319.0,312136.0,17175.0,312136.0,46012.0,393.2096365332706,170.03948190772007,517.6564282767042
312136.0,4330.0,312136.0,17248.0,312136.0,46065.0,390.44065418904313,169.56782774463107,516.2674369310133
312136.0,4329.0,312136.0,17205.0,312136.0,46071.0,387.7689971948144,169.15423091574587,514.9866205094365
312136.0,4307.0,312136.0,17163.0,312136.0,46016.0,385.1965803817638,168.7977031090574,513.8126337096961
312147.0,4314.0,312147.0,17161.0,312147.0,46006.0,382.7250604977389,168.49741314151575,512.7444438664522
312147.0,4335.0,312147.0,17176.0,312147.0,46041.0,380.35572751297923,168.25199247900213,511.78081022833373
312147.0,4319.0,312147.0,17224.0,312147.0,46053.0,378.08958911369785,168.05930247113372,510.9200353015276
312147.0,4321.0,312147.0,17185.0,312147.0,46023.0,375.9275512029013,167.91682322139906,510.16022912497164
312147.0,4320.0,312147.0,17196.0,312147.0,46025.0,373.87045759986455,167.8220570447201,509.49947132235815
312147.0,4311.0,312147.0,17198.0,312147.0,46058.0,371.9190334299936,167.77256208370736,508.93568683269444
312157.0,4310.0,312157.0,17179.0,312157.0,45993.0,370.07381110332517,167.7658387713988,508.4665733421728
312157.0,4296.0,312157.0,17185.0,312157.0,45995.0,368.3350064803184,167.79921492791567,508.08941858956155
312157.0,4311.0,312157.0,17223.0,312157.0,46046.0,366.7023715180404,167.86977004792658,507.80068215337684
312157.0,4308.0,312157.0,17205.0,312157.0,46053.0,365.175132672272,167.97451945015604,507.59596511582373
312157.0,4314.0,312157.0,17200.0,312157.0,46045.0,363.7520616098836,168.1107187450892,507.47052961518625
312157.0,4301.0,312157.0,17190.0,312157.0,46018.0,362.4315669518449,168.27589206655222,507.41965405337106
312167.0,4304.0,312167.0,17177.0,312167.0,46008.0,361.21168363932827,168.46758213184035,507.43842746049637
312167.0,4316.0,312167.0,17183.0,312167.0,46078.0,360.0900125910275,168.6830448218812,507.52140005553997
312167.0,4310.0,312167.0,17202.0,312167.0,46027.0,359.0637523755547,168.91907252283113,507.6626568046884
312167.0,4284.0,312167.0,17203.0,312167.0,45987.0,358.1297420280474,169.1720819089266,507.85600250224866
312167.0,4317.0,312167.0,17178.0,312167.0,46020.0,357.2843451099276,169.43830841990973,508.0945947878812
312167.0,4319.0,312167.0,17201.0,312167.0,46060.0,356.5233754627101,169.7138120852234,508.37049682950396
312178.0,4294.0,312178.0,17217.0,312178.0,46033.0,355.8422327421785,169.99442230994475,508.6748804573818
312178.0,4329.0,312178.0,17236.0,312178.0,46061.0,355.2359989507467,170.27596780399818,508.9984954992854
312178.0,4328.0,312178.0,17201.0,312178.0,46066.0,354.69948599687007,170.55467238741463,509.3319280009404
312178.0,4317.0,312178.0,17216.0,312178.0,46040.0,354.2274165732145,170.82729182236085,509.6657488119215
312178.0,4315.0,312178.0,17178.0,312178.0,46055.0,353.8145341245357,171.09090274894763,509.99052450742965
312178.0,4305.0,312178.0,17202.0,312178.0,46049.0,353.4554761306241,171.34256441674458,510.2966666663233
312188.0,4304.0,312188.0,17194.0,312188.0,46053.0,353.14455455938696,171.57906984825695,510.574332301874
312188.0,4329.0,312188.0,17221.0,312188.0,46044.0,352.8756156819229,171.79693426367982,510.81339397042217
312188.0,4313.0,312188.0,17213.0,312188.0,46086.0,352.6420887158792,171.9926026574979,511.00344344998894
312188.0,4320.0,312188.0,17212.0,312188.0,46060.0,352.4371202865319,172.16268033701397,511.13395276243773
312188.0,4321.0,312188.0,17181.0,312188.0,46082.0,352.25361278268736,172.3039538079814,511.19451799598033
312188.0,4311.0,312188.0,17198.0,312188.0,46061.0,352.0841911129645,172.4131393819842,511.1749677048083
312198.0,4295.0,312198.0,17166.0,312198.0,46079.0,351.92109809258125,172.48654377046876,511.0653402677664
312198.0,4322.0,312198.0,17209.0,312198.0,46098.0,351.75599239279563,172.51983509982716,510.85591064504047
312198.0,4348.0,312198.0,17234.0,312198.0,46118.0,351.57991845971594,172.5081187462295,510.53745303511505
312198.0,4335.0,312198.0,17245.0,312198.0,46083.0,351.383640924635,172.44645169332165,510.1016446281488
312198.0,4334.0,312198.0,17205.0,312198.0,46079.0,351.15801190281604,172.33043129609672,509.5411898169863
312198.0,4335.0,312198.0,17209.0,312198.0,46047.0,350.8940456573048,172.1562980354068,508.8494850233204
312209.0,4348.0,312209.0,17232.0,312209.0,46110.0,350.5828628186927,171.92066573109588,508.0201866228151
312209.0,4372.0,312209.0,17216.0,312209.0,46078.0,350.21579788937623,171.6204216920095,507.0471597834423
312209.0,4348.0,312209.0,17213.0,312209.0,46102.0,349.7846865073135,171.25282322206732,505.9247659247723
312209.0,4330.0,312209.0,17223.0,312209.0,46064.0,349.28201299976433,170.81549714426075,504.64804175313964
312209.0,4314.0,312209.0,17190.0,312209.0,46035.0,348.7006432649166,170.3063404073976,503.21250292291563
312209.0,4342.0,312209.0,17200.0,312209.0,46055.0,348.0333719071723,169.7233461381751,501.6136331979353
312219.0,4342.0,312219.0,17212.0,312219.0,46059.0,347.2727472920468,169.06439365949177,499.84646400673944
312219.0,4371.0,312219.0,17202.0,312219.0,46083.0,346.4112941548872,168.3272130081884,497.9056128576135
312219.0,4351.0,312219.0,17206.0,312219.0,46083.0,345.4418952036186,167.50948759448607,495.78566137461735
312219.0,4344.0,312219.0,17234.0,312219.0,46085.0,344.35802030063724,166.60895746267752,493.4815614715284
312219.0,4347.0,312219.0,17196.0,312219.0,46066.0,343.1536678619467,165.62358191354568,490.98885936649094
312219.0,4363.0,312219.0,17235.0,312219.0,46105.0,341.82323724540277,164.55168668159283,488.3037436676617
312230.0,4348.0,312230.0,17208.0,312230.0,46111.0,340.361575168311,163.39202490077213,485.42321515649377
312230.0,4358.0,312230.0,17249.0,312230.0,46062.0,338.7640911018664,162.14389357080185,482.34542291008063
312230.0,4355.0,312230.0,17212.0,312230.0,46015.0,337.02680217133195,160.80733389398426,479.06959212145955
312230.0,4335.0,312230.0,17193.0,312230.0,46031.0,335.1463218752125,159.38318682314264,475.5952846439055
312230.0,4329.0,312230.0,17207.0,312230.0,46042.0,333.11972596975,157.87283382699175,471.9216783308311
312230.0,4320.0,312230.0,17161.0,312230.0,46019.0,330.9442693218214,156.27781105381032,468.0474136195457
312240.0,4319.0,312240.0,17192.0,312240.0,46067.0,328.6171056066144,154.5994850589839,463.97076859015
312240.0,4364.0,312240.0,17227.0,312240.0,46076.0,326.13521231317725,152.83893778173265,459.6900107616577
312240.0,4350.0,312240.0,17219.0,312240.0,46054.0,323.49567495201563,150.99731571489158,455.2039540064306
312240.0,4319.0,312240.0,17199.0,312240.0,46025.0,320.6960816417975,149.07635990801836,450.51228957980845
312240.0,4343.0,312240.0,17170.0,312240.0,46006.0,317.73456878180764,147.0784894097577,445.6153391726755
312240.0,4340.0,312240.0,17181.0,312240.0,46068.0,314.60967168822214,145.00640975928408,440.51364485885966
312250.0,4351.0,312250.0,17183.0,312250.0,46023.0,311.3204011865399,142.8627361906412,435.2080070907728
312250.0,4333.0,312250.0,17212.0,312250.0,46017.0,307.86646323374504,140.64998966340545,429.6997926380898
312250.0,4304.0,312250.0,17159.0,312250.0,46000.0,304.2482897105756,138.37084421237813,423.99091949216785
312250.0,4312.0,312250.0,17142.0,312250.0,46002.0,300.4667670647439,136.02812162803215,418.0835692835708
312250.0,4302.0,312250.0,17191.0,312250.0,45969.0,296.52289349690176,133.62441802962482,411.9799549938901
312250.0,4306.0,312250.0,17145.0,312250.0,45989.0,292.4176257230815,131.16190257389013,405.6821398462126
312261.0,4328.0,312261.0,17199.0,312261.0,46008.0,288.1519395674103,128.6424784460831,399.191996347216
312261.0,4315.0,312261.0,17146.0,312261.0,45987.0,283.7270699493129,126.06799238599822,392.51148147549037
312261.0,4292.0,312261.0,17161.0,312261.0,45983.0,279.1447480955539,123.44029638417338,385.6429749867898
312261.0,4292.0,312261.0,17136.0,312261.0,45970.0,274.407158685082,120.76109875215232,378.5893569734254
312261.0,4289.0,312261.0,17151.0,312261.0,45961.0,269.51671400816053,118.03173604933843,371.3539075698291
312261.0,4285.0,312261.0,17161.0,312261.0,46002.0,264.4759344613553,115.25310865873524,363.94029381650387
312271.0,4300.0,312271.0,17179.0,312271.0,45933.0,259.28749398871884,112.42589329607237,356.35275487850254
312271.0,4266.0,312271.0,17128.0,312271.0,45911.0,253.95433527177906,109.55086445186885,348.59611920487214
312271.0,4284.0,312271.0,17116.0,312271.0,45892.0,248.4797149434503,106.6288754764991,340.6752912472541
312271.0,4249.0,312271.0,17112.0,312271.0,45919.0,242.86712408887357,103.66039000298827,332.5946426842962
