c_ts,c_val,d_ts,d_val,e_ts,e_val,c_val_filtered,d_val_filtered,e_val_filtered
138491.0,20626.0,138491.0,31034.0,138491.0,23774.0,36.354273581802644,29.998592528539774,40.51659381510335
138491.0,20650.0,138491.0,31046.0,138491.0,23771.0,37.52466952107288,30.633809176049283,41.66886420161343
138491.0,20625.0,138491.0,31036.0,138491.0,23782.0,38.74881561871332,31.3263120364476,42.86655334840658
138491.0,20615.0,138491.0,31012.0,138491.0,23762.0,40.02655461744304,32.07528762528678,44.10889514616227
138501.0,20616.0,138501.0,31022.0,138501.0,23771.0,41.357564709908004,32.87938296425838,45.39481232474539
138501.0,20615.0,138501.0,31034.0,138501.0,23789.0,42.741047237723905,33.73643795123291,46.72282449635827
138501.0,20650.0,138501.0,31071.0,138501.0,23779.0,44.17562511638157,34.64353769394109,48.09110045437009
138501.0,20652.0,138501.0,31068.0,138501.0,23778.0,45.65955926940363,35.59745570579556,49.49758192123166
138501.0,20635.0,138501.0,31031.0,138501.0,23775.0,47.191100979247665,36.59509140485659,50.939966313488206
138501.0,20634.0,138501.0,31019.0,138501.0,23782.0,48.76860784379214,37.63340215844597,52.41559311200821
138511.0,20627.0,138511.0,31043.0,138511.0,23779.0,50.39035053943218,38.70892306488339,53.921381643705004
138511.0,20647.0,138511.0,31063.0,138511.0,23805.0,52.05429781274219,39.81751609232508,55.453868930448614
138511.0,20653.0,138511.0,31063.0,138511.0,23787.0,53.75810843813305,40.95461581956532,57.00934770392636
138511.0,20659.0,138511.0,31068.0,138511.0,23800.0,55.49932008871245,42.11561573667946,58.58400148707376
138511.0,20638.0,138511.0,31050.0,138511.0,23784.0,57.27551865634691,43.29604514614822,60.17391138995152
138511.0,20636.0,138511.0,31045.0,138511.0,23796.0,59.08426751398842,44.491476099392514,61.774963074993245
138522.0,20629.0,138522.0,31059.0,138522.0,23802.0,60.92282310729811,45.69729407907803,63.382777465517975
138522.0,20650.0,138522.0,31076.0,138522.0,23808.0,62.78787777944993,46.90860982134757,64.99276044553233
138522.0,20664.0,138522.0,31073.0,138522.0,23814.0,64.67555252909027,48.12044396925881,66.60024740696362
138522.0,20656.0,138522.0,31081.0,138522.0,23803.0,66.58162564233842,49.327988413216715,68.20062136816779
138522.0,20652.0,138522.0,31056.0,138522.0,23811.0,68.50172209681017,50.526709725547406,69.78931981681463
138522.0,20653.0,138522.0,31049.0,138522.0,23809.0,70.43127769009772,51.71219972884982,71.3617688766112
138532.0,20665.0,138532.0,31078.0,138532.0,23822.0,72.36542171760559,52.87989274549227,72.91336029722618
138532.0,20678.0,138532.0,31085.0,138532.0,23802.0,74.29899893263485,54.02500382339625,74.43948153409721
138532.0,20675.0,138532.0,31086.0,138532.0,23825.0,76.22674915908564,55.142793319181685,75.93550597598914
138532.0,20681.0,138532.0,31084.0,138532.0,23822.0,78.14348687149968,56.228838243920116,77.3967798960935
138532.0,20668.0,138532.0,31056.0,138532.0,23809.0,80.04415139245862,57.27904946242444,78.81866496369017
138532.0,20658.0,138532.0,31063.0,138532.0,23820.0,81.92369144743958,58.28942072296098,80.19651504367116
138542.0,20670.0,138542.0,31092.0,138542.0,23834.0,83.77682876385458,59.25575452142304,81.5256096948653
138542.0,20694.0,138542.0,31093.0,138542.0,23834.0,85.59792551237187,60.17371908204818,82.80124284114244
138542.0,20700.0,138542.0,31090.0,138542.0,23835.0,87.38116622832064,61.0391698070488,84.01891212623477
138542.0,20681.0,138542.0,31082.0,138542.0,23826.0,89.1208742827254,61.848338684028,85.1744006597871
138542.0,20677.0,138542.0,31085.0,138542.0,23820.0,90.81158060590371,62.597776430970406,86.26369058753187
138542.0,20690.0,138542.0,31077.0,138542.0,23836.0,92.44782460876414,63.28421344501983,87.2828057607716
138553.0,20707.0,138553.0,31108.0,138553.0,23834.0,94.0240456772753,63.90449751753275,88.22775565219075
138553.0,20706.0,138553.0,31111.0,138553.0,23847.0,95.53474957517926,64.4557379389128,89.09463731089946
138553.0,20709.0,138553.0,31069.0,138553.0,23840.0,96.97475565639226,64.93554074162196,89.87978620379872
138553.0,20702.0,138553.0,31088.0,138553.0,23833.0,98.33930650060263,65.34195876187394,90.57984857340132
138553.0,20692.0,138553.0,31070.0,138553.0,23836.0,99.62400371090865,65.67316874030465,91.19171876550038
138553.0,20704.0,138553.0,31081.0,138553.0,23844.0,100.82464085778342,65.92722967754844,91.71243877345299
138563.0,20708.0,138563.0,31115.0,138563.0,23843.0,101.93709156284805,66.10207833252258,92.13920378387839
138563.0,20714.0,138563.0,31109.0,138563.0,23855.0,102.95736214007155,66.19580847107747,92.46946572398264
138563.0,20716.0,138563.0,31102.0,138563.0,23845.0,103.88173000219028,66.2070659596917,92.70105192747863
138563.0,20711.0,138563.0,31085.0,138563.0,23847.0,104.70684248937374,66.13517727905091,92.83222816945427
138563.0,20695.0,138563.0,31069.0,138563.0,23831.0,105.42969124305772,65.97991233764697,92.86164542799139
138563.0,20709.0,138563.0,31097.0,138563.0,23840.0,106.04744806754213,65.74113659713251,92.78818864233669
138573.0,20725.0,138573.0,31110.0,138573.0,23858.0,106.5573526069996,65.41872083619268,92.61088333838
138573.0,20723.0,138573.0,31101.0,138573.0,23842.0,106.9568441826713,65.01280974357522,92.32899169932912
138573.0,20723.0,138573.0,31087.0,138573.0,23830.0,107.24380026512922,64.52408102561802,91.94212002504406
138573.0,20705.0,138573.0,31070.0,138573.0,23838.0,107.41661655502499,63.953661108055314,91.45011297072081
138573.0,20708.0,138573.0,31065.0,138573.0,23826.0,107.47407005193132,63.30277431180055,90.85286409572035
138573.0,20718.0,138573.0,31091.0,138573.0,23853.0,107.4151311084658,62.57243307445168,90.15025319540078
138584.0,20715.0,138584.0,31092.0,138584.0,23843.0,107.23892283486687,61.76344238239378,89.34225494119138
138584.0,20716.0,138584.0,31112.0,138584.0,23839.0,106.94480562668275,60.87671028545965,88.42911562175556
138584.0,20717.0,138584.0,31076.0,138584.0,23840.0,106.53243911179537,59.913573049358774,87.41141787295078
138584.0,20701.0,138584.0,31066.0,138584.0,23831.0,106.00177094327708,58.87581314198705,86.29002124484462
138584.0,20707.0,138584.0,31055.0,138584.0,23830.0,105.35294233034946,57.765311322175585,85.06597572508628
138584.0,20709.0,138584.0,31092.0,138584.0,23841.0,104.58616899737127,56.58369097399296,83.74045878415697
138594.0,20728.0,138594.0,31103.0,138594.0,23840.0,103.70175744034736,55.332385679730315,82.31481483344677
138594.0,20708.0,138594.0,31089.0,138594.0,23834.0,102.70027873384514,54.01307533751162,80.79068086714975
138594.0,20699.0,138594.0,31046.0,138594.0,23809.0,101.58267119648606,52.627934251288735,79.17000396634128
138594.0,20710.0,138594.0,31055.0,138594.0,23813.0,100.350132258894,51.17933496250299,77.45483323652674
138594.0,20704.0,138594.0,31034.0,138594.0,23830.0,99.00399378025207,49.66930726553198,75.64708039397534
138594.0,20711.0,138594.0,31082.0,138594.0,23831.0,97.54574267254772,48.099242074551526,73.74854439838711
138605.0,20705.0,138605.0,31090.0,138605.0,23819.0,95.97710179280571,46.47007280640735,71.76113733423621
138605.0,20704.0,138605.0,31087.0,138605.0,23823.0,94.30007998670953,44.78281280883429,69.68700994649888
138605.0,20692.0,138605.0,31048.0,138605.0,23812.0,92.51695682339091,43.038944892490164,67.52851807877961
138605.0,20679.0,138605.0,31054.0,138605.0,23805.0,90.63016148197178,41.24029461335992,65.28813517673686
138605.0,20684.0,138605.0,31045.0,138605.0,23809.0,88.64206393068518,39.38863212710135,62.968343160557765
138605.0,20695.0,138605.0,31077.0,138605.0,23819.0,86.5548361716147,37.485470037727936,60.571586583091175
138615.0,20693.0,138615.0,31074.0,138615.0,23814.0,84.37052715883115,35.53223324832549,58.10038308374368
138615.0,20679.0,138615.0,31058.0,138615.0,23810.0,82.09122787184154,33.53058827277796,55.55748684774775
138615.0,20684.0,138615.0,31043.0,138615.0,23797.0,79.71910791483548,31.482547452919732,52.94593297113828
138615.0,20672.0,138615.0,31014.0,138615.0,23780.0,77.25633571492278,29.39019624726694,50.26890597732196
138615.0,20673.0,138615.0,31053.0,138615.0,23784.0,74.70499760094027,27.255282327156515,47.529489052031934
138615.0,20676.0,138615.0,31061.0,138615.0,23804.0,72.0670521199313,25.07910556248998,44.730498291159115
138625.0,20676.0,138625.0,31062.0,138625.0,23795.0,69.34435595042689,22.862858595928458,41.87459411533833
138625.0,20668.0,138625.0,31035.0,138625.0,23777.0,66.53874718225555,20.60800107459491,38.96449774297977
138625.0,20662.0,138625.0,31012.0,138625.0,23778.0,63.65207662068051,18.31621823190062,36.00299491001721
138625.0,20662.0,138625.0,31028.0,138625.0,23786.0,60.686152651283045,15.989032578491123,32.99279757708687
138625.0,20665.0,138625.0,31045.0,138625.0,23781.0,57.64269674364244,13.62754220005067,29.936536735636928
138625.0,20672.0,138625.0,31055.0,138625.0,23775.0,54.52340667307443,11.232603337861807,26.836870034819704
138636.0,20665.0,138636.0,31059.0,138636.0,23778.0,51.33011526083193,8.805281150941457,23.696538198034574
138636.0,20654.0,138636.0,31021.0,138636.0,23766.0,48.064915057455,6.347169954770248,20.518362046650367
138636.0,20646.0,138636.0,30999.0,138636.0,23749.0,44.73012748513548,3.86027934089649,17.30518408890359
138636.0,20645.0,138636.0,31001.0,138636.0,23755.0,41.328158868894455,1.346526601268092,14.059706014175603
138636.0,20641.0,138636.0,31030.0,138636.0,23762.0,37.86138494227042,-1.1926789112448901,10.784351519461339
138636.0,20653.0,138636.0,31052.0,138636.0,23762.0,34.33214672268433,-3.756310279846744,7.481332468090443
138646.0,20632.0,138646.0,31032.0,138646.0,23762.0,30.742837441862175,-6.34318391974287,4.1528474708231045
138646.0,20632.0,138646.0,31004.0,138646.0,23744.0,27.09595093647917,-8.951593789445777,0.8012144909538037
138646.0,20622.0,138646.0,30983.0,138646.0,23742.0,23.394004400742535,-11.579507513215471,-2.571163785775205
138646.0,20614.0,138646.0,30989.0,138646.0,23731.0,19.63940625041258,-14.22510185976094,-5.961955346437243
138646.0,20626.0,138646.0,31031.0,138646.0,23736.0,15.834364132229112,-16.887070997937364,-9.36904557025779
138646.0,20637.0,138646.0,31015.0,138646.0,23748.0,11.980940257888086,-19.564391886248345,-12.790555947362478
138656.0,20612.0,138656.0,31006.0,138656.0,23731.0,8.08126613160912,-22.25587468261275,-16.22471058125278
138656.0,20611.0,138656.0,30987.0,138656.0,23717.0,4.137669708692023,-24.960034496629127,-19.66973469578683
138656.0,20603.0,138656.0,30976.0,138656.0,23714.0,0.1525793251155605,-27.675339165472323,-23.12396936334875
138656.0,20599.0,138656.0,31001.0,138656.0,23716.0,-3.871621637945978,-30.40050121053922,-26.5860709697685
138656.0,20616.0,138656.0,31020.0,138656.0,23736.0,-7.932627535184338,-33.13445987217959,-30.05503440953582
138656.0,20602.0,138656.0,31000.0,138656.0,23725.0,-12.02809433465967,-35.876008743438476,-33.52997732011896
138667.0,20582.0,138667.0,30988.0,138667.0,23712.0,-16.15551228070167,-38.623487950260014,-37.009897881045205
138667.0,20583.0,138667.0,30959.0,138667.0,23702.0,-20.312281933433056,-41.37489507076921,-40.49366322116225
138667.0,20576.0,138667.0,30946.0,138667.0,23696.0,-24.49591676489876,-44.12833187412794,-43.98020418295468
138667.0,20592.0,138667.0,30983.0,138667.0,23702.0,-28.704119430523576,-46.882440883871695,-47.468695894362995
138667.0,20586.0,138667.0,30990.0,138667.0,23701.0,-32.934654895031,-49.6364250561048,-50.958586568725096
138667.0,20584.0,138667.0,30990.0,138667.0,23693.0,-37.18513584116937,-52.38962228493716,-54.449513009982624
138677.0,20567.0,138677.0,30955.0,138677.0,23704.0,-41.452902570963474,-55.14113462288954,-57.94121414681696
138677.0,20562.0,138677.0,30949.0,138677.0,23686.0,-45.7350824750486,-57.88990889007765,-61.43346689384926
138677.0,20559.0,138677.0,30948.0,138677.0,23687.0,-50.028742136604635,-60.63511489897428,-64.92605851606459
138677.0,20556.0,138677.0,30983.0,138677.0,23687.0,-54.33099050194964,-63.376355871343875,-68.41881978911843
138677.0,20538.0,138677.0,30980.0,138677.0,23690.0,-58.6390210695637,-66.11343989507135,-71.91162587221592
138677.0,20544.0,138677.0,30955.0,138677.0,23673.0,-62.950186281462265,-68.8459674244915,-75.40433049666406
138687.0,20529.0,138687.0,30955.0,138687.0,23678.0,-67.26209813618547,-71.57320636037429,-78.89675085063699
138687.0,20527.0,138687.0,30924.0,138687.0,23659.0,-71.57270249188721,-74.29432960202726,-82.3887436398468
138687.0,20515.0,138687.0,30953.0,138687.0,23671.0,-75.88035951553579,-77.00873379703557,-85.88030149973794
138687.0,20538.0,138687.0,30963.0,138687.0,23673.0,-80.18389796489713,-79.71612968405577,-89.37157262526836
138687.0,20535.0,138687.0,30965.0,138687.0,23666.0,-84.48249764949965,-82.41627453021779,-92.86275302606902
138687.0,20523.0,138687.0,30946.0,138687.0,23663.0,-88.77543046665072,-85.10861987709727,-96.35396270833431
138698.0,20515.0,138698.0,30928.0,138698.0,23650.0,-93.06191907787009,-87.79225708923528,-99.8452373204018
138698.0,20502.0,138698.0,30908.0,138698.0,23637.0,-97.34122253230949,-90.4662173879581,-103.33664537729257
138698.0,20503.0,138698.0,30924.0,138698.0,23648.0,-101.61281124973085,-93.12988962212101,-106.82846427970325
138698.0,20510.0,138698.0,30945.0,138698.0,23665.0,-105.8764634174244,-95.78319558164597,-110.3212228709883
138698.0,20512.0,138698.0,30930.0,138698.0,23659.0,-110.13218567961036,-98.42637514085867,-113.81547088764859
138698.0,20502.0,138698.0,30909.0,138698.0,23635.0,-114.38002288685504,-101.05972729124657,-117.31150396888555
138708.0,20495.0,138708.0,30903.0,138708.0,23632.0,-118.61994308974064,-103.68369358787973,-120.80937407618939
138708.0,20476.0,138708.0,30914.0,138708.0,23609.0,-122.85189693924798,-106.29914031580397,-124.30916305293391
138708.0,20478.0,138708.0,30922.0,138708.0,23623.0,-127.0760029257151,-108.9074487832632,-127.81128052151769
138708.0,20489.0,138708.0,30952.0,138708.0,23642.0,-131.2926904881008,-111.51027002962648,-131.31656148006041
138708.0,20500.0,138708.0,30930.0,138708.0,23637.0,-135.50260671258624,-114.10907544836455,-134.82604216213187
138708.0,20475.0,138708.0,30911.0,138708.0,23625.0,-139.70634124869594,-116.70484528515102,-138.34062460176887
138718.0,20464.0,138718.0,30901.0,138718.0,23625.0,-143.90429929055958,-119.29817423980188,-141.86094962141703
138718.0,20455.0,138718.0,30898.0,138718.0,23612.0,-148.09687640844706,-121.88963021912542,-145.3874680975507
138718.0,20475.0,138718.0,30916.0,138718.0,23624.0,-152.28468022852329,-124.47998575958488,-148.92052632563187
138718.0,20478.0,138718.0,30923.0,138718.0,23627.0,-156.4684872946735,-127.07013794115315,-152.46034202305816
138718.0,20461.0,138718.0,30914.0,138718.0,23605.0,-160.64898163915385,-129.66081997766833,-156.00688107826818
138718.0,20457.0,138718.0,30885.0,138718.0,23602.0,-164.82659681062003,-132.2524322997345,-159.559831340722
138729.0,20440.0,138729.0,30873.0,138729.0,23588.0,-169.0016009758842,-134.8452420248314,-163.1187705914426
138729.0,20439.0,138729.0,30883.0,138729.0,23595.0,-173.1742935399036,-137.43979497375904,-166.68337085323054
138729.0,20448.0,138729.0,30919.0,138729.0,23590.0,-177.34514530526778,-140.03708488506254,-170.25348727360952
138729.0,20438.0,138729.0,30923.0,138729.0,23600.0,-181.5147809745776,-142.63821267847203,-173.8291093294369
138729.0,20428.0,138729.0,30893.0,138729.0,23575.0,-185.68389100046366,-145.24384536772047,-177.41025935462574
138729.0,20430.0,138729.0,30863.0,138729.0,23578.0,-189.85323668500757,-147.85408373068714,-180.99699017114943
138739.0,20420.0,138739.0,30847.0,138739.0,23556.0,-194.02371612726327,-150.4689208510893,-184.58953443950188
138739.0,20420.0,138739.0,30888.0,138739.0,23573.0,-198.19639992710665,-153.08881190359733,-188.18849037361446
138739.0,20426.0,138739.0,30899.0,138739.0,23578.0,-202.3725224502004,-155.71474199151933,-191.79486370077143
138739.0,20421.0,138739.0,30901.0,138739.0,23569.0,-206.5533982645583,-158.3477495237462,-195.40990715928248
138739.0,20415.0,138739.0,30878.0,138739.0,23559.0,-210.74030013716205,-160.9884474594895,-199.0349558273969
138739.0,20405.0,138739.0,30851.0,138739.0,23557.0,-214.93441794896404,-163.6369916573117,-202.67144240296705
138749.0,20397.0,138749.0,30839.0,138749.0,23554.0,-219.13693491489457,-166.29348821454658,-206.32099930031703
138749.0,20406.0,138749.0,30868.0,138749.0,23570.0,-223.3491320264892,-168.9584654006136,-209.98546943088843
138749.0,20408.0,138749.0,30874.0,138749.0,23573.0,-227.57237901846176,-171.63296091119358,-213.66673859566777
138749.0,20405.0,138749.0,30872.0,138749.0,23560.0,-231.80797741518668,-174.31820014051948,-217.3664663335786
138749.0,20401.0,138749.0,30863.0,138749.0,23544.0,-236.0569891801727,-177.0152701842843,-221.08595801380315
138749.0,20372.0,138749.0,30844.0,138749.0,23541.0,-240.3202067547067,-179.7250708337451,-224.8262954955887
138760.0,20366.0,138760.0,30841.0,138760.0,23538.0,-244.59834540021728,-182.44851014743983,-228.58855429664874
138760.0,20384.0,138760.0,30851.0,138760.0,23545.0,-248.89232222788328,-185.18673815080768,-232.37389879048362
138760.0,20385.0,138760.0,30876.0,138760.0,23549.0,-253.2033001192738,-187.9411454305891,-236.18350278028683
138760.0,20375.0,138760.0,30873.0,138760.0,23545.0,-257.5324641287419,-190.71302944936195,-240.01836219554764
138760.0,20354.0,138760.0,30825.0,138760.0,23515.0,-261.88087436337025,-193.50325840418841,-243.8791799862018
138760.0,20348.0,138760.0,30815.0,138760.0,23519.0,-266.2495996989028,-196.3124142345244,-247.76649317531445
138770.0,20369.0,138770.0,30837.0,138770.0,23528.0,-270.6399319487657,-199.14130546895464,-251.680900386537
138770.0,20378.0,138770.0,30871.0,138770.0,23529.0,-275.05333439514254,-201.99115575360952,-255.62307817513883
138770.0,20361.0,138770.0,30851.0,138770.0,23525.0,-279.49111249918303,-204.86319888051983,-259.59358816697727
138770.0,20354.0,138770.0,30842.0,138770.0,23506.0,-283.95417101513726,-207.75820644587446,-263.592742115607
138770.0,20335.0,138770.0,30816.0,138770.0,23510.0,-288.44307198283013,-210.67645403174222,-267.62065640250376
138770.0,20338.0,138770.0,30813.0,138770.0,23508.0,-292.95825798042193,-213.6180570810104,-271.6773705000044
138780.0,20332.0,138780.0,30833.0,138780.0,23511.0,-297.5002321743656,-216.58330004249802,-275.7628553529694
138780.0,20345.0,138780.0,30836.0,138780.0,23509.0,-302.0695818221549,-219.57264915048458,-279.87690763048283
138780.0,20344.0,138780.0,30856.0,138780.0,23517.0,-306.6668310454512,-222.5864366872208,-284.0190047275348
138780.0,20336.0,138780.0,30820.0,138780.0,23500.0,-311.29221797116793,-225.62449396574812,-288.1881609997041
138780.0,20327.0,138780.0,30811.0,138780.0,23485.0,-315.9455641947069,-228.6860669393162,-292.382890482834
138780.0,20302.0,138780.0,30809.0,138780.0,23489.0,-320.62634381617147,-231.7700751552956,-296.6013469599767
138791.0,20326.0,138791.0,30811.0,138791.0,23484.0,-325.333879200992,-234.87539635250008,-300.84148559637
138791.0,20317.0,138791.0,30852.0,138791.0,23497.0,-330.06742265827563,-238.0008488922129,-305.10106406643865
138791.0,20327.0,138791.0,30831.0,138791.0,23478.0,-334.82600263539814,-241.14482349078233,-309.37751359456547
138791.0,20306.0,138791.0,30804.0,138791.0,23474.0,-339.60821456515043,-244.30490832746108,-313.66785402297785
138791.0,20286.0,138791.0,30783.0,138791.0,23475.0,-344.4121972211624,-247.4779791085291,-317.9687379867705
138791.0,20307.0,138791.0,30810.0,138791.0,23467.0,-349.2358067695948,-250.66063881321486,-322.27651298823764
138801.0,20292.0,138801.0,30814.0,138801.0,23470.0,-354.0767315643858,-253.8494162939975,-326.58721648242624
138801.0,20299.0,138801.0,30818.0,138801.0,23474.0,-358.932410141725,-257.04053158621014,-330.89651825809847
138801.0,20294.0,138801.0,30795.0,138801.0,23470.0,-363.7998981965716,-260.22959433333244,-335.19960012484046
138801.0,20280.0,138801.0,30795.0,138801.0,23458.0,-368.67579188259026,-263.41156329511114,-339.4910337595405
138801.0,20280.0,138801.0,30777.0,138801.0,23432.0,-373.5562358639173,-266.5809306545294,-343.7648187664521
138801.0,20271.0,138801.0,30778.0,138801.0,23449.0,-378.43699801537866,-269.731953197909,-348.0146074340722
138811.0,20290.0,138811.0,30808.0,138811.0,23458.0,-383.3134874488968,-272.85875852774075,-352.2338492505188
138811.0,20271.0,138811.0,30793.0,138811.0,23450.0,-388.18063707823325,-275.95517673841306,-356.41564289175426
138811.0,20265.0,138811.0,30798.0,138811.0,23434.0,-393.0327722947928,-279.01442726444975,-360.55252052800716
138811.0,20256.0,138811.0,30770.0,138811.0,23420.0,-397.86363388784406,-282.0289848985226,-364.63647834930646
138811.0,20249.0,138811.0,30749.0,138811.0,23426.0,-402.66651491841066,-284.99076281263524,-368.659202958641
138811.0,20266.0,138811.0,30783.0,138811.0,23424.0,-407.4343417559206,-287.8914590214027,-372.61222878301135
138822.0,20250.0,138822.0,30780.0,138822.0,23433.0,-412.15960235570384,-290.72267596886263,-376.4868972517411
138822.0,20266.0,138822.0,30779.0,138822.0,23440.0,-416.83417664712465,-293.4756799409545,-380.2741645618562
138822.0,20239.0,138822.0,30782.0,138822.0,23429.0,-421.44919879528743,-296.1411284191978,-383.9643554515201
138822.0,20232.0,138822.0,30749.0,138822.0,23418.0,-425.99505885740143,-298.7090044595329,-387.54701707950323
138822.0,20227.0,138822.0,30735.0,138822.0,23410.0,-430.46157042878184,-301.16881708695576,-391.0109826061929
138822.0,20233.0,138822.0,30763.0,138822.0,23425.0,-434.8381426903678,-303.50996684171525,-394.34451731984075
138832.0,20226.0,138832.0,30762.0,138832.0,23411.0,-439.1137932645519,-305.72188623564773,-397.5353412493146
138832.0,20223.0,138832.0,30771.0,138832.0,23415.0,-443.27707102757694,-307.7938077291308,-400.57055090336075
138832.0,20214.0,138832.0,30741.0,138832.0,23392.0,-447.3160268469377,-309.7145076510184,-403.4366145734209
138832.0,20202.0,138832.0,30732.0,138832.0,23391.0,-451.2182771360195,-311.4723562778328,-406.11951649450293
138832.0,20207.0,138832.0,30740.0,138832.0,23384.0,-454.9711282323134,-313.0556197943211,-408.60498149375553
138832.0,20198.0,138832.0,30731.0,138832.0,23396.0,-458.5616729547551,-314.45270488016627,-410.87863082239636
138842.0,20226.0,138842.0,30751.0,138842.0,23392.0,-461.9767605877948,-315.65219047330936,-412.9259724925838
138842.0,20201.0,138842.0,30758.0,138842.0,23379.0,-465.20281844937034,-316.64268351088754,-414.7323196748523
138842.0,20197.0,138842.0,30725.0,138842.0,23375.0,-468.2256954621176,-317.4126184181638,-416.2828238069643
138842.0,20185.0,138842.0,30718.0,138842.0,23364.0,-471.0307305396399,-317.9502921302981,-417.562657291656
138842.0,20193.0,138842.0,30739.0,138842.0,23380.0,-473.60295113040513,-318.24417144721406,-418.5572025777029
138842.0,20198.0,138842.0,30746.0,138842.0,23384.0,-475.9271575220377,-318.2830440698667,-419.25208620455555
138853.0,20206.0,138853.0,30748.0,138853.0,23378.0,-477.9878124408917,-318.0558315551386,-419.6330501879821
138853.0,20191.0,138853.0,30736.0,138853.0,23378.0,-479.76885179114316,-317.5513701342288,-419.68584334693827
138853.0,20173.0,138853.0,30717.0,138853.0,23356.0,-481.2536436939302,-316.7584450983078,-419.39628278857003
138853.0,20162.0,138853.0,30703.0,138853.0,23355.0,-482.425227887257,-315.66611958603505,-418.7504941059633
138853.0,20170.0,138853.0,30742.0,138853.0,23358.0,-483.26668626672404,-314.264133499001,-417.73522348718836
138853.0,20172.0,138853.0,30747.0,138853.0,23375.0,-483.7613678621234,-312.54297624646955,-416.338011713981
138863.0,20183.0,138863.0,30733.0,138863.0,23372.0,-483.8928736793898,-310.49361341277137,-414.5471333379923
138863.0,20180.0,138863.0,30727.0,138863.0,23371.0,-483.64491325013944,-308.10733513460923,-412.351461310873
138863.0,20159.0,138863.0,30710.0,138863.0,23361.0,-483.0012236495742,-305.3759713507635,-409.7404679145541
138863.0,20156.0,138863.0,30703.0,138863.0,23365.0,-481.94571947803877,-302.29231230583076,-406.70439270673353
138863.0,20176.0,138863.0,30732.0,138863.0,23368.0,-480.46277719187975,-298.85049374437244,-403.23444627831464
138863.0,20177.0,138863.0,30754.0,138863.0,23378.0,-478.5373406249764,-295.0460677509799,-399.32292061777844
138874.0,20168.0,138874.0,30763.0,138874.0,23377.0,-476.1548259434986,-290.8756724050991,-394.9631962459186
138874.0,20165.0,138874.0,30739.0,138874.0,23380.0,-473.30111793541016,-286.33665859471586,-390.14973945999577
138874.0,20150.0,138874.0,30718.0,138874.0,23369.0,-469.96278559927356,-281.42713146007446,-384.8781890623401
138874.0,20152.0,138874.0,30733.0,138874.0,23384.0,-466.12742237106784,-276.1464267888276,-379.14554489245427
138874.0,20179.0,138874.0,30765.0,138874.0,23394.0,-461.7839313077377,-270.495530655641,-372.95033080667065
138874.0,20183.0,138874.0,30780.0,138874.0,23400.0,-456.9225492059069,-264.4770132950206,-366.2926107767386
138884.0,20194.0,138884.0,30788.0,138884.0,23425.0,-451.5346423928948,-258.09462288248164,-359.17389255689346
138884.0,20176.0,138884.0,30754.0,138884.0,23418.0,-445.6125638980316,-251.35302888271804,-351.5969937950256
138884.0,20177.0,138884.0,30764.0,138884.0,23415.0,-439.1497746554421,-244.25801637862338,-343.5659858913574
138884.0,20199.0,138884.0,30799.0,138884.0,23443.0,-432.14112779761115,-236.81688635783854,-335.08630050892555
138884.0,20212.0,138884.0,30823.0,138884.0,23458.0,-424.58300864292454,-229.03850726753615,-326.16479825460834
138884.0,20206.0,138884.0,30837.0,138884.0,23471.0,-416.47325363969054,-220.9329123667426,-316.8096172194596
138894.0,20210.0,138894.0,30851.0,138894.0,23451.0,-407.81112158378505,-212.5108311457372,-307.0300176938465
138894.0,20222.0,138894.0,30827.0,138894.0,23465.0,-398.59744669626934,-203.78346816842998,-296.83650611378226
138894.0,20217.0,138894.0,30830.0,138894.0,23487.0,-388.83482989840445,-194.76264839137028,-286.24112460813944
138894.0,20241.0,138894.0,30847.0,138894.0,23502.0,-378.5277873045297,-185.46120717127297,-275.2575617712533
138894.0,20261.0,138894.0,30888.0,138894.0,23530.0,-367.68281132351945,-175.89320768792751,-263.9010012961898
138894.0,20290.0,138894.0,30884.0,138894.0,23540.0,-356.30823291662455,-166.07375263669263,-252.18786587567612
138905.0,20291.0,138905.0,30890.0,138905.0,23558.0,-344.41393337134616,-156.01868924532022,-240.13558539899603
138905.0,20281.0,138905.0,30890.0,138905.0,23549.0,-332.0111866195551,-145.7445774676392,-227.76249414839145
138905.0,20292.0,138905.0,30885.0,138905.0,23571.0,-319.1128402227882,-135.26891881688994,-215.08791714199253
138905.0,20327.0,138905.0,30956.0,138905.0,23592.0,-305.7336363322555,-124.6103619792644,-202.1323175338836
138905.0,20346.0,138905.0,30963.0,138905.0,23619.0,-291.890277578987,-113.78851834647493,-188.91727576343973
138905.0,20369.0,138905.0,30982.0,138905.0,23638.0,-277.6011908690801,-102.82340710245833,-175.4652613401157
138915.0,20376.0,138915.0,30981.0,138915.0,23643.0,-262.8862637693065,-91.73502099713157,-161.79937870065635
138915.0,20393.0,138915.0,30967.0,138915.0,23667.0,-247.76673704622726,-80.54330357833155,-147.94324628665888
138915.0,20412.0,138915.0,30992.0,138915.0,23682.0,-232.26522033599235,-69.26843200129107,-133.92096964470167
138915.0,20436.0,138915.0,31027.0,138915.0,23711.0,-216.40569466711673,-57.93106275853083,-119.75706410051373
138915.0,20457.0,138915.0,31057.0,138915.0,23745.0,-200.2134201545848,-46.55218147628841,-105.47624325482039
138915.0,20483.0,138915.0,31078.0,138915.0,23738.0,-183.71477237319692,-35.15260265526021,-91.10311905437902
138925.0,20487.0,138925.0,31050.0,138925.0,23746.0,-166.9370855177787,-23.752543660935856,-76.66205143856843
138925.0,20500.0,138925.0,31051.0,138925.0,23757.0,-149.90861887212776,-12.37166691750187,-62.177302590894215
138925.0,20535.0,138925.0,31087.0,138925.0,23798.0,-132.6586477242845,-1.0294945350362923,-47.6732481110553
138925.0,20560.0,138925.0,31130.0,138925.0,23822.0,-115.21746329757849,10.254412385521903,-33.17430635883295
138925.0,20592.0,138925.0,31132.0,138925.0,23840.0,-97.61615123093102,21.460809913685694,-18.704599346198165
138925.0,20617.0,138925.0,31162.0,138925.0,23842.0,-79.88625893339452,32.571281065761724,-4.2876519942273035
138936.0,20615.0,138936.0,31121.0,138936.0,23856.0,-62.05953091968928,43.56846066851392,10.053654486610412
138936.0,20646.0,138936.0,31140.0,138936.0,23868.0,-44.167848719871074,54.435832220878865,24.296946684493776
138936.0,20676.0,138936.0,31169.0,138936.0,23894.0,-26.24327922061667,65.15731588037153,38.4202416338278
138936.0,20698.0,138936.0,31183.0,138936.0,23928.0,-8.317981487836732,75.71712166313964,52.40200255127337
138936.0,20723.0,138936.0,31215.0,138936.0,23926.0,9.5760269439034,86.09998575659623,66.22136837263207
138936.0,20763.0,138936.0,31223.0,138936.0,23948.0,27.407119884828717,96.29152939533097,79.8583513675971
138946.0,20759.0,138946.0,31212.0,138946.0,23947.0,45.14431527441377,106.27850806389876,93.29384363349715
138946.0,20787.0,138946.0,31210.0,138946.0,23956.0,62.757428749658686,116.04875518973779,106.50947966164154
138946.0,20805.0,138946.0,31230.0,138946.0,23999.0,80.21706221720063,125.5908612311461,119.48749725755209
138946.0,20839.0,138946.0,31270.0,138946.0,24016.0,97.49461054168074,134.89398520624889,132.21081192601577
138946.0,20850.0,138946.0,31279.0,138946.0,24034.0,114.56240467852325,143.9480742600706,144.66333767533354
138946.0,20878.0,138946.0,31254.0,138946.0,24025.0,131.39388694406853,152.74421032348647,156.83024921086053
138956.0,20886.0,138956.0,31259.0,138956.0,24047.0,147.96372015616708,161.27458028271582,168.6979674757638
138956.0,20900.0,138956.0,31277.0,138956.0,24044.0,164.24780722063593,169.5321003051584,180.2539823479077
138956.0,20923.0,138956.0,31307.0,138956.0,24068.0,180.22323412729656,177.51020455483672,191.48669709370654
138956.0,20966.0,138956.0,31325.0,138956.0,24082.0,195.86828082136486,185.20304744669318,202.3853739121521
138956.0,20966.0,138956.0,31317.0,138956.0,24096.0,211.162634257857,192.60587680561974,212.94019713633412
138956.0,20971.0,138956.0,31305.0,138956.0,24096.0,226.08760197011514,199.71517539741984,223.14236539730717
138967.0,20974.0,138967.0,31296.0,138967.0,24102.0,240.62603134742454,206.52839694569712,232.98406736128368
138967.0,20999.0,138967.0,31312.0,138967.0,24135.0,254.76202224919643,213.04350317155797,242.45838180078886
138967.0,21027.0,138967.0,31355.0,138967.0,24149.0,268.4807654044754,219.25871882979118,251.55932891025253
138967.0,21041.0,138967.0,31368.0,138967.0,24156.0,281.7686507986998,225.17277396489868,260.2821135645724
138967.0,21048.0,138967.0,31351.0,138967.0,24164.0,294.61347248844083,230.7853885734081,268.6233259619355
138967.0,21044.0,138967.0,31345.0,138967.0,24148.0,307.00446720151695,236.09745128291365,276.5809298129663
138977.0,21068.0,138977.0,31326.0,138977.0,24153.0,318.9321425970435,241.11071801647472,284.1540280694266
138977.0,21082.0,138977.0,31344.0,138977.0,24173.0,330.38810802697105,245.82732000882788,291.3425438751314
138977.0,21107.0,138977.0,31385.0,138977.0,24182.0,341.3650983387761,250.24949800925788,298.1470758084814
138977.0,21116.0,138977.0,31374.0,138977.0,24185.0,351.8571525415214,254.3797933094541,304.56896789648624
138977.0,21122.0,138977.0,31374.0,138977.0,24193.0,361.859781625432,258.22140208446194,310.61038391581997
138977.0,21111.0,138977.0,31372.0,138977.0,24184.0,371.36996787776684,261.7782538159331,316.27426856237514
138987.0,21126.0,138987.0,31347.0,138987.0,24188.0,380.3859513201529,265.0547954803773,321.56419946839674
138987.0,21139.0,138987.0,31371.0,138987.0,24202.0,388.90697538470215,268.0556574415537,326.4841987811167
138987.0,21162.0,138987.0,31382.0,138987.0,24218.0,396.9332246171547,270.7854255403112,331.0386721585387
138987.0,21160.0,138987.0,31418.0,138987.0,24217.0,404.46596050494645,273.2487721992904,335.2325337415041
138987.0,21158.0,138987.0,31404.0,138987.0,24204.0,411.50762876856004,275.4508897288522,339.0713125642985
138987.0,21166.0,138987.0,31364.0,138987.0,24198.0,418.0617761784413,277.3977723671619,342.5610176365716
138998.0,21151.0,138998.0,31373.0,138998.0,24210.0,424.13283550832386,279.0959644024735,345.70782830285543
138998.0,21170.0,138998.0,31394.0,138998.0,24235.0,429.7258796999414,280.5520676252796,348.51792134139794
138998.0,21191.0,138998.0,31392.0,138998.0,24226.0,434.8464725940212,281.77259073357635,350.99759650218846
138998.0,21186.0,138998.0,31400.0,138998.0,24218.0,439.5007455839011,282.76413036218196,353.15345743860917
138998.0,21188.0,138998.0,31359.0,138998.0,24225.0,443.6955462100585,283.53345854518113,354.99237057938524
138998.0,21178.0,138998.0,31355.0,138998.0,24213.0,447.4384035090268,284.08725533958096,356.5212806528883
139007.0,21180.0,139007.0,31367.0,139007.0,24240.0,450.7373139441323,284.4316199601256,357.7470829919697
139007.0,21200.0,139007.0,31405.0,139007.0,24231.0,453.60053385940535,284.5718438826436,358.6766414402906
139007.0,21210.0,139007.0,31419.0,139007.0,24244.0,456.0365745013672,284.5127472544623,359.3169192580756
139007.0,21221.0,139007.0,31410.0,139007.0,24241.0,458.05442362694134,284.25930118829973,359.6751054290252
139007.0,21194.0,139007.0,31373.0,139007.0,24241.0,459.66376069336286,283.8169650898018,359.75868150156674
139007.0,21189.0,139007.0,31361.0,139007.0,24227.0,460.87489011288164,283.1914332735015,359.57540444689147
139017.0,21204.0,139017.0,31370.0,139017.0,24235.0,461.698432734981,282.38805782406,359.13318100820413
139017.0,21198.0,139017.0,31414.0,139017.0,24247.0,462.14511116311314,281.4115485679843,358.4399587622255
139017.0,21206.0,139017.0,31414.0,139017.0,24230.0,462.22574998856726,280.26627378054684,357.5037591090873
139017.0,21204.0,139017.0,31404.0,139017.0,24222.0,461.9513327463271,278.95683565468977,356.332700155676
139017.0,21191.0,139017.0,31383.0,139017.0,24215.0,461.3330079860639,277.48833957885046,354.93482709959983
139017.0,21185.0,139017.0,31370.0,139017.0,24225.0,460.38198136851963,275.8661891033454,353.3178753240516
139028.0,21189.0,139028.0,31366.0,139028.0,24240.0,459.1093096185025,274.0956654678781,351.489214862865
139028.0,21200.0,139028.0,31422.0,139028.0,24256.0,457.5257760853426,272.18169423928384,349.4560771721132
139028.0,21207.0,139028.0,31403.0,139028.0,24239.0,455.6419811199821,270.12910244829646,347.2259304020089
139028.0,21191.0,139028.0,31382.0,139028.0,24223.0,453.46854370991423,267.94308679099134,344.8066831843741
139028.0,21179.0,139028.0,31347.0,139028.0,24214.0,451.0161630870582,265.6292350278195,342.20653455780223
139028.0,21182.0,139028.0,31365.0,139028.0,24212.0,448.2954549686988,263.193035653522,339.4336478632903
139038.0,21198.0,139038.0,31378.0,139038.0,24207.0,445.31679886189715,260.639472657761,336.49590738467543
139038.0,21195.0,139038.0,31405.0,139038.0,24216.0,442.0904288163804,257.97313827814304,333.4008283036173
139038.0,21188.0,139038.0,31390.0,139038.0,24228.0,438.62665800916966,255.1987178761578,330.1556257868456
139038.0,21174.0,139038.0,31349.0,139038.0,24199.0,434.93596969761074,252.32132264062943,326.7673903454837
139038.0,21165.0,139038.0,31352.0,139038.0,24193.0,431.0288932578401,249.3462976004716,323.24312638590095
139038.0,21154.0,139038.0,31340.0,139038.0,24198.0,426.915768180721,246.2787314394467,319.5895586083711
139048.0,21161.0,139048.0,31366.0,139048.0,24214.0,422.6065312766792,243.12316375539865,315.8130075620394
139048.0,21173.0,139048.0,31373.0,139048.0,24205.0,418.1106684179286,239.88368590333891,311.91954460601005
139048.0,21157.0,139048.0,31386.0,139048.0,24192.0,413.43736894791175,236.56433206526458,307.91520953351863
139048.0,21141.0,139048.0,31343.0,139048.0,24185.0,408.5956618651014,233.16945482882363,303.8060194831939
139048.0,21142.0,139048.0,31323.0,139048.0,24178.0,403.59432908785845,229.70369254003515,299.59780132131567
139048.0,21140.0,139048.0,31333.0,139048.0,24183.0,398.44173919269974,226.17151614754226,295.2960415788024
139059.0,21148.0,139059.0,31369.0,139059.0,24201.0,393.14583204691496,222.57691191425175,290.9059035110397
139059.0,21152.0,139059.0,31362.0,139059.0,24194.0,387.71428239705165,218.92362685826927,286.4324596718101
139059.0,21137.0,139059.0,31351.0,139059.0,24177.0,382.15472882642644,215.21566513999088,281.8809597210985
139059.0,21135.0,139059.0,31324.0,139059.0,24173.0,376.47490593365825,211.45747065291187,277.2568722406797
139059.0,21114.0,139059.0,31319.0,139059.0,24166.0,370.68260460588897,207.653682358321,272.56573074266015
139059.0,21120.0,139059.0,31335.0,139059.0,24177.0,364.78553299063435,203.80879815888574,267.8130204700283
139069.0,21125.0,139069.0,31326.0,139069.0,24173.0,358.7912337416285,199.92708917231775,263.004231281507
139069.0,21116.0,139069.0,31337.0,139069.0,24168.0,352.7071685943636,196.01275414248653,258.1450096604648
139069.0,21104.0,139069.0,31334.0,139069.0,24154.0,346.5408546749058,192.07011957182522,253.24124372403088
139069.0,21096.0,139069.0,31287.0,139069.0,24149.0,340.2998640938997,188.10372151590764,248.2989980766776
139069.0,21084.0,139069.0,31304.0,139069.0,24142.0,333.99169872495634,184.11810295525783,243.32437117210208
139069.0,21089.0,139069.0,31311.0,139069.0,24148.0,327.623665393893,180.11750266308087,238.32339843540734
139079.0,21089.0,139079.0,31333.0,139079.0,24160.0,321.2028584944924,176.10588671270116,233.30210415877906
139079.0,21085.0,139079.0,31327.0,139079.0,24146.0,314.73627812642826,172.0873528426418,228.26671006924647
139079.0,21075.0,139079.0,31293.0,139079.0,24108.0,308.2309742438863,168.06648256671352,223.22375954957027
139079.0,21053.0,139079.0,31281.0,139079.0,24116.0,301.69406480830384,164.04827257677746,218.1799002986037
139079.0,21050.0,139079.0,31290.0,139079.0,24118.0,295.1325811715181,160.0377505235427,213.14153771167128
139079.0,21044.0,139079.0,31305.0,139079.0,24122.0,288.553259859985,156.0397566612883,208.11475541728203
139090.0,21072.0,139090.0,31303.0,139090.0,24122.0,281.9625011194753,152.05911582829933,203.10549466936845
139090.0,21050.0,139090.0,31292.0,139090.0,24101.0,275.3665951880399,148.10094056952767,198.11972729002642
139090.0,21033.0,139090.0,31285.0,139090.0,24110.0,268.7719813367873,144.17075359002823,193.16347423733518
139090.0,21044.0,139090.0,31261.0,139090.0,24088.0,262.1852662706815,140.27437270795258,188.2427201972291
139090.0,21027.0,139090.0,31270.0,139090.0,24093.0,255.61313726871163,136.41766538640877,183.36331709623232
139090.0,21028.0,139090.0,31282.0,139090.0,24101.0,249.06236412642227,132.60638312494882,178.5309350302167
139100.0,21039.0,139100.0,31278.0,139100.0,24102.0,242.5398633761051,128.84625765653885,173.75115958204367
139100.0,21022.0,139100.0,31260.0,139100.0,24085.0,236.0528346828682,125.14320698459031,169.02968677398405
139100.0,21006.0,139100.0,31247.0,139100.0,24074.0,229.60888217118338,121.50333334956744,164.37237667396715
139100.0,20984.0,139100.0,31225.0,139100.0,24064.0,223.21590795786662,117.93264817505805,159.78508654584246
139100.0,20986.0,139100.0,31248.0,139100.0,24084.0,216.8818100262538,114.43672819416359,155.27348370332396
139100.0,20987.0,139100.0,31264.0,139100.0,24069.0,210.61424929556642,111.02062231219712,150.84305239338858
139110.0,20987.0,139110.0,31260.0,139110.0,24087.0,204.42064955349562,107.68914259094782,146.49926619371897
139110.0,20963.0,139110.0,31238.0,139110.0,24054.0,198.30830858152225,104.44721539378007,142.24774158676405
139110.0,20972.0,139110.0,31225.0,139110.0,24048.0,192.28440774196125,101.2998938603703,138.09420861063958
139110.0,20946.0,139110.0,31217.0,139110.0,24045.0,186.35591371892886,98.25205583577926,134.0442801921364
139110.0,20960.0,139110.0,31216.0,139110.0,24056.0,180.52947943855207,95.30807648461963,130.10325270582868
139110.0,20956.0,139110.0,31227.0,139110.0,24049.0,174.8114228686127,92.471675784162,126.27613185620359
139121.0,20969.0,139121.0,31233.0,139121.0,24043.0,169.20786038324633,89.74599337341824,122.56776026492547
139121.0,20947.0,139121.0,31233.0,139121.0,24036.0,163.7249378220176,87.13381980686016,118.9828482761237
139121.0,20927.0,139121.0,31211.0,139121.0,24045.0,158.3689202444881,84.63778173679498,115.52591996440236
139121.0,20923.0,139121.0,31203.0,139121.0,24029.0,153.1460025677755,82.26028463191112,112.20129359246371
139121.0,20938.0,139121.0,31215.0,139121.0,24037.0,148.06205944713773,80.00327972980503,109.01309232458618
139121.0,20937.0,139121.0,31249.0,139121.0,24031.0,143.1226519241721,77.86821334479365,105.9652405343759
139131.0,20920.0,139131.0,31218.0,139131.0,24024.0,138.33323196484506,75.85633048338964,103.0614617628611
139131.0,20911.0,139131.0,31198.0,139131.0,24019.0,133.69922091109595,73.9689279747551,100.30524177316246
139131.0,20895.0,139131.0,31207.0,139131.0,24012.0,129.22584834070653,72.2071806629512,97.69972217860827
139131.0,20903.0,139131.0,31195.0,139131.0,24025.0,124.91791305852118,70.57180775038054,95.24760143377108
139131.0,20903.0,139131.0,31213.0,139131.0,24003.0,120.77966437621447,69.0629354314656,92.95111189411544
139131.0,20909.0,139131.0,31238.0,139131.0,24023.0,116.81487638029724,67.68021448284458,90.81202428815867
139142.0,20900.0,139142.0,31204.0,139142.0,24022.0,113.02701791148337,66.4231239978715,88.83167750604233
139142.0,20885.0,139142.0,31205.0,139142.0,24010.0,109.41934004438636,65.29114962153534,87.01107816787888
139142.0,20874.0,139142.0,31170.0,139142.0,24011.0,105.994767626153,64.28356917066057,85.35094648101244
139142.0,20890.0,139142.0,31210.0,139142.0,23995.0,102.75568988429353,63.399056124601074,83.85160919111806
139142.0,20896.0,139142.0,31233.0,139142.0,24009.0,99.70391309361821,62.63557860997126,82.51283674317274
139142.0,20892.0,139142.0,31222.0,139142.0,24011.0,96.84085414975326,61.990778080948374,81.33377035086451
139152.0,20884.0,139152.0,31208.0,139152.0,23997.0,94.16774428527508,61.46239063462194,80.31296731468856
139152.0,20881.0,139152.0,31202.0,139152.0,24005.0,91.68565669817553,61.04825772135113,79.44841890902319
139152.0,20854.0,139152.0,31192.0,139152.0,24009.0,89.39537019442744,60.746043697776784,78.73750243403407
139152.0,20878.0,139152.0,31203.0,139152.0,24023.0,87.29714368868386,60.55296385235471,78.17702939433846
139152.0,20878.0,139152.0,31232.0,139152.0,24031.0,85.39058974580404,60.46572535360071,77.76345464686412
139152.0,20882.0,139152.0,31231.0,139152.0,24025.0,83.67479083940445,60.480788468209916,77.49313733764207
139162.0,20876.0,139162.0,31213.0,139162.0,24000.0,82.14849441786083,60.59472756766618,77.36244529640351
139162.0,20865.0,139162.0,31190.0,139162.0,24013.0,80.81016824410013,60.804265030543306,77.36757955912
139162.0,20873.0,139162.0,31188.0,139162.0,24008.0,79.65790997735536,61.10589113136558,77.50430936687536
139162.0,20867.0,139162.0,31215.0,139162.0,24026.0,78.68934258837423,61.4954504844554,77.76788287319579
139162.0,20878.0,139162.0,31236.0,139162.0,24030.0,77.90159483256427,61.96812823530944,78.15314203006227
139162.0,20884.0,139162.0,31239.0,139162.0,24020.0,77.29137697650371,62.518860418641154,78.65470216873817
139173.0,20865.0,139173.0,31205.0,139173.0,24026.0,76.85509115817675,63.14272544107949,79.26702644831337
139173.0,20860.0,139173.0,31210.0,139173.0,24015.0,76.58881054164836,63.83490401043319,79.98435487079189
139173.0,20867.0,139173.0,31202.0,139173.0,24026.0,76.48808083750097,64.59031897510125,80.80058922809292
139173.0,20872.0,139173.0,31234.0,139173.0,24032.0,76.54776692645889,65.40338628406508,81.70923737802161
139173.0,20895.0,139173.0,31260.0,139173.0,24040.0,76.76212281840992,66.2681585304348,82.70347978206505
139173.0,20877.0,139173.0,31244.0,139173.0,24040.0,77.12502035320625,67.1787924509812,83.77631601628883
139183.0,20879.0,139183.0,31212.0,139183.0,24033.0,77.63010814668093,68.12986701975787,84.92065790892815
139183.0,20866.0,139183.0,31208.0,139183.0,24038.0,78.27074110488701,69.11614960280723,86.12929667646117
139183.0,20867.0,139183.0,31229.0,139183.0,24050.0,79.03975963744097,70.13209164775246,87.394833330793
139183.0,20901.0,139183.0,31256.0,139183.0,24056.0,79.92934139565918,71.1716632203478,88.70972436966397
139183.0,20898.0,139183.0,31263.0,139183.0,24061.0,80.93113016346825,72.22869251378468,90.06644298881383
139183.0,20895.0,139183.0,31255.0,139183.0,24057.0,82.03654501410128,73.29734423001477,91.45762046920386
139193.0,20896.0,139193.0,31226.0,139193.0,24047.0,83.23694013419416,74.37228978641585,92.87605465309642
139193.0,20892.0,139193.0,31229.0,139193.0,24060.0,84.52355083165102,75.44844001684073,94.31458574712485
139193.0,20908.0,139193.0,31250.0,139193.0,24055.0,85.88741016468968,76.52055624140381,95.76597325178645
139193.0,20906.0,139193.0,31252.0,139193.0,24076.0,87.31935992282874,77.58315675861448,97.22289162564013
139193.0,20925.0,139193.0,31248.0,139193.0,24073.0,88.81016636802693,78.63069262273422,98.67804289477888
139193.0,20930.0,139193.0,31262.0,139193.0,24068.0,90.35070865109273,79.65769134886932,100.12428728120835
139204.0,20908.0,139204.0,31261.0,139204.0,24073.0,91.93214710845973,80.65882622520006,101.55466054328926
139204.0,20908.0,139204.0,31254.0,139204.0,24070.0,93.5458794798691,81.6289842614081,102.96229040111825
139204.0,20932.0,139204.0,31250.0,139204.0,24092.0,95.18332378365298,82.56324390154545,104.34035595626882
139204.0,20933.0,139204.0,31282.0,139204.0,24127.0,96.83586811365352,83.4567930224409,105.68225627252963
139204.0,20934.0,139204.0,31284.0,139204.0,24091.0,98.49504834700528,84.30503629374144,106.98200047757902
139204.0,20933.0,139204.0,31268.0,139204.0,24086.0,100.15268083845052,85.10387383983152,108.23443104176502
139214.0,20929.0,139214.0,31252.0,139214.0,24080.0,101.80083502161085,85.84976886791375,109.43499103439657
139214.0,20923.0,139214.0,31269.0,139214.0,24081.0,103.43170689328961,86.53949511353652,110.5793269412733
139214.0,20953.0,139214.0,31290.0,139214.0,24107.0,105.03749684811254,87.1699547966545,111.66309551115384
139214.0,20956.0,139214.0,31288.0,139214.0,24103.0,106.6104722273412,87.73834849008446,112.68205369924641
139214.0,20961.0,139214.0,31266.0,139214.0,24102.0,108.14323102252887,88.24243593992787,113.63227197414881
139214.0,20963.0,139214.0,31270.0,139214.0,24104.0,109.62893627757846,88.68050949149938,114.51023232463393
139224.0,20950.0,139224.0,31250.0,139224.0,24084.0,111.06137571797791,89.05111054905969,115.3127524043598
139224.0,20956.0,139224.0,31263.0,139224.0,24099.0,112.43486504048568,89.35272792580713,116.03680473510687
139224.0,20956.0,139224.0,31277.0,139224.0,24097.0,113.74409220327796,89.58364610338475,116.67935047262219
139224.0,20973.0,139224.0,31291.0,139224.0,24118.0,114.98405265672761,89.7420628504197,117.23733758953325
139224.0,20960.0,139224.0,31302.0,139224.0,24101.0,116.15011413776567,89.82643375565848,117.70784333629413
139224.0,20948.0,139224.0,31263.0,139224.0,24091.0,117.23803917353884,89.83576850446539,118.08813846891746
139235.0,20952.0,139235.0,31249.0,139235.0,24117.0,118.24381164206429,89.76954098518627,118.37557417529374
139235.0,20955.0,139235.0,31277.0,139235.0,24110.0,119.16339704642229,89.62725777992293,118.56752046832835
139235.0,20980.0,139235.0,31294.0,139235.0,24129.0,119.99268352770392,89.40823955820258,118.66150993374403
139235.0,20980.0,139235.0,31289.0,139235.0,24119.0,120.72767255374438,89.1118825214518,118.65544120827117
139235.0,20974.0,139235.0,31275.0,139235.0,24118.0,121.36474942204833,88.73798303288257,118.54769048676668
139235.0,20967.0,139235.0,31261.0,139235.0,24112.0,121.90077871493492,88.2867207059991,118.33708053136213
139245.0,20967.0,139245.0,31258.0,139245.0,24111.0,122.33297827666398,87.75835662199013,118.02274973319936
139245.0,20958.0,139245.0,31278.0,139245.0,24123.0,122.65872359333343,87.15295225383181,117.60404471232638
139245.0,20975.0,139245.0,31279.0,139245.0,24114.0,122.87540004305312,86.47035396099737,117.08051743317074
139245.0,20980.0,139245.0,31292.0,139245.0,24129.0,122.98039012250553,85.71041876813841,116.4519924533962
139245.0,20973.0,139245.0,31266.0,139245.0,24112.0,122.97119978154313,84.8732385843775,115.71862741827762
139245.0,20967.0,139245.0,31255.0,139245.0,24096.0,122.84553979107216,83.95912001928853,114.88086764351115
139255.0,20966.0,139255.0,31253.0,139255.0,24097.0,122.60123877713616,82.96829146086789,113.93920978598129
139255.0,20981.0,139255.0,31281.0,139255.0,24113.0,122.23612358428174,81.9006369178199,112.8939385114382
139255.0,20980.0,139255.0,31292.0,139255.0,24124.0,121.74804512582806,80.75579255751455,111.74512756002913
139255.0,20986.0,139255.0,31280.0,139255.0,24106.0,121.1350295533311,79.53352904068105,110.49286674966828
139255.0,20972.0,139255.0,31262.0,139255.0,24105.0,120.39539493921473,78.23399265658249,109.13738707066071
139255.0,20970.0,139255.0,31268.0,139255.0,24099.0,119.5277222304096,76.85759277299431,107.67895434922514
139266.0,20970.0,139266.0,31279.0,139266.0,24100.0,118.53071290646997,75.40480272638864,106.11770146470826
139266.0,20983.0,139266.0,31274.0,139266.0,24126.0,117.40309123877238,73.87616757901775,104.45358934214262
139266.0,20984.0,139266.0,31291.0,139266.0,24126.0,116.14367261594691,72.27247218164726,102.68659992497382
139266.0,20992.0,139266.0,31252.0,139266.0,24122.0,114.75155142999543,70.5948711983679,100.81706398763315
139266.0,20975.0,139266.0,31246.0,139266.0,24105.0,113.22626285108984,68.84478274255474,98.84583439333609
139266.0,20965.0,139266.0,31239.0,139266.0,24103.0,111.56777483430206,67.0235152322984,96.77417931329805
139276.0,20983.0,139276.0,31261.0,139276.0,24110.0,109.77632656230719,65.13193907534003,94.60357549062492
139276.0,20993.0,139276.0,31280.0,139276.0,24107.0,107.85237843229253,63.17053098595537,92.33562614169158
139276.0,20978.0,139276.0,31283.0,139276.0,24116.0,105.79679702537787,61.13977471473731,89.9721297560575
139276.0,20962.0,139276.0,31249.0,139276.0,24113.0,103.61098362666377,59.040555926160174,87.51520665105963
139276.0,20967.0,139276.0,31248.0,139276.0,24080.0,101.29672972894407,56.874166697574694,84.96735370317828
139276.0,20955.0,139276.0,31264.0,139276.0,24093.0,98.8559816096057,54.642028890643736,82.33128350320894
139286.0,20966.0,139286.0,31267.0,139286.0,24091.0,96.29071427248023,52.34559978524816,79.60967130224273
139286.0,20980.0,139286.0,31262.0,139286.0,24094.0,93.60296326194674,49.98655706878937,76.80508488788001
139286.0,20979.0,139286.0,31260.0,139286.0,24099.0,90.79503856847592,47.56697374058645,73.92009123347023
139286.0,20952.0,139286.0,31258.0,139286.0,24083.0,87.86975663567745,45.089351333074354,70.95737186752683
139286.0,20945.0,139286.0,31227.0,139286.0,24080.0,84.8303949288518,42.556541737178904,67.91973152674564
139286.0,20935.0,139286.0,31217.0,139286.0,24059.0,81.68037504503553,39.971486722093886,64.80994941237486
139297.0,20948.0,139297.0,31251.0,139297.0,24093.0,78.42297377095332,37.336872198573374,61.63059033583825
139297.0,20953.0,139297.0,31262.0,139297.0,24085.0,75.06128054196877,34.65511401846577,58.38402255783261
139297.0,20961.0,139297.0,31244.0,139297.0,24080.0,71.59839512482974,31.92874605298833,55.072652355498874
139297.0,20936.0,139297.0,31225.0,139297.0,24059.0,68.0376691210325,29.16069239655657,51.699051444032406
139297.0,20914.0,139297.0,31218.0,139297.0,24067.0,64.38270786734367,26.35410791161604,48.26582337073883
139297.0,20940.0,139297.0,31220.0,139297.0,24059.0,60.63710429236055,23.512042008488223,44.77541926496501
139307.0,20942.0,139307.0,31245.0,139307.0,24084.0,56.80429114326459,20.637301971808085,41.230121421871516
139307.0,20939.0,139307.0,31255.0,139307.0,24080.0,52.887732051761624,17.73267763283392,37.632245233000106
139307.0,20926.0,139307.0,31225.0,139307.0,24070.0,48.891157887308395,14.801341111897308,33.9844258213934
139307.0,20916.0,139307.0,31176.0,139307.0,24047.0,44.818573057141194,11.846907513011992,30.28971407740964
139307.0,20902.0,139307.0,31197.0,139307.0,24038.0,40.674070081945295,8.87292374063459,26.55135653806181
139307.0,20910.0,139307.0,31210.0,139307.0,24060.0,36.46160409742808,5.882323634316805,22.772487692636354
139317.0,20904.0,139317.0,31226.0,139317.0,24051.0,32.18487488258303,2.8774402361354348,18.956064477339766
139317.0,20913.0,139317.0,31224.0,139317.0,24057.0,27.847368903986904,-0.13956251663402952,15.105044881716168
139317.0,20906.0,139317.0,31210.0,139317.0,24030.0,23.452492449021648,-3.166314326905777,11.222525225331246
139317.0,20900.0,139317.0,31179.0,139317.0,24028.0,19.00369252334181,-6.20020472005335,7.311655896576411
139317.0,20895.0,139317.0,31177.0,139317.0,24016.0,14.504488498844765,-9.238713211574407,3.3753981888262814
139317.0,20898.0,139317.0,31201.0,139317.0,24036.0,9.958442731141218,-12.279791889522343,-0.5836673996135033
139328.0,20888.0,139328.0,31194.0,139328.0,24028.0,5.369159075213744,-15.321909912914563,-4.56331555146744
139328.0,20887.0,139328.0,31211.0,139328.0,24035.0,0.7403031120923913,-18.363784276582805,-8.561487926978856
139328.0,20878.0,139328.0,31176.0,139328.0,24024.0,-3.924410671235748,-21.404128784306998,-12.576120532528833
139328.0,20860.0,139328.0,31155.0,139328.0,23996.0,-8.621293199778847,-24.44170257101132,-16.605130414431528
139328.0,20860.0,139328.0,31169.0,139328.0,24002.0,-13.346841030572051,-27.475674405097443,-20.646624480286135
139328.0,20867.0,139328.0,31191.0,139328.0,24015.0,-18.09789152581199,-30.505889970109024,-24.699140284587287
139338.0,20878.0,139338.0,31207.0,139338.0,24012.0,-22.87158286261196,-33.53265359789431,-28.761623375888007
139338.0,20873.0,139338.0,31180.0,139338.0,24009.0,-27.665100769935933,-36.556236951001296,-32.83320803599675
139338.0,20838.0,139338.0,31175.0,139338.0,23991.0,-32.47547314787583,-39.57662867362791,-36.91309691035411
139338.0,20831.0,139338.0,31163.0,139338.0,23984.0,-37.299698006672585,-42.59367476090328,-41.00065491112082
139338.0,20836.0,139338.0,31168.0,139338.0,24005.0,-42.13510565895315,-45.6073344213886,-45.09557171140733
139338.0,20843.0,139338.0,31163.0,139338.0,24005.0,-46.979554564021726,-48.61781263717921,-49.19782774392358
139348.0,20849.0,139348.0,31185.0,139348.0,24004.0,-51.83130103561683,-51.62552489976386,-53.30743335984296
139348.0,20825.0,139348.0,31174.0,139348.0,23991.0,-56.68875942164516,-54.63090828198368,-57.42420625838852
139348.0,20834.0,139348.0,31142.0,139348.0,23981.0,-61.55040982727394,-57.634260969464705,-61.54776527693484
139348.0,20810.0,139348.0,31136.0,139348.0,23960.0,-66.41487367200287,-60.6359016537408,-65.67771828755012
139348.0,20811.0,139348.0,31155.0,139348.0,23980.0,-71.2810498731398,-63.6365354479032,-69.81391874023313
139348.0,20821.0,139348.0,31167.0,139348.0,23978.0,-76.14822467963936,-66.63735276243186,-73.95656825461711
139359.0,20834.0,139359.0,31173.0,139359.0,23992.0,-81.01599936577594,-69.6397255290618,-78.106049912788
139359.0,20802.0,139359.0,31145.0,139359.0,23973.0,-85.88403985699753,-72.64485084033302,-82.26265616991029
139359.0,20799.0,139359.0,31139.0,139359.0,23964.0,-90.7519720982769,-75.65370420937055,-86.42646433816805
139359.0,20788.0,139359.0,31107.0,139359.0,23953.0,-95.61956281359477,-78.66734288648799,-90.59745070386202
139359.0,20803.0,139359.0,31157.0,139359.0,23950.0,-100.4869185377888,-81.687273854394,-94.77571780420172
139359.0,20810.0,139359.0,31168.0,139359.0,23945.0,-105.35444389158957,-84.71544327123505,-98.96167094157951
139369.0,20799.0,139369.0,31133.0,139369.0,23964.0,-110.2225914772022,-87.7538048154893,-103.1560609578288
139369.0,20794.0,139369.0,31145.0,139369.0,23950.0,-115.09164825409425,-90.80402744299758,-107.35986289972175
139369.0,20777.0,139369.0,31141.0,139369.0,23942.0,-119.96172837559786,-93.86756308163993,-111.57411804718046
139369.0,20773.0,139369.0,31107.0,139369.0,23941.0,-124.83292593263786,-96.94578481942287,-115.7999234328255
139369.0,20780.0,139369.0,31153.0,139369.0,23955.0,-129.7054737977031,-100.04011256532905,-120.03847977683319
139369.0,20773.0,139369.0,31140.0,139369.0,23949.0,-134.5797689285483,-103.15200876198753,-124.29099138369526
139379.0,20761.0,139379.0,31130.0,139379.0,23934.0,-139.45630662211263,-106.28274899069132,-128.55849486486437
139379.0,20778.0,139379.0,31128.0,139379.0,23929.0,-144.33565120092908,-109.43328109957764,-132.84184735377903
139379.0,20745.0,139379.0,31115.0,139379.0,23936.0,-149.2184249036955,-112.60432054655158,-137.14184989597226
139379.0,20741.0,139379.0,31096.0,139379.0,23928.0,-154.10535948406897,-115.79654431347828,-141.45929551993166
139379.0,20747.0,139379.0,31124.0,139379.0,23918.0,-158.99747525589333,-119.01080039378948,-145.7949338676886
139379.0,20765.0,139379.0,31144.0,139379.0,23935.0,-163.8961487618556,-122.24809807901352,-150.14946164051042
139390.0,20756.0,139390.0,31116.0,139390.0,23925.0,-168.80288285145545,-125.5092596188401,-154.52347003017627
139390.0,20747.0,139390.0,31100.0,139390.0,23900.0,-173.71900983011193,-128.79466427688087,-158.917359233164
139390.0,20740.0,139390.0,31101.0,139390.0,23897.0,-178.64560083625247,-132.10441259988698,-163.33144263784428
139390.0,20717.0,139390.0,31091.0,139390.0,23909.0,-183.5835854526057,-135.43863363859066,-167.76618805418406
139390.0,20734.0,139390.0,31105.0,139390.0,23918.0,-188.5339499750646,-138.79762548563141,-172.22225194292972
139390.0,20729.0,139390.0,31134.0,139390.0,23908.0,-193.49783419672409,-142.18174210523063,-176.7002459178187
139400.0,20724.0,139400.0,31091.0,139400.0,23910.0,-198.47644572610477,-145.59106692126994,-181.20050263272444
139400.0,20713.0,139400.0,31063.0,139400.0,23876.0,-203.47096179564767,-149.02528396964402,-185.723041384786
139400.0,20701.0,139400.0,31072.0,139400.0,23870.0,-208.48257839612646,-152.48405624121568,-190.26778199259132
139400.0,20709.0,139400.0,31084.0,139400.0,23886.0,-213.51264396377204,-155.96746802885673,-194.83486528660072
139400.0,20716.0,139400.0,31102.0,139400.0,23895.0,-218.56269342282545,-159.47600511971038,-199.42473617999687
139400.0,20716.0,139400.0,31097.0,139400.0,23889.0,-223.63428135461996,-163.01016592095274,-204.0378921768049
139410.0,20705.0,139410.0,31085.0,139410.0,23874.0,-228.7287457874506,-166.57010015580113,-208.67462109983663
139410.0,20692.0,139410.0,31063.0,139410.0,23855.0,-233.8471170737704,-170.15554831969789,-213.3350133691248
139410.0,20673.0,139410.0,31047.0,139410.0,23863.0,-238.9902466903677,-173.76610820122937,-218.0191962055418
139410.0,20694.0,139410.0,31083.0,139410.0,23869.0,-244.1590304570579,-177.40157146185118,-222.72750441096542
139410.0,20695.0,139410.0,31097.0,139410.0,23877.0,-249.35445901422133,-181.06190530459148,-227.4603853482355
139410.0,20682.0,139410.0,31077.0,139410.0,23848.0,-254.57742470026892,-184.74682055157302,-232.2181757237446
139421.0,20680.0,139421.0,31063.0,139421.0,23860.0,-259.82854990571735,-188.45543611196499,-237.00103145688678
139421.0,20664.0,139421.0,31042.0,139421.0,23858.0,-265.10820484547264,-192.18639400349406,-241.80899038992362
139421.0,20652.0,139421.0,31043.0,139421.0,23839.0,-270.41664997091675,-195.93823270251025,-246.6419796281164
139421.0,20667.0,139421.0,31054.0,139421.0,23852.0,-275.75419979898163,-199.70966673652813,-251.49980798312333
139421.0,20660.0,139421.0,31065.0,139421.0,23841.0,-281.1212543460788,-203.49956209703328,-256.38218399655835
139421.0,20657.0,139421.0,31040.0,139421.0,23831.0,-286.51816780109573,-207.30669858140422,-261.28870288615815
139431.0,20645.0,139431.0,31043.0,139431.0,23831.0,-291.9451426313271,-211.12964087365046,-266.21887123045553
139431.0,20641.0,139431.0,31018.0,139431.0,23810.0,-297.4022543446175,-214.9668560174557,-271.1722098789081
139431.0,20647.0,139431.0,31045.0,139431.0,23849.0,-302.88951178694106,-218.81690328792925,-276.14832379844444
139431.0,20640.0,139431.0,31051.0,139431.0,23843.0,-308.4068295265497,-222.67843140351758,-281.1467486428754
139431.0,20648.0,139431.0,31056.0,139431.0,23841.0,-313.95390625397283,-226.5498859873194,-286.16657406073284
139431.0,20643.0,139431.0,31030.0,139431.0,23824.0,-319.5300678903632,-230.42917826555967,-291.20616755532546
139442.0,20619.0,139442.0,31001.0,139442.0,23794.0,-325.1341563648482,-234.31368742045595,-296.26323975190985
139442.0,20616.0,139442.0,31005.0,139442.0,23803.0,-330.7645915781554,-238.20064725786747,-301.3351762469595
139442.0,20619.0,139442.0,31030.0,139442.0,23814.0,-336.4195559966375,-242.08751252770605,-306.419320410631
139442.0,20619.0,139442.0,31020.0,139442.0,23827.0,-342.09706110446234,-245.97191238242036,-311.5128975961767
139442.0,20630.0,139442.0,31034.0,139442.0,23809.0,-347.79481077640315,-249.85132259758993,-316.61267191029117
139442.0,20607.0,139442.0,31019.0,139442.0,23807.0,-353.5099891313863,-253.7227905477331,-321.7147019301927
139452.0,20602.0,139452.0,30990.0,139452.0,23783.0,-359.23916519649316,-257.5828728962341,-326.81436749105876
139452.0,20592.0,139452.0,30994.0,139452.0,23781.0,-364.97839137519605,-261.42784883081595,-331.90658267563015
139452.0,20592.0,139452.0,31017.0,139452.0,23798.0,-370.72335619379527,-265.25398432159244,-336.9859927817906
139452.0,20598.0,139452.0,31020.0,139452.0,23786.0,-376.4694275317175,-269.05745491947073,-342.04695508312676
139452.0,20594.0,139452.0,31027.0,139452.0,23796.0,-382.2115500479504,-272.833953525269,-347.08334605392463
139452.0,20572.0,139452.0,30987.0,139452.0,23770.0,-387.94411635394806,-276.57838395293084,-352.0884178518483
139462.0,20567.0,139462.0,30993.0,139462.0,23764.0,-393.6610023268871,-280.28491767867513,-357.05483579964834
139462.0,20569.0,139462.0,30991.0,139462.0,23770.0,-399.35573841258525,-283.94727430457385,-361.97484851487405
139462.0,20572.0,139462.0,31024.0,139462.0,23781.0,-405.02158236403983,-287.55881106157017,-366.8403561727648
139462.0,20570.0,139462.0,31002.0,139462.0,23773.0,-410.65140862832277,-291.1122616812162,-371.64274358770285
139462.0,20561.0,139462.0,30991.0,139462.0,23761.0,-416.23755019021473,-294.5994466242106,-376.37267872481283
139462.0,20537.0,139462.0,30971.0,139462.0,23746.0,-421.77176714419465,-298.011315124861,-381.0201177445247
139473.0,20544.0,139473.0,30967.0,139473.0,23743.0,-427.2453989073093,-301.33827074663327,-385.5745047398842
139473.0,20541.0,139473.0,30966.0,139473.0,23749.0,-432.64953641717483,-304.57049539433274,-390.02496614186987
139473.0,20554.0,139473.0,30978.0,139473.0,23762.0,-437.97500412766783,-307.6980818601509,-394.36030787940456
139473.0,20550.0,139473.0,30985.0,139473.0,23744.0,-443.21215006711174,-310.7109266503804,-398.56882171719514
139473.0,20541.0,139473.0,30963.0,139473.0,23734.0,-448.35061020316135,-313.5985109084478,-402.6381480285663
139473.0,20546.0,139473.0,30931.0,139473.0,23723.0,-453.3791850423387,-316.3498895099275,-406.55538156522806
139483.0,20514.0,139483.0,30943.0,139483.0,23724.0,-458.2858470150188,-318.9540424716014,-410.30730527109574
139483.0,20528.0,139483.0,30964.0,139483.0,23736.0,-463.0578628185982,-321.40022273277305,-413.8805198282051
139483.0,20526.0,139483.0,30977.0,139483.0,23725.0,-467.6819258734968,-323.677857468821,-417.2613823410712
139483.0,20521.0,139483.0,30971.0,139483.0,23730.0,-472.1441414531223,-325.77611256630024,-420.43587601626706
139483.0,20510.0,139483.0,30951.0,139483.0,23718.0,-476.4299499141709,-327.68357998941957,-423.3895569875266
139483.0,20491.0,139483.0,30933.0,139483.0,23713.0,-480.5241928722201,-329.3883575460618,-426.107601001394
139493.0,20498.0,139493.0,30929.0,139493.0,23714.0,-484.4113268400574,-330.8784303544918,-428.57491197980835
139493.0,20510.0,139493.0,30966.0,139493.0,23716.0,-488.0755743507091,-332.14199012310695,-430.77620794188016
139493.0,20502.0,139493.0,30960.0,139493.0,23723.0,-491.5008430745645,-333.1673587157667,-432.6960018001159
139493.0,20502.0,139493.0,30961.0,139493.0,23711.0,-494.6705429594669,-333.94263780814185,-434.31851395249504
139493.0,20495.0,139493.0,30932.0,139493.0,23706.0,-497.56751035878966,-334.4555322569605,-435.62765276103755
139493.0,20480.0,139493.0,30919.0,139493.0,23698.0,-500.1740680174674,-334.69357220105593,-436.6071423520047
139504.0,20466.0,139504.0,30944.0,139504.0,23697.0,-502.47221742284137,-334.64453191801505,-437.2407294504987
139504.0,20484.0,139504.0,30944.0,139504.0,23692.0,-504.4439054017218,-334.2966350211949,-437.5123706110273
139504.0,20491.0,139504.0,30967.0,139504.0,23708.0,-506.07113079217265,-333.63839461158,-437.40634572694495
139504.0,20473.0,139504.0,30950.0,139504.0,23697.0,-507.3358209426674,-332.65832149383033,-436.90726595649477
139504.0,20466.0,139504.0,30917.0,139504.0,23691.0,-508.219772059941,-331.3448448622586,-436.0000656169006
139504.0,20454.0,139504.0,30909.0,139504.0,23683.0,-508.70485029035365,-329.686672484433,-434.6701363930556
139514.0,20467.0,139514.0,30922.0,139514.0,23674.0,-508.7732861530605,-327.67338838035636,-432.9036083934297
139514.0,20466.0,139514.0,30948.0,139514.0,23697.0,-508.4078301807836,-325.29577230842733,-430.6876267432074
139514.0,20479.0,139514.0,30944.0,139514.0,23695.0,-507.59172177164606,-322.5456612800866,-428.0104521439192
139514.0,20474.0,139514.0,30953.0,139514.0,23685.0,-506.30857299556413,-319.41566100644053,-424.86141819274536
139514.0,20471.0,139514.0,30910.0,139514.0,23692.0,-504.54230146349886,-315.89908597767715,-421.2309805912239
139514.0,20466.0,139514.0,30943.0,139514.0,23677.0,-502.27719980986063,-311.9902376952656,-417.11092334576074
139524.0,20466.0,139524.0,30945.0,139524.0,23707.0,-499.4981200461943,-307.68472985487665,-412.49457655823807
139524.0,20452.0,139524.0,30967.0,139524.0,23701.0,-496.19070650881355,-302.9795085344374,-407.3769044093258
139524.0,20478.0,139524.0,30952.0,139524.0,23727.0,-492.34162931740366,-297.8726646661327,-401.7544331926441
139524.0,20465.0,139524.0,30950.0,139524.0,23713.0,-487.93872369079565,-292.3633869705772,-395.62513491436084
139524.0,20456.0,139524.0,30935.0,139524.0,23722.0,-482.97107197508836,-286.45219909810106,-388.98841632577887
139524.0,20477.0,139524.0,30957.0,139524.0,23731.0,-477.4291886483951,-280.14134136330784,-381.84523773838356
139535.0,20474.0,139535.0,30985.0,139535.0,23760.0,-471.30521556148176,-273.4349813514426,-374.1981875993107
139535.0,20498.0,139535.0,31006.0,139535.0,23756.0,-464.5929577262376,-266.33903273624117,-366.0513731584729
139535.0,20503.0,139535.0,31010.0,139535.0,23761.0,-457.2877983553652,-258.8607319305684,-357.41028701702237
139535.0,20499.0,139535.0,31003.0,139535.0,23762.0,-449.3866107289226,-251.0083487933327,-348.28186393789986
139535.0,20511.0,139535.0,31010.0,139535.0,23774.0,-440.88779048371373,-242.7912213904009,-338.6746811936432
139535.0,20509.0,139535.0,31014.0,139535.0,23806.0,-431.7914144962157,-234.21998097600846,-328.59908771008367
139545.0,20535.0,139545.0,31061.0,139545.0,23808.0,-422.0993928430176,-225.30667952201617,-318.06712816077294
139545.0,20559.0,139545.0,31084.0,139545.0,23836.0,-411.8154762208867,-216.0645745798226,-307.0923486964863
139545.0,20558.0,139545.0,31088.0,139545.0,23853.0,-400.94509043158877,-206.50763179849395,-295.6896093915352
139545.0,20559.0,139545.0,31070.0,139545.0,23862.0,-389.4952143478149,-196.65018584439062,-283.87490297026375
139545.0,20551.0,139545.0,31063.0,139545.0,23868.0,-377.47454200608024,-186.50710532799027,-271.6652420692569
139545.0,20589.0,139545.0,31104.0,139545.0,23901.0,-364.8938253879197,-176.09425080516084,-259.07866308705576
139555.0,20619.0,139555.0,31144.0,139555.0,23921.0,-351.7660232160648,-165.42863848920956,-246.13417405456877
139555.0,20632.0,139555.0,31164.0,139555.0,23928.0,-338.10607732796944,-154.5280339329476,-232.8515589226723
139555.0,20644.0,139555.0,31152.0,139555.0,23954.0,-323.93058940931815,-143.41038189989538,-219.25120562098587
139555.0,20657.0,139555.0,31127.0,139555.0,23933.0,-309.2576991396307,-132.0936830161762,-205.3540948606245
139555.0,20658.0,139555.0,31127.0,139555.0,23959.0,-294.10716118930134,-120.5964845904636,-191.18198544654518
139555.0,20689.0,139555.0,31178.0,139555.0,23994.0,-278.5005051271221,-108.93852967710265,-176.75765375670505
139566.0,20719.0,139566.0,31218.0,139566.0,24005.0,-262.4611096273791,-97.14088785350252,-162.10488919407493
139566.0,20747.0,139566.0,31246.0,139566.0,24037.0,-246.0140344517049,-85.22540922067581,-147.2482549914206
139566.0,20772.0,139566.0,31235.0,139566.0,24050.0,-229.18568230344567,-73.21402913912011,-132.2128483507942
139566.0,20771.0,139566.0,31242.0,139566.0,24052.0,-212.00352247302126,-61.12848761618726,-117.0241643577346
139566.0,20792.0,139566.0,31242.0,139566.0,24079.0,-194.49604743733343,-48.9905132308015,-101.70811345097442
139566.0,20828.0,139566.0,31288.0,139566.0,24106.0,-176.69287652754207,-36.822094478904916,-86.29108638817007
139576.0,20852.0,139576.0,31328.0,139576.0,24128.0,-158.62472242102794,-24.645410829321293,-70.79985742492005
139576.0,20878.0,139576.0,31334.0,139576.0,24163.0,-140.32315271549993,-12.48234385383455,-55.2613248528892
139576.0,20894.0,139576.0,31309.0,139576.0,24154.0,-121.82034391607937,-0.3540412668418469,-39.70224790561517
139576.0,20904.0,139576.0,31322.0,139576.0,24178.0,-103.14897859354352,11.718977091645627,-24.14915724993648
139576.0,20935.0,139576.0,31336.0,139576.0,24204.0,-84.34228467204571,23.716360221433916,-8.628434149455103
139576.0,20978.0,139576.0,31396.0,139576.0,24234.0,-65.43403567646331,35.61771154129207,6.833705643088365
139586.0,20992.0,139586.0,31414.0,139586.0,24256.0,-46.458330752323235,47.402921276998455,22.211447565522178
139586.0,21031.0,139586.0,31417.0,139586.0,24275.0,-27.44925859948424,59.05277513805777,37.4796764956063
139586.0,21030.0,139586.0,31423.0,139586.0,24282.0,-8.44065468450981,70.54931578612977,52.61416841109741
139586.0,21058.0,139586.0,31416.0,139586.0,24288.0,10.533968421390568,81.87577760280655,67.59159330017093
139586.0,21086.0,139586.0,31427.0,139586.0,24317.0,29.44138343333617,93.01628759205005,82.3893746291989
139586.0,21111.0,139586.0,31456.0,139586.0,24343.0,48.24868466941882,103.95558997620915,96.98561861566395
139597.0,21155.0,139597.0,31498.0,139597.0,24366.0,66.9234944838995,114.67906820489637,111.35926581733568
139597.0,21169.0,139597.0,31490.0,139597.0,24367.0,85.43428826417266,125.17311546391636,125.49032813367415
139597.0,21181.0,139597.0,31441.0,139597.0,24367.0,103.75068321106141,135.42536441613743,139.3599386986906
139597.0,21194.0,139597.0,31467.0,139597.0,24386.0,121.8435016917482,145.4242787812094,152.95014245965882
139597.0,21217.0,139597.0,31512.0,139597.0,24420.0,139.68464050520532,155.15852202109818,166.2436830437547
139597.0,21254.0,139597.0,31542.0,139597.0,24446.0,157.24699187649713,164.61693525830356,179.22408195938243
139607.0,21273.0,139607.0,31555.0,139607.0,24456.0,174.5045749415421,173.78912277130212,191.87596414564473
139607.0,21279.0,139607.0,31541.0,139607.0,24458.0,191.43275717718888,182.66597759786958,204.1853106544068
139607.0,21295.0,139607.0,31540.0,139607.0,24472.0,208.00831567644497,191.23973473975292,216.1394527790864
139607.0,21315.0,139607.0,31544.0,139607.0,24476.0,224.209322877334,199.5036534487432,227.72691129428807
139607.0,21339.0,139607.0,31559.0,139607.0,24497.0,240.0150639182778,207.45167692861952,238.9372491876465
139607.0,21360.0,139607.0,31595.0,139607.0,24526.0,255.40609561271742,215.07834490111998,249.7610495627605
139617.0,21385.0,139617.0,31603.0,139617.0,24539.0,270.36440319274953,222.37903006393435,260.19008785856
139617.0,21378.0,139617.0,31565.0,139617.0,24524.0,284.8735421226586,229.35021934357275,270.2175448870023
139617.0,21403.0,139617.0,31586.0,139617.0,24535.0,298.91863200046953,235.98940499281127,279.8379634685216
139617.0,21412.0,139617.0,31569.0,139617.0,24543.0,312.48622938943265,242.2946443365712,289.0469691250409
139617.0,21434.0,139617.0,31610.0,139617.0,24561.0,325.5642500558464,248.264227398863,297.8410565445357
139617.0,21456.0,139617.0,31653.0,139617.0,24582.0,338.1420118806018,253.89675198801416,306.2175937410951
139628.0,21446.0,139628.0,31621.0,139628.0,24571.0,350.2103219357193,259.1915901053959,314.17494891097635
139628.0,21463.0,139628.0,31610.0,139628.0,24585.0,361.7614481989589,264.1492175297555,321.7125336509939
139628.0,21473.0,139628.0,31604.0,139628.0,24583.0,372.7889498978345,268.77095733070394,328.8306856918297
139628.0,21471.0,139628.0,31623.0,139628.0,24579.0,383.287512443986,273.05847728297755,335.53048223473456
139628.0,21498.0,139628.0,31667.0,139628.0,24611.0,393.25282966810096,277.01363004519806,341.81356685662576
139628.0,21526.0,139628.0,31654.0,139628.0,24623.0,402.6815922180541,280.6387777115782,347.6821376827834
139638.0,21513.0,139638.0,31639.0,139638.0,24618.0,411.5716591617322,283.93717771804495,353.13914129656587
139638.0,21528.0,139638.0,31638.0,139638.0,24610.0,419.92219434013884,286.9129524267042,358.18838089943785
139638.0,21526.0,139638.0,31620.0,139638.0,24626.0,427.73358135835986,289.5707131139942,362.8343666103581
139638.0,21542.0,139638.0,31648.0,139638.0,24626.0,435.0072649743089,291.9151883363692,367.08212634460835
139638.0,21552.0,139638.0,31670.0,139638.0,24643.0,441.7456807727102,293.95112568341955,370.93716735813194
139638.0,21565.0,139638.0,31683.0,139638.0,24655.0,447.9522973642561,295.6835861660148,374.40557210641225
139648.0,21566.0,139648.0,31665.0,139648.0,24641.0,453.6317143677288,297.1183781185893,377.494139195908
139648.0,21560.0,139648.0,31642.0,139648.0,24635.0,458.7896905926425,298.2621751121187,380.2103870963319
139648.0,21568.0,139648.0,31647.0,139648.0,24638.0,463.4330273969093,299.12219828975515,382.5623313515173
139648.0,21570.0,139648.0,31669.0,139648.0,24645.0,467.5693940553509,299.7058393235913,384.55823134892825
139648.0,21581.0,139648.0,31671.0,139648.0,24647.0,471.20722848684534,300.0206264823609,386.2064925739452
139648.0,21591.0,139648.0,31685.0,139648.0,24653.0,474.3557515448156,300.0744850027982,387.51568563336025
139659.0,21576.0,139659.0,31661.0,139659.0,24646.0,477.0250278162765,299.8759778433156,388.4945724964628
139659.0,21577.0,139659.0,31655.0,139659.0,24646.0,479.225920853002,299.43430192879146,389.15206884679145
139659.0,21571.0,139659.0,31636.0,139659.0,24647.0,480.969885846887,298.7590072305132,389.49714023845235
139659.0,21584.0,139659.0,31669.0,139659.0,24655.0,482.26874915589065,297.8596589721298,389.53871878995454
139659.0,21591.0,139659.0,31660.0,139659.0,24655.0,483.1346382340938,296.7457543086156,389.28571298048917
139659.0,21589.0,139659.0,31657.0,139659.0,24654.0,483.58006563221954,295.4268810281043,388.7470677622609
139669.0,21573.0,139669.0,31629.0,139669.0,24645.0,483.6179926368279,293.9127658424245,387.93177149105594
139669.0,21570.0,139669.0,31631.0,139669.0,24647.0,483.26170012805585,292.2130257749508,386.84876688822766
139669.0,21571.0,139669.0,31637.0,139669.0,24648.0,482.5245309973941,290.33683684765083,385.5068365746008
139669.0,21577.0,139669.0,31646.0,139669.0,24659.0,481.41971416560386,288.2928212934891,383.914576216611
139669.0,21586.0,139669.0,31671.0,139669.0,24665.0,479.9603729810689,286.0892379947858,382.0805076174562
139669.0,21579.0,139669.0,31634.0,139669.0,24650.0,478.1596568596,283.73431194566695,380.01325254928474
139679.0,21570.0,139679.0,31610.0,139679.0,24636.0,476.03083586676985,281.2363199861031,377.7215646777676
139679.0,21558.0,139679.0,31616.0,139679.0,24634.0,473.5872242515552,278.60323016996955,375.21412620951094
139679.0,21548.0,139679.0,31634.0,139679.0,24645.0,470.8419466694496,275.8423012695311,372.4993073055478
139679.0,21565.0,139679.0,31653.0,139679.0,24654.0,467.80770046961925,272.9601298775743,369.5851449944356
139679.0,21576.0,139679.0,31650.0,139679.0,24645.0,464.4967301617679,269.963080113241,366.47953321984863
139679.0,21556.0,139679.0,31627.0,139679.0,24640.0,460.9210379369982,266.85766870975846,363.1903869864798
139690.0,21546.0,139690.0,31600.0,139690.0,24633.0,457.0925222402483,263.6505491002562,359.7256326161039
139690.0,21533.0,139690.0,31609.0,139690.0,24636.0,453.0228294914656,260.3481205993237,356.09310682971307
139690.0,21546.0,139690.0,31622.0,139690.0,24628.0,448.7231007062165,256.9561854253018,352.3004918945147
139690.0,21556.0,139690.0,31633.0,139690.0,24636.0,444.2039121513778,253.480001438915,348.355312891453
139690.0,21543.0,139690.0,31618.0,139690.0,24634.0,439.47546431641683,249.92460089260896,344.26499280752563
139690.0,21532.0,139690.0,31607.0,139690.0,24619.0,434.547763868471,246.29499051176293,340.0369308056018
139700.0,21529.0,139700.0,31590.0,139700.0,24614.0,429.43059386437665,242.5960506084583,335.678486055668
139700.0,21540.0,139700.0,31599.0,139700.0,24613.0,424.1334155792654,238.83227472665854,331.1968486750305
139700.0,21527.0,139700.0,31605.0,139700.0,24603.0,418.6654080546946,235.0076228650997,326.59892503495035
139700.0,21523.0,139700.0,31628.0,139700.0,24613.0,413.03557625354557,231.1256621733595,321.89129791386586
139700.0,21516.0,139700.0,31616.0,139700.0,24616.0,407.2527696742415,227.18993832701628,317.08028151170043
139700.0,21514.0,139700.0,31596.0,139700.0,24598.0,401.3256354169676,223.20428402351746,312.172058968975
139711.0,21489.0,139711.0,31586.0,139711.0,24587.0,395.2625580327196,219.1727912790335,307.17272612215686
139711.0,21506.0,139711.0,31587.0,139711.0,24599.0,389.0715575444065,215.09954251685173,302.0881704647955
139711.0,21504.0,139711.0,31593.0,139711.0,24611.0,382.7602485792202,210.98842815908074,296.9240401058571
139711.0,21514.0,139711.0,31614.0,139711.0,24602.0,376.33600808382306,206.84323474956665,291.68596645511553
139711.0,21511.0,139711.0,31590.0,139711.0,24591.0,369.80628054345783,202.66793467465007,286.37981581822584
139711.0,21483.0,139711.0,31551.0,139711.0,24594.0,363.1788079725942,198.4668272538875,281.01174710778423
139721.0,21469.0,139721.0,31561.0,139721.0,24569.0,356.46159015674175,194.24424370397597,275.5881341668988
139721.0,21459.0,139721.0,31563.0,139721.0,24576.0,349.66258501411704,190.00411737318208,270.1154395265045
139721.0,21488.0,139721.0,31594.0,139721.0,24589.0,342.7894645206636,185.74993111000543,264.60013045874797
139721.0,21468.0,139721.0,31587.0,139721.0,24569.0,335.84970116844374,181.48509223206383,259.04876865919823
139721.0,21465.0,139721.0,31571.0,139721.0,24567.0,328.85082888240856,177.21336868607014,253.46814585390905
139721.0,21443.0,139721.0,31545.0,139721.0,24552.0,321.80053411980396,172.9389896356254,247.8652526276736
139731.0,21439.0,139731.0,31538.0,139731.0,24539.0,314.7065202431418,168.6663455946362,242.24711060969722
139731.0,21441.0,139731.0,31540.0,139731.0,24556.0,307.5763391954143,164.39958950601192,236.62060338110487
139731.0,21437.0,139731.0,31565.0,139731.0,24554.0,300.4173602219574,160.1424887305522,230.99246777593325
139731.0,21437.0,139731.0,31568.0,139731.0,24549.0,293.23687944226015,155.89866137830523,225.36947975570152
139731.0,21414.0,139731.0,31545.0,139731.0,24535.0,286.0422283720219,151.67197222540585,219.75861405278985
139731.0,21412.0,139731.0,31529.0,139731.0,24530.0,278.8407516403016,147.46666918617876,214.16701951162355
139742.0,21402.0,139742.0,31534.0,139742.0,24509.0,271.63967997280156,143.28717117017743,208.60186251846147
139742.0,21407.0,139742.0,31565.0,139742.0,24529.0,264.44604593570665,139.13790788304811,203.07015364188325
139742.0,21414.0,139742.0,31547.0,139742.0,24531.0,257.26675148720585,135.02352915218606,197.57872926929815
139742.0,21410.0,139742.0,31546.0,139742.0,24525.0,250.1087891313561,130.94925090426852,192.1344568187218
139742.0,21394.0,139742.0,31519.0,139742.0,24507.0,242.97947883523864,126.9209430163143,186.74443057495586
139742.0,21374.0,139742.0,31510.0,139742.0,24495.0,235.88651203763146,122.94490422972957,181.4159211513987
139752.0,21386.0,139752.0,31499.0,139752.0,24501.0,228.83779644001763,119.02750000305025,176.1561613201335
139752.0,21372.0,139752.0,31527.0,139752.0,24502.0,221.84133810658082,115.17490392583257,170.97222498855893
139752.0,21370.0,139752.0,31538.0,139752.0,24494.0,214.90526787503703,111.3931873596221,165.8710881331558
139752.0,21364.0,139752.0,31517.0,139752.0,24497.0,208.03789039621728,107.68869841719572,160.85973384825718
139752.0,21341.0,139752.0,31480.0,139752.0,24478.0,201.2476644715048,104.06825248320615,155.94518593103538
139752.0,21316.0,139752.0,31463.0,139752.0,24458.0,194.54303549473872,100.53878396663177,151.13441006474156
139762.0,21339.0,139762.0,31491.0,139762.0,24482.0,187.9321318694087,97.10676060172827,146.43409654008286
139762.0,21340.0,139762.0,31473.0,139762.0,24479.0,181.4226327352881,93.77791457690984,141.8505732080518
139762.0,21333.0,139762.0,31508.0,139762.0,24465.0,175.02197066298356,90.5573813528967,137.38995570492602
139762.0,21337.0,139762.0,31492.0,139762.0,24464.0,168.73760598289,87.45000718520453,133.05825749471796
139762.0,21310.0,139762.0,31457.0,139762.0,24444.0,162.57714584824294,84.4605641216503,128.86129965632344
139762.0,21293.0,139762.0,31458.0,139762.0,24444.0,156.5482531485801,81.59359709072713,124.80451735967678
139773.0,21303.0,139773.0,31478.0,139773.0,24442.0,150.65838347870726,78.85306077742078,120.89277212535913
139773.0,21302.0,139773.0,31496.0,139773.0,24465.0,144.9146069293547,76.24228242633004,117.1303093299084
139773.0,21304.0,139773.0,31482.0,139773.0,24446.0,139.32368849912112,73.76432329776944,113.5209275820826
139773.0,21282.0,139773.0,31470.0,139773.0,24455.0,133.89224476379576,71.42228332979924,110.06818781484847
139773.0,21284.0,139773.0,31433.0,139773.0,24446.0,128.62675195012963,69.21920082493561,106.77549602274429
139773.0,21253.0,139773.0,31438.0,139773.0,24438.0,123.53338698589248,67.15759158402167,103.64608785955063
139783.0,21270.0,139783.0,31455.0,139783.0,24440.0,118.61779643283747,65.23899571014303,100.68295950747682
139783.0,21287.0,139783.0,31477.0,139783.0,24446.0,113.88499345254395,63.46393877257984,97.88880542492498
139783.0,21266.0,139783.0,31482.0,139783.0,24424.0,109.33953642498778,61.83232954204129,95.26601954032157
139783.0,21261.0,139783.0,31458.0,139783.0,24434.0,104.9857482336373,60.34389965137618,92.8166606429763
139783.0,21252.0,139783.0,31431.0,139783.0,24420.0,100.82768667587438,58.99825615222649,90.54233534848791
139783.0,21243.0,139783.0,31445.0,139783.0,24431.0,96.8689629966285,57.79450852486032,88.4441017825413
139793.0,21256.0,139793.0,31480.0,139793.0,24429.0,93.11260269190603,56.73095989595083,86.52245464343588
139793.0,21267.0,139793.0,31494.0,139793.0,24440.0,89.56107393669002,55.80533604435624,84.77739970376868
139793.0,21250.0,139793.0,31460.0,139793.0,24429.0,86.21649568062954,55.01532356749697,83.20857928341039
139793.0,21235.0,139793.0,31451.0,139793.0,24427.0,83.08077034115452,54.358763616835994,81.81533536383364
139793.0,21228.0,139793.0,31457.0,139793.0,24409.0,80.15543055771924,53.83336366209408,80.5966192874451
139793.0,21235.0,139793.0,31463.0,139793.0,24427.0,77.44136589131152,53.43639888142676,79.55079663309776
139804.0,21252.0,139804.0,31469.0,139804.0,24426.0,74.93873297902361,53.16469669334539,78.67553348541668
139804.0,21250.0,139804.0,31488.0,139804.0,24436.0,72.6471401826356,53.014815475619464,77.96787140857663
139804.0,21235.0,139804.0,31486.0,139804.0,24427.0,70.56589625750196,52.983312338200626,77.42437584742356
139804.0,21225.0,139804.0,31450.0,139804.0,24414.0,68.69403568410175,53.066926018457615,77.04116984467812
139804.0,21233.0,139804.0,31456.0,139804.0,24430.0,67.03012270749085,53.26241597304238,76.81380866299013
139804.0,21233.0,139804.0,31457.0,139804.0,24422.0,65.57209517638093,53.56617110159675,76.73715531163111
139814.0,21244.0,139814.0,31478.0,139814.0,24456.0,64.31729191330271,53.97400711994062,76.80542306710646
139814.0,21242.0,139814.0,31491.0,139814.0,24453.0,63.262594875864906,54.48131662261963,77.01241348481041
139814.0,21236.0,139814.0,31460.0,139814.0,24443.0,62.40455667546994,55.08334936020589,77.35181044933859
139814.0,21232.0,139814.0,31459.0,139814.0,24449.0,61.73940831936014,55.775248490606856,77.81728761468582
139814.0,21221.0,139814.0,31469.0,139814.0,24442.0,61.262931097419404,56.55179034110554,78.4024152707408
139814.0,21247.0,139814.0,31474.0,139814.0,24466.0,60.97030606473029,57.40719210877454,79.10058337841892
139824.0,21247.0,139824.0,31499.0,139824.0,24468.0,60.85612743919901,58.3352042076297,79.90508466531581
139824.0,21252.0,139824.0,31497.0,139824.0,24461.0,60.91460637772618,59.329396381237736,80.8093013306052
139824.0,21236.0,139824.0,31473.0,139824.0,24452.0,61.13973662366979,60.38340302865879,81.80676891809581
139824.0,21241.0,139824.0,31469.0,139824.0,24462.0,61.52525221886548,61.49085272399709,82.89103459854458
139824.0,21243.0,139824.0,31486.0,139824.0,24454.0,62.06447663634987,62.64505498989468,84.05548815831253
139824.0,21259.0,139824.0,31513.0,139824.0,24470.0,62.75026590889399,63.838885703239754,85.29328935151699
139835.0,21250.0,139835.0,31515.0,139835.0,24492.0,63.5751006100763,65.06507372176158,86.59743028093462
139835.0,21257.0,139835.0,31524.0,139835.0,24468.0,64.5311913289739,66.31662992305971,87.96093505134567
139835.0,21263.0,139835.0,31499.0,139835.0,24478.0,65.61051086065132,67.58708294960242,89.37698442980005
139835.0,21266.0,139835.0,31495.0,139835.0,24471.0,66.80482824056223,68.87038427005078,90.83881800593655
139835.0,21269.0,139835.0,31504.0,139835.0,24477.0,68.10578130845485,70.16060216601994,92.3395759705074
139835.0,21283.0,139835.0,31536.0,139835.0,24495.0,69.50495568736433,71.4517610167411,93.87224465319585
139845.0,21287.0,139845.0,31562.0,139845.0,24505.0,70.99400282589659,72.73811344169857,95.42977080079199
139845.0,21285.0,139845.0,31512.0,139845.0,24497.0,72.5647892790665,74.0146370485707,97.00529018055845
139845.0,21275.0,139845.0,31506.0,139845.0,24484.0,74.20944595435218,75.27714480584598,98.59222586488629
139845.0,21271.0,139845.0,31485.0,139845.0,24489.0,75.92023056578344,76.52179671174483,100.18412285317241
139845.0,21264.0,139845.0,31518.0,139845.0,24496.0,77.68926426366447,77.74450668614344,101.7744094740993
139845.0,21293.0,139845.0,31536.0,139845.0,24506.0,79.50831066171887,78.94077705313177,103.35632255406973
139855.0,21282.0,139855.0,31546.0,139855.0,24516.0,81.36875941616258,80.1060194362093,104.92301680245167
139855.0,21304.0,139855.0,31540.0,139855.0,24510.0,83.26177617265822,81.23600401069402,106.46773113698134
139855.0,21284.0,139855.0,31483.0,139855.0,24488.0,85.17843297644002,82.32696775517299,107.98382193973336
139855.0,21302.0,139855.0,31517.0,139855.0,24520.0,87.10972431479303,83.37520577456146,109.46458858462313
139855.0,21312.0,139855.0,31538.0,139855.0,24525.0,89.04655002842239,84.37660925103383,110.90315858266793
139855.0,21312.0,139855.0,31569.0,139855.0,24540.0,90.97980097114983,85.32677952154197,112.29266933664852
139866.0,21321.0,139866.0,31539.0,139866.0,24535.0,92.90050723653887,86.22157675353372,113.62656863843064
139866.0,21311.0,139866.0,31520.0,139866.0,24529.0,94.79991163166048,87.05739910331577,114.89876497322138
139866.0,21313.0,139866.0,31516.0,139866.0,24526.0,96.66942618897073,87.83089702545132,116.10356105777839
139866.0,21319.0,139866.0,31526.0,139866.0,24534.0,98.5005165213871,88.53849926296546,117.23548211410699
139866.0,21336.0,139866.0,31561.0,139866.0,24537.0,100.28465191182899,89.17625251244982,118.28917310383892
139866.0,21347.0,139866.0,31557.0,139866.0,24542.0,102.01344081226678,89.74010035152261,119.25941771800807
139876.0,21338.0,139876.0,31564.0,139876.0,24543.0,103.67886905394731,90.22631823325807,120.14120239411845
139876.0,21332.0,139876.0,31525.0,139876.0,24541.0,105.2734083100859,90.63170397827392,120.92975065074216
139876.0,21334.0,139876.0,31528.0,139876.0,24551.0,106.78989793057474,90.95335186674137,121.62051778242085
139876.0,21337.0,139876.0,31545.0,139876.0,24552.0,108.22135824247658,91.18824923430499,122.2092027327807
139876.0,21363.0,139876.0,31586.0,139876.0,24564.0,109.5609419684953,91.3331975504129,122.69182586115762
139876.0,21363.0,139876.0,31588.0,139876.0,24555.0,110.80210493762483,91.38526854277225,123.06483833718706
139886.0,21352.0,139886.0,31565.0,139886.0,24563.0,111.93885059970033,91.34238667545266,123.32518436556691
139886.0,21343.0,139886.0,31516.0,139886.0,24547.0,112.96576523275581,91.20340869395984,123.47027183272789
139886.0,21343.0,139886.0,31532.0,139886.0,24545.0,113.87779344353305,90.96755661979537,123.4978393321402
139886.0,21358.0,139886.0,31548.0,139886.0,24542.0,114.67000305498807,90.633783019369,123.40574191446814
139886.0,21361.0,139886.0,31571.0,139886.0,24577.0,115.33755406016482,90.20068176447346,123.19181955862848
139886.0,21364.0,139886.0,31601.0,139886.0,24555.0,115.87583335172299,89.66694634280508,122.85401437846899
139897.0,21360.0,139897.0,31564.0,139897.0,24564.0,116.28057324760529,89.03196899191798,122.39057473619306
139897.0,21353.0,139897.0,31520.0,139897.0,24555.0,116.54784467974628,88.29602821769936,121.80009133865308
139897.0,21364.0,139897.0,31537.0,139897.0,24552.0,116.67395756269381,87.45980365584752,121.0813957276551
139897.0,21388.0,139897.0,31563.0,139897.0,24576.0,116.6554445325294,86.52379300640678,120.23348310706336
139897.0,21367.0,139897.0,31569.0,139897.0,24576.0,116.4892435261576,85.48831301638917,119.25559918083276
139897.0,21383.0,139897.0,31580.0,139897.0,24567.0,116.17289312903202,84.35394081085454,118.14745865313226
139907.0,21361.0,139907.0,31543.0,139907.0,24557.0,115.70455055842866,83.12185522587254,116.90933232942436
139907.0,21358.0,139907.0,31525.0,139907.0,24558.0,115.08285664544003,81.79374825493312,115.54190366417942
139907.0,21370.0,139907.0,31537.0,139907.0,24555.0,114.30673691981845,80.37137133012915,114.04607688147551
139907.0,21368.0,139907.0,31557.0,139907.0,24573.0,113.37529871674963,78.85619600784959,112.42290663987315
139907.0,21378.0,139907.0,31566.0,139907.0,24578.0,112.28790326569694,77.24954113161208,110.67371397124491
139907.0,21374.0,139907.0,31556.0,139907.0,24562.0,111.04430148473014,75.552953932989,108.80030346135491
139917.0,21370.0,139917.0,31538.0,139917.0,24552.0,109.64472421805752,73.76841599610441,106.80503068598155
139917.0,21348.0,139917.0,31519.0,139917.0,24537.0,108.08983990344859,71.89818178002193,104.69059437282934
139917.0,21360.0,139917.0,31530.0,139917.0,24550.0,106.38055133014306,69.94439939087749,102.45972523038249
139917.0,21383.0,139917.0,31549.0,139917.0,24543.0,104.51784800443937,67.90887780306801,100.11501015762732
139917.0,21379.0,139917.0,31574.0,139917.0,24559.0,102.50296503455921,65.79327366305401,97.6589165069621
139917.0,21367.0,139917.0,31545.0,139917.0,24541.0,100.33768457948902,63.5995579781748,95.0939110827779
139928.0,21358.0,139928.0,31526.0,139928.0,24538.0,98.02441352585971,61.3302668213706,92.42251189696917
139928.0,21353.0,139928.0,31512.0,139928.0,24544.0,95.56600495384365,58.9882546887072,89.64721593622875
139928.0,21350.0,139928.0,31525.0,139928.0,24555.0,92.9655378289063,56.57624184423675,86.77046678007882
139928.0,21357.0,139928.0,31546.0,139928.0,24544.0,90.2261944652781,54.09663113684381,83.79478341067137
139928.0,21362.0,139928.0,31550.0,139928.0,24551.0,87.35128220781914,51.55174598121591,80.72291454444778
139928.0,21362.0,139928.0,31520.0,139928.0,24538.0,84.34437899116593,48.944189912536004,77.55789293112994
139938.0,21336.0,139938.0,31508.0,139938.0,24530.0,81.20945088805914,46.27688241865526,74.30299155319815
139938.0,21335.0,139938.0,31499.0,139938.0,24526.0,77.95075737140067,43.55271430057969,70.96158972245942
139938.0,21342.0,139938.0,31522.0,139938.0,24528.0,74.57261903931413,40.77420292791822,67.53702182238709
139938.0,21333.0,139938.0,31542.0,139938.0,24539.0,71.07930467860285,37.943515614810345,64.0325441767059
139938.0,21336.0,139938.0,31528.0,139938.0,24540.0,67.47506383585619,35.06285091531486,60.451472552313945
139938.0,21339.0,139938.0,31513.0,139938.0,24520.0,63.76418131075471,32.134773020613096,56.79736471849928
139948.0,21316.0,139948.0,31490.0,139948.0,24509.0,59.951014981912905,29.162151104007293,53.074017249182276
139948.0,21322.0,139948.0,31485.0,139948.0,24506.0,56.03995004288379,26.147778408028998,49.28523597827288
139948.0,21316.0,139948.0,31516.0,139948.0,24506.0,52.035275578232614,23.094037276676644,45.43459854802522
139948.0,21320.0,139948.0,31511.0,139948.0,24515.0,47.94112904551592,20.002935863397255,41.52538903993177
139948.0,21321.0,139948.0,31515.0,139948.0,24515.0,43.76155506957032,16.87643953580198,37.56070861991891
139948.0,21314.0,139948.0,31491.0,139948.0,24491.0,39.50060960736249,13.716710378820949,33.5436163823439
139959.0,21299.0,139959.0,31472.0,139959.0,24496.0,35.16240614113251,10.526022002249888,29.47710601381233
139959.0,21290.0,139959.0,31479.0,139959.0,24497.0,30.751010676532573,7.3064285080329086,25.363964722526774
139959.0,21306.0,139959.0,31504.0,139959.0,24485.0,26.270270408949244,4.0595336015682335,21.206714684370496
139959.0,21310.0,139959.0,31518.0,139959.0,24500.0,21.72381472534002,0.786683576327107,17.007642986761326
139959.0,21292.0,139959.0,31484.0,139959.0,24499.0,17.11525270054213,-2.5105858750050345,12.768887608045276
139959.0,21294.0,139959.0,31472.0,139959.0,24473.0,12.44830388506189,-5.830381308193594,8.49255911922883
139969.0,21278.0,139969.0,31458.0,139969.0,24472.0,7.726742866109348,-9.170743820323565,4.180709831663066
139969.0,21272.0,139969.0,31464.0,139969.0,24495.0,2.9542606902233643,-12.530060039063628,-0.16482336989251678
139969.0,21284.0,139969.0,31491.0,139969.0,24488.0,-1.865655787977886,-15.907211409581464,-4.542372709771968
139969.0,21283.0,139969.0,31488.0,139969.0,24490.0,-6.729707351034648,-19.301342430940522,-8.950173590909202
139969.0,21283.0,139969.0,31483.0,139969.0,24473.0,-11.634604487307428,-22.71146239512119,-13.386182665942798
139969.0,21258.0,139969.0,31449.0,139969.0,24457.0,-16.5769224691754,-26.136275285535504,-17.848131748522718
139980.0,21265.0,139980.0,31453.0,139980.0,24462.0,-21.553149423045937,-29.574391671862912,-22.333748824974293
139980.0,21256.0,139980.0,31462.0,139980.0,24456.0,-26.55982834069536,-33.02465146412736,-26.84095398515963
139980.0,21255.0,139980.0,31479.0,139980.0,24465.0,-31.593623153031558,-36.486166991602616,-31.367888684495895
139980.0,21249.0,139980.0,31484.0,139980.0,24454.0,-36.651315049223385,-39.95801561434564,-35.91282494996011
139980.0,21243.0,139980.0,31452.0,139980.0,24444.0,-41.72980605071062,-43.43888950462417,-40.47409827541287
139980.0,21227.0,139980.0,31421.0,139980.0,24452.0,-46.82617041929859,-46.92711344602165,-45.050139141156535
139990.0,21217.0,139990.0,31417.0,139990.0,24431.0,-51.937798521023765,-50.42112985442243,-49.63953642956629
139990.0,21222.0,139990.0,31457.0,139990.0,24440.0,-57.06259276504484,-53.91998763970405,-54.241088266053055
139990.0,21232.0,139990.0,31465.0,139990.0,24440.0,-62.19903963744824,-57.42327843287849,-58.85383223599564
139990.0,21239.0,139990.0,31448.0,139990.0,24440.0,-67.34603647544762,-60.930627467282875,-63.47698216370691
139990.0,21222.0,139990.0,31430.0,139990.0,24430.0,-72.50259648043385,-64.4413664838647,-68.10980993660101
139990.0,21215.0,139990.0,31434.0,139990.0,24423.0,-77.66769306898729,-67.95464366533298,-72.75161406206692
140000.0,21202.0,140000.0,31417.0,140000.0,24415.0,-82.84034073480817,-71.46967718233628,-77.40180533729364
140000.0,21215.0,140000.0,31443.0,140000.0,24413.0,-88.01975055816794,-74.98588322341814,-82.06003275354425
140000.0,21222.0,140000.0,31439.0,140000.0,24426.0,-93.2053276670691,-78.50279556054687,-86.72623834894384
140000.0,21201.0,140000.0,31436.0,140000.0,24424.0,-98.39648639222744,-82.01982928730897,-91.40054995431936
140000.0,21198.0,140000.0,31414.0,140000.0,24417.0,-103.59253003059246,-85.53613361735219,-96.08307659501665
140000.0,21187.0,140000.0,31396.0,140000.0,24397.0,-108.79273689845027,-89.05073411150957,-100.773819037453
140010.0,21183.0,140010.0,31412.0,140010.0,24409.0,-113.99651710790019,-92.56285710318554,-105.47277237974572
140010.0,21197.0,140010.0,31417.0,140010.0,24415.0,-119.20348426319416,-96.07210446140252,-110.18001022038024
140010.0,21181.0,140010.0,31421.0,140010.0,24413.0,-124.41338543193112,-99.57831277071094,-114.89556017628428
140010.0,21170.0,140010.0,31415.0,140010.0,24389.0,-129.62600475671746,-103.08129121902354,-119.61922859952637
140010.0,21167.0,140010.0,31389.0,140010.0,24385.0,-134.84121475619764,-106.58071342718318,-124.35064364793064
140010.0,21166.0,140010.0,31375.0,140010.0,24386.0,-140.05910449280228,-110.0762988167993,-129.08947017056053
140020.0,21160.0,140020.0,31397.0,140020.0,24383.0,-145.28002473749373,-113.56814996006727,-133.83554345455255
140020.0,21167.0,140020.0,31412.0,140020.0,24386.0,-150.50454810491422,-117.05684926983997,-138.5888449419457
140020.0,21172.0,140020.0,31403.0,140020.0,24381.0,-155.73335629121226,-120.54316729524865,-143.34941301322814
140020.0,21171.0,140020.0,31392.0,140020.0,24371.0,-160.96703416152116,-124.02773878097793,-148.11727788333175
140020.0,21156.0,140020.0,31370.0,140020.0,24359.0,-166.20586983057575,-127.51105252426655,-152.89249751128074
140020.0,21131.0,140020.0,31360.0,140020.0,24355.0,-171.44985094957457,-130.9937388200844,-157.675306664815
140030.0,21136.0,140030.0,31392.0,140030.0,24362.0,-176.69890373590218,-134.47687317969317,-162.4662597379001
140030.0,21134.0,140030.0,31399.0,140030.0,24366.0,-181.95315011195197,-137.96193810230895,-167.26621958150855
140030.0,21129.0,140030.0,31380.0,140030.0,24348.0,-187.212972486761,-141.45045500829414,-172.07622066237747
140030.0,21120.0,140030.0,31374.0,140030.0,24349.0,-192.47897319539948,-144.94373960178942,-176.8974028239641
140030.0,21117.0,140030.0,31347.0,140030.0,24344.0,-197.75198643401592,-148.4430275098727,-181.73107228141745
140030.0,21114.0,140030.0,31370.0,140030.0,24343.0,-203.0331285054594,-151.94977183092965,-186.57875624893046
140041.0,21124.0,140041.0,31372.0,140041.0,24353.0,-208.32378718700397,-155.4657806606644,-191.4421661613348
140041.0,21126.0,140041.0,31402.0,140041.0,24360.0,-213.62548137884204,-158.99300431869415,-196.32303908621734
140041.0,21103.0,140041.0,31362.0,140041.0,24340.0,-218.93966586834364,-162.53313006995015,-201.2229038193871
140041.0,21094.0,140041.0,31363.0,140041.0,24329.0,-224.2677017484662,-166.08738902533594,-206.14298612445722
140041.0,21097.0,140041.0,31332.0,140041.0,24312.0,-229.61103089452473,-169.6567613512108,-211.08438258609974
140041.0,21100.0,140041.0,31360.0,140041.0,24331.0,-234.9713014902763,-173.24233285321074,-216.0483249492299
140051.0,21102.0,140051.0,31373.0,140051.0,24331.0,-240.35028670621,-176.84540220392094,-221.03624551523458
140051.0,21114.0,140051.0,31371.0,140051.0,24331.0,-245.7496652845972,-180.4671991423667,-226.04958891492197
140051.0,21085.0,140051.0,31346.0,140051.0,24324.0,-251.17079147124565,-184.1085394245116,-231.08958877535338
140051.0,21081.0,140051.0,31325.0,140051.0,24305.0,-256.61463232987796,-187.7698414684958,-236.15720553711242
140051.0,21070.0,140051.0,31329.0,140051.0,24313.0,-262.0819351315349,-191.45149050241525,-241.25322943104834
140051.0,21075.0,140051.0,31340.0,140051.0,24293.0,-267.5734264627409,-195.15415354967402,-246.37842311258908
140061.0,21073.0,140061.0,31360.0,140061.0,24322.0,-273.0898608920866,-198.87872953693739,-251.5335744092426
140061.0,21060.0,140061.0,31360.0,140061.0,24308.0,-278.6319596456731,-202.62597093090605,-256.7193842791532
140061.0,21066.0,140061.0,31327.0,140061.0,24304.0,-284.20036878532767,-206.3961168633943,-261.93625876345516
140061.0,21057.0,140061.0,31305.0,140061.0,24288.0,-289.79565103344675,-210.18892627759573,-267.1842254972042
140061.0,21049.0,140061.0,31321.0,140061.0,24271.0,-295.4182687263514,-214.00408882686875,-272.4630759526574
140061.0,21051.0,140061.0,31322.0,140061.0,24281.0,-301.06858823421294,-217.841531886034,-277.7726119900146
140072.0,21050.0,140072.0,31347.0,140072.0,24292.0,-306.7468795247841,-221.70131607768266,-283.1127599454289
140072.0,21058.0,140072.0,31331.0,140072.0,24275.0,-312.4532218166726,-225.58327109551547,-288.4834369102595
140072.0,21025.0,140072.0,31310.0,140072.0,24284.0,-318.1873719789367,-229.48672597698084,-293.88436145826995
140072.0,21019.0,140072.0,31280.0,140072.0,24268.0,-323.94880411849635,-233.4106313197785,-299.3149808416953
140072.0,21017.0,140072.0,31301.0,140072.0,24262.0,-329.7369527421707,-237.35399453767243,-304.77448835871735
140072.0,21031.0,140072.0,31323.0,140072.0,24278.0,-335.55137618845015,-241.3161323755359,-310.26186412804617
140082.0,21030.0,140082.0,31330.0,140082.0,24276.0,-341.3916359508106,-245.29640882454277,-315.7758016846675
140082.0,21015.0,140082.0,31315.0,140082.0,24263.0,-347.25704368713826,-249.2937316639453,-321.31450424157634
140082.0,21012.0,140082.0,31289.0,140082.0,24253.0,-353.14654103883674,-253.30631965540744,-326.875583389373
140082.0,20997.0,140082.0,31270.0,140082.0,24242.0,-359.05876490054516,-257.3319306572449,-332.45616957371175
140082.0,20998.0,140082.0,31298.0,140082.0,24239.0,-364.99217472800666,-261.3682795364473,-338.05310288580154
140082.0,20999.0,140082.0,31324.0,140082.0,24246.0,-370.94512657543095,-265.41312787652384,-343.6630484308538
140092.0,21010.0,140092.0,31314.0,140092.0,24262.0,-376.9158048682681,-269.46385734931044,-349.2824169766707
140092.0,20997.0,140092.0,31274.0,140092.0,24248.0,-382.90201601338066,-273.5170246613727,-354.90708896815283
140092.0,20989.0,140092.0,31265.0,140092.0,24225.0,-388.9010118764305,-277.56845468543236,-360.53219296788524
140092.0,20974.0,140092.0,31257.0,140092.0,24223.0,-394.90949700188963,-281.61374034624515,-366.15218555176875
140092.0,20980.0,140092.0,31289.0,140092.0,24222.0,-400.92376300112755,-285.64859286963974,-371.7610931807012
140092.0,20981.0,140092.0,31296.0,140092.0,24224.0,-406.93975593771404,-289.6687167156652,-377.35261873978203
140103.0,20978.0,140103.0,31306.0,140103.0,24228.0,-412.95298373872583,-293.66932468778566,-382.9200562731231
140103.0,20970.0,140103.0,31291.0,140103.0,24216.0,-418.9583710212242,-297.6446576318117,-388.45613554186383
140103.0,20945.0,140103.0,31251.0,140103.0,24190.0,-424.95023552028755,-301.58784279832923,-393.9529747110937
140103.0,20955.0,140103.0,31242.0,140103.0,24204.0,-430.9224348523138,-305.49122259819296,-399.40223853960543
140103.0,20956.0,140103.0,31248.0,140103.0,24202.0,-436.86850368565666,-309.3469030290513,-404.79530197871645
140103.0,20948.0,140103.0,31262.0,140103.0,24199.0,-442.781605453124,-313.1470423943264,-410.1232069584442
140113.0,20949.0,140113.0,31267.0,140113.0,24193.0,-448.65440000163534,-316.88371259814187,-415.3765340633646
140113.0,20948.0,140113.0,31254.0,140113.0,24170.0,-454.478954895941,-320.54859028262234,-420.5453958079948
140113.0,20929.0,140113.0,31226.0,140113.0,24163.0,-460.24669252054514,-324.1328403121314,-425.61961455158826
140113.0,20920.0,140113.0,31230.0,140113.0,24180.0,-465.9484339487522,-327.6273335350303,-430.5889578762991
140113.0,20938.0,140113.0,31256.0,140113.0,24191.0,-471.5745256897638,-331.0229097157723,-435.4431443885067
140113.0,20927.0,140113.0,31255.0,140113.0,24186.0,-477.11483712010926,-334.3102892827888,-440.17154742119453
140123.0,20926.0,140123.0,31241.0,140123.0,24178.0,-482.55860260377943,-337.47973739895576,-444.76288434081005
140123.0,20916.0,140123.0,31227.0,140123.0,24170.0,-487.89431707290953,-340.52092182762556,-449.2051285809311
140123.0,20904.0,140123.0,31210.0,140123.0,24168.0,-493.1097704147666,-343.42311264209764,-453.48559215304925
140123.0,20900.0,140123.0,31240.0,140123.0,24155.0,-498.19217246786843,-346.17547519400136,-457.59104343428885
140123.0,20914.0,140123.0,31255.0,140123.0,24168.0,-503.1282577167426,-348.76708027441356,-461.50779992970786
140123.0,20916.0,140123.0,31261.0,140123.0,24178.0,-507.90421022498964,-351.18651241955996,-465.2217073929684
140134.0,20905.0,140134.0,31235.0,140134.0,24170.0,-512.5054375689438,-353.42142884558064,-468.7179470611288
140134.0,20883.0,140134.0,31212.0,140134.0,24148.0,-516.916461351602,-355.458512579852,-471.9808718113809
140134.0,20875.0,140134.0,31191.0,140134.0,24149.0,-521.1210927380754,-357.283895066058,-474.9941064715125
140134.0,20892.0,140134.0,31222.0,140134.0,24144.0,-525.1027134010673,-358.88370463755825,-477.7408035088706
140134.0,20885.0,140134.0,31224.0,140134.0,24157.0,-528.8443547927234,-360.24427584717995,-480.2037895184508
140134.0,20902.0,140134.0,31239.0,140134.0,24143.0,-532.3285358052461,-361.35192093738715,-482.36554436552507
140144.0,20875.0,140144.0,31204.0,140144.0,24136.0,-535.5370637659702,-362.19263221077733,-484.2081774588556
140144.0,20863.0,140144.0,31194.0,140144.0,24127.0,-538.4510219431329,-362.7521184654539,-485.7135555231617
140144.0,20855.0,140144.0,31189.0,140144.0,24126.0,-541.0510250992052,-363.01619820873265,-486.8635379263153
140144.0,20876.0,140144.0,31202.0,140144.0,24124.0,-543.3175190687267,-362.97120000436666,-487.6401825322108
140144.0,20871.0,140144.0,31214.0,140144.0,24129.0,-545.2308274985355,-362.6040668502466,-488.02586195191856
140144.0,20871.0,140144.0,31224.0,140144.0,24132.0,-546.77099495114,-361.90217312189236,-488.0032907716181
140154.0,20858.0,140154.0,31173.0,140154.0,24124.0,-547.9177002103245,-360.85314794402467,-487.5555108724371
140154.0,20837.0,140154.0,31177.0,140154.0,24113.0,-548.650394237339,-359.4450878814034,-486.665954799962
140154.0,20851.0,140154.0,31184.0,140154.0,24114.0,-548.9486148640494,-357.66708851591034,-485.31865856068384
140154.0,20845.0,140154.0,31225.0,140154.0,24125.0,-548.7922643700185,-355.5095246019447,-483.49850093177974
140154.0,20858.0,140154.0,31224.0,140154.0,24145.0,-548.1616907284536,-352.96379380594624,-481.1912593315975
140154.0,20847.0,140154.0,31230.0,140154.0,24124.0,-547.0376541178291,-350.0218501615608,-478.3834786914988
140165.0,20841.0,140165.0,31192.0,140165.0,24123.0,-545.4013533738773,-346.67601119114016,-475.0624330621003
140165.0,20837.0,140165.0,31192.0,140165.0,24119.0,-543.2346020466501,-342.91924335063504,-471.21635240429396
140165.0,20841.0,140165.0,31221.0,140165.0,24133.0,-540.5200838382093,-338.7456568889226,-466.83472474467084
140165.0,20843.0,140165.0,31229.0,140165.0,24136.0,-537.241548369331,-334.15070239113595,-461.9084494397129
140165.0,20863.0,140165.0,31252.0,140165.0,24141.0,-533.3838810497325,-329.1309497944766,-456.4298580755094
140165.0,20861.0,140165.0,31242.0,140165.0,24139.0,-528.933045552266,-323.6837697717687,-450.3927449558696
140175.0,20838.0,140175.0,31191.0,140175.0,24137.0,-523.8760471108988,-317.8073081731625,-443.79250051608307
140175.0,20840.0,140175.0,31196.0,140175.0,24148.0,-518.2011599410537,-311.5010146685214,-436.6263276232902
140175.0,20873.0,140175.0,31229.0,140175.0,24161.0,-511.8983058710079,-304.7664099435743,-428.8934194861679
140175.0,20881.0,140175.0,31267.0,140175.0,24179.0,-504.95916362670874,-297.60734875543335,-420.59498593331324
140175.0,20876.0,140175.0,31298.0,140175.0,24188.0,-497.3769908801508,-290.02956023325925,-411.7341462985025
140175.0,20882.0,140175.0,31275.0,140175.0,24198.0,-489.14655193109894,-282.039967184385,-402.3158082729233
140185.0,20870.0,140185.0,31276.0,140185.0,24195.0,-480.264311113154,-273.6463953890423,-392.3466479754285
140185.0,20880.0,140185.0,31275.0,140185.0,24218.0,-470.72877066723606,-264.8578082515831,-381.8352113183782
140185.0,20909.0,140185.0,31309.0,140185.0,24236.0,-460.54076903337017,-255.68465978583197,-370.79200086204094
140185.0,20922.0,140185.0,31336.0,140185.0,24259.0,-449.7035352093494,-246.13893054161002,-359.2293981244036
140185.0,20938.0,140185.0,31343.0,140185.0,24270.0,-438.22251533661415,-236.23381577692993,-347.1614635043413
140185.0,20960.0,140185.0,31338.0,140185.0,24271.0,-426.1051798518997,-225.98341761656735,-334.60379757636133
140196.0,20962.0,140196.0,31330.0,140196.0,24297.0,-413.36089804945834,-215.40278075605096,-321.5735644879557
140196.0,20975.0,140196.0,31359.0,140196.0,24306.0,-400.0009081445474,-204.508210541798,-308.0895717204333
140196.0,21003.0,140196.0,31397.0,140196.0,24331.0,-386.0383764629546,-193.31745807513636,-294.17227209059376
140196.0,21021.0,140196.0,31422.0,140196.0,24376.0,-371.4883915889832,-181.84946825280554,-279.84363476677447
140196.0,21026.0,140196.0,31419.0,140196.0,24391.0,-356.36785459393286,-170.12389659013363,-265.1268219031421
140196.0,21038.0,140196.0,31422.0,140196.0,24387.0,-340.69545710886916,-158.1608596720377,-250.04582196277377
140206.0,21054.0,140206.0,31447.0,140206.0,24397.0,-324.49182157030344,-145.98102787854046,-234.6253911084744
140206.0,21092.0,140206.0,31457.0,140206.0,24422.0,-307.77962292042895,-133.60575819923147,-218.89129581340657
140206.0,21126.0,140206.0,31496.0,140206.0,24451.0,-290.5834786019278,-121.0570377857007,-202.87048149956107
140206.0,21137.0,140206.0,31519.0,140206.0,24484.0,-272.9296202793528,-108.3572233845552,-186.5909538769763
140206.0,21157.0,140206.0,31523.0,140206.0,24495.0,-254.84561159907287,-95.52867915112951,-170.0814834155703
140206.0,21164.0,140206.0,31511.0,140206.0,24517.0,-236.36030136962475,-82.59359544335457,-153.37136274847649
140216.0,21184.0,140216.0,31515.0,140216.0,24531.0,-217.50395460550067,-69.5742104809308,-136.4903253578927
140216.0,21210.0,140216.0,31549.0,140216.0,24553.0,-198.30841074264387,-56.493225705370605,-119.46855578914915
140216.0,21257.0,140216.0,31590.0,140216.0,24606.0,-178.8070919794731,-43.373940566426825,-102.3366305561278
140216.0,21293.0,140216.0,31604.0,140216.0,24617.0,-159.03472309892413,-30.239925887135996,-85.12524305376448
140216.0,21300.0,140216.0,31630.0,140216.0,24640.0,-139.02687906717128,-17.11453254172409,-67.86482279434713
140216.0,21328.0,140216.0,31611.0,140216.0,24640.0,-118.81968510664018,-4.0206050278054875,-50.5853495104204
140227.0,21342.0,140227.0,31626.0,140227.0,24663.0,-98.44978142211716,9.019451065564823,-33.31644006514381
140227.0,21384.0,140227.0,31667.0,140227.0,24701.0,-77.95435308630096,21.983426521621396,-16.087486612930064
140227.0,21416.0,140227.0,31682.0,140227.0,24727.0,-57.37101747863437,34.849298386241315,1.0724200572785492
140227.0,21443.0,140227.0,31716.0,140227.0,24750.0,-36.73753771805053,47.59555014293619,18.134786995312112
140227.0,21469.0,140227.0,31707.0,140227.0,24762.0,-16.09150455762557,60.20152539703352,35.071993473778036
140227.0,21484.0,140227.0,31713.0,140227.0,24763.0,4.529864724054619,72.64754053736249,51.85735397404639
140237.0,21502.0,140237.0,31723.0,140237.0,24801.0,25.08977117621356,84.91471049832953,68.46498888232168
140237.0,21545.0,140237.0,31760.0,140237.0,24824.0,45.55180290422555,96.98473920268643,84.8697405364639
140237.0,21575.0,140237.0,31776.0,140237.0,24837.0,65.88002718969784,108.83997480904478,101.04729128948543
140237.0,21606.0,140237.0,31795.0,140237.0,24874.0,86.03928812927165,120.46369797733058,116.97435083923313
140237.0,21617.0,140237.0,31812.0,140237.0,24875.0,105.99552679561373,131.84040897053058,132.62880432996644
140237.0,21641.0,140237.0,31787.0,140237.0,24887.0,125.71592875602903,142.95594211561865,147.98977948117806
140248.0,21661.0,140248.0,31787.0,140248.0,24910.0,145.16891421656584,153.7972563469064,163.03757072504152
140248.0,21688.0,140248.0,31845.0,140248.0,24939.0,164.32411553891984,164.3520338355504,177.75356471389097
140248.0,21718.0,140248.0,31860.0,140248.0,24948.0,183.15244231596574,174.60862948748752,192.12033378185305
140248.0,21726.0,140248.0,31848.0,140248.0,24964.0,201.62621475275114,184.55644861107623,206.12177654100736
140248.0,21757.0,140248.0,31834.0,140248.0,24970.0,219.71926106164176,194.1861095886926,219.7431341605253
140248.0,21760.0,140248.0,31869.0,140248.0,24991.0,237.40692715160958,203.4891409544665,232.97090308817536
140258.0,21787.0,140258.0,31894.0,140258.0,25010.0,254.66602779229441,212.4577353031259,245.7927721880788
140258.0,21829.0,140258.0,31913.0,140258.0,25021.0,271.47483719117554,221.08494481285123,258.19765556383834
140258.0,21844.0,140258.0,31919.0,140258.0,25036.0,287.813271514005,229.3650838830821,270.17575873149445
140258.0,21845.0,140258.0,31913.0,140258.0,25049.0,303.6631588179731,237.29395865031086,281.71860362452446
140258.0,21843.0,140258.0,31900.0,140258.0,25053.0,319.00824694423125,244.8687697618028,292.8190127486419
140258.0,21874.0,140258.0,31902.0,140258.0,25052.0,333.8339115093071,252.08773711422327,303.4710163358495
140268.0,21894.0,140268.0,31915.0,140268.0,25091.0,348.12692069943796,258.9496712859369,313.66969689867136
140268.0,21922.0,140268.0,31941.0,140268.0,25091.0,361.8754920962783,265.4537730230286,323.4111555385492
140268.0,21924.0,140268.0,31942.0,140268.0,25112.0,375.0695063747444,271.5997397461325,332.69264671450765
140268.0,21935.0,140268.0,31973.0,140268.0,25117.0,387.70062124211825,277.38801923047157,341.5127055350415
140268.0,21928.0,140268.0,31913.0,140268.0,25091.0,399.7621665471271,282.81995750265355,349.87111790718916
140268.0,21959.0,140268.0,31933.0,140268.0,25112.0,411.24890380395743,287.8975717855845,357.7686465724962
140279.0,21951.0,140279.0,31979.0,140279.0,25139.0,422.1568345094222,292.62312249085977,365.20670124674893
140279.0,21997.0,140279.0,31979.0,140279.0,25142.0,432.4831545650852,296.99910952529257,372.1873110406448
140279.0,21984.0,140279.0,31999.0,140279.0,25152.0,442.2263427935869,301.0287272421831,378.71332221650005
140279.0,21993.0,140279.0,31961.0,140279.0,25147.0,451.38625209910754,304.71618905202536,384.7884893257798
140279.0,21988.0,140279.0,31959.0,140279.0,25143.0,459.96401106915084,308.0665896973979,390.4173645207418
140279.0,22001.0,140279.0,31950.0,140279.0,25163.0,467.96176638078146,311.0854204095285,395.6050840828524
140289.0,22021.0,140289.0,31978.0,140289.0,25162.0,475.3824926349147,313.77812129383534,400.35722606347315
140289.0,22032.0,140289.0,32004.0,140289.0,25182.0,482.2300091888825,316.15002896992706,404.6798238692978
140289.0,22042.0,140289.0,31988.0,140289.0,25182.0,488.5091431808162,318.2066990544492,408.5794647829739
140289.0,22028.0,140289.0,31978.0,140289.0,25169.0,494.2258382739134,319.9541722605411,412.0633477532864
140289.0,22035.0,140289.0,31971.0,140289.0,25181.0,499.3870592097019,321.39885406667463,415.139184890406
140289.0,22051.0,140289.0,31983.0,140289.0,25174.0,504.0005850707181,322.54719596629315,417.81500309929913
140299.0,22053.0,140299.0,32030.0,140299.0,25193.0,508.0749237573849,323.40561116899204,420.09901559665036
140299.0,22068.0,140299.0,32019.0,140299.0,25198.0,511.61938790370766,323.9808329878379,421.99963388393223
140299.0,22048.0,140299.0,32005.0,140299.0,25186.0,514.6441680360333,324.2803919072398,423.5255571764708
140299.0,22059.0,140299.0,31981.0,140299.0,25194.0,517.1602650613544,324.312674824932,424.68577914287573
140299.0,22060.0,140299.0,31963.0,140299.0,25178.0,519.1793222312439,324.08648932292914,425.4894529864357
140299.0,22053.0,140299.0,31984.0,140299.0,25204.0,520.7134958643751,323.6105010175435,425.9457360023141
140310.0,22059.0,140310.0,32001.0,140310.0,25198.0,521.7753624299598,322.89297273792596,426.063757000445
140310.0,22062.0,140310.0,32000.0,140310.0,25195.0,522.3778251741015,321.9419448927341,425.8526982038269
140310.0,22065.0,140310.0,31979.0,140310.0,25210.0,522.5340846427503,320.765516772791,425.3218516906268
140310.0,22049.0,140310.0,31984.0,140310.0,25196.0,522.2576382817593,319.3718541401404,424.4806359164397
140310.0,22060.0,140310.0,31973.0,140310.0,25185.0,521.56219738375,317.76898557636235,423.3385720162536
140310.0,22055.0,140310.0,31982.0,140310.0,25203.0,520.4615674919313,315.96463422116886,421.9051527999053
140320.0,22062.0,140320.0,32008.0,140320.0,25192.0,518.9696112181849,313.96622832749085,420.18973567607964
140320.0,22054.0,140320.0,31993.0,140320.0,25204.0,517.1002768399607,311.78113895189813,418.2015745509928
140320.0,22041.0,140320.0,31979.0,140320.0,25187.0,514.8675789000145,309.4169300239248,415.9498770712594
140320.0,22054.0,140320.0,31957.0,140320.0,25175.0,512.2854858368005,306.8812866408076,413.4437492991636
140320.0,22034.0,140320.0,31966.0,140320.0,25191.0,509.3678052608184,304.18166181825256,410.69202145238927
140320.0,22038.0,140320.0,31967.0,140320.0,25196.0,506.1281069011443,301.3249915550891,407.70315881074254
140330.0,22044.0,140330.0,31993.0,140330.0,25198.0,502.57965444502827,298.31771474871346,404.4854072598438
140330.0,22047.0,140330.0,31972.0,140330.0,25186.0,498.7354348758264,295.1660430966738,401.04699713359355
140330.0,22028.0,140330.0,31947.0,140330.0,25186.0,494.6082808322702,291.8761488844343,397.396196644077
140330.0,22013.0,140330.0,31936.0,140330.0,25177.0,490.21086093619977,288.4539689236218,393.54123486891604
140330.0,22017.0,140330.0,31960.0,140330.0,25174.0,485.55546279669954,284.9048187198334,389.4901972389037
140330.0,22022.0,140330.0,31984.0,140330.0,25184.0,480.6538050577421,281.2333367759041,385.25096206737453
140341.0,22031.0,140341.0,31984.0,140341.0,25189.0,475.51709260745844,277.44391468493694,380.831262856392
140341.0,22020.0,140341.0,31959.0,140341.0,25167.0,470.15624576319266,273.5411979967351,376.2388498158312
140341.0,22000.0,140341.0,31956.0,140341.0,25164.0,464.5820521269479,269.5302124929751,371.48153380635944
140341.0,21995.0,140341.0,31933.0,140341.0,25161.0,458.8050748118877,265.4161339320172,366.56704769638986
140341.0,21995.0,140341.0,31959.0,140341.0,25168.0,452.8354360908518,261.2040147785243,361.5029353477913
140341.0,22009.0,140341.0,31962.0,140341.0,25166.0,446.6827452812159,256.8987490496886,356.296607617429
140351.0,22011.0,140351.0,31971.0,140351.0,25172.0,440.35628589088014,252.50534392094318,350.95550644229945
140351.0,21990.0,140351.0,31932.0,140351.0,25150.0,433.8653058863227,248.02922270484913,345.4872533197911
140351.0,21978.0,140351.0,31931.0,140351.0,25157.0,427.219123411706,243.4762048881238,339.8996787311131
140351.0,21970.0,140351.0,31916.0,140351.0,25133.0,420.426970757469,238.85218733594732,334.20073428445477
140351.0,21978.0,140351.0,31931.0,140351.0,25146.0,413.4978069814719,234.16286039154906,328.3983743451224
140351.0,21974.0,140351.0,31942.0,140351.0,25146.0,406.44031542327787,229.4137015289983,322.5005161771849
140361.0,21974.0,140361.0,31934.0,140361.0,25147.0,399.263061537219,224.61022816189399,316.51515726428266
140361.0,21974.0,140361.0,31906.0,140361.0,25122.0,391.97467921987874,219.75822408432956,310.4505301529335
140361.0,21944.0,140361.0,31893.0,140361.0,25101.0,384.5839841665823,214.86363378259318,304.3150395702666
140361.0,21943.0,140361.0,31901.0,140361.0,25118.0,377.09991481421366,209.93221752241791,298.1169775033341
140361.0,21947.0,140361.0,31925.0,140361.0,25123.0,369.5313653442596,204.96939200255966,291.86436404948853
140361.0,21954.0,140361.0,31928.0,140361.0,25112.0,361.887177588374,199.9804951877823,285.56510197624306
140372.0,21940.0,140372.0,31899.0,140372.0,25109.0,354.1763522596473,194.97121206004903,279.2271897420006
140372.0,21913.0,140372.0,31903.0,140372.0,25094.0,346.40820197258057,189.94772601196397,272.85876201589105
140372.0,21903.0,140372.0,31864.0,140372.0,25093.0,338.59221505557167,184.9165248662828,266.46800600609834
140372.0,21890.0,140372.0,31885.0,140372.0,25086.0,330.73773104179867,179.88407988430617,260.0630666619571
140372.0,21906.0,140372.0,31902.0,140372.0,25099.0,322.85371085482495,174.85668290031023,253.65203357647272
140372.0,21906.0,140372.0,31888.0,140372.0,25109.0,314.9487855472866,169.8406356506747,247.2431003924457
140382.0,21903.0,140382.0,31887.0,140382.0,25059.0,307.0315327089364,164.84256443593208,240.8448013334072
140382.0,21880.0,140382.0,31849.0,140382.0,25070.0,299.11072324977437,159.86947742665336,234.4659987740442
140382.0,21874.0,140382.0,31852.0,140382.0,25055.0,291.19533388230326,154.92850368642542,228.11559931304615
140382.0,21876.0,140382.0,31853.0,140382.0,25061.0,283.29441406155394,150.02655248612342,221.80235019029945
140382.0,21864.0,140382.0,31863.0,140382.0,25056.0,275.41702767787297,145.1701982632227,215.53483920908047
140382.0,21848.0,140382.0,31868.0,140382.0,25057.0,267.57226718650924,140.36585981008903,209.32158455253708
140392.0,21859.0,140392.0,31862.0,140392.0,25049.0,259.769218457914,135.6200913419852,203.17113731396918
140392.0,21831.0,140392.0,31839.0,140392.0,25028.0,252.01691855253253,130.9397565536587,197.09210944412143
140392.0,21830.0,140392.0,31815.0,140392.0,25032.0,244.32431826849458,126.33190533970897,191.09306207941447
140392.0,21833.0,140392.0,31843.0,140392.0,25032.0,236.70020667225148,121.80343997756162,185.1823673012772
140392.0,21838.0,140392.0,31836.0,140392.0,25024.0,229.1532369588702,117.36095707733053,179.36819887657452
140392.0,21827.0,140392.0,31859.0,140392.0,25000.0,221.69212216258387,113.01095328189908,173.65855052280608
140403.0,21806.0,140403.0,31811.0,140403.0,25013.0,214.32578996890038,108.7601213001205,168.06111751299323
140403.0,21796.0,140403.0,31785.0,140403.0,24991.0,207.0633061151923,104.61529893788736,162.5831364770508
140403.0,21791.0,140403.0,31804.0,140403.0,24994.0,199.9136470398159,100.58299401030987,157.2312924329632
140403.0,21788.0,140403.0,31810.0,140403.0,25008.0,192.8855339784477,96.66899691799755,152.01168876714468
140403.0,21793.0,140403.0,31810.0,140403.0,25006.0,185.98742535709076,92.8784530441663,146.92996494341634
140403.0,21779.0,140403.0,31818.0,140403.0,24998.0,179.22761863032093,89.21614991563689,141.99153340895106
140413.0,21774.0,140413.0,31799.0,140413.0,24984.0,172.61433581931087,85.68672349556364,137.20169671337118
140413.0,21750.0,140413.0,31774.0,140413.0,24980.0,166.15567712808007,82.29465190859273,132.56555157342405
