c_ts,c_val,d_ts,d_val,e_ts,e_val,c_val_filtered,d_val_filtered,e_val_filtered
207551,13180,207551,35845,207551,52898,-27.619657523993098,15.655790114003587,-19.83041018374412
207551,13145,207551,35781,207551,52914,-36.50096410585631,10.21389461918082,-25.806435452202912
207551,13127,207551,35758,207551,52870,-45.56808406582692,4.714363678302661,-31.980058323524027
207551,13123,207551,35802,207551,52904,-54.80654268308983,-0.8284289539538392,-38.34886921251652
207551,13132,207551,35847,207551,52913,-64.20253382106095,-6.401671649365937,-44.90988404414826
207551,13126,207551,35819,207551,52909,-73.74285609747066,-11.993409593804913,-51.65920596265036
207561,13088,207561,35787,207561,52859,-83.41472487849292,-17.591800109807473,-58.591672972230015
207561,13085,207561,35735,207561,52822,-93.2058167009349,-23.18518301686946,-65.70104816091066
207561,13074,207561,35731,207561,52820,-103.10452630041925,-28.762853084960014,-72.98074255429316
207561,13070,207561,35752,207561,52841,-113.10013511033901,-34.31581653246813,-80.42444344254345
207561,13073,207561,35788,207561,52838,-123.18278435011632,-39.836902532025135,-88.02616269635273
207561,13076,207561,35795,207561,52836,-133.34329757339378,-45.320161208305805,-95.77988336242305
207571,13038,207571,35729,207571,52812,-143.5729582325297,-50.76016357644404,-103.67927221495341
207571,13031,207571,35731,207571,52797,-153.863483382584,-56.15193620622347,-111.71768309466165
207571,13026,207571,35741,207571,52790,-164.20722416459927,-61.4914215097228,-119.88837434095609
207571,13026,207571,35769,207571,52830,-174.59729382681223,-66.77566242026846,-128.18462887982085
207571,13028,207571,35780,207571,52815,-185.02745758734065,-72.00237768065686,-136.5994756530368
207571,13016,207571,35730,207571,52745,-195.49189384475795,-77.16937912986992,-145.12531009645093
207582,12985,207582,35706,207582,52755,-205.98503740914413,-82.27447663368775,-153.75406553264725
207582,12985,207582,35698,207582,52734,-216.5016567240189,-87.3159840596226,-162.47781430061045
207582,12972,207582,35707,207582,52721,-227.03704586123607,-92.29327591235469,-171.28918569275552
207582,12972,207582,35722,207582,52754,-237.587100754606,-97.20691505825329,-180.1814633386629
207582,12974,207582,35729,207582,52759,-248.14823125610516,-102.0583616764145,-189.14835620259288
207582,12975,207582,35730,207582,52734,-258.7171435535412,-106.84951840995137,-198.1834940096666
207592,12943,207592,35713,207592,52691,-269.2905942562181,-111.58237678343417,-207.2801512159369
207592,12916,207592,35692,207592,52682,-279.8653712474268,-116.25894494100439,-216.43154376362085
207592,12928,207592,35699,207592,52675,-290.4385600980451,-120.88143640530615,-225.63136290088858
207592,12944,207592,35743,207592,52708,-301.00769544923855,-125.45236564192643,-234.8740039258504
207592,12926,207592,35730,207592,52714,-311.5705019970579,-129.97419013739017,-244.1542613779401
207592,12905,207592,35695,207592,52684,-322.1245428858772,-134.4487923529397,-253.46674382697378
207602,12879,207602,35666,207602,52640,-332.66720461664465,-138.87746525809612,-262.8056074553371
207602,12861,207602,35645,207602,52612,-343.196010455824,-143.26148840331035,-272.1649445478348
207602,12855,207602,35682,207602,52620,-353.7089993445551,-147.60274403359824,-281.5394850673985
207602,12880,207602,35712,207602,52635,-364.2048951599631,-151.9037782240213,-290.9249841495388
207602,12863,207602,35699,207602,52629,-374.6829105656592,-156.16722602711965,-300.3180568839304
207602,12836,207602,35673,207602,52627,-385.14242227061374,-160.39521171854017,-309.71576610351764
207613,12825,207613,35634,207613,52576,-395.5829305640621,-164.58934331884907,-319.11540244187313
207613,12818,207613,35646,207613,52585,-406.0042808879443,-168.75123049391618,-328.5146469867381
207613,12826,207613,35667,207613,52601,-416.4067953364339,-172.88292271038074,-337.9118393683151
207613,12822,207613,35656,207613,52592,-426.79115016684875,-176.98685272849292,-347.3059000681275
207613,12805,207613,35681,207613,52567,-437.1581308555284,-181.06547154803408,-356.6960162844727
207613,12792,207613,35614,207613,52548,-447.50850145534275,-185.12099161799821,-366.0815710130379
207623,12768,207623,35620,207623,52541,-457.8430894179966,-189.15553167233873,-375.4623821531937
207623,12765,207623,35629,207623,52526,-468.16299883697786,-193.1715558620326,-384.8389683385383
207623,12775,207623,35651,207623,52555,-478.46975578300567,-197.17204856631514,-394.21262900528956
207623,12781,207623,35664,207623,52544,-488.7651833247227,-201.16016171940075,-403.58523749606655
207623,12752,207623,35645,207623,52547,-499.0510749943598,-205.13867049710473,-412.9588362040511
207623,12737,207623,35618,207623,52501,-509.32902484130807,-209.1097027224887,-422.33536356796213
207633,12714,207633,35609,207633,52498,-519.6005921052888,-213.07493213351788,-431.71675570116145
207633,12726,207633,35596,207633,52498,-529.8675818960312,-217.03600878652952,-441.10525664767545
207633,12731,207633,35626,207633,52513,-540.1321119618854,-220.9948460785359,-450.50352031519975
207633,12722,207633,35638,207633,52509,-550.3963764459829,-224.9535154153059,-459.914344138948
207633,12700,207633,35596,207633,52481,-560.6623676239274,-228.91386988768065,-469.3403116426883
207633,12677,207633,35580,207633,52432,-570.9318611367552,-232.87743115310778,-478.7837748617802
207644,12663,207644,35587,207644,52389,-581.2066767980953,-236.8457337404019,-488.24740927116494
207644,12686,207644,35572,207644,52467,-591.4889376673767,-240.8206855558057,-497.73496270151463
207644,12672,207644,35621,207644,52488,-601.7810298425914,-244.8045964583669,-507.2512854549328
207644,12675,207644,35619,207644,52457,-612.0853074268614,-248.79982020284467,-516.8014512709481
207644,12650,207644,35600,207644,52436,-622.4038481764014,-252.80819788584026,-526.3899788285116
207644,12621,207644,35568,207644,52423,-632.7384621288124,-256.8308107779676,-536.0208032414431
207654,12616,207654,35547,207654,52406,-643.0909612399096,-260.8683055681311,-545.6976048037588
207654,12628,207654,35588,207654,52432,-653.4634410513897,-264.9214034291531,-555.4240091634474
207654,12631,207654,35600,207654,52426,-663.8582404158464,-268.99097159877545,-565.2034665513423
207654,12608,207654,35576,207654,52403,-674.277633852598,-273.07758662240883,-575.0389172060009
207654,12589,207654,35538,207654,52388,-684.7236490627793,-277.18124491671944,-584.9326253687095
207654,12571,207654,35513,207654,52339,-695.1982038091251,-281.3017063291895,-594.8863942454225
207664,12574,207664,35531,207664,52355,-705.7033718651207,-285.4391651094013,-604.9020282944552
207664,12575,207664,35561,207664,52381,-716.2414906018257,-289.5945764195028,-614.9816299392731
207664,12583,207664,35569,207664,52371,-726.8149988403796,-293.7693307699085,-625.1273562578683
207664,12563,207664,35550,207664,52379,-737.4261263198237,-297.9646406212695,-635.340850097826
207664,12532,207664,35537,207664,52320,-748.0767200489781,-302.18121587328676,-645.6228838613341
207664,12524,207664,35500,207664,52294,-758.7683997252421,-306.419420458558,-655.973529587174
207675,12507,207675,35495,207675,52311,-769.5028903806649,-310.6797481196546,-666.392713642741
207675,12538,207675,35546,207675,52342,-780.2821962630821,-314.9632227281595,-676.8804983112772
207675,12525,207675,35574,207675,52301,-791.1084195947831,-319.2711848181998,-687.4367401717111
207675,12516,207675,35555,207675,52245,-801.9833698536627,-323.60446835248285,-698.0607748831928
207675,12488,207675,35473,207675,52264,-812.9083419479215,-327.96284597787974,-708.7517435901048
207675,12472,207675,35482,207675,52237,-823.8842332205869,-332.3454429542875,-719.5091400334231
207685,12473,207685,35495,207685,52293,-834.911815083272,-336.7515976419062,-730.332916636268
207685,12475,207685,35510,207685,52265,-845.9918637850833,-341.18118504176607,-741.2230686301817
207685,12477,207685,35520,207685,52263,-857.1250167253892,-345.63427591225894,-752.1790564494256
207685,12467,207685,35491,207685,52232,-868.311477733513,-350.1106738240369,-763.1995156648189
207685,12426,207685,35457,207685,52197,-879.5508384283697,-354.60981382335694,-774.2824042331197
207685,12427,207685,35478,207685,52199,-890.8422079061464,-359.1310996129136,-785.4254171124118
207695,12425,207695,35516,207695,52224,-902.1844807759979,-363.6741470287535,-796.6262837990118
207695,12427,207695,35527,207695,52228,-913.5763853726453,-368.2383955237951,-807.88256232818
207695,12415,207695,35477,207695,52220,-925.0162858726517,-372.8224195638625,-819.191055284512
207695,12382,207695,35453,207695,52173,-936.5020297717768,-377.4237595653596,-830.5473943103708
207695,12364,207695,35420,207695,52148,-948.0310775519307,-382.0394849123107,-841.9461635595311
207695,12379,207695,35429,207695,52153,-959.6008033013368,-386.66697712620174,-853.3813962917293
207706,12379,207706,35479,207706,52160,-971.2085737665058,-391.3043119939204,-864.846896351004
207706,12374,207706,35485,207706,52148,-982.8514784260583,-395.9499088448962,-876.3361175866166
207706,12354,207706,35460,207706,52174,-994.5260142311254,-400.6017789325877,-887.8418078363237
207706,12334,207706,35448,207706,52128,-1006.2280064059266,-405.2571156827193,-899.3556443436925
207706,12329,207706,35434,207706,52103,-1017.952751256809,-409.91243329682175,-910.8680976229887
207706,12323,207706,35451,207706,52115,-1029.6951706568802,-414.5638409639923,-922.3686555831816
207716,12332,207716,35465,207716,52136,-1041.4497921747338,-419.2070541196281,-933.8459812139758
207716,12321,207716,35464,207716,52116,-1053.2105388216874,-423.8370740707395,-945.2876075248269
207716,12290,207716,35444,207716,52108,-1064.97051680183,-428.44781742629755,-956.679489853582
207716,12281,207716,35397,207716,52057,-1076.722044308734,-433.0320982171276,-968.0058996194957
207716,12269,207716,35392,207716,52006,-1088.4568831403294,-437.5821025378633,-979.2498360386096
207716,12279,207716,35390,207716,52053,-1100.1663860102522,-442.0900301194983,-990.3937498853072
207727,12268,207727,35431,207727,52062,-1111.8414080412838,-446.5483728643742,-1001.4198776126508
207727,12274,207727,35454,207727,52057,-1123.4720677169125,-450.94956143895723,-1012.3098120083442
207727,12251,207727,35438,207727,51989,-1135.0475134150859,-455.2852068275569,-1023.0439858839952
207727,12219,207727,35386,207727,51990,-1146.5558638141754,-459.5455968312656,-1033.6018100763565
207727,12215,207727,35357,207727,52001,-1157.9844237075044,-463.7199719305009,-1043.9621931908719
207727,12222,207727,35423,207727,52028,-1169.3199631176215,-467.797214530689,-1054.1036544999854
207737,12222,207737,35415,207737,52006,-1180.548716086008,-471.76601292927097,-1064.0038606850612
207737,12223,207737,35407,207737,52000,-1191.6560955179339,-475.6143607254751,-1073.6391193574107
207737,12184,207737,35360,207737,51952,-1202.626424039502,-479.32922176507446,-1082.9842813744553
207737,12172,207737,35332,207737,51936,-1213.4429606132003,-482.89688312919037,-1092.013097239354
207737,12164,207737,35339,207737,51934,-1224.0881971095105,-486.30371124085605,-1100.6987754284528
207737,12185,207737,35369,207737,51952,-1234.5440631273966,-489.53666798288543,-1109.0143164844997
207747,12167,207747,35391,207747,51979,-1244.7917947575554,-492.5831622817682,-1116.93233434637
207747,12159,207747,35385,207747,51928,-1254.8116661969366,-495.4304278098012,-1124.4245539951676
207747,12137,207747,35331,207747,51898,-1264.5829065934981,-498.0650707600686,-1131.4616116342422
207747,12122,207747,35307,207747,51892,-1274.0838594231923,-500.4733102298669,-1138.013484136188
207747,12127,207747,35365,207747,51886,-1283.2922211473112,-502.64164248904706,-1144.050097413101
207747,12132,207747,35356,207747,51890,-1292.1851352145786,-504.55706544668396,-1149.541626957854
207758,12123,207758,35381,207758,51916,-1300.7390530837308,-506.2066431654528,-1154.4584530730353
207758,12108,207758,35333,207758,51891,-1308.9295552586516,-507.57704022240415,-1158.7708891267262
207758,12084,207758,35299,207758,51852,-1316.7313799912135,-508.6545909553218,-1162.449021754908
207758,12070,207758,35281,207758,51830,-1324.1187029375897,-509.4259789012089,-1165.4630707366705
207758,12065,207758,35323,207758,51844,-1331.0655168015055,-509.87902700308956,-1167.7840974878463
207758,12076,207758,35339,207758,51869,-1337.5458831137273,-510.0029048722023,-1169.384431728256
207768,12074,207768,35343,207768,51859,-1343.5339234189687,-509.78769480832085,-1170.2375561925576
207768,12071,207768,35343,207768,51847,-1349.0036458218988,-509.22387142966204,-1170.3178428787742
207768,12044,207768,35306,207768,51821,-1353.928854622297,-508.3021343846551,-1169.6006213122903
207768,12035,207768,35304,207768,51840,-1358.283319941987,-507.01367945115965,-1168.062579651906
207768,12060,207768,35337,207768,51843,-1362.0410766457449,-505.35063309523207,-1165.6821169474395
207768,12073,207768,35347,207768,51877,-1365.1764688942387,-503.30614484075477,-1162.4393599297966
207778,12049,207778,35352,207778,51843,-1367.6638764078034,-500.87405473036205,-1158.3159522860701
207778,12043,207778,35300,207778,51848,-1369.4775583695293,-498.0486541717933,-1153.2950056149175
207778,12020,207778,35287,207778,51827,-1370.5918849494012,-494.8250179659585,-1147.361423119744
207778,12026,207778,35319,207778,51849,-1370.9817751429882,-491.19972151429494,-1140.5023901606312
207778,12039,207778,35363,207778,51868,-1370.6230442599742,-487.17118041591834,-1132.7076901371572
207778,12037,207778,35388,207778,51910,-1369.4924979459552,-482.73919769971144,-1123.9696376674447
207789,12033,207789,35363,207789,51868,-1367.5678908907075,-477.90419027144856,-1114.2827670041595
207789,12024,207789,35350,207789,51886,-1364.8280039342242,-472.666851458827,-1103.643767698091
207789,12023,207789,35330,207789,51896,-1361.2529030210578,-467.0284803471178,-1092.0518214857084
207789,12042,207789,35344,207789,51920,-1356.8242268809984,-460.9916095625134,-1079.5089114739555
207789,12055,207789,35393,207789,51947,-1351.5252996793788,-454.5603890969926,-1066.019824369555
207789,12066,207789,35423,207789,51983,-1345.3410267283855,-447.74035777119457,-1051.5919144910247
207799,12058,207799,35413,207799,51989,-1338.2577680729482,-440.53777624175177,-1036.2347528549103
207799,12053,207799,35371,207799,51940,-1330.2634211405036,-432.9592397977437,-1019.9599990585224
207799,12046,207799,35373,207799,51991,-1321.347771578583,-425.0120422713554,-1002.7818315827869
207799,12078,207799,35417,207799,52027,-1311.5029325530131,-416.7048618167322,-984.7175212679047
207799,12103,207799,35440,207799,52082,-1300.7235510576347,-408.0479669217149,-965.7874088379381
207799,12124,207799,35471,207799,52125,-1289.006645895501,-399.0527865415002,-946.0142656750304
207809,12123,207809,35457,207809,52105,-1276.3513264189314,-389.731343881991,-925.4225957331516
207809,12130,207809,35435,207809,52124,-1262.758730083939,-380.0960695145743,-904.0384181903305
207809,12135,207809,35438,207809,52160,-1248.232243603135,-370.16016342575017,-881.8895502828283
207809,12179,207809,35491,207809,52202,-1232.7777809977588,-359.93810894566786,-859.0058268805054
207809,12202,207809,35532,207809,52208,-1216.403822969629,-349.4456682725098,-835.4189746007121
207809,12229,207809,35548,207809,52254,-1199.1211748987912,-338.69924174748024,-811.1624309056776
207820,12235,207820,35511,207820,52226,-1180.9427082968477,-327.7152359399673,-786.2713661893357
207820,12239,207820,35502,207820,52276,-1161.88334844722,-316.51011189004066,-760.7829624060857
207820,12268,207820,35528,207820,52316,-1141.9603219771238,-305.10101381302604,-734.736748771529
207820,12305,207820,35566,207820,52403,-1121.193400787921,-293.506237045974,-708.1745137035574
207820,12342,207820,35618,207820,52439,-1099.6048645300662,-281.7450327931444,-681.1395974458286
207820,12370,207820,35624,207820,52484,-1077.2192133575272,-269.83691299940574,-653.6759485312508
207830,12397,207830,35595,207830,52494,-1054.0628670134388,-257.80106589627195,-625.8274526663516
207830,12417,207830,35597,207830,52520,-1030.1640052788018,-245.65641787785566,-597.6377349903848
207830,12453,207830,35642,207830,52556,-1005.5525428553289,-233.4221306173245,-569.1502804855782
207830,12498,207830,35690,207830,52612,-980.2600920587653,-221.1177476045437,-540.4085149477596
207830,12536,207830,35732,207830,52648,-954.3197545007669,-208.7626292608893,-511.4555941644477
207830,12557,207830,35713,207830,52669,-927.7658014451004,-196.37511514956898,-482.3340375051431
207840,12586,207840,35682,207840,52660,-900.6334765159999,-183.97216750748342,-453.0856112920263
207840,12613,207840,35684,207840,52687,-872.9590026187545,-171.56982941981536,-423.7516912741103
207840,12658,207840,35726,207840,52763,-844.779642172039,-159.18398710570887,-394.3737648835092
207840,12708,207840,35758,207840,52798,-816.1336131735109,-146.83064856065667,-364.9934587392471
207840,12752,207840,35802,207840,52867,-787.0597748926863,-134.52554983049052,-335.6520050548088
207840,12777,207840,35786,207840,52874,-757.597213493998,-122.28351540456998,-306.38958677281414
207851,12810,207851,35750,207851,52895,-727.7849752485663,-110.11819755141556,-277.24497495696016
207851,12829,207851,35765,207851,52936,-697.6620452294143,-98.04252398265083,-248.25557046874133
207851,12883,207851,35818,207851,52992,-667.2674487984351,-86.06935758695289,-219.45751273339613
207851,12934,207851,35869,207851,53023,-636.6402297475242,-74.21151379986424,-190.88548201635535
207851,12965,207851,35859,207851,53059,-605.8191743079825,-62.481080550906256,-162.57231546050082
207851,12998,207851,35850,207851,53058,-574.8424821331641,-50.88883974480808,-134.5487919349249
207861,13015,207861,35805,207861,53077,-543.7476561980748,-39.44442938336084,-106.84377890586188
207861,13061,207861,35848,207861,53097,-512.5716123988717,-28.15710026739589,-79.48466544944063
207861,13105,207861,35879,207861,53173,-481.3507809756376,-17.036332348510655,-52.49771012178178
207861,13150,207861,35949,207861,53220,-450.12099820909896,-6.091685094657919,-25.907883882918895
207861,13172,207861,35890,207861,53228,-418.9172600609986,4.667905947881593,0.26171385363454647
207861,13216,207861,35909,207861,53254,-387.77356325073197,15.23450638546575,25.990275928063056
207871,13237,207871,35893,207871,53265,-356.7228892955069,25.600851805858838,51.25924208850779
207871,13281,207871,35949,207871,53292,-325.7972433884165,35.75986701158132,76.05202302124178
207871,13322,207871,35983,207871,53354,-295.02765799705855,45.7046753925963,100.35382423054261
207871,13374,207871,36007,207871,53348,-264.444056931604,55.42916545162825,124.15174030403591
207871,13397,207871,35995,207871,53367,-234.0749808974399,64.92865531677381,147.4348893436494
207871,13419,207871,35957,207871,53393,-203.94738807461886,74.20006653287675,170.19427026106428
207882,13450,207882,35945,207882,53398,-174.08670688312282,83.24138467483607,192.42247483778237
207882,13483,207882,35985,207882,53440,-144.51702875058993,92.05081568138422,214.1134713869384
207882,13534,207882,36045,207882,53469,-115.2611972056917,100.62644342399773,235.26253109437584
207882,13578,207882,36053,207882,53498,-86.340660968939,108.96674070080684,255.8663599751402
207882,13594,207882,36043,207882,53510,-57.77517731696412,117.07134683726485,275.9233131550052
207882,13608,207882,36010,207882,53491,-29.582670603742827,124.94129637977596,295.4333961242843
207892,13648,207892,35998,207892,53525,-1.7794031442767846,132.57851271163264,314.3979073150638
207892,13686,207892,36064,207892,53572,25.61980723359261,139.98510689643,332.8190397335586
207892,13722,207892,36070,207892,53614,52.601604800007635,147.16322642280733,350.69995361356985
207892,13731,207892,36064,207892,53587,79.15423787840177,154.11547199978838,368.0452107434627
207892,13762,207892,36046,207892,53604,105.26755238143483,160.84514570027966,384.8609086108178
207892,13778,207892,36042,207892,53598,130.93279886380924,167.35596407600104,401.1542895884859
207902,13809,207902,36064,207902,53613,156.1424072312941,173.6515801731092,416.93318924196626
207902,13836,207902,36090,207902,53678,180.88983058401323,179.73537978932598,432.20571006448483
207902,13886,207902,36099,207902,53673,205.1695232061254,185.61068744765697,446.9803328845403
207902,13898,207902,36118,207902,53711,228.97708529940166,191.28114924960323,461.2662956953317
207902,13928,207902,36084,207902,53688,252.30942893727843,196.75097477447025,475.0738106045136
207902,13950,207902,36086,207902,53693,275.16480551248014,202.0248213682098,488.4139162359053
207913,13965,207913,36083,207913,53702,297.5427271629344,207.10736925824034,501.29804620722166
207913,13996,207913,36157,207913,53783,319.44385104568437,212.00304673246023,513.7377241498398
207913,14040,207913,36150,207913,53771,340.86992159641625,216.71634438103706,525.7448200055067
207913,14043,207913,36124,207913,53746,361.8238719453003,221.25240862747268,537.3320049845017
207913,14039,207913,36115,207913,53766,382.3098679005891,225.6171514595331,548.5126681695997
207913,14061,207913,36078,207913,53749,402.3330029968869,229.81671632086136,559.3003712620489
207923,14089,207923,36124,207923,53768,421.89884078317664,233.85677959989158,569.7083429274969
207923,14125,207923,36164,207923,53836,441.0132129869031,237.74227642776793,579.7492652780518
207923,14140,207923,36174,207923,53838,459.682323975686,241.47783797350974,589.4355645586418
207923,14150,207923,36147,207923,53830,477.91288813186225,245.06845842988616,598.7799708768903
207923,14167,207923,36131,207923,53817,495.7120773351943,248.5196447842764,607.7956666050261
207923,14186,207923,36139,207923,53820,513.0873289354095,251.83700469081424,616.4958813839714
207933,14213,207933,36179,207933,53864,530.04620219563,255.02587128964603,624.8934351919106
207933,14237,207933,36194,207933,53865,546.5963780878371,258.0914464412279,633.0006702277515
207933,14268,207933,36187,207933,53871,562.7457900591139,261.0393063767878,640.829672037979
207933,14268,207933,36155,207933,53852,578.5027944567498,263.8756867636564,648.3923322492951
207933,14266,207933,36144,207933,53854,593.8761759641316,266.607207019494,655.7000562194467
207933,14279,207933,36150,207933,53881,608.8748542179158,269.2402704531009,662.7633499793694
207944,14297,207944,36156,207944,53890,623.5074734656068,271.78061357514855,669.5916443035208
207944,14337,207944,36204,207944,53924,637.7821927082923,274.2332694855254,676.1934547363765
207944,14347,207944,36185,207944,53911,651.7067833137751,276.60291884559916,682.5766829953427
207944,14362,207944,36169,207944,53893,665.288843611698,278.89425185941934,688.7487437757268
207944,14353,207944,36144,207944,53901,678.535840831328,281.1118655377295,694.7163062383408
207944,14379,207944,36141,207944,53933,691.4549032400216,283.25971430930326,700.4849110053788
207954,14411,207954,36190,207954,53973,704.0526071173538,285.34062583827136,706.0589845739585
207954,14434,207954,36254,207954,53957,716.3350457087213,287.3564708262488,711.4423035876953
207954,14431,207954,36179,207954,53973,728.3080909067346,289.3089664693615,716.6384211065047
207954,14431,207954,36160,207954,53928,739.9774710552704,291.2001178361414,721.6506682217546
207954,14444,207954,36172,207954,53935,751.3485331493066,293.03171630200023,726.4817248342133
207954,14463,207954,36157,207954,53968,762.4259401932779,294.8046214945461,731.1330751950272
207965,14492,207965,36203,207965,53983,773.2135767548084,296.51849857410923,735.6048459663434
207965,14511,207965,36228,207965,53981,783.7147091146546,298.1720452303248,739.8960834233048
207965,14510,207965,36186,207965,54013,793.9322298984523,299.76349996194426,744.0050650514884
207965,14509,207965,36168,207965,53971,803.8687219804533,301.29084277742453,747.9294431988385
207965,14526,207965,36184,207965,53983,813.5262646688018,302.75140100558195,751.6661439379925
207965,14559,207965,36238,207965,54038,822.9062451782515,304.14151596936284,755.21113859497
207975,14569,207975,36261,207975,54062,832.0094404360982,305.45692831957854,758.5596324266667
207975,14571,207975,36262,207975,54050,840.8362457340215,306.6936554872602,761.7067454550688
207975,14571,207975,36202,207975,54030,849.3867304567127,307.84857011181464,764.6479732618818
207975,14567,207975,36187,207975,54030,857.6604277880192,308.91913721322663,767.3790292278227
207975,14593,207975,36212,207975,54047,865.6560263678803,309.9026178180638,769.8954387058072
207975,14631,207975,36241,207975,54071,873.3712573618425,310.79561539898316,772.1923972733371
207985,14636,207985,36255,207985,54097,880.8031490068943,311.59435377622805,774.2650490396479
207985,14654,207985,36265,207985,54066,887.9484301476318,312.2952919653083,776.1089362460696
207985,14654,207985,36218,207985,54076,894.8037691830014,312.89552563748924,777.7201933111019
207985,14643,207985,36188,207985,54057,901.3657696057865,313.39260294072096,779.0953599948061
207985,14667,207985,36228,207985,54081,907.6307768872564,313.78386810681843,780.2310951083834
207985,14706,207985,36319,207985,54094,913.5947558585617,314.06621527043677,781.124088372703
207996,14721,207996,36288,207996,54138,919.253550363879,314.2368839867311,781.7713243398973
207996,14718,207996,36273,207996,54081,924.6033654435982,314.2945234815194,782.1705568242311
207996,14716,207996,36206,207996,54089,929.6410168453419,314.2393580306522,782.3204799145376
207996,14728,207996,36230,207996,54070,934.3638447770609,314.07242922612033,782.220381128061
207996,14725,207996,36219,207996,54099,938.7695389027635,313.7947590194643,781.8697159002234
207996,14758,207996,36274,207996,54114,942.8560669257522,313.4070831318488,781.2680446098574
208005,14768,208005,36275,208005,54131,946.6217918350612,312.9102195618449,780.4153645406279
208005,14775,208005,36252,208005,54101,950.0657515748919,312.3056573027801,779.3125352581974
208005,14760,208005,36229,208005,54103,953.1878623925636,311.595762171281,777.9614048002929
208005,14756,208005,36214,208005,54095,955.9888273368811,310.7834074443364,776.3646002257163
208005,14786,208005,36259,208005,54140,958.4698753846164,309.8714906398482,774.5253649481537
208005,14793,208005,36286,208005,54119,960.6326893759594,308.8629515622093,772.4477422827422
208015,14797,208015,36241,208015,54123,962.4796097433657,307.76129556689017,770.1369108243723
208015,14791,208015,36237,208015,54088,964.0138225665221,306.57090352699146,767.5992586880678
208015,14780,208015,36190,208015,54059,965.2393133183862,305.29669126390587,764.8420385959921
208015,14779,208015,36207,208015,54071,966.1606185828182,303.94343198093054,761.8727574135509
208015,14793,208015,36235,208015,54114,966.782551684611,302.5152859285003,758.6987754819362
208015,14806,208015,36259,208015,54133,967.1101186292801,301.01592570609694,755.3275829883352
208026,14800,208026,36260,208026,54122,967.1486505098189,299.44914980869794,751.7675487388929
208026,14812,208026,36243,208026,54087,966.9039579441687,297.8194459845553,748.0284267146113
208026,14818,208026,36205,208026,54077,966.3824203524503,296.1320792954557,744.1212295584243
208026,14812,208026,36222,208026,54079,965.5910746462703,294.39271080449276,740.0577519998526
208026,14824,208026,36235,208026,54087,964.5376869358315,292.60700813230716,735.8502578911613
208026,14827,208026,36273,208026,54094,963.2308029817025,290.78073744170723,731.5115186844168
208036,14821,208036,36205,208036,54080,961.6798257110827,288.92019905461405,727.05502689142
208036,14811,208036,36205,208036,54040,959.89503250457,287.0323265439829,722.4950522238934
208036,14795,208036,36164,208036,54031,957.8874105295995,285.1241617300255,717.8463032049012
208036,14806,208036,36196,208036,54041,955.6683664572454,283.2021647459439,713.1233941428964
208036,14822,208036,36227,208036,54037,953.2495490113772,281.27195190225757,708.340564241375
208036,14827,208036,36238,208036,54072,950.6429681436337,279.3386776816252,703.5117940834034
208046,14800,208046,36204,208046,54043,947.8612343959305,277.4076599835593,698.6511571337144
208046,14801,208046,36178,208046,54021,944.9175639125156,275.4845543124654,693.7730678430519
208046,14790,208046,36176,208046,54004,941.8255244116024,273.5749310279896,688.8921081750887
208046,14804,208046,36198,208046,54036,938.5987989428891,271.6837877158924,684.0226405352406
208046,14815,208046,36242,208046,54019,935.2511673448814,269.8155651684039,679.1787064913889
208046,14815,208046,36224,208046,54039,931.7967090093291,267.9747174050229,674.374253322563
208057,14782,208057,36176,208057,53974,928.249995803837,266.1662284703374,669.6232993875525
208057,14778,208057,36153,208057,53963,924.6259731644218,264.39541005853835,664.9396715702461
208057,14775,208057,36163,208057,53977,920.9395855543659,262.66714575069955,660.3363973253042
208057,14781,208057,36191,208057,53978,917.2054938909929,260.98537297363737,655.8253134771027
208057,14793,208057,36236,208057,54001,913.4380605256925,259.3532861961787,651.4171807472817
208057,14777,208057,36202,208057,53999,909.6515041673898,257.7740527912415,647.122076972343
208067,14766,208067,36182,208067,53982,905.8599875109716,256.25133517654774,642.949767125878
208067,14753,208067,36166,208067,53957,902.0774691438226,254.78914760088605,638.9097806617782
208067,14748,208067,36168,208067,53979,898.3174022483894,253.39134494419264,635.0111756252546
208067,14780,208067,36208,208067,53989,894.5925326188535,252.0613343318199,631.2623858736266
208067,14768,208067,36197,208067,53992,890.9149979320441,250.80226847719774,627.6714283648199
208067,14752,208067,36196,208067,53959,887.2965720353304,249.61745958223793,624.2461950143208
208077,14741,208077,36123,208077,53934,883.7486673292475,248.5104510975184,620.994377571591
208077,14736,208077,36145,208077,53939,880.2820584389909,247.48448212914678,617.9229949070925
208077,14727,208077,36156,208077,53933,876.9065838220731,246.54179971993926,615.037927209986
208077,14748,208077,36183,208077,53961,873.630978771489,245.68350292318829,612.3437806705189
208077,14755,208077,36194,208077,53962,870.462930567138,244.90997121551308,609.8440925780926
208077,14738,208077,36156,208077,53947,867.4093129958151,244.22135913865395,607.5416641947102
208088,14729,208088,36131,208088,53933,864.476304528287,243.61763098716378,605.4386853498922
208088,14735,208088,36138,208088,53952,861.6692543425722,243.09807077862658,603.5365838830278
208088,14748,208088,36200,208088,53949,858.9925550313937,242.66088879244165,601.8359196106348
208088,14759,208088,36229,208088,53956,856.4497626449735,242.3035986003872,600.3364907419526
208088,14761,208088,36185,208088,53945,854.0439011919198,242.02392989155226,599.0374807092728
208088,14723,208088,36157,208088,53943,851.7776722087024,241.82028959030822,597.9374814976778
208098,14730,208098,36115,208098,53927,849.6533163350216,241.6912795739689,597.0343732639182
208098,14734,208098,36153,208098,53907,847.6722664469452,241.63479721251022,596.3250602927221
208098,14743,208098,36152,208098,53965,845.8349869045376,241.64751410582576,595.805192881038
208098,14734,208098,36227,208098,53961,844.1410595826746,241.72508117237365,595.4692455930867
208098,14746,208098,36198,208098,53948,842.5892900153118,241.86288210792154,595.3109560740281
208098,14749,208098,36176,208098,53922,841.1777770026927,242.05672620857922,595.3235296256041
208108,14733,208108,36135,208108,53941,839.9039861944283,242.30283108782822,595.499370946799
208108,14761,208108,36189,208108,53960,838.7647791412192,242.59723910669183,595.8298188346698
208108,14751,208108,36209,208108,54000,837.7564565854786,242.935547959984,596.3053414528213
208108,14757,208108,36220,208108,54000,836.8748848988671,243.31336029211454,596.9161539950684
208108,14765,208108,36211,208108,53972,836.1156086478918,243.7269364334876,597.6527976386751
208108,14746,208108,36129,208108,53926,835.4738968044011,244.1733441169859,598.5061357191416
208119,14755,208119,36136,208119,53940,834.9447004848746,244.6498118563809,599.4667006506147
208119,14741,208119,36162,208119,53971,834.5225082074511,245.15277380480083,600.5240313892061
208119,14765,208119,36206,208119,54017,834.2012141846213,245.67755329150017,601.6667019578614
208119,14784,208119,36215,208119,54002,833.9741738716228,246.21892395489823,602.8830008973717
208119,14789,208119,36224,208119,54008,833.8345198215412,246.77193947934484,604.1615982279216
208119,14756,208119,36155,208119,53973,833.7754850951451,247.3323642696521,605.4917125773047
208129,14767,208129,36185,208129,53979,833.7903722004918,247.89642594534948,606.8628193141822
208129,14784,208129,36215,208129,54016,833.8723033708277,248.4603512004979,608.2643007335935
208129,14781,208129,36210,208129,54024,834.0141753564335,249.02040154942313,609.6854959980736
208129,14791,208129,36213,208129,54037,834.208829073058,249.57328563441794,611.1161511776056
208129,14774,208129,36172,208129,53994,834.4491631586095,250.11632288516267,612.5467779662631
208129,14762,208129,36150,208129,53991,834.7280459620374,250.64710364756007,613.9685288034543
208139,14779,208139,36170,208139,53997,835.038062623054,251.16284824410116,615.3727162021003
208139,14790,208139,36202,208139,54002,835.3713524647962,251.66002157311465,616.7504460773612
208139,14809,208139,36237,208139,54027,835.7197514552347,252.1346262966211,618.0926041596877
208139,14795,208139,36220,208139,54046,836.0751044018634,252.58293997721736,619.3901350696008
208139,14791,208139,36192,208139,54025,836.4294375127631,253.00202845901663,620.6344463767551
208139,14793,208139,36176,208139,54001,836.7748762346057,253.38961265125909,621.8175716399678
208150,14793,208150,36183,208150,54014,837.1034786184756,253.74353165552802,622.9318923565634
208150,14817,208150,36247,208150,54035,837.407188865544,254.06146002296708,623.9698056106848
208150,14822,208150,36236,208150,54059,837.6779922588421,254.34129002750268,624.9238091952927
208150,14817,208150,36215,208150,54042,837.9081847204361,254.581790473037,625.7869214803782
208150,14793,208150,36181,208150,54022,838.090484049377,254.78275689527564,626.5529424795748
208150,14789,208150,36147,208150,54013,838.2178029785555,254.94444475380047,627.2162588523026
208160,14817,208160,36189,208160,54019,838.2829008263013,255.0667672717131,627.7714095810501
208160,14825,208160,36225,208160,54048,838.278324789605,255.148972294464,628.2128496322682
208160,14828,208160,36206,208160,54072,838.1966937306822,255.19005720972632,628.5351586725452
208160,14833,208160,36212,208160,54015,838.0310049483592,255.1893330481809,628.7334724087043
208160,14826,208160,36183,208160,54007,837.7747779875879,255.1465590091674,628.8035174661775
208160,14819,208160,36164,208160,54006,837.4220478535012,255.06166159693643,628.7410840187912
208171,14830,208171,36203,208171,54049,836.9672584324162,254.9343196744466,628.5415778298599
208171,14837,208171,36197,208171,54070,836.4052040447292,254.76381816055067,628.2002063423547
208171,14842,208171,36213,208171,54059,835.7311326376853,254.54929787623752,627.7126168299592
208171,14822,208171,36184,208171,54039,834.9408832912716,254.2900372922975,627.0753654761487
208171,14813,208171,36123,208171,54024,834.0308274863719,253.98532705768315,626.285851223675
208171,14814,208171,36174,208171,54010,832.997596057093,253.6338543618138,625.3418844972558
208181,14836,208181,36183,208181,54042,831.8378611013189,253.23320225084274,624.2412855121423
208181,14828,208181,36232,208181,54069,830.5483915215442,252.78010141454004,622.981884606415
208181,14833,208181,36220,208181,54064,829.1262548090208,252.2712159577851,621.5619995437856
208181,14823,208181,36185,208181,54007,827.5689243513411,251.70376304812012,619.9808677331289
208181,14805,208181,36167,208181,54023,825.8742114078769,251.07548084811444,618.2384748690874
208181,14808,208181,36179,208181,54028,824.0400420724159,250.38410469539667,616.3350572676568
208191,14831,208191,36253,208191,54068,822.0642573826353,249.6271105004513,614.2709922714796
208191,14842,208191,36210,208191,54053,819.9447159171349,248.80218077237149,612.0472183772899
208191,14828,208191,36204,208191,54012,817.6796503786254,247.90783075695447,609.6656467603037
208191,14822,208191,36188,208191,54011,815.2679018171794,246.94345812354095,607.1290420417849
208191,14799,208191,36148,208191,53977,812.7088291757944,245.90889314819958,604.4404754479488
208191,14805,208191,36180,208191,54021,810.0020156185483,244.8038440416213,601.6028379905213
208202,14814,208202,36218,208202,54022,807.1470286762635,243.62764217652224,598.6187737955839
208202,14827,208202,36254,208202,54049,804.1434487385449,242.37969399191357,595.4910840794572
208202,14811,208202,36190,208202,54007,800.991113288514,241.06032389039032,592.2232495539753
208202,14804,208202,36173,208202,53984,797.6902814280427,239.67107520632823,588.8195632110071
208202,14797,208202,36169,208202,53953,794.2415628698602,238.214202100129,585.2846912368157
208202,14807,208202,36168,208202,54005,790.6457692369806,236.6920323007137,581.6230666638794
208212,14808,208212,36194,208212,54013,786.9039041871872,235.10674703278298,577.8387874866808
208212,14790,208212,36184,208212,54011,783.0172720981777,233.46054567727305,573.9361243310334
208212,14797,208212,36157,208212,53970,778.9875170734459,231.7558652275887,569.9199939968435
208212,14785,208212,36155,208212,53953,774.816561869145,229.99530234173847,565.795860421805
208212,14786,208212,36130,208212,53934,770.5065559683321,228.18125005443414,561.5691863528651
208212,14772,208212,36153,208212,53983,766.0598367871767,226.31554048367906,557.2449657662133
208222,14776,208222,36193,208222,53968,761.4788654923649,224.39940106229758,552.8277719610769
208222,14798,208222,36196,208222,53965,756.7662344913493,222.43392255815832,548.3221734329437
208222,14752,208222,36135,208222,53949,751.9248112726228,220.4206482603746,543.7329932306584
208222,14749,208222,36131,208222,53914,746.9577574504488,218.36154765802604,539.0651930837057
208222,14756,208222,36158,208222,53908,741.8682772127025,216.25847372253176,534.3234752339298
208222,14766,208222,36185,208222,53939,736.6594654095509,214.11297190682205,529.5118851345378
208233,14770,208233,36192,208233,53947,731.3345040955716,211.92675852517442,524.6338418699662
208233,14750,208233,36169,208233,53933,725.8969706468881,209.7023443159516,519.6925860450198
208233,14732,208233,36127,208233,53885,720.3509315273533,207.44319803361157,514.6914621969768
208233,14709,208233,36096,208233,53889,714.7007123046477,205.15325368619864,509.63365516314104
208233,14725,208233,36123,208233,53888,708.9505279435544,202.83611141381232,504.5217020667757
208233,14728,208233,36159,208233,53919,703.104313222611,200.49464626014256,499.3573424140234
208243,14732,208243,36179,208243,53937,697.1658907503671,198.1314132772101,494.1418944243791
208243,14707,208243,36123,208243,53881,691.1392396758855,195.74937126874073,488.8768317144311
208243,14687,208243,36108,208243,53862,685.02852902867,193.35207107437247,483.56392888531127
208243,14677,208243,36095,208243,53886,678.8378447270187,190.94314639858487,478.2048565634056
208243,14689,208243,36121,208243,53899,672.5708732036034,188.5257506146326,472.8009280665482
208243,14700,208243,36139,208243,53915,666.2308673353243,186.10249595244423,467.35343678727406
208253,14689,208253,36132,208253,53867,659.8209208645884,183.67585044721926,461.8641795023736
208253,14672,208253,36087,208253,53844,653.3442415735854,181.2484785359954,456.3355483270782
208253,14645,208253,36072,208253,53836,646.8041276440197,178.82304559857945,450.770081971948
208253,14638,208253,36064,208253,53825,640.2036531678203,176.40159968592678,445.1699254924442
208253,14666,208253,36105,208253,53853,633.5453743551142,173.9851152094206,439.5366011724151
208253,14660,208253,36130,208253,53853,626.8314023957464,171.57365184049456,433.8711754694349
208264,14652,208264,36137,208264,53859,620.0637659873041,169.167059779936,428.1746924504324
208264,14634,208264,36090,208264,53809,613.2446506176958,166.7656465322293,422.44851345513587
208264,14621,208264,36056,208264,53787,606.3763404917897,164.37018390129407,416.6941865366182
208264,14618,208264,36072,208264,53798,599.4610168313842,161.98128757586244,410.9129225356862
208264,14614,208264,36111,208264,53821,592.5006128220215,159.59893222479536,405.1052625955029
208264,14630,208264,36116,208264,53849,585.496844534379,157.22268693957204,399.27136812895924
208274,14608,208274,36064,208274,53812,578.451407636137,154.85227032691574,393.4116903701425
208274,14586,208274,36049,208274,53756,571.3661232968411,152.48759351338805,387.5273010766599
208274,14573,208274,36036,208274,53742,564.2428025237011,150.1281858368432,381.6194310510697
208274,14580,208274,36078,208274,53767,557.0829583860565,147.772667010889,375.68868190357955
208274,14584,208274,36118,208274,53766,549.8877080777174,145.41886884853187,369.7347265789621
208274,14574,208274,36107,208274,53804,542.6579396442048,143.0645964683143,363.7566544558631
208284,14568,208284,36092,208284,53771,535.3945187022704,140.70839359718175,357.75357449375406
208284,14550,208284,36042,208284,53763,528.0983509599025,138.34968063207123,351.7250373011251
208284,14538,208284,36041,208284,53712,520.7702903865274,135.98824324374584,345.6709746128797
208284,14545,208284,36073,208284,53748,513.4109941880201,133.62362401968178,339.5912755882759
208284,14558,208284,36122,208284,53781,506.02092895245056,131.25511938694592,333.48559895233626
208284,14545,208284,36076,208284,53775,498.6006291275631,128.88244861123337,327.35384191508837
208295,14514,208295,36051,208295,53720,491.15094877384854,126.50626921182945,321.19677613341776
208295,14513,208295,36008,208295,53685,483.67300098976546,124.12787704150108,315.01600682162217
208295,14496,208295,36009,208295,53686,476.16789223585823,121.74837028471475,308.81325093660405
208295,14506,208295,36017,208295,53702,468.63654900747656,119.36794314325377,302.58970542555517
208295,14498,208295,36081,208295,53735,461.0797400290629,116.98578070681751,296.3460721253009
208295,14497,208295,36081,208295,53717,453.4982271544485,114.60068249643226,290.08313201520764
208305,14477,208305,36031,208305,53703,445.89290328362915,112.21189258036594,283.8023163179051
208305,14461,208305,35991,208305,53640,438.26477965431076,109.81923573895352,277.50576039023025
208305,14456,208305,36039,208305,53654,430.6148184290661,107.422501012206,271.1957877380565
208305,14463,208305,36077,208305,53685,422.9437886309119,105.02110473348498,264.8743866811669
208305,14470,208305,36071,208305,53687,415.2523477657759,102.61463207648882,258.54331301778484
208305,14445,208305,36001,208305,53659,407.5413025573354,100.20350430726984,252.2046283920444
208315,14415,208315,35988,208315,53603,399.81172092568903,97.7888064359991,245.86088100435876
208315,14405,208315,35941,208315,53590,392.0646806662158,95.3713541812746,239.51458253900006
208315,14412,208315,36013,208315,53610,384.3008956156911,92.950811730726,233.1674588261369
208315,14409,208315,36037,208315,53634,376.5205977061045,90.52559488894391,226.82021079435378
208315,14421,208315,36072,208315,53623,368.7237274981272,88.09369318867078,220.47292934192825
208315,14401,208315,36010,208315,53594,360.91023890484354,85.65369663473808,214.12559341016026
208326,14395,208326,35987,208326,53595,353.0803096581022,83.20510229570561,207.7781574615205
208326,14364,208326,35971,208326,53568,345.2343279952899,80.74776519469071,201.43033156791665
208326,14382,208326,35996,208326,53597,337.3727182925295,78.28119979594018,195.08139611721435
208326,14381,208326,36040,208326,53596,329.49587073638156,75.8044565876504,188.73027577851906
208326,14368,208326,36021,208326,53611,321.6043146536982,73.3166587733981,182.37591726710593
208326,14356,208326,35990,208326,53547,313.6989128734614,70.81758186341602,176.01766940307385
208336,14322,208336,35949,208336,53548,305.7808200866825,68.30758812452072,169.65522027399652
208336,14320,208336,35951,208336,53511,297.85120517373707,65.78695029886481,163.28809354466125
208336,14314,208336,35983,208336,53562,289.9109418568929,63.255238482722746,156.91519771280548
208336,14338,208336,36002,208336,53568,281.9605408417551,60.71134084965698,150.5349018772671
208336,14299,208336,36020,208336,53576,274.00036389108095,58.15406966160327,144.14564412102845
208336,14298,208336,35964,208336,53541,266.03080208613414,55.582781908562794,137.74655852841897
208346,14286,208346,35955,208346,53514,258.05220981610944,52.997439872379346,131.33760887717483
208346,14276,208346,35960,208346,53510,250.06476649533522,50.398148060066035,124.91923712308221
208346,14286,208346,35999,208346,53532,242.06844205777998,47.78484243096639,118.49200427523192
208346,14299,208346,36008,208346,53543,234.0631431208236,45.157595346485095,112.05667695987131
208346,14269,208346,35960,208346,53484,226.0490337423297,42.51718411377979,105.61460180163613
208346,14245,208346,35924,208346,53477,218.02672316242615,39.86516219841235,99.16774226397001
208357,14220,208357,35900,208357,53456,209.99704327078064,37.203186186552955,92.71822207643356
208357,14244,208357,35932,208357,53478,201.96064850559242,34.532177235400326,86.26788516301656
208357,14229,208357,35969,208357,53471,193.91788337506148,31.852073835489477,79.8182544868514
208357,14243,208357,35986,208357,53473,185.86899245570794,29.162386323135706,73.37078856398989
208357,14217,208357,35943,208357,53448,177.81440572064218,26.463006734885937,66.92712393978195
208357,14204,208357,35925,208357,53419,169.75486240836096,23.75449487983917,60.489052634239215
208367,14178,208367,35904,208367,53415,161.69128436961114,21.037680754771714,54.05820414552841
208367,14199,208367,35952,208367,53434,153.6245324313046,18.313160044958096,47.63572741614814
208367,14187,208367,35965,208367,53438,145.55534323230268,15.581322180655945,41.22234507290182
208367,14186,208367,35968,208367,53431,137.4845132828823,12.842939260492557,34.8187374015306
208367,14164,208367,35919,208367,53394,129.41308332559527,10.099696564973414,28.425831046034546
208367,14144,208367,35879,208367,53360,121.3423185711033,7.354055490778194,22.044642302033708
208378,14129,208378,35861,208378,53363,113.27348274826784,4.6084508759403775,15.675735685096129
208378,14146,208378,35927,208378,53405,105.2075941319622,1.8645046360632591,9.31883200431264
208378,14131,208378,35927,208378,53410,97.14541039978747,-0.8769793959522474,2.973069828551729
208378,14129,208378,35940,208378,53364,89.08761394947601,-3.6153123335016346,-3.362356900306281
208378,14101,208378,35895,208378,53359,81.03493051696285,-6.349306181059944,-9.687950052276733
208378,14106,208378,35872,208378,53328,72.98806774003663,-9.077291245871834,-16.00421928815547
208388,14088,208388,35876,208388,53359,64.94759911103665,-11.797633515448098,-22.31206912520622
208388,14096,208388,35897,208388,53354,56.913930905687494,-14.509175292123103,-28.612844186920142
208388,14103,208388,35879,208388,53364,48.887412777484315,-17.21122879404936,-34.90801034918127
208388,14076,208388,35895,208388,53347,40.868567714565415,-19.903347392397194,-41.198757089642754
208388,14056,208388,35868,208388,53327,32.85821266184519,-22.585190209743672,-47.48580836792382
208388,14039,208388,35855,208388,53302,24.857273486633403,-25.256575211454674,-53.76954723703693
208398,14048,208398,35863,208398,53289,16.866484488727565,-27.917702588159756,-60.05038130993569
208398,14054,208398,35877,208398,53318,8.886316455700808,-30.569305588346396,-66.32906574763751
208398,14037,208398,35910,208398,53347,0.9171878770912372,-33.21243333269058,-72.6065871074751
208398,14029,208398,35896,208398,53306,-7.040311881095022,-35.847904041472816,-78.88359184228113
208398,14005,208398,35851,208398,53266,-14.985410069826798,-38.47587993686216,-85.16001511067589
208398,13990,208398,35822,208398,53255,-22.917332551738582,-41.09606568024074,-91.4354077175069
208409,13993,208409,35865,208409,53274,-30.835544734745554,-43.708350227527916,-97.70952204055584
208409,14001,208409,35896,208409,53287,-38.73983898060055,-46.31304214757307,-103.9824486554885
208409,13991,208409,35877,208409,53270,-46.63015922797797,-48.910362469798486,-110.25426116990752
208409,13963,208409,35840,208409,53214,-54.506383427004835,-51.49990942770586,-116.524754122579
208409,13955,208409,35791,208409,53209,-62.3683531838567,-54.08085196607567,-122.79374547555915
208409,13941,208409,35794,208409,53227,-70.21610812478502,-56.65276297986827,-129.06164824317875
208419,13953,208419,35834,208419,53241,-78.05005583207412,-59.21634960036755,-135.32962117458294
208419,13956,208419,35869,208419,53252,-85.87089724194766,-61.773396519928866,-141.59914467567955
208419,13962,208419,35844,208419,53213,-93.67931154357677,-64.32602554351539,-147.8714813231568
208419,13922,208419,35840,208419,53197,-101.47562114886307,-66.8760544954448,-154.14751674189256
208419,13893,208419,35799,208419,53187,-109.25979086823361,-69.42495527899337,-160.42804152107772
208419,13907,208419,35808,208419,53184,-117.03180378342813,-71.97425115919984,-166.71410177772418
208429,13896,208429,35865,208429,53234,-124.79197264866923,-74.52581288711912,-173.0070277641363
208429,13895,208429,35864,208429,53202,-132.54091564316002,-77.0815335209441,-179.30801906583633
208429,13896,208429,35839,208429,53165,-140.279380625812,-79.64260854445052,-185.61769109704744
208429,13869,208429,35800,208429,53146,-148.00810405936875,-82.20925297640147,-191.93617783396508
208429,13867,208429,35773,208429,53120,-155.72779160490234,-84.78117113557812,-198.263719937365
208429,13868,208429,35788,208429,53152,-163.4391940586156,-87.35832573855632,-204.60117971159235
208440,13854,208440,35816,208440,53177,-171.14310861943545,-89.94135671961885,-210.95004981391673
208440,13854,208440,35849,208440,53176,-178.8402913007301,-92.53130573887105,-217.31188688330076
208440,13843,208440,35824,208440,53140,-186.53138569799523,-95.12889527882606,-223.6876557409759
208440,13816,208440,35767,208440,53126,-194.21691868528433,-97.73409084188324,-230.07756695234008
208440,13811,208440,35773,208440,53108,-201.89743182921495,-100.34643192208796,-236.4813935584982
208440,13816,208440,35790,208440,53123,-209.5736695804029,-102.96567843865628,-242.89882175365938
208450,13826,208450,35810,208450,53144,-217.24656114400636,-105.59197327397399,-249.32946315122217
208450,13824,208450,35836,208450,53102,-224.9169191083197,-108.22538938152977,-255.7725326988807
208450,13792,208450,35761,208450,53102,-232.58510979641562,-110.86537953571903,-262.2266192646158
208450,13764,208450,35746,208450,53070,-240.25104340036432,-113.51080262424392,-268.689830220163
208450,13757,208450,35734,208450,53060,-247.9145405535628,-116.16062971052514,-275.16013805339173
208450,13778,208450,35775,208450,53052,-255.57569083802696,-118.81459528822694,-281.6357206264314
208460,13774,208460,35792,208460,53069,-263.23480860802385,-121.47315021419709,-288.11514134095887
208460,13754,208460,35803,208460,53072,-270.8921055298458,-124.13683168138573,-294.59721749179664
208460,13744,208460,35758,208460,53066,-278.54750683775853,-126.8056512681365,-301.0806557843632
208460,13725,208460,35746,208460,53003,-286.2007448700674,-129.47902924409271,-307.56383956667696
208460,13725,208460,35725,208460,53021,-293.85154573276736,-132.1562569211431,-314.04508554521885
208460,13714,208460,35772,208460,53047,-301.4997451798048,-134.8369588750304,-320.5230219584191
208471,13722,208471,35803,208471,53049,-309.1452770567406,-137.52099246478485,-326.99644674506214
208471,13707,208471,35768,208471,53029,-316.78805253004134,-140.20779073577984,-333.4637871788623
208471,13682,208471,35722,208471,52942,-324.4278656976296,-142.8959238010969,-339.92293609802846
208471,13669,208471,35722,208471,52963,-332.06450367437606,-145.58344941204257,-346.37185738430037
208471,13685,208471,35700,208471,52928,-339.69797009413696,-148.2686358764539,-352.80947101626964
208471,13686,208471,35748,208471,52984,-347.32848610021813,-150.95038550766742,-359.2360831469057
208481,13678,208481,35748,208481,52988,-354.9562020452573,-153.62810569121507,-365.6531264861038
208481,13665,208481,35745,208481,52966,-362.5809153620704,-156.3012097414624,-372.06250442211183
208481,13642,208481,35685,208481,52940,-370.20202126317474,-158.9688182604125,-378.4661621491432
208481,13643,208481,35703,208481,52932,-377.8186598530302,-161.63004755113712,-384.8662065177989
208481,13625,208481,35700,208481,52963,-385.42988765867176,-164.28452286757283,-391.2651657577344
208481,13626,208481,35751,208481,52977,-393.034764327042,-166.93247298417515,-397.66583450786334
208491,13624,208491,35720,208491,52939,-400.6323484503555,-169.57429276988654,-404.070750622315
208491,13590,208491,35695,208491,52933,-408.22165719315103,-172.21011409551033,-410.4818824518203
208491,13577,208491,35647,208491,52905,-415.80176379390707,-174.83997599118186,-416.9007916306008
208491,13563,208491,35658,208491,52902,-423.3721017804901,-177.46454345506737,-423.3289900103058
208491,13576,208491,35697,208491,52920,-430.93273308333426,-180.08568886606116,-429.7681648705444
208491,13581,208491,35748,208491,52905,-438.4843210294349,-182.70628029041814,-436.2201104595963
208502,13568,208502,35718,208502,52930,-446.0278426216546,-185.32926566900932,-442.68643259611315
208502,13557,208502,35705,208502,52884,-453.56432340809647,-187.95688657391378,-449.1682529357678
208502,13533,208502,35659,208502,52865,-461.0948114534916,-190.59065082403544,-455.66617189159444
208502,13532,208502,35670,208502,52856,-468.6205478851449,-193.23188175537723,-462.1805974311135
208502,13545,208502,35693,208502,52864,-476.1431012538018,-195.88220864601215,-468.71212402981973
208502,13546,208502,35706,208502,52890,-483.66423496801326,-198.54352065222378,-475.26154083352696
208512,13518,208512,35711,208512,52871,-491.18560084654314,-201.21747729460435,-481.82944270433586
208512,13502,208512,35680,208512,52821,-498.7086290774853,-203.90506517807444,-488.4158913714199
208512,13486,208512,35631,208512,52802,-506.2347420285025,-206.60663599638252,-495.0206305771801
208512,13481,208512,35652,208512,52814,-513.7656591355259,-209.32247031060018,-501.6436912952943
208512,13494,208512,35674,208512,52827,-521.3035378351303,-212.05329842146665,-508.2857090807581
208512,13494,208512,35722,208512,52841,-528.8508371581363,-214.80012870992448,-514.9476661818287
208522,13488,208522,35686,208522,52786,-536.4099909388434,-217.56349270588947,-521.6304388557048
208522,13470,208522,35634,208522,52773,-543.9831435312673,-220.34293658383842,-528.3347347158453
208522,13451,208522,35610,208522,52769,-551.5721260465625,-223.137392496183,-535.0614990097777
208522,13472,208522,35661,208522,52795,-559.1785799549139,-225.9459926339302,-541.8122332814954
208522,13459,208522,35674,208522,52807,-566.8039466986473,-228.76831216145365,-548.5887892648146
208522,13450,208522,35660,208522,52785,-574.449270649905,-231.60386903541877,-555.3928221210119
208533,13434,208533,35626,208533,52725,-582.1150744061654,-234.45168009324743,-562.2255040116177
208533,13403,208533,35610,208533,52717,-589.8014662669644,-237.31042590571383,-569.0879047235367
208533,13387,208533,35598,208533,52735,-597.508459638759,-240.17899979233033,-575.9816628952249
208533,13407,208533,35635,208533,52755,-605.2363282996394,-243.05692296610874,-582.9091868879614
208533,13403,208533,35630,208533,52771,-612.9856717040379,-245.94429395005204,-589.8731869245782
208533,13404,208533,35630,208533,52732,-620.7571356800321,-248.84140382312893,-596.8760099498809
208543,13381,208543,35601,208543,52702,-628.5511102756954,-251.74847465636572,-603.9193802009796
208543,13355,208543,35578,208543,52681,-636.3676880593686,-254.66580040546876,-611.0047437404716
208543,13349,208543,35582,208543,52694,-644.2069051251087,-257.594180971244,-618.1338141754794
208543,13354,208543,35621,208543,52695,-652.0690179069866,-260.535218363051,-625.3087953695988
208543,13346,208543,35633,208543,52715,-659.9545466464147,-263.49106614708023,-632.5321576441241
208543,13335,208543,35612,208543,52679,-667.8641401458325,-266.46380819442743,-639.8062244127924
208553,13319,208553,35591,208553,52650,-675.7985026170904,-269.45509401790565,-647.1329941558837
208553,13304,208553,35566,208553,52645,-683.7584777210407,-272.4663301446512,-654.5144061042781
208553,13293,208553,35576,208553,52653,-691.745227041592,-275.4991542685638,-661.9527136310631
208553,13311,208553,35615,208553,52655,-699.7603511885009,-278.55568215677323,-669.4505281635116
208553,13315,208553,35638,208553,52652,-707.8057571922501,-281.6381589394394,-677.0105537799367
208553,13295,208553,35589,208553,52639,-715.8833004753589,-284.7482575651555,-684.6352997786473
208564,13272,208564,35563,208564,52617,-723.9945534705757,-287.8868014628897,-692.3269735074806
208564,13254,208564,35552,208564,52613,-732.1409335576561,-291.05421491705994,-700.0875817076808
208564,13261,208564,35576,208564,52624,-740.3239980158671,-294.251116271707,-707.9190541194467
208564,13259,208564,35624,208564,52638,-748.5455659614595,-297.47835576341214,-715.8231120361515
208564,13249,208564,35579,208564,52609,-756.8075903189037,-300.73645344122053,-723.8008878189896
208564,13250,208564,35550,208564,52550,-765.1119679753632,-304.0251515228445,-731.8527567280554
208574,13220,208574,35504,208574,52563,-773.4604418616506,-307.34373483405886,-739.9787311377564
208574,13213,208574,35520,208574,52545,-781.8546556126958,-310.69187244311263,-748.1790386864259
208574,13205,208574,35540,208574,52577,-790.2963263491031,-314.07021351648734,-756.4543035486486
208574,13221,208574,35593,208574,52585,-798.7873250603917,-317.48023551893203,-764.8052235646805
208574,13207,208574,35585,208574,52573,-807.3295107332824,-320.9234317589109,-773.2319779625589
208574,13195,208574,35532,208574,52523,-815.9244719703008,-324.40052428046096,-781.7338209939353
208584,13163,208584,35517,208584,52518,-824.5734634101877,-327.911428575624,-790.309225752073
208584,13166,208584,35507,208584,52503,-833.2776016597994,-331.45587295722174,-798.9563535634323
208584,13166,208584,35556,208584,52517,-842.0380697561292,-335.03388334056655,-807.6733450934248
208584,13168,208584,35579,208584,52507,-850.8560731101132,-338.6455647749276,-816.4582571597658
208584,13140,208584,35548,208584,52483,-859.732631891711,-342.2903679318148,-825.3088578042075
208584,13128,208584,35495,208584,52436,-868.6685113537746,-345.96666420616435,-834.2226560983189
208595,13099,208595,35484,208595,52449,-877.6644094627574,-349.67215966566727,-843.1973003202999
208595,13106,208595,35494,208595,52435,-886.7212520557233,-353.40468244247995,-852.2309843583121
208595,13109,208595,35486,208595,52473,-895.8403405109634,-357.1626130722696,-861.3224515987396
208595,13125,208595,35539,208595,52480,-905.0231717915848,-360.9447858294181,-870.470527552477
208595,13106,208595,35499,208595,52434,-914.271013795843,-364.75004729299815,-879.6734747048235
208595,13090,208595,35473,208595,52401,-923.5845577426738,-368.5769012139576,-888.9287585356378
208605,13065,208605,35467,208605,52400,-932.9638904025178,-372.4236707752061,-898.2334311879088
208605,13081,208605,35480,208605,52416,-942.4086748489207,-376.2889192567921,-907.5845540817827
208605,13064,208605,35502,208605,52451,-951.9182199810705,-380.1715301373105,-916.9790564993933
208605,13050,208605,35518,208605,52405,-961.4913781170084,-384.0703050176948,-926.4131111863043
208605,13030,208605,35458,208605,52387,-971.1265155505644,-387.9834598662814,-935.8816746644145
208605,13025,208605,35450,208605,52342,-980.8216471771977,-391.9085923401663,-945.3786497446853
208616,13007,208616,35430,208616,52335,-990.5745895337418,-395.8432052367044,-954.8974660066618
208616,13013,208616,35453,208616,52328,-1000.3830291057297,-399.78523569705106,-964.4316170283641
208616,13011,208616,35504,208616,52350,-1010.244459427532,-403.7330580001402,-973.9748388729217
208616,13014,208616,35495,208616,52381,-1020.1559546726444,-407.68485073373387,-983.520782309473
208616,12977,208616,35438,208616,52326,-1030.1139113603786,-411.63788290004675,-993.0623570622669
208616,12969,208616,35411,208616,52286,-1040.1140092176702,-415.58854267368656,-1002.591397912687
208626,12957,208626,35429,208626,52311,-1050.151405479803,-419.5330441411266,-1012.098990847666
208626,12973,208626,35495,208626,52303,-1060.2208652829256,-423.46781848891163,-1021.5758362126363
208626,12946,208626,35477,208626,52314,-1070.316646170227,-427.38899478778274,-1031.0121047753182
208626,12953,208626,35436,208626,52275,-1080.432294732389,-431.2915998682322,-1040.397086511651
208626,12909,208626,35401,208626,52267,-1090.5605741318882,-435.1694730877197,-1049.7190877706773
208626,12915,208626,35369,208626,52249,-1100.6935814089427,-439.0159892419477,-1058.965619664149
208636,12899,208636,35404,208636,52265,-1110.8229354033358,-442.82490579607827,-1068.1235906901243
208636,12911,208636,35452,208636,52258,-1120.939823056265,-446.590604079586,-1077.1792449573034
208636,12905,208636,35442,208636,52258,-1131.0348213911977,-450.3074939403436,-1086.1178808374202
208636,12895,208636,35448,208636,52232,-1141.0976108131217,-453.96915071000296,-1094.9235933393443
208636,12859,208636,35380,208636,52196,-1151.1168107381932,-457.5679374928371,-1103.5792835288862
208636,12849,208636,35385,208636,52202,-1161.0801119289872,-461.09532952811657,-1112.0669739588052
208647,12842,208647,35386,208647,52233,-1170.9745784083896,-464.5425442218533,-1120.3680562716286
208647,12858,208647,35425,208647,52239,-1180.7867834108795,-467.9008092911513,-1128.4630162193264
208647,12843,208647,35427,208647,52207,-1190.50263003364,-471.16100824319267,-1136.3308208629478
208647,12823,208647,35377,208647,52139,-1200.107079632277,-474.31315678767106,-1143.94870926843
208647,12801,208647,35343,208647,52129,-1209.5841122141846,-477.34642080564373,-1151.29277795682
208647,12799,208647,35355,208647,52139,-1218.916931459048,-480.2497692877701,-1158.3388599568927
208657,12802,208657,35367,208657,52189,-1228.0881295392373,-483.0125603566157,-1165.0628340974945
208657,12807,208657,35423,208657,52164,-1237.0795957445807,-485.6244596802459,-1171.440132590135
208657,12793,208657,35408,208657,52127,-1245.8722342345877,-488.0747462624049,-1177.4451256301572
208657,12769,208657,35371,208657,52096,-1254.445756613677,-490.35161508927746,-1183.0511487805202
208657,12761,208657,35344,208657,52092,-1262.778734107354,-492.44214886026265,-1188.2311112315388
208657,12736,208657,35323,208657,52106,-1270.8488330940422,-494.33295513723994,-1192.9580382036236
208667,12751,208667,35358,208667,52119,-1278.6330404062278,-496.0108480428054,-1197.2051314771147
208667,12744,208667,35384,208667,52131,-1286.1077151996717,-497.46299210281455,-1200.9454055837882
208667,12725,208667,35320,208667,52120,-1293.248472181443,-498.67655924975776,-1204.151206111327
208667,12718,208667,35328,208667,52070,-1300.0301256416851,-499.6386198456985,-1206.7939934806338
208667,12694,208667,35309,208667,52051,-1306.4268245955434,-500.3365656257286,-1208.8446865301369
208667,12694,208667,35316,208667,52048,-1312.4122847334193,-500.7585792838953,-1210.2744029039452
208678,12704,208678,35368,208678,52082,-1317.9599520680135,-500.8937382661901,-1211.0550001792278
208678,12689,208678,35378,208678,52083,-1323.042971632009,-500.7316054202866,-1211.1590382011436
208678,12684,208678,35320,208678,52054,-1327.6340713654215,-500.26160434589355,-1210.5594488773684
208678,12656,208678,35308,208678,52032,-1331.705600859641,-499.47295487115554,-1209.22952548257
208678,12640,208678,35302,208678,52031,-1335.2298088110201,-498.3553086334683,-1207.143392219823
208678,12667,208678,35340,208678,52057,-1338.1792022244576,-496.89933430827966,-1204.2764975371267
208688,12663,208688,35383,208688,52044,-1340.526658394545,-495.0966396287299,-1200.6057414519737
208688,12657,208688,35351,208688,52072,-1342.2452379347437,-492.9391397783184,-1196.1093489782286
208688,12641,208688,35330,208688,52041,-1343.308057929621,-490.41859287598163,-1190.7667696742158
208688,12624,208688,35303,208688,52040,-1343.688456784923,-487.52685124552676,-1184.5587841258073
208688,12618,208688,35301,208688,52024,-1343.3603666458628,-484.25658588661395,-1177.4678888554054
208688,12624,208688,35319,208688,52037,-1342.2986918686568,-480.60191573779514,-1169.4788024216705
208698,12624,208698,35353,208698,52070,-1340.4795203428394,-476.5585776909094,-1160.5787836391755
208698,12638,208698,35364,208698,52088,-1337.8801462106435,-472.1235930219748,-1150.7575559875045
208698,12621,208698,35338,208698,52078,-1334.4790201064297,-467.2948007185589,-1140.006992422197
208698,12624,208698,35318,208698,52056,-1330.2557895461873,-462.07080015878944,-1128.3210425641107
208698,12619,208698,35327,208698,52098,-1325.1914949204984,-456.4514023733518,-1115.6960785908566
208698,12651,208698,35406,208698,52128,-1319.2687618719278,-450.43799091094115,-1102.1311804000939
208709,12648,208709,35409,208709,52163,-1312.4717903185572,-444.03315686338647,-1087.6279149399443
208709,12648,208709,35410,208709,52112,-1304.7862236558863,-437.2398690680625,-1072.1899315055546
208709,12617,208709,35340,208709,52137,-1296.1992264881465,-430.06111436659546,-1055.8230367294677
208709,12630,208709,35340,208709,52154,-1286.6999251515256,-422.50048137488875,-1038.5357289061487
208709,12661,208709,35371,208709,52175,-1276.2799078796352,-414.56315947038325,-1020.3395823161907
208709,12670,208709,35407,208709,52224,-1264.933364022137,-406.2564179117903,-1001.2492283026894
208719,12703,208719,35458,208719,52264,-1252.6568706787202,-397.58922695572915,-981.2820197412816
208719,12702,208719,35433,208719,52231,-1239.4491163266885,-388.5714700016765,-960.4575888972388
208719,12706,208719,35411,208719,52263,-1225.310769995999,-379.21349120890585,-938.7977676108603
208719,12711,208719,35418,208719,52289,-1210.244601265902,-369.52636277487795,-916.3269238131488
208719,12743,208719,35440,208719,52318,-1194.255733681723,-359.5224465566132,-893.072187493196
208719,12769,208719,35515,208719,52400,-1177.3517380578771,-349.21551506166134,-869.0632658128363
208729,12792,208729,35509,208729,52416,-1159.542464311388,-338.62019463151273,-844.3318687503872
208729,12787,208729,35495,208729,52414,-1140.8398362112478,-327.7512666603631,-818.9110741807013
208729,12810,208729,35464,208729,52416,-1121.2578758535751,-316.62360146390927,-792.8352202692104
208729,12821,208729,35485,208729,52449,-1100.8129311645012,-305.25277895873023,-766.1403706518502
208729,12865,208729,35529,208729,52528,-1079.5238550304862,-293.65568533946526,-738.8646875033417
208729,12894,208729,35573,208729,52578,-1057.4119513632593,-281.8504538425285,-711.0481386078861
208740,12932,208740,35579,208740,52578,-1034.5006915336762,-269.85582392583325,-682.7317415916891
208740,12930,208740,35570,208740,52607,-1010.81540487969,-257.69055372906865,-653.9570887542732
208740,12955,208740,35573,208740,52613,-986.3832096585782,-245.37335066722676,-624.7664486585716
208740,12987,208740,35582,208740,52672,-961.2331795732936,-232.92318800884465,-595.2030727897138
208740,13049,208740,35648,208740,52724,-935.3963948876567,-220.35951506629422,-565.3112465242842
208740,13065,208740,35674,208740,52786,-908.9056444584859,-207.70195159076457,-535.1358725395368
208750,13100,208750,35662,208750,52799,-881.7950083813575,-194.9696215704193,-504.7217855778322
208750,13112,208750,35632,208750,52796,-854.0996561259076,-182.1808462439377,-474.1133334009038
208750,13146,208750,35647,208750,52835,-825.8558873882738,-169.35356402739862,-443.3545381823743
208750,13174,208750,35658,208750,52897,-797.1012445261211,-156.5060032060764,-412.48944834492113
208750,13219,208750,35730,208750,52923,-767.8745375461406,-143.65694099941362,-381.5621006274852
208750,13275,208750,35774,208750,52997,-738.2156670964521,-130.82524687096696,-350.61609297642286
208760,13312,208760,35766,208760,52988,-708.1652098030169,-118.02895839658976,-319.69410479588976
208760,13322,208760,35734,208760,53008,-677.7639670309375,-105.28468036090635,-288.8376930127829
208760,13346,208760,35727,208760,53024,-647.0528238367614,-92.60786100078985,-258.08755280151223
208760,13405,208760,35764,208760,53105,-616.0728945279471,-80.01354415847831,-227.48389960865023
208760,13457,208760,35820,208760,53163,-584.8654961420116,-67.51672056668934,-197.0663498723003
208760,13488,208760,35846,208760,53193,-553.471746139815,-55.13189529126558,-166.87322425467062
208771,13508,208771,35814,208771,53204,-521.932133077936,-42.87237475299648,-136.94087112810053
208771,13529,208771,35797,208771,53217,-490.28642117422544,-30.750110682120635,-107.30352714854746
208771,13569,208771,35783,208771,53249,-458.5738307888897,-18.776321158801352,-77.99361862320188
208771,13612,208771,35862,208771,53290,-426.8331818758476,-6.962242779420251,-49.04206745850718
208771,13662,208771,35894,208771,53349,-395.1027846150415,4.680820194318869,-20.4782687417312
208771,13706,208771,35902,208771,53379,-363.4200941793161,16.142206733620185,7.670297475753728
208781,13712,208781,35890,208781,53377,-331.82134290893646,27.412568958157635,35.37849735078669
208781,13752,208781,35885,208781,53395,-300.34141985863204,38.48391655468299,62.62358114358017
208781,13789,208781,35899,208781,53438,-269.01397428054406,49.34923027813534,89.38486103272771
208781,13831,208781,35961,208781,53508,-237.87143632794186,60.002207391620175,115.64358611448313
208781,13883,208781,35958,208781,53505,-206.94481020223907,70.4375177108659,141.38330465218507
208781,13889,208781,35956,208781,53522,-176.2633682089555,80.65129320768528,166.59026289577093
208791,13915,208791,35917,208791,53513,-145.85451387156002,90.64119565903263,191.25331281517742
208791,13962,208791,35926,208791,53529,-115.74390017217729,100.40587223948734,215.36338383900602
208791,13967,208791,35943,208791,53545,-85.95556322825382,109.94425042937922,238.91287312022587
208791,14022,208791,35970,208791,53608,-56.511961287718236,119.25521060066274,261.8952824768079
208791,14052,208791,36023,208791,53643,-27.433948614632754,128.3378103607876,284.30534713179236
208791,14079,208791,36003,208791,53651,1.2593630113381096,137.19186236622153,306.13952290092277
208802,14100,208802,35972,208802,53638,29.550734437123424,145.81831922848312,327.3962714289205
208802,14113,208802,35970,208802,53666,57.4247394082156,154.21897982566134,348.07581777259065
208802,14148,208802,36011,208802,53704,84.8675499372506,162.3958529298531,368.1797487027452
208802,14186,208802,36046,208802,53718,111.8667676234644,170.35097949075742,387.71093539345327
208802,14203,208802,36043,208802,53748,138.41144101369116,178.08687136396037,406.67372378901246
208802,14233,208802,36004,208802,53734,164.49215203602864,185.60691073262967,425.0740566221657
208812,14240,208812,35995,208812,53719,190.10098973068636,192.91510302546828,442.91927600559836
208812,14268,208812,36002,208812,53763,215.23138932736163,200.01535524209123,460.2176023644307
208812,14290,208812,36030,208812,53773,239.87792799918964,206.91092917812637,476.9777043436236
208812,14332,208812,36083,208812,53812,264.0362232204435,213.6044863171524,493.2086892989372
208812,14350,208812,36083,208812,53798,287.7030108105589,220.09867976319964,508.9203016059348
208812,14358,208812,36048,208812,53796,310.8762611505322,226.39675886230043,524.1229298237354
208823,14382,208823,36031,208823,53811,333.55512119125797,232.5025347864006,538.8272847898213
208823,14395,208823,36039,208823,53809,355.7397045857998,238.4197454270801,553.0439729499476
208823,14430,208823,36111,208823,53875,377.4309181856072,244.1515864713611,566.7832823086842
208823,14451,208823,36112,208823,53888,398.6304301369307,249.70100149254938,580.0553830348465
208823,14482,208823,36079,208823,53908,419.3407714583075,255.07135049370845,592.8708513226841
208823,14470,208823,36073,208823,53881,439.5654334362199,260.26657041694483,605.2410426285485
208833,14479,208833,36048,208833,53862,459.3087280339354,265.290663588965,617.1779091975079
208833,14507,208833,36089,208833,53883,478.5754031124974,270.14708062210735,628.6933566333757
208833,14558,208833,36126,208833,53935,497.37040088590425,274.8385541712813,639.7987320841235
208833,14554,208833,36143,208833,53956,515.6990205228776,279.36756759641645,650.5049698324149
208833,14556,208833,36124,208833,53951,533.5671386836714,283.73704155295917,660.8231632228283
208833,14573,208833,36094,208833,53938,550.9810810568208,287.9505705984359,670.7648785545684
208843,14593,208843,36084,208843,53946,567.9473106556411,292.0120093714979,680.341955592577
208843,14604,208843,36141,208843,53969,584.4722564715958,295.92489594787764,689.5661505008397
208843,14645,208843,36168,208843,53969,600.5623146615683,299.692442816161,698.4490033043307
208843,14663,208843,36152,208843,53985,616.2240058755549,303.3181560714514,707.0018991487284
208843,14661,208843,36116,208843,53968,631.4642176897332,306.80628942285045,715.2360882374342
208843,14654,208843,36110,208843,53958,646.2902344496854,310.16157232948285,723.1625021841012
208854,14666,208854,36082,208854,53969,660.7094106215486,313.3884893802937,730.7913623754546
208854,14700,208854,36146,208854,54011,674.7287869327924,316.49068753348575,738.1318815320901
208854,14726,208854,36183,208854,54026,688.3550315547095,319.47101295933413,745.192416339881
208854,14733,208854,36177,208854,54026,701.5947020563347,322.3322461754526,751.980941337797
208854,14732,208854,36107,208854,53997,714.4544697182087,325.0777360086413,758.5053176240935
208854,14735,208854,36117,208854,54007,726.9410489837214,327.71112685084046,764.7730768508056
208864,14755,208864,36118,208864,54009,739.0609390934519,330.23553932544047,770.7909853637777
208864,14782,208864,36147,208864,54063,750.8202751776364,332.6531048086689,776.5648658486921
208864,14791,208864,36180,208864,54072,762.2249343092869,334.96514715079667,782.0999170906555
208864,14792,208864,36168,208864,54048,773.2807222829713,337.1727383266646,787.4012564333273
208864,14788,208864,36129,208864,54039,783.9933697536007,339.2770957308062,792.4740918184032
208864,14797,208864,36113,208864,54033,794.3682970770042,341.27935360202866,797.3233694385335
208874,14805,208874,36139,208874,54051,804.4103318313414,343.17992507919064,801.9533258691447
208874,14837,208874,36185,208874,54067,814.1235791987715,344.97821779913147,806.3673290325698
208874,14856,208874,36210,208874,54086,823.5115543368552,346.6731138409637,810.568062503093
208874,14857,208874,36201,208874,54064,832.5774936364326,348.2638436917857,814.5578344836792
208874,14856,208874,36132,208874,54066,841.3245614322959,349.75045894148485,818.3386794781411
208874,14856,208874,36146,208874,54055,849.7557780235966,351.13344839188557,821.9121574710603
208885,14866,208885,36164,208885,54076,857.87379032846,352.4129913696844,825.2790853052998
208885,14900,208885,36211,208885,54104,865.6807420924792,353.5887589068276,828.4395017454372
208885,14917,208885,36199,208885,54098,873.1784398702421,354.6604327781448,831.3929592943682
208885,14891,208885,36177,208885,54093,880.3686791230214,355.62828267223665,834.1388675360581
208885,14883,208885,36151,208885,54063,887.2532770627083,356.49318426814443,836.6765095835824
208885,14890,208885,36134,208885,54073,893.8336806459231,357.2560863046775,839.0046952271912
208895,14910,208895,36159,208895,54092,900.1105685756932,357.91739005185167,841.1213988907331
208895,14929,208895,36180,208895,54112,906.0838074926971,358.4767207822812,843.0237649233488
208895,14939,208895,36200,208895,54113,911.752707698028,358.93324301225925,844.7084721995137
208895,14938,208895,36165,208895,54098,917.1163173530749,359.286169419715,846.1720857551528
208895,14943,208895,36154,208895,54086,922.1735588779736,359.5349170589912,847.4110879609502
208895,14941,208895,36164,208895,54099,926.9232015091984,359.67881982968487,848.42164600981
208905,14963,208905,36214,208905,54121,931.3638015953386,359.7169395766409,849.1994760575278
208905,14980,208905,36204,208905,54162,935.493778642262,359.6484210612005,849.7401218666706
208905,14977,208905,36209,208905,54128,939.3116676301245,359.4730994161032,850.0395610708938
208905,14976,208905,36163,208905,54129,942.8163432581784,359.1917671577022,850.094637317798
208905,14975,208905,36130,208905,54106,946.0070360544237,358.8058356521952,849.9029966470856
208905,14986,208905,36161,208905,54102,948.8832355031211,358.3166156476489,849.4627326032021
208916,15001,208916,36203,208916,54153,951.4446846133933,357.7249170398961,848.7721449071752
208916,15006,208916,36219,208916,54168,953.691546896365,357.03146769200856,847.8299861405068
208916,14992,208916,36193,208916,54148,955.624610170993,356.23771820246253,846.636127688076
208916,14984,208916,36152,208916,54108,957.2452944666688,355.346182630901,845.1919569125486
208916,14986,208916,36125,208916,54102,958.5554356676685,354.3599913372242,843.5000846296376
208916,14991,208916,36166,208916,54146,959.5570654431253,353.2821233360569,841.5638384160167
208926,15036,208926,36208,208926,54136,960.2524383482994,352.1151579151311,839.3872398531477
208926,15018,208926,36198,208926,54154,960.6443950762384,350.8618408867761,836.9754514352287
208926,15006,208926,36158,208926,54102,960.7367683463508,349.5257631552627,834.3351344637202
208926,14969,208926,36135,208926,54083,960.5343618344334,348.1113480906923,831.4743190872924
208926,14987,208926,36134,208926,54058,960.0424919041429,346.62324068422595,828.4018044886454
208926,15012,208926,36119,208926,54097,959.2666161331408,345.0657074868555,825.1265382317703
208936,15012,208936,36181,208936,54113,958.2124552342799,343.4424256239794,821.6575269669864
208936,15009,208936,36192,208936,54108,956.8863957064328,341.75683681392167,818.0043207050619
208936,14984,208936,36146,208936,54080,955.2956974549533,340.0128416350587,814.1775138437478
208936,14981,208936,36122,208936,54050,953.4483523721683,338.215054793769,810.1887506339675
208936,14990,208936,36126,208936,54044,951.3528122070486,336.3683480632263,806.050273194177
208936,14995,208936,36196,208936,54076,949.0178971218717,334.4774578537317,801.7744933459545
208947,15003,208947,36190,208947,54061,946.4529656137095,332.5473777020641,797.3740108364674
208947,14991,208947,36152,208947,54038,943.6681694519951,330.58414494581973,792.8618913664346
208947,14973,208947,36101,208947,54027,940.6745707194233,328.59501158086624,788.2516940387133
208947,14957,208947,36064,208947,53995,937.4839951576596,326.5876692405669,783.5571567387811
208947,14953,208947,36100,208947,54020,934.108704435572,324.56916554140173,778.7918162615289
208947,14966,208947,36118,208947,54046,930.5611419505999,322.54537568515406,773.9689209421313
208957,14976,208957,36142,208957,54035,926.8539662844249,320.52131444081584,769.1018255834633
208957,14945,208957,36147,208957,54010,923.0002909629418,318.50185928589747,764.2044918366964
208957,14931,208957,36101,208957,53974,919.0137577467478,316.492291588684,759.2915289822264
208957,14919,208957,36071,208957,53951,914.9082689893538,314.49823878198924,754.3777058534306
208957,14927,208957,36097,208957,53948,910.697649803327,312.5250983069709,749.4772875867952
208957,14932,208957,36148,208957,54018,906.3955492176012,310.5777081141614,744.6037228948124
208967,14915,208967,36131,208967,53999,902.0155697627005,308.66078769185566,739.7700679328631
208967,14919,208967,36085,208967,53969,897.5713943388286,306.77955853697847,734.9897415778473
208967,14893,208967,36051,208967,53921,893.0767743374851,304.9396433578099,730.2767050652501
208967,14895,208967,36071,208967,53912,888.5454048829298,303.1463187185203,725.6448672249794
208967,14887,208967,36084,208967,53916,883.9907697232691,301.4039628162927,721.107342222153
208967,14893,208967,36097,208967,53950,879.4260747297296,299.7161393967456,716.6761765947319
208978,14888,208978,36108,208978,53918,874.8643181385095,298.0860525595325,712.3626200452704
208978,14864,208978,36051,208978,53925,870.3183797326258,296.51689878510024,708.1774862833541
208978,14861,208978,36062,208978,53881,865.8009585512847,295.0117659725838,704.131190713684
208978,14842,208978,36051,208978,53915,861.3243566879073,293.5731947382917,700.2335293779768
208978,14849,208978,36135,208978,53892,856.9002645951057,292.2030231590229,696.4935327284609
208978,14847,208978,36072,208978,53905,852.5396749958353,290.9028467677423,692.9195396253294
208988,14856,208988,36089,208988,53862,848.2529735932361,289.67456150110866,689.5192807994956
208988,14819,208988,36035,208988,53864,844.0500928950365,288.5203480243248,686.2997286655034
208988,14814,208988,36029,208988,53855,839.9404697803814,287.4421499887368,683.2667800189805
208988,14812,208988,36040,208988,53856,835.9327781569772,286.4410610191488,680.4250304324332
208988,14820,208988,36079,208988,53853,832.0347419870144,285.51707368758474,677.7777332525675
208988,14818,208988,36095,208988,53894,828.2532085142309,284.6694575709124,675.3269329327286
208998,14817,208998,36090,208998,53852,824.5943499005807,283.8974810444354,673.0737908064389
208998,14793,208998,36033,208998,53829,821.0637886539436,283.2008373331864,671.0187936040519
208998,14801,208998,36023,208998,53810,817.6665495076486,282.5793579548292,669.1614581443719
208998,14803,208998,36039,208998,53857,814.4069630405073,282.0323090293884,667.4998438404446
208998,14800,208998,36102,208998,53895,811.2887111046545,281.5580981674003,666.0306096713202
208998,14804,208998,36081,208998,53887,808.3149815412887,281.1547805158916,664.7497715066913
209008,14777,209008,36069,209008,53853,805.4885681428214,280.8207771316879,663.6534617026562
209008,14783,209008,36028,209008,53822,802.8118145716917,280.55501851260374,662.7379807654879
209008,14760,209008,36010,209008,53828,800.2864325019581,280.3564222687234,661.9992363215695
209008,14781,209008,36046,209008,53846,797.9133335464201,280.2232149499649,661.432233297119
209008,14786,209008,36071,209008,53880,795.6926327654714,280.1527294712725,661.0311092316476
209008,14788,209008,36073,209008,53863,793.6238783681697,280.14184818714165,660.7896420331049
209018,14756,209018,36025,209018,53814,791.7062870144041,280.1875068442686,660.7016414581169
209018,14774,209018,36044,209018,53825,789.9387236712322,280.286668583652,660.7607327524926
209018,14752,209018,36030,209018,53832,788.3195312815774,280.4359562959425,660.9598443057112
209018,14771,209018,36081,209018,53858,786.8464409868456,280.6315100712159,661.2910633087629
209018,14770,209018,36071,209018,53886,785.5166196221126,280.8692863908617,661.7460174948125
209018,14762,209018,36076,209018,53849,784.3268120586199,281.14555026592205,662.3164573962842
209029,14754,209029,36029,209029,53827,783.2734307524388,281.4571010641664,662.9945091692438
209029,14737,209029,36016,209029,53803,782.3524590385764,281.8009650140104,663.7723068344501
209029,14734,209029,36038,209029,53814,781.5592087619591,282.1737993617179,664.6413360826881
209029,14749,209029,36043,209029,53839,780.8881003463719,282.5715668298833,665.5920524987762
209029,14768,209029,36085,209029,53876,780.3326900873399,282.98974154789397,666.6140739935823
209029,14758,209029,36049,209029,53848,779.8859812754274,283.42380171364636,667.696785853174
209039,14756,209039,36022,209039,53847,779.5407360346446,283.86949105652593,668.8298022123677
209039,14733,209039,36035,209039,53825,779.2895229918028,284.32255175938974,670.002938235037
209039,14744,209039,36059,209039,53836,779.1245313654316,284.7783559824936,671.2059038022903
209039,14761,209039,36101,209039,53884,779.0374208698506,285.23206348110864,672.4281703283738
209039,14778,209039,36081,209039,53859,779.0194768416382,285.67927510811256,673.6592741204433
209039,14756,209039,36043,209039,53853,779.0619899072865,286.1165367860105,674.8892409193929
209049,14745,209049,36025,209049,53828,779.1564577503568,286.5411537535841,676.1086057902571
209049,14730,209049,36013,209049,53828,779.2944048621679,286.950495311052,677.3080448735332
209049,14741,209049,36031,209049,53869,779.4670391133851,287.3413810834224,678.4780685708572
209049,14761,209049,36097,209049,53876,779.665097550042,287.7100062534569,679.609167046083
209049,14760,209049,36090,209049,53867,779.8790274070132,288.0525616934364,680.6923112075583
209049,14742,209049,36030,209049,53837,780.099273956534,288.3659946133817,681.719252952264
209060,14752,209060,36023,209060,53823,780.3163577740752,288.6480113123498,682.6823031893687
209060,14757,209060,36025,209060,53820,780.5208105346248,288.89639093686753,683.5738105200492
209060,14768,209060,36059,209060,53867,780.7032428463406,289.1085048082718,684.3858244950989
209060,14764,209060,36059,209060,53861,780.8545626392838,289.2814582810351,685.1102796370661
209060,14755,209060,36046,209060,53885,780.9661521568368,289.41250106634254,685.7395426313485
209060,14749,209060,36021,209060,53797,781.0298682520856,289.49917387337376,686.2667623714779
209070,14731,209070,36006,209070,53806,781.0378743618502,289.5390113449546,686.6855495522583
209070,14737,209070,36000,209070,53841,780.9823914427752,289.52902600248535,686.9892734025111
209070,14747,209070,36065,209070,53850,780.8555219274627,289.46540838388256,687.1708520376142
209070,14762,209070,36086,209070,53850,780.6493189688774,289.3438805955269,687.2231924740681
209070,14751,209070,36070,209070,53871,780.3560647996328,289.16057590194686,687.1396956763608
209070,14753,209070,36018,209070,53821,779.9685095420876,288.9126066635474,686.9145253245341
209080,14733,209080,36019,209080,53818,779.4799067939093,288.59778850405655,686.542531230283
209080,14730,209080,36050,209080,53830,778.8838664588711,288.21403077796106,686.0188781829754
209080,14756,209080,36085,209080,53862,778.174193009585,287.7592575394367,685.3388802514118
209080,14762,209080,36075,209080,53865,777.3449765190138,287.2319926452244,684.4983624679243
209080,14748,209080,36037,209080,53826,776.3909305872221,286.6319250369168,683.494167559176
209080,14719,209080,35982,209080,53788,775.3075685595765,285.9597621341632,682.3241703823977
209091,14703,209091,35991,209091,53793,774.0909429794169,285.2163814687356,680.9866888636977
209091,14720,209091,36041,209091,53822,772.7371771014828,284.40206169931946,679.4799107684025
209091,14744,209091,36044,209091,53838,771.2422783359723,283.5165356892195,677.8019394288442
209091,14744,209091,36076,209091,53832,769.602440167754,282.5597057638279,675.9513370637661
209091,14735,209091,36018,209091,53809,767.814514951879,281.5323047532098,673.9275849371136
209091,14717,209091,35998,209091,53783,765.8762327214826,280.43596248260496,671.7310819610681
209101,14714,209101,36026,209101,53781,763.7860932512314,279.27272625415554,669.3627627063321
209101,14715,209101,36030,209101,53802,761.5431621518202,278.0447152383074,666.8237435991117
209101,14715,209101,36025,209101,53825,759.1469936527851,276.75427297993764,664.115397971574
209101,14700,209101,36042,209101,53806,756.5976720083669,275.4042678466094,661.239835641903
209101,14681,209101,35953,209101,53742,753.895779286271,273.9981527862597,658.2002162855742
209101,14674,209101,35926,209101,53741,751.0421782313841,272.5394402700662,655.0003845251814
209111,14678,209111,35950,209111,53747,748.0377477988509,271.0306570747394,651.6441524568302
209111,14689,209111,36021,209111,53760,744.8833101276198,269.4727481604306,648.1349742207044
209111,14682,209111,36036,209111,53793,741.5798055887414,267.86565608068713,644.476227008192
209111,14678,209111,36005,209111,53771,738.1285317196913,266.2094647250017,640.6718170921628
209111,14651,209111,35966,209111,53723,734.5312254244916,264.5049599367462,636.7266068568039
209111,14637,209111,35962,209111,53694,730.7898953035894,262.75328117730095,632.6461830738743
209122,14650,209122,35981,209122,53711,726.906527503577,260.95532191937986,628.4361564973545
209122,14652,209122,35997,209122,53706,722.8829706032247,259.11157894246696,624.1017029244445
209122,14653,209122,36007,209122,53716,718.721120893212,257.22251323790795,619.6476207701453
209122,14629,209122,35974,209122,53681,714.423165139812,255.2889975228415,615.078567025846
209122,14608,209122,35944,209122,53657,709.9915853040211,253.31237274583836,610.3990525339045
209122,14613,209122,35934,209122,53661,705.4289109768278,251.2939941555326,605.6131175005062
209132,14613,209132,35957,209132,53664,700.7375088412036,249.23468377800123,600.724035180483
209132,14613,209132,35970,209132,53697,695.9196256160399,247.134611382215,595.7344098960226
209132,14620,209132,35996,209132,53696,690.9776054775708,244.9936909270658,590.6466895159552
209132,14594,209132,35964,209132,53674,685.914113912004,242.81215249472262,585.4637766028607
209132,14582,209132,35945,209132,53623,680.732201973424,240.59081615631493,580.1892423289098
209132,14572,209132,35910,209132,53629,675.4351481220841,238.33082086494534,574.8269548558734
209142,14574,209142,35962,209142,53650,670.0262617010646,236.03311595573976,569.3806118033543
209142,14580,209142,35976,209142,53654,664.5088665054708,233.69837495037012,563.8537777246015
209142,14558,209142,35963,209142,53619,658.886454215895,231.32750162665698,558.2502929025699
209142,14544,209142,35884,209142,53615,653.1627809284212,228.92199574142626,552.574462419993
209142,14521,209142,35884,209142,53573,647.3417306013746,226.4834862638308,546.8308412163341
209142,14533,209142,35905,209142,53596,641.4270586239195,224.01285098334694,541.0238720030902
209153,14528,209153,35967,209153,53582,635.4222865580641,221.50996061262876,535.1576875435237
209153,14533,209153,35975,209153,53617,629.330851140091,218.97440757900654,529.2362592863354
209153,14507,209153,35938,209153,53571,623.1563333834267,216.40653548381476,523.2637809107046
209153,14497,209153,35908,209153,53540,616.9025268441505,213.80783832162655,517.2448555960606
209153,14495,209153,35865,209153,53516,610.5733246919604,211.18049064326223,511.18415903490666
209153,14470,209153,35903,209153,53517,604.1725914061254,208.52654894954816,505.0858370761139
209163,14484,209163,35930,209163,53571,597.7040938462346,205.84759528787066,498.9532571073539
209163,14482,209163,35935,209163,53556,591.1715360920592,203.1451407108959,492.78944088323624
209163,14458,209163,35896,209163,53492,584.578726258521,200.42125832819852,486.5977010861814
209163,14439,209163,35865,209163,53469,577.9296525525637,197.67868497773165,480.3816072689686
209163,14422,209163,35836,209163,53460,571.2282883344337,194.9202578826976,474.14426690313786
209163,14411,209163,35862,209163,53485,564.4782778318585,192.14817594924637,467.8877511446717
209173,14434,209173,35900,209173,53510,557.6827614141625,189.36373118493822,461.61319948001164
209173,14421,209173,35905,209173,53481,550.8445042277639,186.5677712277105,455.3214250946597
209173,14404,209173,35854,209173,53457,543.9661924977355,183.76137689016173,449.01339761393274
209173,14376,209173,35834,209173,53434,537.0505270599398,180.9459573402532,442.6901822480508
209173,14378,209173,35844,209173,53434,530.10001891772,178.1227345488486,436.3525579154186
209173,14366,209173,35872,209173,53447,523.116761959131,175.29236371166832,430.0007919064493
209184,14390,209184,35872,209184,53471,516.1024336927966,172.4551449444036,423.6348402155558
209184,14366,209184,35879,209184,53432,509.05854214434004,169.61154695351047,417.2548561514153
209184,14350,209184,35826,209184,53418,501.98668612558896,166.76253269019895,410.8615255739525
209184,14320,209184,35790,209184,53379,494.8885333592474,163.9093287700013,404.45590495165726
209184,14319,209184,35827,209184,53371,487.7655265224866,161.05275195655528,398.0389362549716
209184,14322,209184,35870,209184,53404,480.6186308305723,158.1928738287568,391.6110676808849
209194,14322,209194,35885,209194,53410,473.4483639349,155.32958012727707,385.17237682691797
209194,14312,209194,35830,209194,53388,466.25503727036573,152.4634601543679,378.7231173701345
209194,14305,209194,35784,209194,53333,459.03897812551924,149.59600424456872,372.2640396275826
209194,14285,209194,35774,209194,53330,451.800613019539,146.72888262791187,365.79607416942184
209194,14292,209194,35810,209194,53348,444.5404508206688,143.86309489166968,359.31979736887774
209194,14275,209194,35819,209194,53356,437.2590829635654,140.99880555144105,352.83535478065033
209204,14267,209204,35850,209204,53312,429.9572371719092,138.13587379515081,346.3428079241148
209204,14250,209204,35799,209204,53319,422.63578752463576,135.27451277125004,339.8423175832838
209204,14226,209204,35738,209204,53265,415.295647984879,132.41540654406518,333.3339470789149
209204,14216,209204,35755,209204,53273,407.9375534085506,129.55903174303575,326.81727573508584
209204,14214,209204,35778,209204,53283,400.5618312114442,126.70488207081993,320.29108562248956
209204,14215,209204,35788,209204,53295,393.1683397330376,123.851415265654,313.7534312199359
209215,14222,209215,35830,209215,53305,385.7566400656111,120.99664360931419,307.2021244080322
209215,14193,209215,35767,209215,53249,378.326273853225,118.13881959581542,300.63523617706574
209215,14175,209215,35748,209215,53231,370.87688600851925,115.27665624681697,294.0511375140787
209215,14167,209215,35743,209215,53232,363.4080749813945,112.40888987337581,287.44807345616823
209215,14179,209215,35800,209215,53268,355.9192195049306,109.5338308925908,280.8238855717362
209215,14178,209215,35819,209215,53254,348.40957931472417,106.64965353963657,274.17632207098256
209225,14161,209225,35793,209225,53252,340.87860509750374,103.75524239039157,267.50362395634676
209225,14134,209225,35750,209225,53186,333.32612377286415,100.85070935639465,260.80479432767663
209225,14117,209225,35732,209225,53210,325.7522048432483,97.93709548952401,254.07934447305178
209225,14117,209225,35733,209225,53178,318.15686566468986,95.01566638410583,247.32687497340908
209225,14095,209225,35727,209225,53208,310.53987871809124,92.08742242936691,240.54692895983953
209225,14124,209225,35786,209225,53186,302.9007719461283,89.1530829117371,233.7391620563052
209235,14104,209235,35740,209235,53179,295.23903430111125,86.21350345906941,226.90360438519485
209235,14081,209235,35698,209235,53157,287.55439497090686,83.27002289309203,220.04077179416402
209235,14058,209235,35693,209235,53148,279.8468524981739,80.32415460471663,213.15156963406957
209235,14060,209235,35714,209235,53144,272.1164254651302,77.37696037099508,206.2371469179393
209235,14078,209235,35760,209235,53167,264.3630153184479,74.42895450457576,199.29891331875353
209235,14054,209235,35749,209235,53124,256.5866120337995,71.48071841097905,192.33877765241687
209246,14038,209246,35715,209246,53104,248.7875734630844,68.53359615372582,185.3592941181862
209246,14013,209246,35664,209246,53072,240.9666221841312,65.58973234382529,178.363398507366
209246,14002,209246,35666,209246,53042,233.12458816880473,62.65138957302929,171.3538516724018
209246,13998,209246,35678,209246,53079,225.2621502089313,59.720207081877646,164.33274229115125
209246,13999,209246,35703,209246,53081,217.37975820634085,56.79702592385658,157.30143536805053
209246,13994,209246,35732,209246,53065,209.47776463375214,53.882343308651144,150.2610068756852
209256,13968,209256,35663,209256,53053,201.5566113440659,50.976946826033384,143.21266260318134
209256,13960,209256,35651,209256,53023,193.61686529148415,48.08204451064233,136.15778701764611
209256,13958,209256,35652,209256,53008,185.65911933485836,45.19875108297964,129.09770911423857
209256,13953,209256,35677,209256,53042,177.68397261465202,42.32763458273968,122.03346650458286
209256,13947,209256,35696,209256,53031,169.69216130987036,39.468865716619746,114.96591982463963
209256,13940,209256,35681,209256,53021,161.68472844537018,36.622761456708986,107.89618504342536
209267,13913,209267,35632,209267,52963,153.66312141484661,33.79013195207557,100.82585747093822
209267,13872,209267,35592,209267,52941,145.62907349680097,30.971957189339093,93.7566672021104
209267,13890,209267,35622,209267,52933,137.58423895854003,28.168577536694613,86.68978855435319
209267,13883,209267,35649,209267,52989,129.52992167574257,25.379209656020862,79.62544293992016
209267,13886,209267,35701,209267,52975,121.46718457980523,22.60234227292807,72.56324237594276
209267,13866,209267,35637,209267,52954,113.39713953793273,19.836647555386776,65.50291541997706
209277,13841,209277,35626,209277,52906,105.32107966390834,17.081481277421346,58.444618188655
209277,13835,209277,35613,209277,52888,97.24036092662072,14.336595392180072,51.38856535413436
209277,13815,209277,35623,209277,52907,89.15618276591738,11.601635746281943,44.334452638004905
209277,13826,209277,35652,209277,52935,81.06946194652016,8.876034084649177,37.28132850469365
209277,13829,209277,35649,209277,52927,72.98091495976485,6.159359115705172,30.22810326667434
209277,13791,209277,35617,209277,52882,64.89129429770514,3.4517623815850698,23.174161362214136
209287,13778,209287,35588,209287,52852,56.80146894141831,0.7540069413635138,16.11941507621168
209287,13769,209287,35555,209287,52835,48.71221546895424,-1.9330607753249183,9.063783529297552
209287,13755,209287,35590,209287,52845,40.62398688250755,-4.609197292488659,2.006641318871516
209287,13763,209287,35614,209287,52865,32.53685340440211,-7.275003544217725,-5.053289634053499
209287,13759,209287,35611,209287,52858,24.450619271092364,-9.931511003935839,-12.117558469007463
209287,13744,209287,35565,209287,52837,16.365054805405634,-12.579664946320065,-19.187484307626164
209298,13729,209298,35577,209298,52834,8.280061631797707,-15.220318000712723,-26.263924225890833
209298,13706,209298,35542,209298,52795,0.19563544674804234,-17.85461254501564,-33.34733655003129
209298,13707,209298,35598,209298,52812,-7.888300803118909,-20.48425812421101,-40.4379714841715
209298,13705,209298,35594,209298,52830,-15.971995013927767,-23.11138208512807,-47.535925974239376
209298,13693,209298,35611,209298,52777,-24.05578196151373,-25.737981707866652,-54.64090900187398
209298,13678,209298,35549,209298,52745,-32.13994477360973,-28.365453345854462,-61.75214633809537
209308,13664,209308,35529,209308,52720,-40.22469587164426,-30.994722658358057,-68.86884165450977
209308,13654,209308,35532,209308,52741,-48.31026523563264,-33.62689898914823,-75.99080546282744
209308,13660,209308,35577,209308,52767,-56.396956352767916,-36.263745556103345,-83.11859015120115
209308,13642,209308,35569,209308,52771,-64.48507068448555,-38.90745746052869,-90.25297125290285
209308,13643,209308,35574,209308,52734,-72.57475933523745,-41.56006113835565,-97.39424241721736
209308,13620,209308,35536,209308,52694,-80.66592334237237,-44.223052422961246,-104.54198177658066
209318,13599,209318,35532,209318,52663,-88.75823544161551,-46.89749981635731,-111.69549005484589
209318,13598,209318,35540,209318,52701,-96.85129141038419,-49.584372099721804,-118.8544289042942
209318,13592,209318,35581,209318,52714,-104.94474124746478,-52.28461062713552,-126.01894916794538
209318,13587,209318,35558,209318,52687,-113.03824842680388,-54.99872973561628,-133.18919777633073
209318,13569,209318,35527,209318,52659,-121.13136223743402,-57.726384392562494,-140.36487717904993
209318,13544,209318,35499,209318,52624,-129.2234975024993,-60.46648182814789,-147.54537538540785
209329,13547,209329,35483,209329,52621,-137.31407431302284,-63.21779264226319,-154.730274374072
209329,13525,209329,35485,209329,52637,-145.4026700673253,-65.97958584269978,-161.91973500855954
209329,13531,209329,35533,209329,52646,-153.48906039088354,-68.75187096309173,-169.1144124168693
209329,13528,209329,35507,209329,52664,-161.57314288305872,-71.53509550415441,-176.31493421447715
209329,13508,209329,35514,209329,52604,-169.65477405917682,-74.32964578144998,-183.5213301129295
209329,13491,209329,35476,209329,52580,-177.73367127610447,-77.13566114808242,-190.73292895125724
209339,13482,209339,35473,209339,52590,-185.80949702682142,-79.95324658017807,-197.94878386589346
209339,13488,209339,35523,209339,52586,-193.88196776728864,-82.78272339947526,-205.1680266018999
209339,13477,209339,35522,209339,52582,-201.95078896633765,-85.62442636740568,-212.38978875110968
209339,13474,209339,35487,209339,52569,-210.01545889096064,-88.4781463065892,-219.61296315076913
209339,13438,209339,35463,209339,52549,-218.07514351445275,-91.34294475901163,-226.8360968915647
209339,13422,209339,35396,209339,52504,-226.1287885137532,-94.21768472195427,-234.0575293041511
209349,13412,209349,35435,209349,52512,-234.1754279114988,-97.10193952652904,-241.27578306743044
209349,13427,209349,35488,209349,52513,-242.21440203041482,-99.99651694645362,-248.48991910050745
209349,13402,209349,35506,209349,52523,-250.24528646925853,-102.90297929079591,-255.6995031597811
209349,13406,209349,35474,209349,52504,-258.26769402341824,-105.82260670229908,-262.90426512420174
209349,13382,209349,35426,209349,52473,-266.2811701551308,-108.75589440515387,-270.10385775627105
209349,13366,209349,35437,209349,52463,-274.2852204822418,-111.7029218290127,-277.2979638710484
209360,13367,209360,35423,209360,52468,-282.2794257825892,-114.66396421712494,-284.4865657455746
209360,13358,209360,35472,209360,52494,-290.26351096808855,-117.63969305139241,-291.66995180066965
209360,13364,209360,35475,209360,52464,-298.23725067044074,-120.6308175535685,-298.84833913738566
209360,13335,209360,35433,209360,52437,-306.20029240130987,-123.63750723032547,-306.0215247639072
209360,13309,209360,35422,209360,52427,-314.15212193246145,-126.65921470339197,-313.1889581138232
209360,13288,209360,35391,209360,52402,-322.09231864241826,-129.69507893323942,-320.3500810634347
209370,13289,209370,35434,209370,52398,-330.0209429975432,-132.7444211366082,-327.50462988484037
209370,13303,209370,35432,209370,52403,-337.9387060783864,-135.8068153512861,-334.65278784825045
209370,13297,209370,35429,209370,52406,-345.8467612782973,-138.88172557554373,-341.795101463764
209370,13283,209370,35399,209370,52365,-353.74632862392184,-141.96819316876218,-348.93225345220094
209370,13262,209370,35367,209370,52368,-361.6384916726671,-145.06497320655353,-356.06501217980633
209370,13253,209370,35375,209370,52353,-369.5242600454085,-148.17103280149206,-363.19439396569135
209380,13242,209380,35414,209380,52410,-377.4047295951027,-151.28590752128633,-370.32165171091754
209380,13243,209380,35420,209380,52362,-385.2811620942217,-154.40945857641532,-377.44784495188503
209380,13228,209380,35409,209380,52359,-393.15494191060407,-157.54123519181923,-384.57335152731866
209380,13212,209380,35376,209380,52313,-401.0275108207554,-160.68008774038918,-391.6978308092188
209380,13198,209380,35327,209380,52268,-408.9004084142118,-163.8244019981305,-398.8206911058488
209380,13194,209380,35364,209380,52272,-416.77539376126947,-166.97276028059014,-405.94182042328384
209391,13192,209391,35371,209391,52330,-424.6544985421518,-170.12437382355682,-413.06205645692364
209391,13218,209391,35376,209391,52300,-432.5398719483061,-173.2788918263539,-420.1828817921678
209391,13192,209391,35358,209391,52292,-440.43339503579534,-176.43597371511197,-427.30573284630043
209391,13159,209391,35355,209391,52287,-448.3363538609681,-179.59511033452327,-434.4316571226259
209391,13148,209391,35333,209391,52244,-456.2495254947895,-182.7557183679378,-441.5613592133561
209391,13138,209391,35336,209391,52253,-464.1735331937583,-185.91734610586042,-448.69541291269604
209401,13146,209401,35374,209401,52275,-472.1090517938519,-189.07976190140494,-455.8344188335585
209401,13137,209401,35361,209401,52267,-480.0567256959853,-192.24268248290917,-462.978787765021
209401,13123,209401,35322,209401,52237,-488.0169633463031,-195.4053779101779,-470.1283096304213
209401,13096,209401,35304,209401,52169,-495.9898571130842,-198.5667299470121,-477.2821313439074
209401,13082,209401,35285,209401,52180,-503.975343903217,-201.72578030049317,-484.43936618303417
209401,13087,209401,35333,209401,52182,-511.97345473868165,-204.88221021379928,-491.59978222757593
209411,13089,209411,35338,209411,52197,-519.9843740237209,-208.03625967717716,-498.76393039510515
209411,13079,209411,35329,209411,52183,-528.0082376748675,-211.18817531301806,-505.9327727930046
209411,13055,209411,35319,209411,52155,-536.0449129592005,-214.33775559821487,-513.1073294465682
209411,13037,209411,35273,209411,52146,-544.0940109828789,-217.48435971482797,-520.2886651494556
209411,13033,209411,35289,209411,52142,-552.1550954110455,-220.627295041112,-527.4780909375147
209411,13033,209411,35316,209411,52159,-560.2278344690089,-223.76615427372911,-534.6772239793147
209422,13037,209422,35305,209422,52175,-568.3119222014859,-226.9006812689663,-541.887693354529
209422,13020,209422,35297,209422,52137,-576.4068357876934,-230.0303760849842,-549.1106292871011
209422,12987,209422,35255,209422,52060,-584.5116859399911,-233.15439171187842,-556.3465004053643
209422,12982,209422,35231,209422,52071,-592.6253546844362,-236.27191880793265,-563.5957098095917
209422,12961,209422,35256,209422,52080,-600.7467950837022,-239.38279133575804,-570.8593954306983
209422,12967,209422,35278,209422,52097,-608.875237950555,-242.48775255005563,-578.1395867252617
209432,12978,209432,35315,209432,52116,-617.0101699977065,-245.58804338090602,-585.4386832674124
209432,12959,209432,35256,209432,52109,-625.1510773816314,-248.68466734458468,-592.7587105166035
209432,12923,209432,35233,209432,52056,-633.2972197695717,-251.77810298546171,-600.1007938656765
209432,12910,209432,35241,209432,52046,-641.4477648170297,-254.8687127382538,-607.4652010158006
209432,12910,209432,35239,209432,52030,-649.6021495164075,-257.9572309599973,-614.8518130082879
209432,12918,209432,35280,209432,52055,-657.7602394160708,-261.04477257102536,-622.260463334173
209442,12910,209442,35267,209442,52038,-665.9221460931766,-264.13240073288256,-629.6908476381014
209442,12896,209442,35263,209442,51995,-674.087937640409,-267.22060970669366,-637.1422893684022
209442,12873,209442,35195,209442,51977,-682.2575194181484,-270.30919236640705,-644.6138551732889
209442,12851,209442,35187,209442,51953,-690.4307720942604,-273.39774531705007,-652.1048524450591
209442,12848,209442,35204,209442,52013,-698.6078336479758,-276.4864513983816,-659.6151970402474
209442,12861,209442,35255,209442,51973,-706.7892683299788,-279.57636247350075,-667.1452262171439
209453,12852,209453,35248,209453,51992,-714.9759303226717,-282.66886477134994,-674.6951794062707
209453,12855,209453,35216,209453,51944,-723.1686313675618,-285.76492779894085,-682.2648830952542
209453,12818,209453,35183,209453,51911,-731.3678916114844,-288.86493615417106,-689.8538705301214
209453,12803,209453,35178,209453,51907,-739.573969951605,-291.9691770650633,-697.4618593385429
209453,12811,209453,35210,209453,51924,-747.7871030351004,-295.07835831176646,-705.0891924625222
209453,12802,209453,35241,209453,51934,-756.0076250642028,-298.1935473799027,-712.7367850481372
209463,12794,209463,35206,209463,51916,-764.2358469776523,-301.3155783695251,-720.4056643036434
209463,12771,209463,35142,209463,51869,-772.4719337994155,-304.4447077851919,-728.0966507296552
209463,12754,209463,35152,209463,51853,-780.7159703774987,-307.58108987100314,-735.8105651993486
209463,12738,209463,35136,209463,51875,-788.9681851535547,-310.7255938815446,-743.5487008030915
209463,12748,209463,35203,209463,51891,-797.2291599448306,-313.88013355314234,-751.3129138644113
209463,12751,209463,35202,209463,51893,-805.499813241446,-317.04723756656705,-759.105137786678
209474,12738,209474,35203,209474,51849,-813.7811367659608,-320.22921914261843,-766.9268053694188
209474,12707,209474,35156,209474,51831,-822.0739706145198,-323.42763276211247,-774.7787320139893
209474,12693,209474,35127,209474,51808,-830.3790881298083,-326.6434408990899,-782.6614820369244
209474,12702,209474,35152,209474,51814,-838.6974589390279,-329.87762965726427,-790.5758011779317
209474,12702,209474,35185,209474,51815,-847.0303157448736,-333.1315366414627,-798.5227672019993
209474,12687,209474,35179,209474,51841,-855.378943891359,-336.406488310718,-806.5035654809946
209484,12673,209484,35139,209484,51797,-863.7444790123964,-339.7032506783681,-814.5190392791438
209484,12660,209484,35128,209484,51762,-872.1279029552701,-343.0219955511354,-822.5694659992712
209484,12637,209484,35098,209484,51742,-880.5301792571404,-346.36278228353865,-830.6548872075881
209484,12632,209484,35119,209484,51750,-888.9524431472756,-349.7260916070575,-838.775666608596
209484,12643,209484,35157,209484,51774,-897.3961246206662,-353.1129764279828,-846.9326749214225
209484,12629,209484,35144,209484,51774,-905.8628527687576,-356.5246535144552,-855.1269134400707
209494,12608,209494,35125,209494,51701,-914.3542566755656,-359.9619387630357,-863.3590275431599
209494,12592,209494,35103,209494,51697,-922.8719501977,-363.42511491256766,-871.6293759285604
209494,12588,209494,35113,209494,51671,-931.4177066488194,-366.91420942135994,-879.9386332917376
209494,12586,209494,35124,209494,51708,-939.9935784672829,-370.4291988293686,-888.288244439949
209494,12581,209494,35132,209494,51716,-948.6018343162573,-373.96985830710645,-896.6802825762546
209494,12581,209494,35099,209494,51682,-957.2447783111993,-377.5354526942939,-905.1168999146508
209505,12558,209505,35072,209505,51633,-965.9245707044582,-381.12471020852547,-913.6000343441766
209505,12538,209505,35034,209505,51633,-974.6431875688941,-384.736289313775,-922.1317545583775
209505,12529,209505,35048,209505,51630,-983.4025781003423,-388.36949391500974,-930.7147943210172
209505,12539,209505,35101,209505,51672,-992.2048332933183,-392.02465610828887,-939.3526302322365
209505,12535,209505,35120,209505,51665,-1001.0521170102472,-395.70271700404766,-948.0489632711757
209505,12506,209505,35070,209505,51649,-1009.9464342562068,-399.4043496498256,-956.8069925630082
209515,12482,209515,35050,209515,51586,-1018.889584671362,-403.129571129682,-965.6290924219726
209515,12487,209515,35013,209515,51592,-1027.8833942687274,-406.87817975993323,-974.5171435121727
209515,12474,209515,35015,209515,51597,-1036.9299177537605,-410.65051347202075,-983.4730485459467
209515,12482,209515,35090,209515,51603,-1046.031400899607,-414.44784738911636,-992.498813198201
209515,12470,209515,35095,209515,51590,-1055.1900858851914,-418.2719448907378,-1001.5962043170687
209515,12456,209515,35062,209515,51559,-1064.4080133293614,-422.1240839003936,-1010.7664528478213
209525,12425,209525,35009,209525,51518,-1073.6869828490871,-426.0046106812797,-1020.0103454479253
209525,12416,209525,34995,209525,51518,-1083.0287489782274,-429.91345620214105,-1029.3286824921267
209525,12419,209525,35006,209525,51568,-1092.4352763243032,-433.8509775877673,-1038.72260662805
209525,12433,209525,35049,209525,51563,-1101.9087483241728,-437.8182969480704,-1048.1932554518417
209525,12429,209525,35071,209525,51548,-1111.4512323981212,-441.8168441323118,-1057.7409588568046
209525,12411,209525,35022,209525,51511,-1121.064242258703,-445.84754252322324,-1067.3647399206093
209536,12371,209536,34979,209536,51473,-1130.7485615819573,-449.91050195941284,-1077.0624593109733
209536,12370,209536,35002,209536,51477,-1140.5044585126864,-454.0054960088813,-1086.831340158446
209536,12380,209536,35041,209536,51487,-1150.3319773017074,-458.13241612481863,-1096.668349318061
209536,12375,209536,35056,209536,51498,-1160.2309023217308,-462.2909377238532,-1106.5700688138602
209536,12355,209536,35022,209536,51486,-1170.2004673150068,-466.47973817825005,-1116.5321931550782
209536,12342,209536,34965,209536,51406,-1180.2391842701168,-470.6961855064004,-1126.5492030901257
209546,12328,209546,34968,209546,51431,-1190.3448971886478,-474.936847910345,-1136.6146348502089
209546,12307,209546,34968,209546,51402,-1200.5149231776877,-479.19824748199045,-1146.721617216877
209546,12294,209546,34987,209546,51438,-1210.7462182013269,-483.4771559517635,-1156.8630351004026
209546,12307,209546,34996,209546,51414,-1221.0355028172007,-487.77035366341903,-1167.0312308059458
209546,12300,209546,34968,209546,51387,-1231.3791780038555,-492.074216149656,-1177.2176317737271
209546,12288,209546,34970,209546,51357,-1241.7730453526208,-496.38451292344126,-1187.412719906306
209556,12256,209556,34943,209556,51340,-1252.212123158583,-500.69651371947504,-1197.6063893060918
209556,12252,209556,34962,209556,51366,-1262.6907366355476,-505.00519185591793,-1207.7882940557633
209556,12264,209556,34979,209556,51387,-1273.2026719497915,-509.3052435713816,-1217.9477310298253
209556,12259,209556,34992,209556,51371,-1283.741066413924,-513.590747437317,-1228.0730175995927
209556,12232,209556,34942,209556,51350,-1294.298099802269,-517.8546947251151,-1238.1508664665746
209556,12210,209556,34893,209556,51305,-1304.864873542228,-522.0890000617758,-1248.1662538193823
209567,12193,209567,34900,209567,51279,-1315.431611600988,-526.285192947332,-1258.1028156490738
209567,12196,209567,34944,209567,51285,-1325.9879324130416,-530.4350881594016,-1267.943434744109
209567,12186,209567,34936,209567,51295,-1336.5229290788884,-534.5307027273925,-1277.670537242981
209567,12202,209567,34959,209567,51284,-1347.0250096005366,-538.5636281840303,-1287.2659090656282
209567,12159,209567,34905,209567,51250,-1357.481633097228,-542.5245282081821,-1296.7103869426473
209567,12144,209567,34879,209567,51248,-1367.879217604151,-546.4031747747347,-1305.983833424542
209577,12134,209577,34880,209577,51226,-1378.2033453307147,-550.1889947808418,-1315.065339827302
209577,12126,209577,34934,209577,51236,-1388.4390108276211,-553.8715142885452,-1323.9333724200942
209577,12142,209577,34906,209577,51257,-1398.570639324885,-557.4401442001699,-1332.565674324162
209577,12112,209577,34901,209577,51235,-1408.5818858440991,-560.8836679275813,-1340.9388813231335
209577,12100,209577,34860,209577,51176,-1418.4554564123794,-564.1901316077518,-1349.0282165770705
209577,12074,209577,34840,209577,51160,-1428.1731765402997,-567.3472647221265,-1356.807774973724
209587,12070,209587,34837,209587,51167,-1437.7162387157218,-570.343117825645,-1364.2511975669045
209587,12067,209587,34895,209587,51182,-1447.0653927237227,-573.1664341067487,-1371.33201851376
209587,12080,209587,34894,209587,51207,-1456.200911429988,-575.8063483944318,-1378.0233858495442
209587,12055,209587,34895,209587,51172,-1465.102348839966,-578.2516446831297,-1384.2974645625545
209587,12032,209587,34839,209587,51136,-1473.7483622514646,-580.4903071430781,-1390.1251076974108
209587,12024,209587,34850,209587,51124,-1482.1168258190064,-582.509733299905,-1395.4761323262403
209598,12022,209598,34845,209598,51131,-1490.1850702740812,-584.2972394305515,-1400.3198552723106
209598,12037,209598,34881,209598,51122,-1497.929927743584,-585.8402636062369,-1404.6253613662916
209598,12028,209598,34873,209598,51125,-1505.3274994262697,-587.1261008451195,-1408.3614708198456
209598,11998,209598,34844,209598,51107,-1512.3528856765893,-588.1415411228064,-1411.4966617026284
209598,11983,209598,34799,209598,51044,-1518.9802091359443,-588.8729530096518,-1413.9992176842206
209598,11968,209598,34775,209598,51058,-1525.1829438577904,-589.306991446211,-1415.8377943092696
209608,11964,209608,34831,209608,51065,-1530.9342719861281,-589.4314363023791,-1416.9820891235631
209608,11976,209608,34871,209608,51078,-1536.2072543261067,-589.2353425379542,-1417.403050016257
209608,11968,209608,34848,209608,51081,-1540.9747630539935,-588.7083485556559,-1417.0726308486473
209608,11941,209608,34839,209608,51070,-1545.209347428907,-587.8399809241726,-1415.9635081472761
209608,11943,209608,34797,209608,51034,-1548.883302537207,-586.6196560185676,-1414.0490734457967
209608,11927,209608,34798,209608,51026,-1551.9689176706536,-585.0372453516732,-1411.30383572243
209618,11940,209618,34841,209618,51057,-1554.4386725031518,-583.0836342445824,-1407.703981822592
209618,11941,209618,34844,209618,51053,-1556.265264582989,-580.7507500150011,-1403.2276099918136
209618,11934,209618,34835,209618,51078,-1557.421505455406,-578.031159138402,-1397.8545664538083
209618,11907,209618,34809,209618,51031,-1557.8802906927376,-574.9178670680302,-1391.5662742938696
209618,11900,209618,34807,209618,51000,-1557.61484910431,-571.4046042748947,-1384.3459944438337
209618,11905,209618,34811,209618,51055,-1556.599160693359,-567.4863032677666,-1376.1795234104154
209629,11912,209629,34818,209629,51090,-1554.8082325678993,-563.1594045443496,-1367.0555956940307
209629,11914,209629,34870,209629,51098,-1552.218126384491,-558.4218277115202,-1356.965505659769
209629,11916,209629,34856,209629,51094,-1548.8058899084913,-553.2725916994997,-1345.9025178889679
209629,11888,209629,34838,209629,51092,-1544.5495958343442,-547.7114079346194,-1333.8617179320568
209629,11892,209629,34825,209629,51076,-1539.4286221697557,-541.7387402913544,-1320.840311774799
209629,11908,209629,34822,209629,51104,-1533.4240514401545,-535.3563095698776,-1306.8381090639086
209639,11929,209639,34913,209639,51161,-1526.5188453418343,-528.5674454820767,-1291.8578016200354
209639,11935,209639,34897,209639,51184,-1518.6976942650276,-521.3767538492026,-1275.9046830885202
209639,11937,209639,34890,209639,51147,-1509.94680329533,-513.7894125813186,-1258.9861172445653
209639,11923,209639,34879,209639,51176,-1500.2538904127723,-505.81093411242244,-1241.111479272203
209639,11912,209639,34867,209639,51165,-1489.6084985168893,-497.44754185632775,-1222.2926203685956
209639,11946,209639,34876,209639,51210,-1478.0024800074575,-488.7067173062193,-1202.544327172304
209649,11976,209649,34944,209649,51273,-1465.4302576021275,-479.5974966353846,-1181.884395164305
209649,11991,209649,34954,209649,51278,-1451.8886410630248,-470.130180616153,-1160.3332143727994
209649,11990,209649,34942,209649,51296,-1437.3765076148973,-460.3156862455727,-1137.9132371461478
209649,11994,209649,34907,209649,51305,-1421.8947569710901,-450.16531887925726,-1114.6488332641272
209649,11999,209649,34928,209649,51331,-1405.4465794507305,-439.6912458165134,-1090.5664871373676
209649,12044,209649,35001,209649,51393,-1388.0377659732746,-428.906997068109,-1065.694933581723
209660,12066,209660,35014,209660,51412,-1369.6767522150199,-417.8272279431724,-1040.0649560798142
209660,12092,209660,35010,209660,51450,-1350.374368403222,-406.4669737212436,-1013.7089639734776
209660,12096,209660,34994,209660,51452,-1330.1435858876312,-394.84127018519195,-986.660709835524
209660,12113,209660,34973,209660,51450,-1308.9995029828847,-382.96547749092014,-958.9553746503536
209660,12143,209660,35007,209660,51508,-1286.9595109700626,-370.85594666076975,-930.6299569698392
209660,12174,209660,35064,209660,51559,-1264.0433948931864,-358.53039477148326,-901.7235136088088
209670,12209,209670,35112,209670,51626,-1240.2732289457376,-346.00751677657144,-872.2768216487199
209670,12242,209670,35108,209670,51630,-1215.6731285383512,-333.3060681432583,-842.3316648796973
209670,12252,209670,35085,209670,51643,-1190.2690101099554,-320.44422516948225,-811.9303707157017
209670,12296,209670,35081,209670,51666,-1164.0884853938128,-307.43972426024806,-781.1159200252766
209670,12317,209670,35128,209670,51728,-1137.1608407272868,-294.31041935164603,-749.9322804238589
209670,12358,209670,35175,209670,51817,-1109.5169649184847,-281.07445955802655,-718.4243160645045
209680,12403,209680,35184,209680,51842,-1081.189182219882,-267.74981325952746,-686.6370478690598
209680,12417,209680,35174,209680,51853,-1052.2110136908211,-254.35369051896714,-654.6148071303066
209680,12437,209680,35152,209680,51839,-1022.6170358920284,-240.9025047676249,-622.4010419488604
209680,12458,209680,35141,209680,51887,-992.4430139097171,-227.41245010202965,-590.0388418496616
209680,12522,209680,35182,209680,51934,-961.7261294964219,-213.90026260008437,-557.57151538325
209680,12558,209680,35236,209680,51998,-930.5049388948561,-200.383537769772,-525.0426243334801
209691,12606,209691,35255,209691,52055,-898.8190085436372,-186.8803182392551,-492.4954589579552
209691,12623,209691,35244,209691,52038,-866.7085228775911,-173.40842466979387,-459.97239806889627
209691,12661,209691,35238,209691,52080,-834.2141098341558,-159.98523356470753,-427.51469895788955
209691,12695,209691,35261,209691,52123,-801.3768544302166,-146.6279762760813,-395.16272793292467
209691,12759,209691,35332,209691,52189,-768.2382683858854,-133.35395759957783,-362.95603110682464
209691,12797,209691,35357,209691,52247,-734.8400222079702,-120.18014497028383,-330.93289199942444
209701,12828,209701,35354,209701,52246,-701.2235375491589,-107.12235638227173,-299.1296620408359
209701,12857,209701,35325,209701,52256,-667.429729907827,-94.1948357378605,-267.5804496160039
209701,12887,209701,35334,209701,52280,-633.4990075819768,-81.41057331445876,-236.31741943608165
209701,12927,209701,35337,209701,52335,-599.4713818637638,-68.78196209263774,-205.3712680499632
209701,12998,209701,35389,209701,52364,-565.3864564564811,-56.32120466166805,-174.77135232590683
209701,13022,209701,35452,209701,52415,-531.2831389876225,-44.040114120794556,-144.5454618073653
209712,13064,209712,35424,209712,52442,-497.1992392781268,-31.949381435476937,-114.71948695378035
