c_ts,c_val,d_ts,d_val,e_ts,e_val,c_val_filtered,d_val_filtered,e_val_filtered
413963.0,8291.0,413963.0,23573.0,413963.0,20052.0,177.82659980920488,10.707990933774367,34.839676936978734
413963.0,8263.0,413963.0,23568.0,413963.0,20047.0,171.01758817643952,10.994240521652088,31.459224526128594
413963.0,8263.0,413963.0,23607.0,413963.0,20049.0,163.9658376439021,11.183718582949426,27.981715980142802
413963.0,8279.0,413963.0,23601.0,413963.0,20059.0,156.67684475767453,11.263942112781294,24.406587927358487
413963.0,8248.0,413963.0,23619.0,413963.0,20066.0,149.156327055217,11.223458939688541,20.733629350261268
413963.0,8244.0,413963.0,23613.0,413963.0,20057.0,141.4103509706295,11.052205115290418,16.96326219496447
413973.0,8264.0,413973.0,23655.0,413973.0,20078.0,133.44534965232754,10.741785171077549,13.096798732678096
413973.0,8261.0,413973.0,23705.0,413973.0,20088.0,125.2682753621338,10.285973047742555,9.136720175977558
413973.0,8246.0,413973.0,23645.0,413973.0,20037.0,116.88696314345935,9.681496695183153,5.086974478437604
413973.0,8208.0,413973.0,23603.0,413973.0,20001.0,108.31032709270349,8.928410377794384,0.9528905145994884
413973.0,8178.0,413973.0,23560.0,413973.0,20000.0,99.54810970358696,8.02944160248174,-3.259481715022922
413973.0,8161.0,413973.0,23539.0,413973.0,19979.0,90.61030541971525,6.988723489645457,-7.544119327814165
413984.0,8160.0,413984.0,23502.0,413984.0,19975.0,81.50661425864402,5.810588435805711,-11.895476909085147
413984.0,8135.0,413984.0,23515.0,413984.0,19961.0,72.24615791619885,4.498633418386842,-16.308746413075582
413984.0,8155.0,413984.0,23547.0,413984.0,19973.0,62.8374135177408,3.055214666020122,-20.780027976212978
413984.0,8135.0,413984.0,23543.0,413984.0,19999.0,53.288299961180854,1.4815496714560075,-25.306284303148743
413984.0,8135.0,413984.0,23557.0,413984.0,19989.0,43.606370028336215,-0.22182851770332146,-29.884983639249853
413984.0,8124.0,413984.0,23588.0,413984.0,19987.0,33.7989764620003,-2.054614878329458,-34.51365606563367
413994.0,8148.0,413994.0,23649.0,413994.0,20015.0,23.873434019828466,-4.01610794257466,-39.189593908812824
413994.0,8127.0,413994.0,23611.0,413994.0,19995.0,13.837324992317292,-6.104259451549854,-43.90957088104177
413994.0,8095.0,413994.0,23573.0,413994.0,19973.0,3.698798186619541,-8.314983020707851,-48.66959623401199
413994.0,8065.0,413994.0,23539.0,413994.0,19945.0,-6.533499095704457,-10.642375550938867,-53.465019732859375
413994.0,8046.0,413994.0,23507.0,413994.0,19946.0,-16.850874565497207,-13.079639025628818,-58.29097746024104
413994.0,8023.0,413994.0,23516.0,413994.0,19929.0,-27.245116538397866,-15.620051237889793,-63.142824446666765
414003.0,8024.0,414003.0,23461.0,414003.0,19924.0,-37.70887332818842,-18.257674002328045,-68.01638833463821
414003.0,8026.0,414003.0,23484.0,414003.0,19906.0,-48.23578956550426,-20.987896195809924,-72.90814743253539
414003.0,8019.0,414003.0,23555.0,414003.0,19916.0,-58.82036932454855,-23.807686341363517,-77.81539804981736
414003.0,8018.0,414003.0,23525.0,414003.0,19921.0,-69.45769983263821,-26.715146092835948,-82.7363019456771
414003.0,7995.0,414003.0,23535.0,414003.0,19921.0,-80.14322212810305,-29.7087128030016,-87.66972493571166
414003.0,8017.0,414003.0,23574.0,414003.0,19943.0,-90.87258525833604,-32.78665681122992,-92.61493147810998
414014.0,8020.0,414014.0,23625.0,414014.0,19960.0,-101.64141013190496,-35.94655174097559,-97.5711555187514
414014.0,8002.0,414014.0,23551.0,414014.0,19941.0,-112.44486805771899,-39.18442645882922,-102.53706786387468
414014.0,7950.0,414014.0,23513.0,414014.0,19905.0,-123.27740803329709,-42.49439207942916,-107.51046188326151
414014.0,7929.0,414014.0,23488.0,414014.0,19887.0,-134.1330134014782,-45.8693107881558,-112.48847329061431
414014.0,7919.0,414014.0,23454.0,414014.0,19874.0,-145.0058059202463,-49.301925859035364,-117.46815193640771
414014.0,7893.0,414014.0,23422.0,414014.0,19873.0,-155.89053400497016,-52.78586215961627,-122.44696071983174
414024.0,7898.0,414024.0,23449.0,414024.0,19853.0,-166.78281176345348,-56.31642046128347,-127.42304385914721
414024.0,7887.0,414024.0,23485.0,414024.0,19881.0,-177.67918184560273,-59.89089659637119,-132.39532935745132
414024.0,7883.0,414024.0,23496.0,414024.0,19878.0,-188.5770245118024,-63.5081625280021,-137.36342929647725
414024.0,7896.0,414024.0,23493.0,414024.0,19862.0,-199.47435148609077,-67.16788583616591,-142.32736430353435
414024.0,7875.0,414024.0,23510.0,414024.0,19883.0,-210.3695130164602,-70.8699320457444,-147.28734493524186
414024.0,7903.0,414024.0,23581.0,414024.0,19900.0,-221.26085059297765,-74.61384863209511,-152.2435735550061
414034.0,7897.0,414034.0,23542.0,414034.0,19886.0,-232.14628324282126,-78.39805430845031,-157.19586028358435
414034.0,7856.0,414034.0,23543.0,414034.0,19881.0,-243.02288615233346,-82.21904729722473,-162.14324729860274
414034.0,7817.0,414034.0,23447.0,414034.0,19844.0,-253.8868340539683,-86.07134296950791,-167.08395921741015
414034.0,7776.0,414034.0,23406.0,414034.0,19832.0,-264.7339341070869,-89.94837976440286,-172.015711975036
414034.0,7785.0,414034.0,23408.0,414034.0,19804.0,-275.560402336826,-93.84396857381245,-176.93623049629701
414034.0,7757.0,414034.0,23431.0,414034.0,19811.0,-286.36338997286026,-97.75338725770203,-181.8437627395539
414045.0,7781.0,414045.0,23440.0,414045.0,19806.0,-297.14111005026547,-101.67356193079517,-186.73739185516328
414045.0,7766.0,414045.0,23427.0,414045.0,19800.0,-307.892671621132,-105.60269134267152,-191.61710198942748
414045.0,7764.0,414045.0,23445.0,414045.0,19826.0,-318.6177713937488,-109.53989930755964,-196.48368275897533
414045.0,7764.0,414045.0,23449.0,414045.0,19816.0,-329.31640473163344,-113.4850022672262,-201.33848656407238
414045.0,7751.0,414045.0,23507.0,414045.0,19827.0,-339.98864055055526,-117.43811072472177,-206.18307919397543
414045.0,7752.0,414045.0,23542.0,414045.0,19862.0,-350.6344236928253,-121.39880350387126,-211.01885249273707
414055.0,7745.0,414055.0,23500.0,414055.0,19837.0,-361.2533966871753,-125.36503876463783,-215.8465363067743
414055.0,7711.0,414055.0,23430.0,414055.0,19804.0,-371.8447732802317,-129.3326153345493,-220.66582419025215
414055.0,7691.0,414055.0,23364.0,414055.0,19785.0,-382.4074135093807,-133.29586439573993,-225.47552771043902
414055.0,7675.0,414055.0,23369.0,414055.0,19766.0,-392.9401428411276,-137.24917500670063,-230.27415210474885
414055.0,7656.0,414055.0,23356.0,414055.0,19758.0,-403.44211101470154,-141.188315458238,-235.06046631782442
414055.0,7645.0,414055.0,23360.0,414055.0,19765.0,-413.91305301338156,-145.1110285086438,-239.83385699323506
414065.0,7651.0,414065.0,23412.0,414065.0,19760.0,-424.3534279044188,-149.0170281190314,-244.5944239566773
414065.0,7649.0,414065.0,23413.0,414065.0,19768.0,-434.76435663148203,-152.90750704224465,-249.34287589696976
414065.0,7633.0,414065.0,23405.0,414065.0,19765.0,-445.147389103304,-156.78439205604752,-254.08034564226006
414065.0,7634.0,414065.0,23402.0,414065.0,19764.0,-455.5042948234792,-160.64985881128771,-258.8081998890245
414065.0,7642.0,414065.0,23481.0,414065.0,19801.0,-465.8369033247169,-164.50606576650551,-263.5278089478262
414065.0,7643.0,414065.0,23451.0,414065.0,19780.0,-476.14682638737816,-168.35456074335283,-268.2401651620903
414076.0,7627.0,414076.0,23430.0,414076.0,19746.0,-486.43507817908005,-172.19553408106046,-272.94554221398755
414076.0,7579.0,414076.0,23373.0,414076.0,19731.0,-496.7018927793041,-176.02772176247868,-277.64361419782125
414076.0,7558.0,414076.0,23336.0,414076.0,19708.0,-506.94699607128973,-179.84916694859044,-282.3339879054648
414076.0,7550.0,414076.0,23332.0,414076.0,19720.0,-517.1701741422033,-183.6583380720039,-287.01672132472567
414076.0,7531.0,414076.0,23322.0,414076.0,19693.0,-527.3717253575995,-187.45502273187734,-291.6926077718307
414076.0,7532.0,414076.0,23344.0,414076.0,19702.0,-537.5526504049218,-191.24071613093295,-296.3633045762753
414086.0,7533.0,414086.0,23347.0,414086.0,19710.0,-547.7146551720639,-195.01855464774707,-301.03137914407813
414086.0,7506.0,414086.0,23356.0,414086.0,19705.0,-557.8600311888183,-198.79298472534487,-305.7001974682979
414086.0,7511.0,414086.0,23392.0,414086.0,19714.0,-567.9915592862102,-202.56931268668419,-310.3736894088363
414086.0,7524.0,414086.0,23419.0,414086.0,19743.0,-578.1124384264866,-206.35307058178947,-315.05605337151087
414086.0,7545.0,414086.0,23455.0,414086.0,19742.0,-588.2259724876538,-210.1490987438961,-319.7512970552748
414086.0,7521.0,414086.0,23410.0,414086.0,19740.0,-598.3349845501425,-213.96059785312366,-324.4626930639521
414096.0,7492.0,414096.0,23375.0,414096.0,19706.0,-608.44137951996,-217.78872509827326,-329.1924811490983
414096.0,7457.0,414096.0,23319.0,414096.0,19679.0,-618.5462253432914,-221.63308039289657,-333.94202947195
414096.0,7444.0,414096.0,23295.0,414096.0,19658.0,-628.6502475184824,-225.49281344790657,-338.71238397998906
414096.0,7429.0,414096.0,23282.0,414096.0,19662.0,-638.7543543844295,-229.3677870825817,-343.5048941949269
414096.0,7415.0,414096.0,23274.0,414096.0,19652.0,-648.8599685237515,-233.2594021605247,-348.3215996705283
414096.0,7421.0,414096.0,23333.0,414096.0,19653.0,-658.9691682948342,-237.17089593738996,-353.1653406439369
414107.0,7415.0,414107.0,23336.0,414107.0,19667.0,-669.0846515880119,-241.10699639535818,-358.03970816393905
414107.0,7409.0,414107.0,23350.0,414107.0,19647.0,-679.2095500724099,-245.07313078808332,-362.94888622144924
414107.0,7414.0,414107.0,23342.0,414107.0,19670.0,-689.3472031303925,-249.07471644242176,-367.89746266944843
414107.0,7414.0,414107.0,23419.0,414107.0,19701.0,-699.500909596542,-253.11664090895496,-372.8901602311198
414107.0,7434.0,414107.0,23377.0,414107.0,19690.0,-709.6735701790712,-257.2025852409985,-377.9313134137374
414107.0,7376.0,414107.0,23358.0,414107.0,19683.0,-719.8672973646148,-261.3343865540455,-383.02429962527043
414117.0,7372.0,414117.0,23309.0,414117.0,19627.0,-730.0833225836346,-265.51207519948724,-388.17139386195265
414117.0,7327.0,414117.0,23246.0,414117.0,19620.0,-740.322344253647,-269.73469374880494,-393.3741945901149
414117.0,7306.0,414117.0,23271.0,414117.0,19631.0,-750.5850940485391,-274.001468748804,-398.63426254633345
414117.0,7297.0,414117.0,23249.0,414117.0,19621.0,-760.872902803321,-278.31273017254915,-403.95344825468464
414117.0,7323.0,414117.0,23265.0,414117.0,19618.0,-771.1880292492557,-282.67023859388485,-409.3338576126253
414117.0,7312.0,414117.0,23280.0,414117.0,19610.0,-781.5335228534933,-287.0770920843341,-414.77777927875434
414127.0,7298.0,414127.0,23295.0,414127.0,19614.0,-791.9128210398967,-291.53738074398325,-420.2876749804956
414127.0,7307.0,414127.0,23299.0,414127.0,19608.0,-802.329465203438,-296.0556616249428,-425.8661375536878
414127.0,7278.0,414127.0,23328.0,414127.0,19630.0,-812.786971839007,-300.6364016535415,-431.5157518765002
414127.0,7319.0,414127.0,23375.0,414127.0,19643.0,-823.2886886818533,-305.28331555931743,-437.23877969138897
414127.0,7294.0,414127.0,23328.0,414127.0,19610.0,-833.8374981371234,-309.9985318943925,-443.03672490011485
414127.0,7264.0,414127.0,23318.0,414127.0,19599.0,-844.435475151953,-314.7820443933241,-448.91012734245925
414138.0,7237.0,414138.0,23222.0,414138.0,19569.0,-855.0838900178323,-319.63198084704356,-454.8587894071784
414138.0,7217.0,414138.0,23223.0,414138.0,19565.0,-865.7836248426024,-324.54564496509846,-460.8822249886896
414138.0,7203.0,414138.0,23214.0,414138.0,19537.0,-876.5356575916206,-329.52072618241743,-466.9800899677343
414138.0,7186.0,414138.0,23219.0,414138.0,19542.0,-887.3414031971881,-334.5560035848457,-473.152531489814
414138.0,7194.0,414138.0,23229.0,414138.0,19556.0,-898.2028914625703,-339.65143473662977,-479.40036902735716
414138.0,7198.0,414138.0,23246.0,414138.0,19566.0,-909.1227230250769,-344.8079026476423,-485.72494936877706
414148.0,7199.0,414148.0,23230.0,414148.0,19567.0,-920.1037709344236,-350.0268171846475,-492.12772205520184
414148.0,7177.0,414148.0,23261.0,414148.0,19567.0,-931.1488038296216,-355.3097328005029,-498.6097962854591
414148.0,7206.0,414148.0,23324.0,414148.0,19586.0,-942.2602087137757,-360.6578530244535,-505.17158852925087
414148.0,7197.0,414148.0,23326.0,414148.0,19591.0,-953.4396877723601,-366.071079665001,-511.8124353483441
414148.0,7159.0,414148.0,23263.0,414148.0,19562.0,-964.6878927362601,-371.54698311011873,-518.530181536619
414148.0,7144.0,414148.0,23197.0,414148.0,19526.0,-976.0043407701959,-377.08068940649656,-525.3210734704712
414158.0,7114.0,414158.0,23179.0,414158.0,19508.0,-987.3877292417883,-382.66591085246284,-532.1801580871756
414158.0,7090.0,414158.0,23155.0,414158.0,19496.0,-998.8363903479651,-388.2962844559961,-539.1019103584644
414158.0,7084.0,414158.0,23153.0,414158.0,19472.0,-1010.3487136188539,-393.96628585860344,-546.0807413322173
414158.0,7100.0,414158.0,23173.0,414158.0,19500.0,-1021.9233784975464,-399.6716096359431,-553.1112917982007
414158.0,7086.0,414158.0,23189.0,414158.0,19516.0,-1033.5592311004555,-405.4090626925163,-560.1883883077815
414158.0,7072.0,414158.0,23214.0,414158.0,19486.0,-1045.2549772177877,-411.1760376733666,-567.3066414841644
414169.0,7057.0,414169.0,23188.0,414169.0,19489.0,-1057.0090255074135,-416.9698417277947,-574.4600976083861
414169.0,7062.0,414169.0,23231.0,414169.0,19504.0,-1068.8194950923757,-422.7871761804977,-581.6421480546244
414169.0,7079.0,414169.0,23299.0,414169.0,19516.0,-1080.6841083422182,-428.62356078748303,-588.8453426203234
414169.0,7055.0,414169.0,23220.0,414169.0,19507.0,-1092.5998333123916,-434.4724092553605,-596.0609491186751
414169.0,7052.0,414169.0,23189.0,414169.0,19480.0,-1104.5625086468729,-440.32443817134674,-603.2785913683349
414169.0,7001.0,414169.0,23138.0,414169.0,19434.0,-1116.5667546034192,-446.1681704787954,-610.48632608759
414179.0,6982.0,414179.0,23114.0,414179.0,19432.0,-1128.606259380159,-451.99110274109097,-617.6711792638591
414179.0,6956.0,414179.0,23080.0,414179.0,19407.0,-1140.6743154430478,-457.78082622625834,-624.8197922751801
414179.0,6963.0,414179.0,23082.0,414179.0,19414.0,-1152.7643024938793,-463.5258937567735,-631.9188462851087
414179.0,6957.0,414179.0,23157.0,414179.0,19429.0,-1164.8698521825181,-469.2161918909598,-638.9551742692577
414179.0,6969.0,414179.0,23132.0,414179.0,19427.0,-1176.9846725136954,-474.8425152444224,-645.9155530071844
414179.0,6953.0,414179.0,23187.0,414179.0,19434.0,-1189.1021879819168,-480.39563267462904,-652.7863070091535
414190.0,6955.0,414190.0,23147.0,414190.0,19434.0,-1201.2151899188025,-485.86545072841255,-659.5529332528952
414190.0,6971.0,414190.0,23219.0,414190.0,19455.0,-1213.3155336973236,-491.2404122758099,-666.1997552730164
414190.0,6974.0,414190.0,23199.0,414190.0,19430.0,-1225.3937211341145,-496.5068857979227,-672.7095504136441
414190.0,6931.0,414190.0,23158.0,414190.0,19419.0,-1237.4384229994457,-501.64859225718743,-679.0633086056355
414190.0,6901.0,414190.0,23099.0,414190.0,19378.0,-1249.436356808334,-506.6466447316204,-685.2403458363913
414190.0,6873.0,414190.0,23066.0,414190.0,19372.0,-1261.37269227537,-511.48045834895646,-691.2187547113942
414200.0,6865.0,414200.0,23067.0,414200.0,19354.0,-1273.2316428498161,-516.1289604321855,-696.9759458770595
414200.0,6851.0,414200.0,23051.0,414200.0,19344.0,-1284.9968734627712,-520.5714377279163,-702.4890664917502
414200.0,6846.0,414200.0,23050.0,414200.0,19354.0,-1296.6516561838228,-524.7879100814216,-707.7352438521632
414200.0,6858.0,414200.0,23059.0,414200.0,19355.0,-1308.1788289523238,-528.7592477583819,-712.6916225305624
414200.0,6852.0,414200.0,23085.0,414200.0,19338.0,-1319.560555900551,-532.4670674602128,-717.3352362357107
414200.0,6833.0,414200.0,23075.0,414200.0,19348.0,-1330.7779970832155,-535.8933631316654,-721.6429114375451
414210.0,6844.0,414210.0,23105.0,414210.0,19363.0,-1341.8110905650547,-539.0200381044666,-725.591203499446
414210.0,6858.0,414210.0,23147.0,414210.0,19376.0,-1352.6383604592988,-541.8283776168762,-729.1561434607703
414210.0,6835.0,414210.0,23128.0,414210.0,19366.0,-1363.2365593162956,-544.298328738161,-732.3128164684101
414210.0,6796.0,414210.0,23086.0,414210.0,19339.0,-1373.5803965010316,-546.4079343676996,-735.0351025026613
414210.0,6768.0,414210.0,23022.0,414210.0,19303.0,-1383.6427459133947,-548.1335715748353,-737.2958716199606
414210.0,6755.0,414210.0,23000.0,414210.0,19288.0,-1393.3952306560686,-549.4510435541671,-739.0676203877513
414221.0,6741.0,414221.0,22978.0,414221.0,19283.0,-1402.8087686341796,-550.3369208551129,-740.3232265855748
414221.0,6729.0,414221.0,23002.0,414221.0,19300.0,-1411.8538938140703,-550.7695174403664,-741.0364466401763
414221.0,6740.0,414221.0,23026.0,414221.0,19295.0,-1420.5008945497325,-550.7292129252719,-741.1820230988696
414221.0,6732.0,414221.0,23016.0,414221.0,19294.0,-1428.7197699267117,-550.1982147841202,-740.7355891681972
414221.0,6735.0,414221.0,23039.0,414221.0,19289.0,-1436.480037463335,-549.1601719729664,-739.6736362405926
414221.0,6718.0,414221.0,23052.0,414221.0,19301.0,-1443.7505469430585,-547.5998773232486,-737.9735836473185
414231.0,6735.0,414231.0,23114.0,414231.0,19343.0,-1450.4993762426996,-545.5028427027811,-735.6137308121952
414231.0,6734.0,414231.0,23113.0,414231.0,19342.0,-1456.6936968371501,-542.8545450717319,-732.5728921896662
414231.0,6718.0,414231.0,23100.0,414231.0,19301.0,-1462.2995594213523,-539.6396434214533,-728.8299888938354
414231.0,6661.0,414231.0,23014.0,414231.0,19293.0,-1467.2818860556786,-535.8418470420042,-724.3641643461201
414231.0,6660.0,414231.0,23008.0,414231.0,19265.0,-1471.6049593211098,-531.4447877400429,-719.1554691416574
414231.0,6647.0,414231.0,23003.0,414231.0,19286.0,-1475.2331586702605,-526.4333723797859,-713.1856422502533
414241.0,6636.0,414241.0,23007.0,414241.0,19292.0,-1478.131493830295,-520.7947723693126,-706.4386067031688
414241.0,6649.0,414241.0,23015.0,414241.0,19311.0,-1480.265871641198,-514.5188400981006,-698.9005852329387
414241.0,6654.0,414241.0,23062.0,414241.0,19310.0,-1481.603168284804,-507.5981551032495,-690.5600023264874
414241.0,6643.0,414241.0,23084.0,414241.0,19327.0,-1482.1111403836621,-500.0277023141874,-681.4074018156117
414241.0,6645.0,414241.0,23083.0,414241.0,19325.0,-1481.7583642451195,-491.8042959470943,-671.4354512084025
414241.0,6646.0,414241.0,23104.0,414241.0,19350.0,-1480.5143095251146,-482.92614586487537,-660.6389885440333
414252.0,6675.0,414252.0,23180.0,414252.0,19387.0,-1478.349380357439,-473.39255841634014,-649.014978440995
414252.0,6676.0,414252.0,23164.0,414252.0,19376.0,-1475.2347549420563,-463.2033690986153,-636.5622844139441
414252.0,6639.0,414252.0,23127.0,414252.0,19360.0,-1471.1422006122566,-452.3583843200784,-623.2815408772765
414252.0,6622.0,414252.0,23079.0,414252.0,19345.0,-1466.0443024333977,-440.8576640183562,-609.1755215178914
414252.0,6617.0,414252.0,23085.0,414252.0,19355.0,-1459.915168975047,-428.70269370220063,-594.2499007992776
414252.0,6604.0,414252.0,23057.0,414252.0,19375.0,-1452.7312113885732,-415.89769914782926,-578.5139450644173
414262.0,6633.0,414262.0,23081.0,414262.0,19388.0,-1444.471705199048,-402.45062810830524,-561.9808618637549
414262.0,6648.0,414262.0,23130.0,414262.0,19419.0,-1435.1190343772987,-388.37367948273703,-544.6678699350274
414262.0,6653.0,414262.0,23155.0,414262.0,19453.0,-1424.658634545073,-373.68323397087624,-526.5960966597889
414262.0,6677.0,414262.0,23154.0,414262.0,19474.0,-1413.078860511866,-358.3993962823624,-507.79032065155593
414262.0,6691.0,414262.0,23191.0,414262.0,19508.0,-1400.3709061065092,-342.5456745385419,-488.2786498597427
414262.0,6718.0,414262.0,23277.0,414262.0,19571.0,-1386.5286937060828,-326.1487314605452,-468.0921566503826
414272.0,6742.0,414272.0,23327.0,414272.0,19593.0,-1371.5486892235103,-309.2376278052572,-447.2643252738232
414272.0,6743.0,414272.0,23311.0,414272.0,19597.0,-1355.4297095317097,-291.84265838125225,-425.83045844991284
414272.0,6745.0,414272.0,23274.0,414272.0,19616.0,-1338.1729025472057,-273.9947450269177,-403.82745685249625
414272.0,6752.0,414272.0,23283.0,414272.0,19617.0,-1319.7820234534497,-255.72591578786262,-381.2940249910669
414272.0,6772.0,414272.0,23297.0,414272.0,19659.0,-1300.2638613112092,-237.0702783611589,-358.2710048041778
414272.0,6785.0,414272.0,23321.0,414272.0,19669.0,-1279.6285892683259,-218.06469143601382,-334.8015928588084
414283.0,6818.0,414283.0,23385.0,414283.0,19727.0,-1257.8899673092033,-198.74889604021809,-310.9313528077694
414283.0,6845.0,414283.0,23432.0,414283.0,19761.0,-1235.0654012541872,-179.16511378943326,-286.707995395121
414283.0,6901.0,414283.0,23450.0,414283.0,19817.0,-1211.1758150599153,-159.3572746767901,-262.1809144166518
414283.0,6924.0,414283.0,23509.0,414283.0,19834.0,-1186.2453156173679,-139.37026766815708,-237.40060256472452
414283.0,6959.0,414283.0,23533.0,414283.0,19912.0,-1160.3007910299677,-119.24934625499944,-212.41809936613635
414283.0,7024.0,414283.0,23638.0,414283.0,19959.0,-1133.3715630150286,-99.03943050837142,-187.28436030420852
414293.0,7058.0,414293.0,23627.0,414293.0,19954.0,-1105.4889549468037,-78.78414430541812,-162.04951917156177
414293.0,7049.0,414293.0,23621.0,414293.0,19985.0,-1076.6858353048333,-58.52500114621455,-136.76246496667443
414293.0,7069.0,414293.0,23621.0,414293.0,20009.0,-1046.9965908489373,-38.30136248390221,-111.47090372963561
414293.0,7107.0,414293.0,23599.0,414293.0,20032.0,-1016.4575709497026,-18.151106511152648,-86.22152732132622
414293.0,7131.0,414293.0,23613.0,414293.0,20044.0,-985.1075020939614,1.8884775496969723,-61.06011153340643
414293.0,7179.0,414293.0,23672.0,414293.0,20081.0,-952.9876285319763,21.779971589213176,-36.031647245355884
414303.0,7223.0,414303.0,23694.0,414303.0,20124.0,-920.1416587529465,41.48567493482676,-11.180410050880653
414303.0,7278.0,414303.0,23762.0,414303.0,20151.0,-886.6155326385689,60.9680423806135,13.450203098276745
414303.0,7322.0,414303.0,23788.0,414303.0,20225.0,-852.4570281147837,80.19040348841469,37.81806154651582
414303.0,7364.0,414303.0,23828.0,414303.0,20236.0,-817.7153333084689,99.11772759337038,61.88285357732599
414303.0,7437.0,414303.0,23893.0,414303.0,20282.0,-782.4406453982972,117.71734867181715,85.60666172029596
414303.0,7485.0,414303.0,23916.0,414303.0,20310.0,-746.683679216941,135.95974023926055,108.95437786401874
414314.0,7510.0,414314.0,23904.0,414314.0,20327.0,-710.4951042187135,153.81922192731452,131.89397154119808
414314.0,7558.0,414314.0,23850.0,414314.0,20335.0,-673.9251935161609,171.27403002583293,154.3966003790594
414314.0,7570.0,414314.0,23860.0,414314.0,20313.0,-637.0237926249898,188.30547557544634,176.43639173859322
414314.0,7618.0,414314.0,23881.0,414314.0,20345.0,-599.8404767673098,204.8967776049427,197.98987017490225
414314.0,7637.0,414314.0,23865.0,414314.0,20382.0,-562.4247838072619,221.03229055451038,219.03538774029442
414314.0,7698.0,414314.0,23906.0,414314.0,20396.0,-524.826413948013,236.69712846639237,239.55295859567468
414324.0,7763.0,414324.0,23954.0,414324.0,20419.0,-487.0952225623139,251.87704884614425,259.52437923831235
414324.0,7812.0,414324.0,23983.0,414324.0,20457.0,-449.28087097719595,266.5587848848089,278.9333395332985
414324.0,7852.0,414324.0,23987.0,414324.0,20465.0,-411.4322995420466,280.7306605563283,297.7655453762475
414324.0,7918.0,414324.0,23996.0,414324.0,20507.0,-373.59730064570215,294.3829709438734,316.00889399038647
414324.0,7972.0,414324.0,24099.0,414324.0,20575.0,-335.82213748269214,307.5081666194343,333.65377112664873
414324.0,8019.0,414324.0,24094.0,414324.0,20553.0,-298.15106333839435,320.10141712178154,350.6935960263737
414334.0,8023.0,414334.0,24047.0,414334.0,20534.0,-260.62593619625125,332.1613635421154,367.12519352156744
414334.0,8042.0,414334.0,24014.0,414334.0,20515.0,-223.28627733504186,343.6900363697498,382.9483964901683
414334.0,8070.0,414334.0,23981.0,414334.0,20534.0,-186.16978874363963,354.6917099667678,398.1651054330059
414334.0,8119.0,414334.0,24020.0,414334.0,20546.0,-149.31292938962815,365.1715314396265,412.7785033735596
414334.0,8145.0,414334.0,24038.0,414334.0,20577.0,-112.75121721834921,375.13473529853707,426.79273970839574
414334.0,8207.0,414334.0,24084.0,414334.0,20583.0,-76.5192779517165,384.5866643362958,440.2129594671427
414345.0,8256.0,414345.0,24063.0,414345.0,20585.0,-40.650710359550885,393.53322622098915,453.04539250769415
414345.0,8309.0,414345.0,24084.0,414345.0,20603.0,-5.177744617707276,401.98122505834283,465.29729808725676
414345.0,8346.0,414345.0,24101.0,414345.0,20622.0,29.869198055436982,409.93841190380545,476.9768475828587
414345.0,8401.0,414345.0,24170.0,414345.0,20663.0,64.46188160662291,417.41364862724924,488.0931899989132
414345.0,8457.0,414345.0,24172.0,414345.0,20680.0,98.57460461114988,424.41752890820385,498.6567991602236
414345.0,8471.0,414345.0,24145.0,414345.0,20665.0,132.18458461777163,430.9630978708449,508.67988777859057
414355.0,8474.0,414355.0,24097.0,414355.0,20638.0,165.2721211967696,437.06590909363035,518.1764448587189
414355.0,8489.0,414355.0,24072.0,414355.0,20611.0,197.8202449952728,442.74318382234037,527.1616552291928
414355.0,8517.0,414355.0,24069.0,414355.0,20630.0,229.8140355826622,448.01258996647243,535.6509759810536
414355.0,8549.0,414355.0,24041.0,414355.0,20640.0,261.2400417250726,452.8912130508795,543.6594218107681
414355.0,8586.0,414355.0,24072.0,414355.0,20658.0,292.0859948156067,457.3948683229977,551.201344123273
414355.0,8628.0,414355.0,24118.0,414355.0,20695.0,322.340769361168,461.53785466057093,558.2905921111695
414365.0,8674.0,414365.0,24125.0,414365.0,20684.0,351.99453021874615,465.3333217880913,564.9408630934256
414365.0,8707.0,414365.0,24119.0,414365.0,20695.0,381.03901432857197,468.79391642378664,571.1660008410161
414365.0,8728.0,414365.0,24166.0,414365.0,20711.0,409.4678015573702,471.93220909150295,576.9800835948138
414365.0,8787.0,414365.0,24227.0,414365.0,20755.0,437.2764696882035,474.761146050775,582.3975401251498
414365.0,8795.0,414365.0,24183.0,414365.0,20746.0,464.4627309059118,477.2948719856836,587.4335402694927
414365.0,8807.0,414365.0,24132.0,414365.0,20706.0,491.02652159312584,479.5492713890476,592.1043316370368
414376.0,8795.0,414376.0,24123.0,414376.0,20697.0,516.96976017318,481.541493572478,596.42699379916
414376.0,8829.0,414376.0,24083.0,414376.0,20691.0,542.2957365850282,483.28885744304876,600.4187126547571
414376.0,8835.0,414376.0,24079.0,414376.0,20672.0,567.008475349598,484.80782761703733,604.0960823807326
414376.0,8865.0,414376.0,24095.0,414376.0,20694.0,591.1123129577932,486.11327988797007,607.4746206054652
414376.0,8896.0,414376.0,24107.0,414376.0,20712.0,614.6116752965268,487.2181992121823,610.5685468702883
414376.0,8931.0,414376.0,24114.0,414376.0,20728.0,637.5110489105198,488.13381378393115,613.3909331623213
414386.0,8957.0,414386.0,24119.0,414386.0,20724.0,659.815135844206,488.8698774130032,615.9540641614099
414386.0,8984.0,414386.0,24150.0,414386.0,20726.0,681.5290624046099,489.43494198920394,618.2696829816625
414386.0,9021.0,414386.0,24204.0,414386.0,20766.0,702.6585607470315,489.83682006149286,620.3491037944724
414386.0,9071.0,414386.0,24204.0,414386.0,20774.0,723.2102243053403,490.08341938203966,622.2034823660682
414386.0,9050.0,414386.0,24204.0,414386.0,20756.0,743.1918550960725,490.18363142858846,623.8442522357439
414386.0,9061.0,414386.0,24138.0,414386.0,20733.0,762.6125606768128,490.1476746198647,625.283278929855
414397.0,9056.0,414397.0,24107.0,414397.0,20720.0,781.482359689473,489.986588376299,626.5325031622514
414397.0,9078.0,414397.0,24107.0,414397.0,20721.0,799.8115709290373,489.7111670942529,627.6033640578528
414397.0,9086.0,414397.0,24094.0,414397.0,20703.0,817.6103316819404,489.3310136590284,628.5063318874251
414397.0,9101.0,414397.0,24128.0,414397.0,20731.0,834.888297629376,488.85411285701264,629.2506268533414
414397.0,9143.0,414397.0,24109.0,414397.0,20748.0,851.6544875708585,488.28684545956526,629.8441964467612
414397.0,9164.0,414397.0,24150.0,414397.0,20745.0,867.9173475401619,487.6342261848778,630.2940016724078
414407.0,9176.0,414407.0,24135.0,414407.0,20744.0,883.6849996228914,486.90022771654685,630.6063508229075
414407.0,9218.0,414407.0,24165.0,414407.0,20760.0,898.9654728330454,486.0881400198741,630.7870498713049
414407.0,9259.0,414407.0,24235.0,414407.0,20792.0,913.7669663795496,485.20107612610707,630.8415675996624
414407.0,9255.0,414407.0,24209.0,414407.0,20790.0,928.0982786280888,484.2428246176614,630.7754480004651
414407.0,9243.0,414407.0,24165.0,414407.0,20756.0,941.9690837694511,483.21862777041156,630.5947228768238
414407.0,9237.0,414407.0,24104.0,414407.0,20733.0,955.3896774774951,482.13503121608403,630.3058428154595
414417.0,9239.0,414417.0,24089.0,414417.0,20726.0,968.3703389829643,480.99877662644735,629.9151020552455
414417.0,9263.0,414417.0,24084.0,414417.0,20713.0,980.9207342226989,479.81554266029104,629.4279901257677
414417.0,9252.0,414417.0,24069.0,414417.0,20713.0,993.0495702111043,478.5891329923033,628.8487432639029
414417.0,9294.0,414417.0,24124.0,414417.0,20733.0,1004.764431525432,477.32118613109657,628.1801237711989
414417.0,9335.0,414417.0,24139.0,414417.0,20749.0,1016.0718269621846,476.01142512213687,627.4234980093961
414417.0,9320.0,414417.0,24134.0,414417.0,20751.0,1026.9775331423282,474.65833375192756,626.5791927077161
414428.0,9346.0,414428.0,24162.0,414428.0,20764.0,1037.4869272507412,473.2597998716956,625.6469028783893
414428.0,9374.0,414428.0,24202.0,414428.0,20781.0,1047.6050881384688,471.8136267185816,624.6260379971288
414428.0,9406.0,414428.0,24228.0,414428.0,20786.0,1057.3369772669275,470.31827251450204,623.5160914496005
414428.0,9400.0,414428.0,24168.0,414428.0,20763.0,1066.6878308719304,468.7736767432972,622.3169684997171
414428.0,9384.0,414428.0,24113.0,414428.0,20751.0,1075.6633847524913,467.18139604145006,621.0290218528123
414428.0,9381.0,414428.0,24092.0,414428.0,20726.0,1084.269632007571,465.54371781546484,619.6527239876772
414438.0,9380.0,414438.0,24061.0,414438.0,20725.0,1092.5122815107243,463.86236675643994,618.1881685043053
414438.0,9385.0,414438.0,24091.0,414438.0,20719.0,1100.3962569238113,462.13753475619035,616.6346332070993
414438.0,9396.0,414438.0,24095.0,414438.0,20741.0,1107.9253777365673,460.36751750390914,614.990370872147
414438.0,9420.0,414438.0,24118.0,414438.0,20762.0,1115.1022424190012,458.54890919488975,613.2527349828468
414438.0,9436.0,414438.0,24151.0,414438.0,20755.0,1121.9283378534165,456.6771307727411,611.4185919203383
414438.0,9459.0,414438.0,24134.0,414438.0,20748.0,1128.4043284191384,454.7470833660356,609.4847141096061
414448.0,9468.0,414448.0,24144.0,414448.0,20768.0,1134.5304052826261,452.7536761184637,607.4479397046962
414448.0,9526.0,414448.0,24218.0,414448.0,20788.0,1140.30667968019,450.69221642731526,605.3053255706354
414448.0,9516.0,414448.0,24192.0,414448.0,20781.0,1145.7337173224555,448.55906141889517,603.054520317572
414448.0,9506.0,414448.0,24164.0,414448.0,20756.0,1150.8130297552216,446.35235271691323,600.694104514359
414448.0,9491.0,414448.0,24093.0,414448.0,20736.0,1155.547109818743,444.07200893940154,598.2235257915117
414448.0,9481.0,414448.0,24094.0,414448.0,20718.0,1159.9389969938406,441.7188140885669,595.6426450710566
414459.0,9472.0,414459.0,24091.0,414459.0,20715.0,1163.9916983810213,439.2933425269816,592.9511934572105
414459.0,9492.0,414459.0,24086.0,414459.0,20723.0,1167.707708071679,436.7953721648058,590.1484049070857
414459.0,9500.0,414459.0,24086.0,414459.0,20744.0,1171.0887907689962,434.22374132797177,587.2329764745236
414459.0,9509.0,414459.0,24112.0,414459.0,20745.0,1174.1360518456095,431.576390283108,584.20335615306
414459.0,9535.0,414459.0,24119.0,414459.0,20746.0,1176.8501521239828,428.8506137646955,581.0581499148224
414459.0,9538.0,414459.0,24127.0,414459.0,20742.0,1179.2315985377236,426.04351647244715,577.7964071688415
414469.0,9550.0,414469.0,24181.0,414469.0,20753.0,1181.2810681533565,423.1525623395512,574.4177644428452
414469.0,9591.0,414469.0,24193.0,414469.0,20783.0,1182.9997351785971,420.1763249131167,570.9226517115517
414469.0,9572.0,414469.0,24179.0,414469.0,20750.0,1184.3896798576368,417.1153761822826,567.3126706603693
414469.0,9552.0,414469.0,24107.0,414469.0,20730.0,1185.4541991023407,413.97271486978343,563.5908352382727
414469.0,9547.0,414469.0,24057.0,414469.0,20708.0,1186.1976747605383,410.7532100226069,559.7613364861306
414469.0,9523.0,414469.0,24054.0,414469.0,20694.0,1186.6250965576203,407.4623208715427,555.8289974907547
414479.0,9530.0,414479.0,24028.0,414479.0,20692.0,1186.7415573016856,404.10489825672954,551.7987745099745
414479.0,9534.0,414479.0,24070.0,414479.0,20700.0,1186.5518922165859,400.68457136417436,547.6754862542098
414479.0,9555.0,414479.0,24087.0,414479.0,20706.0,1186.060591763648,397.20378236091574,543.463829856242
414479.0,9558.0,414479.0,24093.0,414479.0,20692.0,1185.2720019657145,393.66433322284615,539.1685781406161
414479.0,9563.0,414479.0,24049.0,414479.0,20702.0,1184.1906380491066,390.06794481250716,534.7947475723809
414479.0,9569.0,414479.0,24103.0,414479.0,20693.0,1182.8214392456323,386.4164132804297,530.3476861357525
414490.0,9606.0,414490.0,24167.0,414490.0,20701.0,1181.17001722324,382.711835254606,525.8331700217916
414490.0,9594.0,414490.0,24151.0,414490.0,20722.0,1179.2430578565095,378.9575169621677,521.2575898988403
414490.0,9580.0,414490.0,24104.0,414490.0,20684.0,1177.0487203261123,375.1589884214654,516.6282265757309
414490.0,9543.0,414490.0,24051.0,414490.0,20677.0,1174.5966407283383,371.32406418422397,511.9533709784183
414490.0,9532.0,414490.0,24011.0,414490.0,20637.0,1171.8974529135858,367.46187961811324,507.2420534528831
414490.0,9529.0,414490.0,23988.0,414490.0,20634.0,1168.9621500443957,363.5815824564958,502.50350759986424
414500.0,9510.0,414500.0,23988.0,414500.0,20631.0,1165.8016123575967,359.69125609611285,497.74666584214816
414500.0,9531.0,414500.0,24002.0,414500.0,20619.0,1162.4263554244274,355.7973576823043,492.9798827328364
414500.0,9525.0,414500.0,24020.0,414500.0,20629.0,1158.8464783255301,351.9047213215208,488.21086345909765
414500.0,9527.0,414500.0,24037.0,414500.0,20643.0,1155.0717891425659,348.0169825290279,483.4467446557324
414500.0,9536.0,414500.0,24046.0,414500.0,20621.0,1151.1119799460857,344.13718697485655,478.6943293013485
414500.0,9560.0,414500.0,24108.0,414500.0,20664.0,1146.976855008676,340.2684903099739,473.9603702296964
414510.0,9575.0,414510.0,24155.0,414510.0,20663.0,1142.6767637055138,336.4151594276043,469.25193036292893
414510.0,9567.0,414510.0,24070.0,414510.0,20622.0,1138.2231750449137,332.58376171377347,464.5768113474341
414510.0,9503.0,414510.0,23975.0,414510.0,20613.0,1133.628984698217,328.78349587482325,459.9436415683505
414510.0,9495.0,414510.0,23959.0,414510.0,20574.0,1128.9081656033566,325.02498415929995,455.3614512737518
414510.0,9482.0,414510.0,23943.0,414510.0,20582.0,1124.0749823156068,321.3184829073341,450.8390745179772
414510.0,9471.0,414510.0,23920.0,414510.0,20561.0,1119.1433535176227,317.6726889075802,446.38468524405164
414521.0,9454.0,414521.0,23977.0,414521.0,20558.0,1114.1265018743516,314.0942687419232,442.00552591377425
414521.0,9473.0,414521.0,23965.0,414521.0,20562.0,1109.0367288930133,310.5879691844906,437.70776164277135
414521.0,9490.0,414521.0,23967.0,414521.0,20579.0,1103.8854135266142,307.1571101139939,433.496494010986
414521.0,9489.0,414521.0,23989.0,414521.0,20572.0,1098.6833535225423,303.804024681192,429.3760011306846
414521.0,9479.0,414521.0,23976.0,414521.0,20580.0,1093.441200228174,300.53036162095805,425.3500621432614
414521.0,9496.0,414521.0,24042.0,414521.0,20616.0,1088.1697153218138,297.3374783066309,421.42228505270293
414531.0,9498.0,414531.0,24038.0,414531.0,20584.0,1082.8799584011713,294.2270944775263,417.59653490522885
414531.0,9480.0,414531.0,23998.0,414531.0,20559.0,1077.5835325723756,291.20202040406065,413.87723553639285
414531.0,9428.0,414531.0,23954.0,414531.0,20542.0,1072.2926185259937,288.2663017189069,410.2691723935819
414531.0,9419.0,414531.0,23934.0,414531.0,20529.0,1067.0195113827415,285.42453392871266,406.7769561661007
414531.0,9419.0,414531.0,23898.0,414531.0,20521.0,1061.7759189569938,282.68085443548387,403.40454169819964
414531.0,9404.0,414531.0,23902.0,414531.0,20503.0,1056.5725087647916,280.0380692916675,400.1548910860299
414541.0,9418.0,414541.0,23950.0,414541.0,20543.0,1051.4187803062505,277.4971816974629,397.0297788116724
414541.0,9417.0,414541.0,23969.0,414541.0,20509.0,1046.3231185969153,275.05761964100464,394.02984000614435
414541.0,9404.0,414541.0,23941.0,414541.0,20516.0,1041.2929497160017,272.717956227041,391.15473226561113
414541.0,9397.0,414541.0,23954.0,414541.0,20532.0,1036.3348321545332,270.4764144042431,388.40319446074244
414541.0,9432.0,414541.0,24000.0,414541.0,20558.0,1031.4544715799993,268.33105089613645,385.77321099024164
414541.0,9447.0,414541.0,24032.0,414541.0,20557.0,1026.656978550618,266.2802345954012,383.26248995755367
414552.0,9433.0,414552.0,23993.0,414552.0,20551.0,1021.9474377968533,264.32350244807304,380.86898617511287
414552.0,9401.0,414552.0,23929.0,414552.0,20531.0,1017.3313133257,262.46196719501876,378.59112300796886
414552.0,9379.0,414552.0,23941.0,414552.0,20508.0,1012.8142965786541,260.6977649815978,376.4276321705911
414552.0,9370.0,414552.0,23906.0,414552.0,20484.0,1008.4017654366538,259.03311349210935,374.3770985491287
414552.0,9366.0,414552.0,23862.0,414552.0,20480.0,1004.0982728034517,257.4695451677786,372.4373740167547
414552.0,9349.0,414552.0,23877.0,414552.0,20499.0,999.9072487589442,256.0071778363567,370.6051314729906
414562.0,9356.0,414562.0,23928.0,414562.0,20521.0,995.8308291208249,254.64419675343404,368.8758364303525
414562.0,9363.0,414562.0,23931.0,414562.0,20514.0,991.869783998432,253.37707624588325,367.2441200661551
414562.0,9368.0,414562.0,23943.0,414562.0,20524.0,988.0236353139037,252.2013244757522,365.7042118736083
414562.0,9369.0,414562.0,23938.0,414562.0,20532.0,984.2909146950246,251.11209169869278,364.2502216131448
414562.0,9404.0,414562.0,24001.0,414562.0,20552.0,980.6694787793734,250.10456929855908,362.8764043098206
414562.0,9403.0,414562.0,24023.0,414562.0,20544.0,977.1569588729491,249.1746229390406,361.57751776241895
414572.0,9391.0,414572.0,23942.0,414572.0,20507.0,973.7512701483668,248.31958914749205,360.3490562073246
414572.0,9348.0,414572.0,23903.0,414572.0,20519.0,970.4507959474007,247.53833895059557,359.1870992446265
414572.0,9342.0,414572.0,23906.0,414572.0,20487.0,967.2540367871426,246.83031925677767,358.087911761952
414572.0,9336.0,414572.0,23897.0,414572.0,20481.0,964.1590175646024,246.19450091652786,357.04754188037487
414572.0,9328.0,414572.0,23878.0,414572.0,20493.0,961.1628638295051,245.62884870057667,356.0614676415293
414572.0,9345.0,414572.0,23894.0,414572.0,20487.0,958.2616463572612,245.13005825045244,355.12440994340545
414583.0,9339.0,414583.0,23901.0,414583.0,20516.0,955.450429358935,244.69342245895845,354.2304090111794
414583.0,9355.0,414583.0,23900.0,414583.0,20511.0,952.723461743179,244.31292655038885,353.37309374205716
414583.0,9355.0,414583.0,23932.0,414583.0,20511.0,950.0744306383092,243.981497133505,352.54600042892827
414583.0,9383.0,414583.0,24000.0,414583.0,20564.0,947.4967712851358,243.69149041276526,351.74287225700095
414583.0,9387.0,414583.0,24007.0,414583.0,20557.0,944.9840901630776,243.43566464612158,350.95812191008207
414583.0,9370.0,414583.0,23990.0,414583.0,20529.0,942.530604417022,243.20829709822738,350.1873805799504
414593.0,9352.0,414593.0,23920.0,414593.0,20507.0,940.1313104183446,243.00561598616713,349.4275992920097
414593.0,9321.0,414593.0,23896.0,414593.0,20482.0,937.7817237951206,242.8251833285885,348.67655900306784
414593.0,9318.0,414593.0,23877.0,414593.0,20488.0,935.4773388274235,242.6646983286166,347.9322003885805
414593.0,9337.0,414593.0,23874.0,414593.0,20469.0,933.2131493667623,242.5209539686069,347.19212350158983
414593.0,9321.0,414593.0,23903.0,414593.0,20481.0,930.983508679907,242.3893131974121,346.4533120169825
414593.0,9336.0,414593.0,23937.0,414593.0,20493.0,928.7822352902534,242.2637817224352,345.71204976287004
414603.0,9336.0,414603.0,23917.0,414603.0,20482.0,926.6027484607641,242.1375399425145,344.9640276132043
414603.0,9324.0,414603.0,23935.0,414603.0,20500.0,924.4381950651323,242.00346673082962,344.2045234842781
414603.0,9345.0,414603.0,23949.0,414603.0,20527.0,922.2815437727922,241.8544124347598,343.4286191437915
414603.0,9366.0,414603.0,24016.0,414603.0,20524.0,920.1257418812031,241.6835815370769,342.63159563997476
414603.0,9365.0,414603.0,24012.0,414603.0,20530.0,917.9641009631446,241.48535101903707,341.80940226972575
414603.0,9339.0,414603.0,23955.0,414603.0,20493.0,915.7906970374887,241.25609560608137,340.95887948463167
414614.0,9307.0,414614.0,23905.0,414614.0,20476.0,913.6003564472751,240.9941579661569,340.07755979894523
414614.0,9314.0,414614.0,23876.0,414614.0,20481.0,911.3881912092713,240.69880815249869,339.1631662022741
414614.0,9299.0,414614.0,23882.0,414614.0,20481.0,909.1490867257903,240.36895732003234,338.21319266726266
414614.0,9310.0,414614.0,23881.0,414614.0,20461.0,906.8774395083864,240.00234619729494,337.2247469410899
414614.0,9307.0,414614.0,23927.0,414614.0,20471.0,904.5671147264336,239.59538239967836,336.19445130911083
414614.0,9324.0,414614.0,23927.0,414614.0,20501.0,902.2115488842737,239.14350726012498,335.11838928225984
414624.0,9319.0,414624.0,23934.0,414624.0,20466.0,899.8039674669296,238.64179075492217,333.99227640302564
414624.0,9317.0,414624.0,23927.0,414624.0,20494.0,897.3376145530608,238.08536408662366,332.81167923038515
414624.0,9341.0,414624.0,23970.0,414624.0,20507.0,894.8059278270681,237.46964960162938,331.57214907314096
414624.0,9354.0,414624.0,24022.0,414624.0,20541.0,892.2028028876009,236.7908091254508,330.2695579774201
414624.0,9327.0,414624.0,23991.0,414624.0,20499.0,889.522985509454,236.04660715478883,328.9006492477395
414624.0,9328.0,414624.0,23910.0,414624.0,20484.0,886.7622824218818,235.23698881418937,327.4632906280043
414635.0,9300.0,414635.0,23900.0,414635.0,20452.0,883.9174207772701,234.36356518154088,325.95613073417945
414635.0,9276.0,414635.0,23860.0,414635.0,20463.0,880.9856778686499,233.4283540683253,324.37796236728695
414635.0,9273.0,414635.0,23885.0,414635.0,20434.0,877.9643823914034,232.43270105406185,322.7272136895031
414635.0,9278.0,414635.0,23865.0,414635.0,20443.0,874.8504755479553,231.37674701620088,321.00163409146245
414635.0,9279.0,414635.0,23896.0,414635.0,20481.0,871.6403607656293,230.25932676816916,319.1981768287529
414635.0,9291.0,414635.0,23913.0,414635.0,20484.0,868.3300218901859,229.0781733318842,317.31327277647836
414645.0,9289.0,414645.0,23920.0,414645.0,20467.0,864.9152642609897,227.83037728530894,315.3433618300326
414645.0,9273.0,414645.0,23909.0,414645.0,20482.0,861.391935108933,226.51288268982944,313.28521660568396
414645.0,9315.0,414645.0,23993.0,414645.0,20504.0,857.756062696285,225.12290028383313,311.136074739065
414645.0,9297.0,414645.0,23997.0,414645.0,20520.0,854.0040863432695,223.65860230022082,308.8939745044353
414645.0,9270.0,414645.0,23926.0,414645.0,20466.0,850.1331491323268,222.12000791883372,306.5582068177615
414645.0,9251.0,414645.0,23874.0,414645.0,20436.0,846.1410506814053,220.50906373541488,304.12930085176953
414655.0,9244.0,414655.0,23851.0,414655.0,20437.0,842.0258155558655,218.82857319060804,301.60838543542616
414655.0,9237.0,414655.0,23857.0,414655.0,20430.0,837.7852659459996,217.08088355474797,298.9965009612706
414655.0,9237.0,414655.0,23856.0,414655.0,20430.0,833.4168050964216,215.26714999746855,296.2942928221555
414655.0,9241.0,414655.0,23852.0,414655.0,20428.0,828.9173832271454,213.38716453445184,293.5019629011407
414655.0,9255.0,414655.0,23915.0,414655.0,20454.0,824.2836298389955,211.43950697095767,290.6193475518779
414655.0,9241.0,414655.0,23886.0,414655.0,20432.0,819.5121201181676,209.42201986875887,287.6461443207736
414666.0,9242.0,414666.0,23867.0,414666.0,20444.0,814.599617693499,207.33233639721317,284.582159917337
414666.0,9263.0,414666.0,23918.0,414666.0,20459.0,809.5432331396984,205.16805234026737,281.4274822991272
414666.0,9283.0,414666.0,23980.0,414666.0,20470.0,804.340722957315,202.92700171256394,278.18275293500704
414666.0,9250.0,414666.0,23946.0,414666.0,20446.0,798.9909857791887,200.6081743617347,274.8495534036174
414666.0,9201.0,414666.0,23907.0,414666.0,20418.0,793.4942823187887,198.2125693382126,271.43054810275305
414666.0,9198.0,414666.0,23826.0,414666.0,20400.0,787.8518127995133,195.7429904118256,267.92916647793163
414676.0,9170.0,414676.0,23824.0,414676.0,20387.0,782.0649958901957,193.20284846310753,264.3490391998593
414676.0,9171.0,414676.0,23843.0,414676.0,20381.0,776.1349307582044,190.59490360379763,260.69350995567606
414676.0,9170.0,414676.0,23802.0,414676.0,20375.0,770.06213124303,187.92066737329577,256.965340117335
414676.0,9188.0,414676.0,23850.0,414676.0,20377.0,763.8465300925167,185.18031112853703,253.16657784982092
414676.0,9174.0,414676.0,23862.0,414676.0,20378.0,757.4877370524904,182.3728255916905,249.29855919080427
414676.0,9161.0,414676.0,23885.0,414676.0,20396.0,750.9853180789577,179.49655094457628,245.36204912820767
414686.0,9181.0,414686.0,23871.0,414686.0,20380.0,744.338915568406,176.54988524062148,241.35750643864247
414686.0,9192.0,414686.0,23921.0,414686.0,20410.0,737.5484140093524,173.53184738255985,237.28538321270895
414686.0,9170.0,414686.0,23964.0,414686.0,20393.0,730.6143149809046,170.4427132671373,233.14642666629072
414686.0,9157.0,414686.0,23854.0,414686.0,20382.0,723.5380280559723,167.2847878515364,228.94193262370652
414686.0,9126.0,414686.0,23796.0,414686.0,20344.0,716.3217962902407,164.06240447577852,224.67372803510685
414686.0,9093.0,414686.0,23783.0,414686.0,20338.0,708.9683007708043,160.78065353398222,220.3437873703545
414697.0,9090.0,414697.0,23817.0,414697.0,20337.0,701.4801020038487,157.4439513862145,215.95374591589953
414697.0,9077.0,414697.0,23769.0,414697.0,20331.0,693.8591568573804,154.05548348024107,211.50462763795278
414697.0,9108.0,414697.0,23820.0,414697.0,20335.0,686.1066598961128,150.61722608683905,206.9968199406386
414697.0,9099.0,414697.0,23831.0,414697.0,20347.0,678.2232818977428,147.13016608745684,202.4301920754686
414697.0,9086.0,414697.0,23795.0,414697.0,20334.0,670.2095950395535,143.5947369583408,197.80432075898645
414697.0,9071.0,414697.0,23823.0,414697.0,20337.0,662.0663164093551,140.01115521294315,193.11871574076238
414707.0,9099.0,414707.0,23874.0,414707.0,20367.0,653.7943435067382,136.37962894952568,188.3730129505253
414707.0,9102.0,414707.0,23873.0,414707.0,20369.0,645.3949540687827,132.7009646550063,183.56733962906483
414707.0,9067.0,414707.0,23827.0,414707.0,20346.0,636.8702288718362,128.97736582898636,178.7028109726876
414707.0,9037.0,414707.0,23796.0,414707.0,20306.0,628.2232218873348,125.21258355055014,173.78170294363778
414707.0,9015.0,414707.0,23757.0,414707.0,20298.0,619.4576146365713,121.411252968707,168.8070785981636
414707.0,8998.0,414707.0,23729.0,414707.0,20276.0,610.5771521318657,117.57790129289188,163.78218153641606
414717.0,8987.0,414717.0,23730.0,414717.0,20258.0,601.5851962252365,113.71603795971197,158.70992624634226
414717.0,8986.0,414717.0,23742.0,414717.0,20258.0,592.484487313503,109.8276020660083,153.59251357451802
414717.0,8984.0,414717.0,23758.0,414717.0,20267.0,583.2771183385532,105.91293290561626,148.43121170760855
414717.0,8972.0,414717.0,23802.0,414717.0,20288.0,573.9646643270343,101.97122104808545,143.22645841986468
414717.0,8975.0,414717.0,23758.0,414717.0,20263.0,564.5483459736779,98.00120518980432,137.97823192532633
414717.0,8969.0,414717.0,23768.0,414717.0,20286.0,555.0291907841523,94.00166148128102,132.6864029466231
414728.0,8990.0,414728.0,23849.0,414728.0,20317.0,545.408278750769,89.971640840363,127.35104977982508
414728.0,8983.0,414728.0,23817.0,414728.0,20277.0,535.6871453732399,85.91105330165456,121.9729306277286
414728.0,8962.0,414728.0,23776.0,414728.0,20251.0,525.8682185332723,81.82144157288721,116.55380356262867
414728.0,8916.0,414728.0,23730.0,414728.0,20224.0,515.9549552512253,77.70598455161732,111.0961589904386
414728.0,8892.0,414728.0,23691.0,414728.0,20218.0,505.9514819408935,73.56859516237719,105.60259931086028
414728.0,8875.0,414728.0,23709.0,414728.0,20235.0,495.8619566122834,69.41282881524185,100.07539388745204
414738.0,8855.0,414738.0,23668.0,414738.0,20197.0,485.6900212091561,65.24116091722186,94.5163853104367
414738.0,8876.0,414738.0,23685.0,414738.0,20214.0,475.4385281085221,61.05464344987979,88.92701010474849
414738.0,8866.0,414738.0,23686.0,414738.0,20221.0,465.10960339941056,56.85275840350738,83.30830632786177
414738.0,8839.0,414738.0,23723.0,414738.0,20216.0,454.7049153027356,52.6335570774811,77.66108609430506
414738.0,8843.0,414738.0,23722.0,414738.0,20201.0,444.225819815058,48.39417025512006,71.98620418239858
414738.0,8864.0,414738.0,23792.0,414738.0,20232.0,433.67341994245504,44.13158002619309,66.2847243673258
414748.0,8867.0,414748.0,23794.0,414748.0,20227.0,423.048904765775,39.84362702762121,60.55814736790086
414748.0,8841.0,414748.0,23754.0,414748.0,20193.0,412.3541096045619,35.53001033769067,54.808742864451574
414748.0,8815.0,414748.0,23708.0,414748.0,20159.0,401.5918257050116,31.19260820627443,49.039562577523895
414748.0,8780.0,414748.0,23662.0,414748.0,20171.0,390.7656307048976,26.834834281744293,43.25399671966528
414748.0,8768.0,414748.0,23645.0,414748.0,20138.0,379.8794239405506,22.460502829022346,37.455304775176955
414748.0,8735.0,414748.0,23652.0,414748.0,20137.0,368.936939683369,18.07284435878222,31.646347158147478
414759.0,8729.0,414759.0,23611.0,414759.0,20127.0,357.9413535342445,13.673958924454212,25.829384080896205
414759.0,8742.0,414759.0,23698.0,414759.0,20131.0,346.8950607815582,9.264666515431372,20.005947612243972
414759.0,8720.0,414759.0,23690.0,414759.0,20141.0,335.79974399400396,4.844871853973075,14.176898155987374
414759.0,8736.0,414759.0,23653.0,414759.0,20132.0,324.65664274600397,0.41431606825472045,8.342653154466348
414759.0,8727.0,414759.0,23695.0,414759.0,20134.0,313.46686554002156,-4.026960686040468,2.5034523953435723
414759.0,8722.0,414759.0,23692.0,414759.0,20148.0,302.23172566288565,-8.478469941006097,-3.3404169993089567
414769.0,8725.0,414769.0,23704.0,414769.0,20159.0,290.953060456367,-12.938926977070935,-9.188312469332288
414769.0,8694.0,414769.0,23664.0,414769.0,20124.0,279.6334712151448,-17.40585198241888,-15.03884886217844
414769.0,8661.0,414769.0,23633.0,414769.0,20089.0,268.2763642458764,-21.875595931332782,-20.889800571446756
414769.0,8636.0,414769.0,23576.0,414769.0,20091.0,256.88565336258387,-26.343947088211053,-26.738487292364255
414769.0,8618.0,414769.0,23597.0,414769.0,20062.0,245.4652592965018,-30.807071355509663,-32.58230145652976
414769.0,8612.0,414769.0,23541.0,414769.0,20038.0,234.0187033817749,-35.2623251842075,-38.41912041608617
414779.0,8595.0,414779.0,23596.0,414779.0,20067.0,222.5489228854592,-39.70871248098473,-44.2476479788881
414779.0,8590.0,414779.0,23605.0,414779.0,20073.0,211.05824108410195,-44.1468925016685,-50.06748906090161
414779.0,8568.0,414779.0,23591.0,414779.0,20073.0,199.54837866046648,-48.57872459896697,-55.87880167367052
414779.0,8568.0,414779.0,23603.0,414779.0,20057.0,188.0204537241375,-53.00676264760244,-61.681870297211105
414779.0,8592.0,414779.0,23637.0,414779.0,20072.0,176.47507765214527,-57.43392170402251,-67.47689812668114
414779.0,8603.0,414779.0,23704.0,414779.0,20100.0,164.91277336205735,-61.86286351549114,-73.26381177158743
414790.0,8571.0,414790.0,23660.0,414790.0,20065.0,153.3346370620468,-66.29490854402735,-79.04185377526932
414790.0,8539.0,414790.0,23626.0,414790.0,20040.0,141.74273347252608,-70.72919487675739,-84.80928878213848
414790.0,8509.0,414790.0,23561.0,414790.0,19998.0,130.13991686999714,-75.16285502616199,-90.5636605041193
414790.0,8487.0,414790.0,23529.0,414790.0,19999.0,118.529310610513,-79.5920872010862,-96.30246192879582
414790.0,8466.0,414790.0,23512.0,414790.0,19970.0,106.91379109745151,-84.01344925626603,-102.02377160172824
414790.0,8461.0,414790.0,23542.0,414790.0,19987.0,95.29562585029691,-88.42476628948799,-107.72663547240785
414800.0,8468.0,414800.0,23550.0,414800.0,19998.0,83.67634653074276,-92.8253160500795,-113.41113972217477
414800.0,8454.0,414800.0,23552.0,414800.0,19991.0,72.05689530049983,-97.21544602940423,-119.07816651117446
414800.0,8440.0,414800.0,23564.0,414800.0,19991.0,60.43787851062757,-101.59607557403689,-124.72904311297992
414800.0,8436.0,414800.0,23565.0,414800.0,20001.0,48.81971519431295,-105.96829550906855,-130.36528881017165
414800.0,8454.0,414800.0,23599.0,414800.0,20035.0,37.20276533203537,-110.33296204103655,-135.98830571282247
414800.0,8440.0,414800.0,23617.0,414800.0,20018.0,25.587650357709776,-114.69012099341137,-141.59883739570148
414810.0,8409.0,414810.0,23595.0,414810.0,19977.0,13.975628272545123,-119.03831092682918,-147.19650292266152
414810.0,8368.0,414810.0,23524.0,414810.0,19963.0,2.3686206188825736,-123.37423893912435,-152.77987574310646
414810.0,8351.0,414810.0,23454.0,414810.0,19939.0,-9.231213964343851,-127.6933998837315,-158.34702045444743
414810.0,8337.0,414810.0,23462.0,414810.0,19934.0,-20.822029800799214,-131.99148125584668,-163.89604225564636
414810.0,8326.0,414810.0,23442.0,414810.0,19910.0,-32.4026380525446,-136.2656593942877,-169.42547308545585
414810.0,8341.0,414810.0,23500.0,414810.0,19923.0,-43.97256352310683,-140.5151091786907,-174.93453295314566
414821.0,8316.0,414821.0,23499.0,414821.0,19922.0,-55.53186299887125,-144.74070909363496,-180.4232179381902
414821.0,8312.0,414821.0,23504.0,414821.0,19913.0,-67.08087919021273,-148.94433429114872,-185.89218452945704
414821.0,8301.0,414821.0,23504.0,414821.0,19926.0,-78.62010836501315,-153.12825368063295,-191.34256387238884
414821.0,8307.0,414821.0,23540.0,414821.0,19949.0,-90.15010679315367,-157.29474230049482,-196.7757140028947
414821.0,8318.0,414821.0,23578.0,414821.0,19955.0,-101.67124576392473,-161.44553047343993,-202.19275218866812
414821.0,8290.0,414821.0,23546.0,414821.0,19932.0,-113.18331314321688,-165.58097028373675,-207.59400090795464
414831.0,8258.0,414831.0,23502.0,414831.0,19913.0,-124.68525490644049,-169.69948799614633,-212.97874206296052
414831.0,8237.0,414831.0,23440.0,414831.0,19876.0,-136.17532581537728,-173.79793155031462,-218.34544536709075
414831.0,8203.0,414831.0,23428.0,414831.0,19866.0,-147.6515319004469,-177.8726715181944,-223.69230903144347
414831.0,8190.0,414831.0,23414.0,414831.0,19870.0,-159.1121138630573,-181.92075945650544,-229.01779911944772
414831.0,8180.0,414831.0,23404.0,414831.0,19864.0,-170.55593182386644,-185.94065806565175,-234.32090632655968
414831.0,8180.0,414831.0,23454.0,414831.0,19850.0,-181.98263409741412,-189.93247443447592,-239.60114856438764
414842.0,8187.0,414842.0,23441.0,414842.0,19853.0,-193.39255134447671,-193.8977024894242,-244.85855818100373
414842.0,8159.0,414842.0,23452.0,414842.0,19871.0,-204.78641730494644,-197.83867094966956,-250.09365181153407
414842.0,8175.0,414842.0,23471.0,414842.0,19879.0,-216.16511240881675,-201.75805292194326,-255.30717846646542
414842.0,8180.0,414842.0,23540.0,414842.0,19892.0,-227.52942215535177,-205.6583075522604,-260.49963572854944
414842.0,8179.0,414842.0,23489.0,414842.0,19864.0,-238.8796321544836,-209.54079664805482,-265.67079486453474
414842.0,8150.0,414842.0,23467.0,414842.0,19837.0,-250.21507719085014,-213.40509427505754,-270.81954649563386
414852.0,8092.0,414852.0,23421.0,414852.0,19821.0,-261.53404905368245,-217.24914700096804,-275.94419433187136
414852.0,8079.0,414852.0,23390.0,414852.0,19802.0,-272.83425945925774,-221.07011683130548,-281.0429764198876
414852.0,8061.0,414852.0,23382.0,414852.0,19804.0,-284.113540396821,-224.865356444369,-286.1145103969593
414852.0,8044.0,414852.0,23354.0,414852.0,19783.0,-295.370328655613,-228.6331930103617,-291.15806161802175
414852.0,8056.0,414852.0,23373.0,414852.0,19804.0,-306.60383948577476,-232.3734275788206,-296.1736605060844
414852.0,8038.0,414852.0,23410.0,414852.0,19816.0,-317.81400432237024,-236.0874448492658,-301.1620145098839
414862.0,8042.0,414862.0,23415.0,414862.0,19795.0,-329.00125759890864,-239.7777876245604,-306.12419443405054
414862.0,8037.0,414862.0,23417.0,414862.0,19798.0,-340.1662920589357,-243.44743875477093,-311.0613561835653
414862.0,8027.0,414862.0,23433.0,414862.0,19822.0,-351.30981493921126,-247.0992476221598,-315.9746152690292
414862.0,8031.0,414862.0,23490.0,414862.0,19831.0,-362.4323090577883,-250.73542013328859,-320.8647765547438
414862.0,8021.0,414862.0,23462.0,414862.0,19804.0,-373.5337987922893,-254.3567685800358,-325.7318767219946
414862.0,7979.0,414862.0,23385.0,414862.0,19779.0,-384.61368367569116,-257.9621442656621,-330.57497857425665
414873.0,7970.0,414873.0,23368.0,414873.0,19783.0,-395.6708318676316,-261.54881783994097,-335.39240741638173
414873.0,7936.0,414873.0,23333.0,414873.0,19738.0,-406.70393149979463,-265.11361107657046,-340.1821502651103
414873.0,7901.0,414873.0,23323.0,414873.0,19725.0,-417.71193398691355,-268.6539646117443,-344.94229247063856
414873.0,7918.0,414873.0,23322.0,414873.0,19728.0,-428.69450232373276,-272.16861793834937,-349.67152014119836
414873.0,7920.0,414873.0,23333.0,414873.0,19732.0,-439.65221750705723,-275.6579138711082,-354.36944153419836
414873.0,7916.0,414873.0,23338.0,414873.0,19712.0,-450.58634679544775,-279.1237437095247,-359.0365959124699
414883.0,7899.0,414883.0,23382.0,414883.0,19736.0,-461.49845104307826,-282.56919380073714,-363.6743623686041
414883.0,7893.0,414883.0,23371.0,414883.0,19749.0,-472.39016498826345,-285.9979460643131,-368.2847868163868
414883.0,7910.0,414883.0,23439.0,414883.0,19768.0,-483.2630796242521,-289.4135153618855,-372.87014497593157
414883.0,7905.0,414883.0,23435.0,414883.0,19757.0,-494.11846757133515,-292.8183580088029,-377.4323445037784
414883.0,7875.0,414883.0,23377.0,414883.0,19736.0,-504.95689592879944,-296.2130800082541,-381.9725183300019
414883.0,7860.0,414883.0,23360.0,414883.0,19711.0,-515.7780706054159,-299.596345982122,-386.49104592195476
414893.0,7818.0,414893.0,23303.0,414893.0,19704.0,-526.5810497285188,-302.9656162749664,-390.9879235148844
414893.0,7802.0,414893.0,23303.0,414893.0,19696.0,-537.3646885299554,-306.31817800588857,-395.4631817608665
414893.0,7786.0,414893.0,23272.0,414893.0,19686.0,-548.128131579203,-309.65204110993847,-399.9171504443158
414893.0,7790.0,414893.0,23286.0,414893.0,19674.0,-558.8711378841895,-312.9665436183204,-404.3506188292507
414893.0,7771.0,414893.0,23334.0,414893.0,19681.0,-569.5941356773444,-316.2625205265807,-408.76497055098537
414893.0,7769.0,414893.0,23336.0,414893.0,19691.0,-580.2981343910374,-319.54188044534845,-413.16220195929986
414904.0,7785.0,414904.0,23310.0,414904.0,19678.0,-590.9845808331022,-322.8068976175619,-417.5447530398534
414904.0,7769.0,414904.0,23338.0,414904.0,19718.0,-601.6550745404363,-326.05981422158567,-421.91523180161244
414904.0,7772.0,414904.0,23399.0,414904.0,19721.0,-612.3109948885474,-329.30258290299435,-426.27600170148673
414904.0,7764.0,414904.0,23349.0,414904.0,19713.0,-622.9532058588056,-332.5362313997347,-430.62862798252047
414904.0,7725.0,414904.0,23311.0,414904.0,19680.0,-633.5819052094835,-335.76032073139424,-434.97353093635957
414904.0,7700.0,414904.0,23291.0,414904.0,19644.0,-644.1967414747357,-338.97324165210455,-439.3101738862847
414914.0,7690.0,414914.0,23262.0,414914.0,19637.0,-654.7972149765453,-342.17307010627974,-443.6376846902891
414914.0,7672.0,414914.0,23249.0,414914.0,19615.0,-665.3830775160736,-345.3583725918624,-447.9555343640568
414914.0,7655.0,414914.0,23261.0,414914.0,19611.0,-675.9545627904131,-348.52877125306645,-452.2640239268991
414914.0,7673.0,414914.0,23267.0,414914.0,19642.0,-686.5124859930088,-351.6851614846443,-456.5645086515084
414914.0,7662.0,414914.0,23259.0,414914.0,19614.0,-697.058141762601,-354.82959217580964,-460.85930304180283
414914.0,7646.0,414914.0,23274.0,414914.0,19643.0,-707.5930308150107,-357.9650514120251,-465.15140815687175
414924.0,7640.0,414924.0,23287.0,414924.0,19636.0,-718.1186742578523,-361.0952385208707,-469.4442473925602
414924.0,7659.0,414924.0,23333.0,414924.0,19652.0,-728.6365216171776,-364.2241321416575,-473.74136205989123
414924.0,7647.0,414924.0,23329.0,414924.0,19654.0,-739.1476975451435,-367.35525909277084,-478.04604439509774
414924.0,7633.0,414924.0,23332.0,414924.0,19646.0,-749.6526296670386,-370.4909229546475,-482.3610009837671
414924.0,7574.0,414924.0,23234.0,414924.0,19597.0,-760.1509379968952,-373.63192450146846,-486.6882367273698
414924.0,7558.0,414924.0,23228.0,414924.0,19584.0,-770.6418267336976,-376.77816651068065,-491.02938592218027
414935.0,7543.0,414935.0,23227.0,414935.0,19586.0,-781.1247517926388,-379.92977460150496,-495.3863284851103
414935.0,7547.0,414935.0,23230.0,414935.0,19577.0,-791.5998885194429,-383.08785580086885,-499.7616217655339
414935.0,7538.0,414935.0,23189.0,414935.0,19617.0,-802.0682033017724,-386.2547126879237,-504.1585313398514
414935.0,7530.0,414935.0,23225.0,414935.0,19594.0,-812.5313031125838,-389.4339825777102,-508.580731536247
414935.0,7517.0,414935.0,23246.0,414935.0,19591.0,-822.9912896145102,-392.63067535966803,-513.0319386710923
414935.0,7514.0,414935.0,23249.0,414935.0,19576.0,-833.4506886083141,-395.85078203349923,-517.5157966299591
414945.0,7519.0,414945.0,23298.0,414945.0,19606.0,-843.9123616712388,-399.100583303966,-522.0359357513939
414945.0,7523.0,414945.0,23330.0,414945.0,19614.0,-854.379272414629,-402.38580375929297,-526.5958224153495
414945.0,7518.0,414945.0,23303.0,414945.0,19605.0,-864.8541113223482,-405.71063977588614,-531.1983304161664
414945.0,7488.0,414945.0,23249.0,414945.0,19563.0,-875.3389713348608,-409.07718916692306,-535.8454428037423
414945.0,7461.0,414945.0,23193.0,414945.0,19533.0,-885.8353209918394,-412.48586325162194,-540.5384888460753
414945.0,7442.0,414945.0,23186.0,414945.0,19545.0,-896.3443155428927,-415.9365546163327,-545.2787804578496
414955.0,7409.0,414955.0,23182.0,414955.0,19511.0,-906.8672557485268,-419.4297631967505,-550.0681562825664
414955.0,7425.0,414955.0,23155.0,414955.0,19537.0,-917.4059899352633,-422.96721926262313,-554.9092350547267
414955.0,7401.0,414955.0,23199.0,414955.0,19528.0,-927.9630993864512,-426.55211863024283,-559.8054469850827
414955.0,7424.0,414955.0,23217.0,414955.0,19525.0,-938.5418143923325,-430.18899028049,-564.7608936768916
414955.0,7408.0,414955.0,23232.0,414955.0,19543.0,-949.1457458753157,-433.88309712004855,-569.7801477687024
414955.0,7395.0,414955.0,23242.0,414955.0,19549.0,-959.7785802231383,-437.6396571150687,-574.867994198466
414966.0,7412.0,414966.0,23275.0,414966.0,19584.0,-970.4438626900987,-441.4631598637279,-580.0289753338398
414966.0,7409.0,414966.0,23263.0,414966.0,19564.0,-981.1447619967219,-445.3567238100402,-585.2667742246315
414966.0,7390.0,414966.0,23252.0,414966.0,19529.0,-991.8837188815712,-449.32158098361685,-590.5837737993243
414966.0,7349.0,414966.0,23175.0,414966.0,19499.0,-1002.662261829159,-453.3570554634429,-595.9811824687303
414966.0,7332.0,414966.0,23132.0,414966.0,19484.0,-1013.4812469105793,-457.46131075000295,-601.4596552285158
414966.0,7305.0,414966.0,23131.0,414966.0,19506.0,-1024.341359789542,-461.6326191641945,-607.0198880964006
414976.0,7288.0,414976.0,23132.0,414976.0,19455.0,-1035.2435965417615,-465.87040454186865,-612.6628661084812
414976.0,7293.0,414976.0,23154.0,414976.0,19488.0,-1046.1895896954782,-470.1755725746109,-618.3899490055205
414976.0,7296.0,414976.0,23153.0,414976.0,19499.0,-1057.1816701777814,-474.5502826117424,-624.2028755243912
414976.0,7284.0,414976.0,23218.0,414976.0,19481.0,-1068.2226469016368,-478.99741386104836,-630.1034980466086
414976.0,7276.0,414976.0,23177.0,414976.0,19463.0,-1079.3155245074252,-483.5198149700904,-636.0934843253907
414976.0,7288.0,414976.0,23183.0,414976.0,19501.0,-1090.463300833842,-488.1196566523142,-642.1742634838097
414986.0,7286.0,414986.0,23232.0,414986.0,19516.0,-1101.6687064142545,-492.7981139311082,-648.3468418460002
414986.0,7267.0,414986.0,23219.0,414986.0,19502.0,-1112.933845433508,-497.55497724355473,-654.6112396428745
414986.0,7247.0,414986.0,23162.0,414986.0,19465.0,-1124.2599748376847,-502.3881640403386,-660.9660322340476
414986.0,7223.0,414986.0,23126.0,414986.0,19435.0,-1135.6475773592208,-507.2938513350122,-667.4084855891977
414986.0,7192.0,414986.0,23081.0,414986.0,19412.0,-1147.0966575875607,-512.2674033063854,-673.9351788165898
414986.0,7184.0,414986.0,23072.0,414986.0,19430.0,-1158.607137620767,-517.3045233785334,-680.5426443180786
414997.0,7162.0,414997.0,23056.0,414997.0,19407.0,-1170.179212657553,-522.4021553396011,-687.2276614045409
414997.0,7180.0,414997.0,23142.0,414997.0,19406.0,-1181.8135228451583,-527.5588260210401,-693.9872662139851
414997.0,7175.0,414997.0,23102.0,414997.0,19425.0,-1193.5110442377083,-532.77422726021,-700.8186925490597
414997.0,7170.0,414997.0,23138.0,414997.0,19418.0,-1205.272745392694,-538.0484075385689,-707.7191830197008
414997.0,7158.0,414997.0,23134.0,414997.0,19440.0,-1217.09924028311,-543.3811460263834,-714.6856118960638
414997.0,7175.0,414997.0,23175.0,414997.0,19440.0,-1228.9905427333765,-548.7714483312934,-721.7140249996098
415006.0,7169.0,415006.0,23195.0,415006.0,19449.0,-1240.945762491863,-554.2168442207636,-728.7991554281573
415006.0,7145.0,415006.0,23164.0,415006.0,19430.0,-1252.9627267560545,-559.7125804521895,-735.9340063173295
415006.0,7110.0,415006.0,23072.0,415006.0,19392.0,-1265.037826694537,-565.2513199618843,-743.1097072331611
415006.0,7074.0,415006.0,23066.0,415006.0,19384.0,-1277.1662995048855,-570.8238575446746,-750.3157739414327
415006.0,7072.0,415006.0,23054.0,415006.0,19362.0,-1289.3427741059609,-576.4203463241056,-757.5405917269914
415006.0,7057.0,415006.0,23050.0,415006.0,19358.0,-1301.5617042021524,-582.0311084349707,-764.7718210624296
415016.0,7048.0,415016.0,23051.0,415016.0,19333.0,-1313.8175108014696,-587.6468703510111,-771.9966652843104
415016.0,7050.0,415016.0,23081.0,415016.0,19355.0,-1326.1045375744648,-593.2586761299713,-779.2020472167928
415016.0,7053.0,415016.0,23093.0,415016.0,19355.0,-1338.4168779235065,-598.857488995797,-786.3745878975346
415016.0,7044.0,415016.0,23085.0,415016.0,19357.0,-1350.748061806849,-604.4335705969127,-793.5003230705968
415016.0,7045.0,415016.0,23095.0,415016.0,19372.0,-1363.090705723315,-609.9759600117318,-800.5643076377098
415016.0,7041.0,415016.0,23148.0,415016.0,19383.0,-1375.4362070214593,-615.4720508009135,-807.550183402889
415027.0,7049.0,415027.0,23123.0,415027.0,19355.0,-1387.7744281377513,-620.9069588647483,-814.4397308377859
415027.0,7008.0,415027.0,23101.0,415027.0,19333.0,-1400.093387237494,-626.2628899650456,-821.2126664617758
415027.0,6951.0,415027.0,23010.0,415027.0,19300.0,-1412.3792530765027,-631.5191873674576,-827.8468968944884
415027.0,6946.0,415027.0,22996.0,415027.0,19283.0,-1424.6168731503599,-636.6532929049483,-834.3190845260483
415027.0,6930.0,415027.0,22971.0,415027.0,19271.0,-1436.790471304192,-641.6420817862858,-840.6052421920815
415027.0,6934.0,415027.0,22958.0,415027.0,19265.0,-1448.8839931670086,-646.4628837986887,-846.6811633231845
415037.0,6935.0,415037.0,22981.0,415037.0,19277.0,-1460.881043252242,-651.0939892658146,-852.522605365925
415037.0,6932.0,415037.0,23003.0,415037.0,19294.0,-1472.7645984023561,-655.5146586995834,-858.1051786864583
415037.0,6939.0,415037.0,22987.0,415037.0,19254.0,-1484.5166337011285,-659.7047117249733,-863.404040904018
415037.0,6911.0,415037.0,23012.0,415037.0,19267.0,-1496.1177747381194,-663.6440440321581,-868.3937354065403
415037.0,6909.0,415037.0,23069.0,415037.0,19302.0,-1507.5471022840013,-667.3121519408512,-873.0481809254716
415037.0,6916.0,415037.0,23053.0,415037.0,19295.0,-1518.7820857225583,-670.6873657266373,-877.3403859917461
415047.0,6879.0,415047.0,23053.0,415047.0,19272.0,-1529.798486044862,-673.7460068973012,-881.2419660217553
415047.0,6859.0,415047.0,22974.0,415047.0,19229.0,-1540.5703384163187,-676.4621298608245,-884.7230669775042
415047.0,6824.0,415047.0,22925.0,415047.0,19203.0,-1551.0702437796824,-678.8081846897387,-887.7529191275037
415047.0,6818.0,415047.0,22914.0,415047.0,19211.0,-1561.2698630732245,-680.75634884739,-890.3006555745319
415047.0,6801.0,415047.0,22903.0,415047.0,19198.0,-1571.140341742628,-682.2798062834814,-892.3359007248418
415047.0,6794.0,415047.0,22913.0,415047.0,19216.0,-1580.652548081843,-683.3534526626746,-893.8289718384758
415058.0,6802.0,415058.0,22934.0,415058.0,19183.0,-1589.7771404984744,-683.9540538901176,-894.7508949863523
415058.0,6800.0,415058.0,22965.0,415058.0,19213.0,-1598.4844545264955,-684.0599781416829,-895.0734488623625
415058.0,6788.0,415058.0,22972.0,415058.0,19209.0,-1606.744263153528,-683.6506073869464,-894.769196912479
415058.0,6781.0,415058.0,22980.0,415058.0,19218.0,-1614.525601654159,-682.7057043373985,-893.8113731045206
415058.0,6827.0,415058.0,23033.0,415058.0,19250.0,-1621.7966316016402,-681.2048852505418,-892.1736424642909
415058.0,6798.0,415058.0,23012.0,415058.0,19218.0,-1628.5242840038643,-679.1270575932454,-889.8298161715602
415068.0,6749.0,415068.0,22963.0,415068.0,19213.0,-1634.6739031827117,-676.4500256025274,-886.7537365840354
415068.0,6736.0,415068.0,22926.0,415068.0,19181.0,-1640.209469227378,-673.1508492820823,-882.9195860005527
415068.0,6703.0,415068.0,22906.0,415068.0,19193.0,-1645.0943313329058,-669.2069393327191,-878.3024925103115
415068.0,6709.0,415068.0,22903.0,415068.0,19171.0,-1649.2919209428285,-664.5972310369141,-872.879111983809
415068.0,6688.0,415068.0,22901.0,415068.0,19200.0,-1652.7662171911102,-659.3029925936651,-866.6280372455101
415068.0,6702.0,415068.0,22927.0,415068.0,19223.0,-1655.4819981974626,-653.3082220260886,-859.5299441089912
415079.0,6704.0,415079.0,22990.0,415079.0,19209.0,-1657.4049097321254,-646.5995806440623,-851.5674547265055
415079.0,6704.0,415079.0,22956.0,415079.0,19219.0,-1658.5013746483442,-639.165863579612,-842.7250082683711
415079.0,6703.0,415079.0,22977.0,415079.0,19229.0,-1658.738463592977,-630.9974894753939,-832.9889600787733
415079.0,6721.0,415079.0,23025.0,415079.0,19270.0,-1658.083813078058,-622.0863355119221,-822.3476669637374
415079.0,6726.0,415079.0,23051.0,415079.0,19273.0,-1656.505496864736,-612.4254647753613,-810.7913081103809
415079.0,6710.0,415079.0,23010.0,415079.0,19244.0,-1653.9718557548085,-602.0086146908642,-798.31168283601
415089.0,6686.0,415089.0,22976.0,415089.0,19217.0,-1650.4515499055415,-590.8301752859303,-784.9025035540878
415089.0,6668.0,415089.0,22932.0,415089.0,19218.0,-1645.914016822995,-578.8860925813811,-770.5602793297772
415089.0,6663.0,415089.0,22934.0,415089.0,19247.0,-1640.3301802136016,-566.1752864633918,-755.2852579781413
415089.0,6672.0,415089.0,22931.0,415089.0,19242.0,-1633.6730929482242,-552.7009315107725,-739.0819492064061
415089.0,6660.0,415089.0,22963.0,415089.0,19264.0,-1625.9183531708604,-538.4712405705676,-721.9593279430323
415089.0,6687.0,415089.0,23009.0,415089.0,19311.0,-1617.044359173648,-523.4996700166357,-703.930928166935
415099.0,6703.0,415099.0,23072.0,415099.0,19329.0,-1607.0324220346918,-507.80452415929045,-685.0147136149934
415099.0,6700.0,415099.0,23086.0,415099.0,19321.0,-1595.866710405373,-491.4081020576983,-665.2328119483778
415099.0,6722.0,415099.0,23110.0,415099.0,19396.0,-1583.5341960175908,-474.33585362967665,-644.6114153534819
415099.0,6770.0,415099.0,23191.0,415099.0,19445.0,-1570.0246226821355,-456.6157912403689,-623.180589849518
415099.0,6790.0,415099.0,23200.0,415099.0,19472.0,-1555.3302320686073,-438.27784835028547,-600.973628188778
415099.0,6762.0,415099.0,23213.0,415099.0,19466.0,-1539.4453720698186,-419.35316003965346,-578.0263703613676
415110.0,6763.0,415110.0,23156.0,415110.0,19494.0,-1522.3665526181708,-399.87386548925804,-554.3770572718494
415110.0,6775.0,415110.0,23179.0,415110.0,19508.0,-1504.0930401994076,-379.8737531795632,-530.0665929809419
415110.0,6789.0,415110.0,23192.0,415110.0,19534.0,-1484.627491308959,-359.3892600424345,-505.1388176212852
415110.0,6811.0,415110.0,23235.0,415110.0,19560.0,-1463.9763213053702,-338.46009491985217,-479.6406662097146
415110.0,6843.0,415110.0,23291.0,415110.0,19657.0,-1442.1498551103818,-317.1292240798758,-453.622102651148
415110.0,6881.0,415110.0,23340.0,415110.0,19669.0,-1419.1622878736625,-295.4423348768886,-427.1356007577897
415120.0,6914.0,415120.0,23369.0,415120.0,19706.0,-1395.0314552647535,-273.4470291342857,-400.23539327886385
415120.0,6938.0,415120.0,23407.0,415120.0,19762.0,-1369.778530307262,-251.19209083442374,-372.9769527026457
415120.0,6985.0,415120.0,23511.0,415120.0,19834.0,-1343.4277756957806,-228.72683063142827,-345.4165401841566
415120.0,7040.0,415120.0,23539.0,415120.0,19872.0,-1316.0062679381524,-206.10012515948023,-317.61044439776487
415120.0,7058.0,415120.0,23556.0,415120.0,19884.0,-1287.5434711156634,-183.35926692789934,-289.61415944164895
415120.0,7072.0,415120.0,23505.0,415120.0,19890.0,-1258.0708880656503,-160.5494165284926,-261.4820382868691
415130.0,7090.0,415130.0,23523.0,415130.0,19918.0,-1227.6221077790774,-137.7140846555397,-233.26751509087205
415130.0,7121.0,415130.0,23540.0,415130.0,19955.0,-1196.2331589450055,-114.89612844534884,-205.02348784454148
415130.0,7144.0,415130.0,23549.0,415130.0,19989.0,-1163.9428649888173,-92.13850789045387,-176.8024710623136
415130.0,7207.0,415130.0,23618.0,415130.0,20043.0,-1130.7930314600412,-69.48457629514132,-148.65645810971563
415130.0,7248.0,415130.0,23653.0,415130.0,20079.0,-1096.8283673674375,-46.97791754014412,-120.63657646257127
415130.0,7315.0,415130.0,23678.0,415130.0,20110.0,-1062.0961127962676,-24.661813748617476,-92.7926596865708
415141.0,7350.0,415141.0,23709.0,415141.0,20154.0,-1026.6455069496358,-2.578720380909033,-65.1728923343303
415141.0,7404.0,415141.0,23791.0,415141.0,20178.0,-990.5272832926521,19.23014133343662,-37.82355043359439
415141.0,7471.0,415141.0,23851.0,415141.0,20242.0,-953.7932306825778,40.72549085612502,-10.788734822224797
415141.0,7506.0,415141.0,23879.0,415141.0,20265.0,-916.4957115882695,61.871108345940854,15.889997257401433
415141.0,7529.0,415141.0,23845.0,415141.0,20291.0,-878.687236910169,82.63473807068891,42.17403492388405
415141.0,7554.0,415141.0,23810.0,415141.0,20309.0,-840.4203972391367,102.98803571033227,68.0279214220867
415151.0,7588.0,415151.0,23821.0,415151.0,20300.0,-801.7481549211645,122.90555655148484,93.41924064479247
415151.0,7629.0,415151.0,23833.0,415151.0,20303.0,-762.7242017783833,142.36355249333053,118.31816737420195
415151.0,7693.0,415151.0,23869.0,415151.0,20330.0,-723.4031257740709,161.33926474608916,142.69679158306667
415151.0,7749.0,415151.0,23894.0,415151.0,20396.0,-683.8402573820467,179.81078585797542,166.52864275303477
415151.0,7809.0,415151.0,23942.0,415151.0,20429.0,-644.0912282932622,197.75728741821592,189.78881379405425
415151.0,7858.0,415151.0,23973.0,415151.0,20454.0,-604.2114248269947,215.1594785558034,212.4545113846292
415161.0,7909.0,415161.0,23987.0,415161.0,20480.0,-564.2555022163772,232.00014817304339,234.5055255839601
415161.0,7992.0,415161.0,24075.0,415161.0,20538.0,-524.2769397641669,248.26469439419202,255.9245061219376
415161.0,8019.0,415161.0,24082.0,415161.0,20531.0,-484.3275096314062,263.9418097475577,276.69726660379
415161.0,8055.0,415161.0,24067.0,415161.0,20544.0,-444.4567991898781,279.0242112413496,296.81300386161547
415161.0,8082.0,415161.0,24035.0,415161.0,20540.0,-404.7120948910359,293.5087579862263,316.26413745108846
415161.0,8118.0,415161.0,24006.0,415161.0,20550.0,-365.13859771048817,307.395683400714,335.04584250190385
415172.0,8139.0,415172.0,24006.0,415172.0,20551.0,-325.7797419733247,320.6873812594682,353.15552306977736
415172.0,8189.0,415172.0,23996.0,415172.0,20551.0,-286.6775169246889,333.3872798562958,370.59230508207156
415172.0,8226.0,415172.0,24036.0,415172.0,20566.0,-247.8727005856574,345.4990976618168,387.35654290115144
415172.0,8281.0,415172.0,24057.0,415172.0,20610.0,-209.40490536421908,357.0266038248204,403.4494710853173
415172.0,8340.0,415172.0,24101.0,415172.0,20620.0,-171.31241385774842,367.97387530815274,418.8731996673114
415172.0,8378.0,415172.0,24111.0,415172.0,20638.0,-133.63184201193678,378.3458441172643,433.6309436333314
415182.0,8443.0,415182.0,24116.0,415182.0,20659.0,-96.39773767660392,388.1488046189984,447.7271971438098
415182.0,8493.0,415182.0,24195.0,415182.0,20712.0,-59.64216396639438,397.3907836470622,461.1678989369757
415182.0,8521.0,415182.0,24191.0,415182.0,20706.0,-23.39426833273592,406.08207067073647,473.9607911401429
415182.0,8531.0,415182.0,24123.0,415182.0,20711.0,12.319943106019537,414.23575395899945,486.11577297045267
415182.0,8557.0,415182.0,24096.0,415182.0,20707.0,47.47740026702377,421.86742053961325,497.64489492331325
415182.0,8571.0,415182.0,24104.0,415182.0,20693.0,82.05745915842476,428.9939770384458,508.56200122561063
415192.0,8614.0,415192.0,24077.0,415192.0,20671.0,116.04137541452042,435.63251170038404,518.8821557601162
415192.0,8638.0,415192.0,24085.0,415192.0,20679.0,149.41194007886202,441.7995876395138,528.6209117358273
415192.0,8691.0,415192.0,24117.0,415192.0,20712.0,182.1533268224989,447.5108251194001,537.7936978309239
415192.0,8721.0,415192.0,24134.0,415192.0,20721.0,214.2511268780272,452.7808755446699,546.4156562519859
415192.0,8753.0,415192.0,24138.0,415192.0,20743.0,245.69247911646255,457.62376642337483,554.5018613855352
415192.0,8802.0,415192.0,24155.0,415192.0,20746.0,276.46618848049604,462.05326469765555,562.067594758015
415203.0,8832.0,415203.0,24205.0,415203.0,20793.0,306.56286152593464,466.083195249597,569.128586771264
415203.0,8885.0,415203.0,24260.0,415203.0,20797.0,335.9751322903521,469.7280723287239,575.7013704239316
415203.0,8907.0,415203.0,24195.0,415203.0,20790.0,364.69794439187604,473.004021184222,581.8036878187617
415203.0,8901.0,415203.0,24136.0,415203.0,20761.0,392.72870746413344,475.9291070841965,587.4545745311885
415203.0,8912.0,415203.0,24139.0,415203.0,20743.0,420.0670548939547,478.52250051188946,592.6739108007129
415203.0,8930.0,415203.0,24114.0,415203.0,20757.0,446.7142312868185,480.803210549715,597.4816979722734
415213.0,8964.0,415213.0,24110.0,415213.0,20726.0,472.6725083566819,482.78920342876256,601.8974501327415
415213.0,8986.0,415213.0,24110.0,415213.0,20750.0,497.9448943198124,484.4968833833668,605.9397792315277
415213.0,9020.0,415213.0,24146.0,415213.0,20764.0,522.5350780415893,485.94084214881593,609.6261528253367
415213.0,9044.0,415213.0,24176.0,415213.0,20785.0,546.4474702332698,487.1340587098896,612.9729655099366
415213.0,9072.0,415213.0,24163.0,415213.0,20787.0,569.6872748015503,488.088484067698,615.995872881729
415213.0,9098.0,415213.0,24207.0,415213.0,20798.0,592.2605618803607,488.81562811670597,618.7101163189166
415223.0,9147.0,415223.0,24250.0,415223.0,20822.0,614.1743848781084,489.32711585776235,621.1307631951946
415223.0,9170.0,415223.0,24244.0,415223.0,20823.0,635.4370405085701,489.6354756483928,623.2729854765907
415223.0,9163.0,415223.0,24184.0,415223.0,20801.0,656.0583501557053,489.75479078873366,625.1523074052855
415223.0,9158.0,415223.0,24130.0,415223.0,20775.0,676.0495899428888,489.70044502104577,626.7845121506355
415223.0,9170.0,415223.0,24129.0,415223.0,20783.0,695.4229639621806,489.4879756583164,628.1851543119311
415223.0,9183.0,415223.0,24097.0,415223.0,20767.0,714.1909663652641,489.1318352503597,629.3690258488255
415234.0,9188.0,415234.0,24098.0,415234.0,20760.0,732.3659172784221,488.64455711299706,630.3497874351249
415234.0,9220.0,415234.0,24137.0,415234.0,20791.0,749.9596620309026,488.0363343858586,631.1397323857735
415234.0,9248.0,415234.0,24173.0,415234.0,20796.0,766.983445449772,487.3151619750822,631.7497960477366
415234.0,9266.0,415234.0,24149.0,415234.0,20791.0,783.4480175083088,486.48750259963697,632.1898264481944
415234.0,9309.0,415234.0,24194.0,415234.0,20796.0,799.3638809239949,485.5589484862403,632.4688102641213
415234.0,9321.0,415234.0,24203.0,415234.0,20832.0,814.7415973870188,484.53469636102807,632.594993081573
415244.0,9356.0,415244.0,24247.0,415244.0,20841.0,829.5921217234588,483.42015124803345,632.5761891141747
415244.0,9348.0,415244.0,24202.0,415244.0,20820.0,843.9270584178785,482.22163663708,632.420253802382
415244.0,9345.0,415244.0,24170.0,415244.0,20796.0,857.7586762212238,480.94668669647206,632.1352556066737
415244.0,9336.0,415244.0,24094.0,415244.0,20761.0,871.099569168978,479.60348724984783,631.7290856813216
415244.0,9333.0,415244.0,24098.0,415244.0,20773.0,883.9620567127424,478.1996332507226,631.208743972637
415244.0,9359.0,415244.0,24109.0,415244.0,20779.0,896.3575876768696,476.7409411626319,630.5797790932739
415254.0,9378.0,415254.0,24093.0,415254.0,20776.0,908.2964147842652,475.2309069406871,629.8461407906425
415254.0,9404.0,415254.0,24145.0,415254.0,20784.0,919.7876304569959,473.67072848797284,629.0102707952987
415254.0,9407.0,415254.0,24171.0,415254.0,20819.0,930.839389525129,472.0597184357167,628.073278119992
415254.0,9455.0,415254.0,24179.0,415254.0,20800.0,941.4591384405492,470.3960930369734,627.0352756297634
415254.0,9462.0,415254.0,24195.0,415254.0,20824.0,951.6539033486254,468.67781339175997,625.89576856325
415254.0,9486.0,415254.0,24231.0,415254.0,20863.0,961.4306691555021,466.9032422754922,624.6540100011083
415265.0,9502.0,415265.0,24203.0,415265.0,20840.0,970.7967137734947,465.0717340019231,623.3094953081105
415265.0,9476.0,415265.0,24195.0,415265.0,20835.0,979.7597718475827,463.1840197530944,621.8624154568637
415265.0,9457.0,415265.0,24125.0,415265.0,20803.0,988.3278435718844,461.24203222023743,620.3136604554425
415265.0,9465.0,415265.0,24127.0,415265.0,20784.0,996.5085876417206,459.2481412036941,618.6643809688418
415265.0,9467.0,415265.0,24115.0,415265.0,20776.0,1004.3086623627457,457.20422510039145,616.9153732190134
415265.0,9498.0,415265.0,24081.0,415265.0,20770.0,1011.7333890688926,455.1109991481758,615.0665360529017
415275.0,9508.0,415275.0,24112.0,415275.0,20804.0,1018.7867801407526,452.9675862120612,613.1166126515847
415275.0,9521.0,415275.0,24166.0,415275.0,20822.0,1025.471773606674,450.7714272346835,611.0633666432844
415275.0,9532.0,415275.0,24144.0,415275.0,20805.0,1031.7904677789516,448.5188086290568,608.9040854029239
415275.0,9558.0,415275.0,24169.0,415275.0,20825.0,1037.7443072611507,446.2056323034733,606.6360119341375
415275.0,9579.0,415275.0,24223.0,415275.0,20832.0,1043.3343497763317,443.82802166285944,604.2565799460643
415275.0,9606.0,415275.0,24237.0,415275.0,20839.0,1048.561688645849,441.3830854788816,601.7636808900048
415285.0,9593.0,415285.0,24182.0,415285.0,20827.0,1053.4279114827655,438.86979926870185,599.1559670830953
415285.0,9579.0,415285.0,24156.0,415285.0,20809.0,1057.9353076947946,436.2892332313746,596.4329623049707
415285.0,9562.0,415285.0,24101.0,415285.0,20781.0,1062.0866264226454,433.6438555958633,593.5948503932538
415285.0,9580.0,415285.0,24090.0,415285.0,20769.0,1065.8845690040166,430.9364051414238,590.641992450216
415285.0,9552.0,415285.0,24086.0,415285.0,20770.0,1069.3313578917964,428.1688792292962,587.5743952708369
415285.0,9584.0,415285.0,24084.0,415285.0,20787.0,1072.4284649211295,425.3419428531322,584.3914224032676
415296.0,9606.0,415296.0,24141.0,415296.0,20780.0,1075.1765352878679,422.45485781511206,581.0918571270678
415296.0,9612.0,415296.0,24121.0,415296.0,20807.0,1077.5756367121894,419.50590569970694,577.6741757104407
415296.0,9623.0,415296.0,24105.0,415296.0,20798.0,1079.6256718694829,416.4929444435669,574.136891346635
415296.0,9642.0,415296.0,24145.0,415296.0,20803.0,1081.3267051672738,413.41365940494006,570.4788898897269
415296.0,9670.0,415296.0,24201.0,415296.0,20817.0,1082.6792949358178,410.2658469569693,566.6996906509929
415296.0,9662.0,415296.0,24219.0,415296.0,20812.0,1083.684942331654,407.04830945472116,562.7996929995554
415306.0,9646.0,415306.0,24146.0,415306.0,20790.0,1084.346428253318,403.7619164185983,558.7803885425424
415306.0,9639.0,415306.0,24120.0,415306.0,20770.0,1084.6677670418474,400.40980796223,554.6443142380259
415306.0,9612.0,415306.0,24055.0,415306.0,20746.0,1084.653833543382,396.99652187386914,550.3946755641266
415306.0,9608.0,415306.0,24073.0,415306.0,20749.0,1084.309857688293,393.52673232321126,546.0348440630346
415306.0,9613.0,415306.0,24032.0,415306.0,20736.0,1083.6409483362147,390.0042658658897,541.567978080194
415306.0,9616.0,415306.0,24078.0,415306.0,20765.0,1082.6518324087715,386.4316050756774,536.9969021844802
415317.0,9651.0,415317.0,24086.0,415317.0,20773.0,1081.346908312966,382.8098979021969,532.3243038567795
415317.0,9647.0,415317.0,24096.0,415317.0,20768.0,1079.7305851720744,379.1394119627857,527.5531724759867
415317.0,9654.0,415317.0,24109.0,415317.0,20771.0,1077.8077296328086,375.42013623987316,522.6872052849878
415317.0,9668.0,415317.0,24148.0,415317.0,20775.0,1075.5840076124282,371.65235410348663,517.7310405982435
415317.0,9677.0,415317.0,24183.0,415317.0,20780.0,1073.0661653466007,367.8373960917923,512.6904537159436
415317.0,9667.0,415317.0,24152.0,415317.0,20755.0,1070.262336571681,363.97857242829264,507.5725538422312
415327.0,9651.0,415327.0,24057.0,415327.0,20729.0,1067.18221170034,360.0816113247203,502.3857753997854
415327.0,9612.0,415327.0,24051.0,415327.0,20698.0,1063.8368643327044,356.1539796547389,497.13949959120794
415327.0,9577.0,415327.0,24015.0,415327.0,20706.0,1060.2381720595147,352.2035452048966,491.8434637893372
415327.0,9593.0,415327.0,24023.0,415327.0,20680.0,1056.3980153672235,348.2375152336852,486.50729034988024
415327.0,9599.0,415327.0,24006.0,415327.0,20690.0,1052.3277278222236,344.2619081116239,481.14024584266963
415327.0,9604.0,415327.0,24051.0,415327.0,20694.0,1048.0380764314384,340.2814202058091,475.75117373045515
415337.0,9616.0,415337.0,24091.0,415337.0,20696.0,1043.539555278461,336.29977685924973,470.3486163859542
415337.0,9610.0,415337.0,24055.0,415337.0,20689.0,1038.8427168601347,332.3205288569253,464.94105330588684
415337.0,9608.0,415337.0,24061.0,415337.0,20659.0,1033.9584294766728,328.3477093948318,459.53702049194357
415337.0,9637.0,415337.0,24096.0,415337.0,20708.0,1028.8980724735195,324.38605191842237,454.1450662009193
415337.0,9621.0,415337.0,24096.0,415337.0,20699.0,1023.6738146883451,320.44125640868134,448.7738726521253
415337.0,9584.0,415337.0,24058.0,415337.0,20678.0,1018.2988644282884,316.5204334754411,443.4326385273323
415348.0,9565.0,415348.0,23996.0,415348.0,20640.0,1012.7873040537208,312.6320865758063,438.1312180740041
415348.0,9551.0,415348.0,23972.0,415348.0,20625.0,1007.153528982238,308.78529012185044,432.8797129561401
415348.0,9561.0,415348.0,23951.0,415348.0,20619.0,1001.4117379060035,304.98851045396464,427.68784640398496
415348.0,9528.0,415348.0,23939.0,415348.0,20608.0,995.5756983971646,301.2486583026833,422.5645159914448
415348.0,9538.0,415348.0,23975.0,415348.0,20626.0,989.658623526971,297.5706052059993,417.5176238950645
415348.0,9557.0,415348.0,23983.0,415348.0,20622.0,983.6731003687897,293.95724056682786,412.5541539936223
415358.0,9535.0,415358.0,23998.0,415358.0,20617.0,977.6312338797316,290.40997610152084,407.6803963896363
415358.0,9543.0,415358.0,24001.0,415358.0,20626.0,971.5448924249656,286.92934747688616,402.90214710819504
415358.0,9559.0,415358.0,24056.0,415358.0,20635.0,965.425876464179,283.51557749200344,398.2248868134947
415358.0,9572.0,415358.0,24085.0,415358.0,20657.0,959.2861982188033,280.16935981223446,393.65410024859585
415358.0,9532.0,415358.0,24047.0,415358.0,20625.0,953.1384881242365,276.89284299834634,389.1956997889931
415358.0,9507.0,415358.0,23972.0,415358.0,20585.0,946.9960925764375,273.6900761404469,384.85617854027356
415368.0,9469.0,415368.0,23953.0,415368.0,20576.0,940.8726156716482,270.56634735908034,380.6422074435235
415368.0,9471.0,415368.0,23926.0,415368.0,20564.0,934.7811837866137,267.52691288397705,376.55996557416313
415368.0,9471.0,415368.0,23922.0,415368.0,20557.0,928.7338858812591,264.57595032523875,372.6146547146632
415368.0,9462.0,415368.0,23923.0,415368.0,20552.0,922.7415894554222,261.71598692273113,368.8102526486289
415368.0,9486.0,415368.0,23956.0,415368.0,20566.0,916.8140224921397,258.9477581259177,365.1494159685805
415368.0,9458.0,415368.0,24011.0,415368.0,20572.0,910.9599712810513,256.2705976095096,361.633574767744
415379.0,9468.0,415379.0,23940.0,415379.0,20559.0,905.1874561927754,253.68322310637268,358.26317663017574
415379.0,9472.0,415379.0,23979.0,415379.0,20573.0,899.5038183354164,251.18425833899602,355.03788761680346
415379.0,9493.0,415379.0,24026.0,415379.0,20593.0,893.915896942461,248.77237168379435,351.956762371594
415379.0,9503.0,415379.0,24022.0,415379.0,20594.0,888.430449029913,246.44673383524037,349.01857763098485
415379.0,9456.0,415379.0,23970.0,415379.0,20588.0,883.0545965824738,244.20769534382293,346.2222461896183
415379.0,9434.0,415379.0,23958.0,415379.0,20564.0,877.7958517812541,242.0568219457225,343.5670057756878
415389.0,9415.0,415389.0,23930.0,415389.0,20536.0,872.6616006439706,239.99623910299857,341.0522229950425
415389.0,9396.0,415389.0,23920.0,415389.0,20525.0,867.658427323238,238.02787461158033,338.676881177414
415389.0,9400.0,415389.0,23901.0,415389.0,20509.0,862.7916046513922,236.1528582540759,336.43898285530355
415389.0,9414.0,415389.0,23902.0,415389.0,20553.0,858.064862030991,234.37105618358356,334.3351664256942
415389.0,9423.0,415389.0,23944.0,415389.0,20564.0,853.4805053814295,232.68085131274773,332.3608062176346
415389.0,9409.0,415389.0,23922.0,415389.0,20549.0,849.0397534311525,231.07932958808,330.5105110767246
415399.0,9411.0,415399.0,23940.0,415399.0,20560.0,844.7429826727512,229.56266780441737,328.7785359190757
415399.0,9422.0,415399.0,23998.0,415399.0,20579.0,840.5898161792504,228.126518653169,327.15895464425245
415399.0,9453.0,415399.0,24049.0,415399.0,20600.0,836.5793193495634,226.7667533405617,325.64593659577736
415399.0,9425.0,415399.0,23991.0,415399.0,20584.0,832.7104260382669,225.4806044020243,324.23421579898684
415399.0,9418.0,415399.0,23964.0,415399.0,20551.0,828.9822733242759,224.267306255699,322.9193646058142
415399.0,9381.0,415399.0,23927.0,415399.0,20539.0,825.3941049655078,223.12766491320275,321.6975521668896
415410.0,9368.0,415410.0,23880.0,415410.0,20522.0,821.9447941615831,222.0630041173988,320.564957868668
415410.0,9368.0,415410.0,23888.0,415410.0,20515.0,818.6322689753098,221.0740484632964,319.51720413508053
415410.0,9377.0,415410.0,23867.0,415410.0,20536.0,815.4531480615063,220.16005107984384,318.548998954133
415410.0,9390.0,415410.0,23926.0,415410.0,20528.0,812.402744624987,219.31841275443145,317.65406720065926
415410.0,9391.0,415410.0,23933.0,415410.0,20548.0,809.4753375317713,218.54491395212327,316.8253122396843
415410.0,9385.0,415410.0,23923.0,415410.0,20559.0,806.664474971192,217.83433720219875,316.0550784932489
415420.0,9399.0,415420.0,23955.0,415420.0,20564.0,803.9631631186035,217.1809922653323,315.3354888873758
415420.0,9427.0,415420.0,23999.0,415420.0,20593.0,801.3640674976925,216.5791381703276,314.65883920757244
415420.0,9440.0,415420.0,24004.0,415420.0,20611.0,798.8599559436717,216.02368882445785,314.0180738951747
415420.0,9394.0,415420.0,23955.0,415420.0,20546.0,796.4442154300483,215.5109433372983,313.4072281745437
415420.0,9377.0,415420.0,23913.0,415420.0,20551.0,794.1109188451812,215.03860053492792,312.82138746943986
415420.0,9365.0,415420.0,23884.0,415420.0,20543.0,791.8543245565081,214.60490802936522,312.25613799344455
415430.0,9362.0,415430.0,23916.0,415430.0,20533.0,789.6682764374431,214.20760768194248,311.70706317638565
415430.0,9362.0,415430.0,23893.0,415430.0,20522.0,787.5458566764681,213.84336761660697,311.1694621391779
415430.0,9382.0,415430.0,23900.0,415430.0,20537.0,785.4793097861648,213.5076887225361,310.63812442015535
415430.0,9377.0,415430.0,23913.0,415430.0,20527.0,783.4601955390444,213.1949174408708,310.1072096767733
415430.0,9380.0,415430.0,23934.0,415430.0,20564.0,781.4796395375228,212.8983649803173,309.5703235991066
415430.0,9384.0,415430.0,23962.0,415430.0,20550.0,779.5285137192297,212.6107092043108,309.02077605624794
415441.0,9405.0,415441.0,24002.0,415441.0,20573.0,777.5975936265696,212.3246834464331,308.4519225160752
415441.0,9420.0,415441.0,24028.0,415441.0,20603.0,775.6778667712963,212.03399581575175,307.857530261227
415441.0,9416.0,415441.0,23974.0,415441.0,20566.0,773.7609842922068,211.73419184579842,307.23219794135656
415441.0,9390.0,415441.0,23946.0,415441.0,20564.0,771.8395809660403,211.4228636838153,306.57158581140084
415441.0,9376.0,415441.0,23913.0,415441.0,20544.0,769.9071967069765,211.09899954263233,305.8722119579416
415441.0,9345.0,415441.0,23886.0,415441.0,20525.0,767.9578281255318,210.76194502574256,305.13100286093265
415451.0,9342.0,415451.0,23872.0,415451.0,20499.0,765.9853289222148,210.41042766032595,304.34476840082755
415451.0,9346.0,415451.0,23884.0,415451.0,20534.0,763.9828981161497,210.04182478391658,303.50968236633247
415451.0,9363.0,415451.0,23923.0,415451.0,20541.0,761.942878922266,209.65189339703798,302.62108831855346
415451.0,9374.0,415451.0,23944.0,415451.0,20551.0,759.8569292106042,209.23511587168903,301.673772596744
415451.0,9397.0,415451.0,23947.0,415451.0,20563.0,757.7164403458863,208.78542892086264,300.6624071265792
415451.0,9376.0,415451.0,23943.0,415451.0,20563.0,755.5130124177747,208.29684625882066,299.58191934717024
415461.0,9403.0,415461.0,23994.0,415461.0,20572.0,753.2387959036105,207.76382740739123,298.427777279998
415461.0,9416.0,415461.0,23993.0,415461.0,20585.0,750.8867465740053,207.18172067507138,297.1962344197833
415461.0,9391.0,415461.0,23975.0,415461.0,20577.0,748.4509436441981,206.5473270256095,295.8845831578611
415461.0,9345.0,415461.0,23895.0,415461.0,20510.0,745.9266900980291,205.85900215014712,294.4912185311789
415461.0,9344.0,415461.0,23879.0,415461.0,20526.0,743.3100594385892,205.11587186623294,293.0151906136124
415461.0,9323.0,415461.0,23883.0,415461.0,20518.0,740.5971784131557,204.31661219464786,291.45550464163114
415472.0,9326.0,415472.0,23891.0,415472.0,20516.0,737.7836991593446,203.45864209292048,289.81072948110386
415472.0,9342.0,415472.0,23913.0,415472.0,20521.0,734.8645742323779,202.53801424270452,288.0789326858605
415472.0,9340.0,415472.0,23940.0,415472.0,20532.0,731.8341245378781,201.54977124957693,286.2577337528057
415472.0,9351.0,415472.0,23948.0,415472.0,20518.0,728.6863031933226,200.48854881643118,284.3444432547628
415472.0,9352.0,415472.0,23923.0,415472.0,20531.0,725.4149834813899,199.34914272186904,282.3361988817575
415472.0,9394.0,415472.0,23969.0,415472.0,20556.0,722.0142913218306,198.12679287527203,280.230106569115
415482.0,9390.0,415482.0,24011.0,415482.0,20589.0,718.4791281598359,196.8174922145464,278.023635717059
415482.0,9348.0,415482.0,24006.0,415482.0,20539.0,714.805692199223,195.4187273589501,275.7152281137702
415482.0,9337.0,415482.0,23914.0,415482.0,20521.0,710.9915124465658,193.9301249710478,273.30455197202195
415482.0,9316.0,415482.0,23901.0,415482.0,20497.0,707.034967355267,192.3530972785813,270.7920874504632
415482.0,9315.0,415482.0,23878.0,415482.0,20487.0,702.9347434888463,190.6896648589991,268.1784281792423
415482.0,9296.0,415482.0,23868.0,415482.0,20485.0,698.6894771072925,188.94138756248975,265.4637338806925
415492.0,9305.0,415492.0,23862.0,415492.0,20492.0,694.2975362252428,187.10875362507034,262.64745549547274
415492.0,9301.0,415492.0,23904.0,415492.0,20507.0,689.756931045537,185.1909378871509,259.7283510254968
415492.0,9303.0,415492.0,23919.0,415492.0,20504.0,685.0653710338902,183.18603028979328,256.7047354459571
415492.0,9294.0,415492.0,23906.0,415492.0,20519.0,680.2203857243807,181.09163348550777,253.57481091996155
415492.0,9301.0,415492.0,23919.0,415492.0,20504.0,675.2194182593662,178.90535809179127,250.33694987011808
415492.0,9334.0,415492.0,24002.0,415492.0,20535.0,670.0599949491528,176.62521160863966,246.98992084083397
415503.0,9329.0,415503.0,23967.0,415503.0,20525.0,664.7401510389651,174.25035259280693,243.53315231302355
415503.0,9305.0,415503.0,23947.0,415503.0,20510.0,659.2589387159409,171.78192682165792,239.96701022085801
415503.0,9268.0,415503.0,23861.0,415503.0,20474.0,653.6165418390573,169.22308086379454,236.2928099121337
415503.0,9254.0,415503.0,23844.0,415503.0,20462.0,647.8138517120886,166.57795267149788,232.51241076098083
415503.0,9255.0,415503.0,23855.0,415503.0,20466.0,641.8518762597062,163.85036157030228,228.6276625478729
415503.0,9230.0,415503.0,23812.0,415503.0,20466.0,635.731358994037,161.04295237325655,224.64008805796925
415513.0,9241.0,415513.0,23857.0,415513.0,20456.0,629.4526077429434,158.1568481488536,220.55086255243415
415513.0,9242.0,415513.0,23893.0,415513.0,20463.0,623.0154521683062,155.19171037633043,216.3608795972483
415513.0,9242.0,415513.0,23897.0,415513.0,20467.0,616.4193806553018,152.14635215650682,212.0708303554897
415513.0,9237.0,415513.0,23876.0,415513.0,20447.0,609.6637816965999,149.01953818775132,207.68133071424074
415513.0,9257.0,415513.0,23916.0,415513.0,20485.0,602.7481805017662,145.81042513150146,203.19305574611928
415513.0,9260.0,415513.0,23961.0,415513.0,20501.0,595.6725598883944,142.51892774120574,198.60702111725905
415524.0,9235.0,415524.0,23909.0,415524.0,20463.0,588.4377533204486,139.14640539706778,193.92508426702483
415524.0,9198.0,415524.0,23884.0,415524.0,20442.0,581.0455781982305,135.69612466086335,189.15019986523657
415524.0,9199.0,415524.0,23841.0,415524.0,20419.0,573.4985272349986,132.1728927108048,184.2860955697692
415524.0,9172.0,415524.0,23796.0,415524.0,20406.0,565.7993092771117,128.58209630508622,179.33667964306716
415524.0,9144.0,415524.0,23774.0,415524.0,20382.0,557.9504742414755,124.92857718156009,174.30551422566006
415524.0,9146.0,415524.0,23804.0,415524.0,20393.0,549.9540391141812,121.21568574198047,169.19541283458088
415534.0,9166.0,415534.0,23806.0,415534.0,20412.0,541.8112363534188,117.44492773736587,164.0082833982969
415534.0,9170.0,415534.0,23833.0,415534.0,20416.0,533.5226800934443,113.61625039558388,158.74536446844823
415534.0,9166.0,415534.0,23817.0,415534.0,20398.0,525.0888509428657,109.72857331451819,153.40765621802132
415534.0,9150.0,415534.0,23832.0,415534.0,20396.0,516.5105087720658,105.7802180592864,147.99616167377752
415534.0,9181.0,415534.0,23939.0,415534.0,20446.0,507.78891811368845,101.76940041043903,142.5119927847835
415534.0,9168.0,415534.0,23905.0,415534.0,20414.0,498.9261269658748,97.69526290209598,136.9567197238168
415544.0,9124.0,415544.0,23836.0,415544.0,20410.0,489.92528883145826,93.55897819079047,131.33283183757268
415544.0,9108.0,415544.0,23796.0,415544.0,20366.0,480.7906171070375,89.36372523119513,125.64380425976353
415544.0,9076.0,415544.0,23775.0,415544.0,20343.0,471.52690088806526,85.11356048075615,119.89366689492124
415544.0,9067.0,415544.0,23784.0,415544.0,20338.0,462.1389422776881,80.81228898916913,114.0863569604677
415544.0,9062.0,415544.0,23747.0,415544.0,20343.0,452.63116194231395,76.46288165836586,108.2252273265637
415544.0,9037.0,415544.0,23763.0,415544.0,20332.0,443.00740716479424,72.06720583204185,102.31291290300206
415555.0,9047.0,415555.0,23763.0,415555.0,20325.0,433.2708752330305,67.62587686974882,96.35138699752349
415555.0,9047.0,415555.0,23788.0,415555.0,20327.0,423.4241398954739,63.13836421071562,90.34199304509127
415555.0,9039.0,415555.0,23780.0,415555.0,20345.0,413.46935565360957,58.603376188827866,84.28552247159055
415555.0,9058.0,415555.0,23843.0,415555.0,20323.0,403.40857706696073,54.01940420998923,78.1824519727846
415555.0,9053.0,415555.0,23859.0,415555.0,20361.0,393.2441444237487,49.385517390218695,72.0332551818679
415555.0,9029.0,415555.0,23849.0,415555.0,20336.0,382.97908308515923,44.702371262461185,65.83873608699685
415565.0,9000.0,415565.0,23788.0,415565.0,20330.0,372.6172533363753,39.97284166706737,59.600329536372044
415565.0,8960.0,415565.0,23746.0,415565.0,20293.0,362.1630705314026,35.20173334576913,53.32013404863551
415565.0,8943.0,415565.0,23700.0,415565.0,20281.0,351.62092290133535,30.394710879803597,47.0005878368367
415565.0,8937.0,415565.0,23713.0,415565.0,20255.0,340.99458842121953,25.55708322805674,40.64397011488643
415565.0,8941.0,415565.0,23698.0,415565.0,20251.0,330.2869440366928,20.693012384489776,34.2519259366274
415565.0,8935.0,415565.0,23721.0,415565.0,20270.0,319.50003593547046,15.80529574849615,27.82518651455547
415575.0,8936.0,415575.0,23740.0,415575.0,20274.0,308.6353427988994,10.895578392695796,21.36365091132126
415575.0,8930.0,415575.0,23727.0,415575.0,20285.0,297.6940660161191,5.964823118047377,14.866790626775241
415575.0,8920.0,415575.0,23737.0,415575.0,20280.0,286.67738204654376,1.013771105268404,8.334128160157832
415575.0,8936.0,415575.0,23767.0,415575.0,20313.0,275.5866690266953,-3.9567141336970906,1.7656742037325444
415575.0,8939.0,415575.0,23780.0,415575.0,20293.0,264.4238289985205,-8.94516252465192,-4.837601648296868
415575.0,8884.0,415575.0,23755.0,415575.0,20266.0,253.1916591609371,-13.948862839268372,-11.473396202551271
415586.0,8850.0,415586.0,23674.0,415586.0,20227.0,241.8938430486226,-18.963646462111598,-18.138146144375185
415586.0,8841.0,415586.0,23663.0,415586.0,20209.0,230.53440774285838,-23.98454089496596,-24.82759226394262
415586.0,8824.0,415586.0,23653.0,415586.0,20187.0,219.11712864203326,-29.006876241410595,-31.537490508921906
415586.0,8809.0,415586.0,23619.0,415586.0,20194.0,207.64523176837736,-34.027112235395464,-38.26415227056742
415586.0,8824.0,415586.0,23663.0,415586.0,20203.0,196.12132266057324,-39.043236198896466,-45.00464808994309
415586.0,8800.0,415586.0,23679.0,415586.0,20195.0,184.54749115297915,-44.054727990771994,-51.75666680746781
415596.0,8792.0,415596.0,23680.0,415596.0,20188.0,172.9254988616865,-49.06202725537395,-58.51825893306153
415596.0,8790.0,415596.0,23661.0,415596.0,20188.0,161.2568833597319,-54.06591988057312,-65.28768894886605
415596.0,8780.0,415596.0,23726.0,415596.0,20209.0,149.54303564295265,-59.06716745468191,-72.06330959246452
415596.0,8801.0,415596.0,23731.0,415596.0,20213.0,137.7854005861758,-64.06599924795742,-78.84324164441466
415596.0,8765.0,415596.0,23719.0,415596.0,20188.0,125.98579831433335,-69.06129671247746,-85.6249361810847
415596.0,8743.0,415596.0,23655.0,415596.0,20161.0,114.14663775463816,-74.05010999768086,-92.40499779503983
415606.0,8726.0,415606.0,23595.0,415606.0,20124.0,102.27079767294288,-79.02810959050171,-99.1794914775092
415606.0,8697.0,415606.0,23587.0,415606.0,20124.0,90.36129653700914,-83.99079103633207,-105.94454911258634
415606.0,8675.0,415606.0,23571.0,415606.0,20105.0,78.42093931976763,-88.93468206885152,-112.69691143603671
415606.0,8672.0,415606.0,23565.0,415606.0,20093.0,66.45198364490625,-93.85803623190981,-119.43424570428488
415606.0,8669.0,415606.0,23621.0,415606.0,20129.0,54.45595875035178,-98.76098881166428,-126.15526143649538
415606.0,8668.0,415606.0,23617.0,415606.0,20125.0,42.43375254711589,-103.64517108670799,-132.85951300147826
415617.0,8668.0,415617.0,23626.0,415617.0,20111.0,30.385885771002563,-108.51296705642548,-139.54694575976583
415617.0,8651.0,415617.0,23632.0,415617.0,20107.0,18.312823436500025,-113.36687805975026,-146.21758647769633
415617.0,8653.0,415617.0,23679.0,415617.0,20140.0,6.215216311216864,-118.20903164542435,-152.8714265908315
415617.0,8658.0,415617.0,23666.0,415617.0,20144.0,-5.90589118486912,-123.04053309008648,-159.50810572101597
415617.0,8614.0,415617.0,23627.0,415617.0,20107.0,-18.048832043286097,-127.86085580633062,-166.12640354899742
415617.0,8590.0,415617.0,23567.0,415617.0,20081.0,-30.211287318677364,-132.6678878455554,-172.7240743219176
415627.0,8565.0,415627.0,23555.0,415627.0,20040.0,-42.39062844084583,-137.45877010127003,-179.298281049766
415627.0,8559.0,415627.0,23542.0,415627.0,20058.0,-54.58437627362218,-142.230935347507,-185.84628947617477
415627.0,8536.0,415627.0,23521.0,415627.0,20028.0,-66.79048963580522,-146.98281190799298,-192.36595847763215
415627.0,8539.0,415627.0,23558.0,415627.0,20047.0,-79.00747526844668,-151.71414143645268,-198.85590352759107
415627.0,8538.0,415627.0,23552.0,415627.0,20064.0,-91.23434967176479,-156.42592299716563,-205.3154041234207
415627.0,8526.0,415627.0,23551.0,415627.0,20033.0,-103.47043869817503,-161.12005833335564,-211.7440997455605
415637.0,8511.0,415637.0,23572.0,415637.0,20021.0,-115.71514445703781,-165.79898161643445,-218.14176174473585
415637.0,8518.0,415637.0,23600.0,415637.0,20066.0,-127.96780502969398,-170.46526755059017,-224.5082969993718
415637.0,8516.0,415637.0,23666.0,415637.0,20059.0,-140.22752762141613,-175.12088587406743,-230.84355837439182
415637.0,8501.0,415637.0,23622.0,415637.0,20041.0,-152.4929000637586,-179.76609813968372,-237.14685068551222
415637.0,8480.0,415637.0,23562.0,415637.0,20000.0,-164.76175676650257,-184.39871514440887,-243.41670489137738
415637.0,8438.0,415637.0,23500.0,415637.0,19993.0,-177.03122177948694,-189.01450223335308,-249.65120993081644
415648.0,8416.0,415648.0,23479.0,415648.0,19979.0,-189.2980776060623,-193.60852612593834,-255.84855821952988
415648.0,8412.0,415648.0,23471.0,415648.0,19974.0,-201.5592655831697,-198.1765205719069,-262.00742642821723
415648.0,8383.0,415648.0,23475.0,415648.0,19973.0,-213.81223056168233,-202.71567398355705,-268.1271329086693
415648.0,8386.0,415648.0,23483.0,415648.0,19969.0,-226.05506546238166,-207.22482702843928,-274.20764871042707
415648.0,8377.0,415648.0,23508.0,415648.0,19994.0,-238.28653876314957,-211.70427049959153,-280.2494682825175
415648.0,8364.0,415648.0,23501.0,415648.0,19968.0,-250.50600498206848,-216.15529933038817,-286.2533358173718
415658.0,8373.0,415658.0,23508.0,415658.0,19975.0,-262.7132406989057,-220.57973524175316,-292.2199830520352
415658.0,8386.0,415658.0,23583.0,415658.0,19997.0,-274.9081757862574,-224.9794422730555,-298.14996148010727
415658.0,8363.0,415658.0,23593.0,415658.0,20007.0,-287.0904551068462,-229.3554789747971,-304.04333218161946
415658.0,8337.0,415658.0,23523.0,415658.0,19964.0,-299.2590796051136,-233.707065303467,-309.8992152831968
415658.0,8321.0,415658.0,23472.0,415658.0,19922.0,-311.4124121558972,-238.0313699825728,-315.7157252180677
415658.0,8287.0,415658.0,23458.0,415658.0,19915.0,-323.5484591628086,-242.32443000990713,-321.4905387087582
415668.0,8267.0,415668.0,23451.0,415668.0,19899.0,-335.6652458247248,-246.5823058882595,-327.221640192396
415668.0,8240.0,415668.0,23392.0,415668.0,19884.0,-347.76123656326,-250.80184534227118,-332.9078137044864
415668.0,8242.0,415668.0,23446.0,415668.0,19904.0,-359.83570960495524,-254.9812175338015,-338.5488812797625
415668.0,8253.0,415668.0,23461.0,415668.0,19905.0,-371.88888744215285,-259.12011263775753,-344.14568790698326
415668.0,8244.0,415668.0,23452.0,415668.0,19905.0,-383.9217118933392,-263.21934173015916,-349.6998289976813
415668.0,8232.0,415668.0,23442.0,415668.0,19907.0,-395.93545803809855,-267.2802984103626,-355.21332878859334
415679.0,8237.0,415679.0,23478.0,415679.0,19920.0,-407.9314500870538,-271.30471521332237,-360.6883768890158
415679.0,8247.0,415679.0,23507.0,415679.0,19932.0,-419.91081034734714,-275.29434848136316,-366.1270014907825
415679.0,8231.0,415679.0,23494.0,415679.0,19908.0,-431.87407935169983,-279.25030427949645,-371.5306771529173
415679.0,8188.0,415679.0,23460.0,415679.0,19888.0,-443.82090949434985,-283.17246266618304,-376.9001362553452
415679.0,8172.0,415679.0,23378.0,415679.0,19871.0,-455.75016405172175,-287.05964383165514,-382.235566211597
415679.0,8137.0,415679.0,23375.0,415679.0,19851.0,-467.6603649368958,-290.91061324353643,-387.53703456591325
415689.0,8126.0,415689.0,23365.0,415689.0,19846.0,-479.5501897123802,-294.7253004983395,-392.80491328450586
415689.0,8113.0,415689.0,23361.0,415689.0,19841.0,-491.4188458892619,-298.5055357459244,-398.04018688207015
415689.0,8110.0,415689.0,23432.0,415689.0,19850.0,-503.2662496991967,-302.255129639683,-403.2445694905835
415689.0,8107.0,415689.0,23407.0,415689.0,19839.0,-515.0929931753426,-305.97936555860485,-408.4204348852458
415689.0,8117.0,415689.0,23425.0,415689.0,19836.0,-526.9001319277176,-309.68423789788824,-413.57069297865166
415689.0,8085.0,415689.0,23413.0,415689.0,19851.0,-538.6888765720104,-313.3759502908901,-418.6986956813466
415699.0,8109.0,415699.0,23507.0,415699.0,19881.0,-550.4603334921975,-317.06054608375155,-423.808004069702
415699.0,8110.0,415699.0,23487.0,415699.0,19868.0,-562.215244312297,-320.743122445129,-428.90187914563245
415699.0,8068.0,415699.0,23467.0,415699.0,19844.0,-573.9536329818242,-324.4268363701521,-433.9827996375996
415699.0,8041.0,415699.0,23394.0,415699.0,19818.0,-585.6746822283295,-328.1126050020849,-439.0524377949744
415699.0,8012.0,415699.0,23338.0,415699.0,19791.0,-597.3770882965504,-331.799908963146,-444.1121052390228
415699.0,8000.0,415699.0,23360.0,415699.0,19804.0,-609.0596106792023,-335.48817451327807,-449.1633268043706
415710.0,7987.0,415710.0,23325.0,415710.0,19784.0,-620.7214768933211,-339.1778623158926,-454.20820840906356
415710.0,7977.0,415710.0,23357.0,415710.0,19795.0,-632.3625694851798,-342.8709046167222,-459.2495361639448
415710.0,7962.0,415710.0,23392.0,415710.0,19790.0,-643.9834782602652,-346.57062033145365,-464.29073616960744
415710.0,7946.0,415710.0,23378.0,415710.0,19806.0,-655.5855330950363,-350.2811950008186,-469.3357313387844
415710.0,7963.0,415710.0,23362.0,415710.0,19794.0,-667.1708173134555,-354.0070978761295,-474.388695136512
415710.0,7955.0,415710.0,23413.0,415710.0,19809.0,-678.7420118335491,-357.7528144422621,-479.4537891350225
415720.0,7970.0,415720.0,23432.0,415720.0,19831.0,-690.302013357948,-361.52251580582026,-484.5348700874935
415720.0,7946.0,415720.0,23418.0,415720.0,19815.0,-701.853484379147,-365.31935518249185,-489.63507330093694
415720.0,7919.0,415720.0,23381.0,415720.0,19776.0,-713.3985818072874,-369.1449276418697,-494.7565028931452
415720.0,7897.0,415720.0,23319.0,415720.0,19746.0,-724.9390381795636,-372.999490009427,-499.90043964967373
415720.0,7876.0,415720.0,23311.0,415720.0,19735.0,-736.4765063395959,-376.88288420715855,-505.06800974636974
415720.0,7862.0,415720.0,23292.0,415720.0,19729.0,-748.0129246830627,-380.79560142071205,-510.2608427630092
415730.0,7851.0,415730.0,23316.0,415730.0,19728.0,-759.5507733955174,-384.7394406814054,-515.4814214571893
415730.0,7827.0,415730.0,23336.0,415730.0,19739.0,-771.0932297125911,-388.7175736326296,-520.7331333592008
415730.0,7854.0,415730.0,23328.0,415730.0,19742.0,-782.6442302168446,-392.73415505732726,-526.020101008031
415730.0,7847.0,415730.0,23341.0,415730.0,19772.0,-794.2083085289362,-396.79383928970884,-531.346825125082
415730.0,7852.0,415730.0,23350.0,415730.0,19753.0,-805.7901637489522,-400.9014189212092,-536.7176972621378
415730.0,7854.0,415730.0,23406.0,415730.0,19768.0,-817.3941639043131,-405.0613792384015,-542.1365517774248
415741.0,7844.0,415741.0,23412.0,415741.0,19751.0,-829.0239238977836,-409.27710718760574,-547.606398664478
415741.0,7819.0,415741.0,23359.0,415741.0,19745.0,-840.682018534144,-413.55004209990835,-553.1293209249211
415741.0,7780.0,415741.0,23303.0,415741.0,19712.0,-852.3699903877433,-417.87954315937606,-558.7065485319638
415741.0,7746.0,415741.0,23280.0,415741.0,19692.0,-864.0887455197771,-422.263738675443,-564.3387797460972
415741.0,7727.0,415741.0,23288.0,415741.0,19700.0,-875.8391933079586,-426.7006589890899,-570.0266424820431
415741.0,7726.0,415741.0,23259.0,415741.0,19676.0,-887.6228106056949,-431.1889346406967,-575.7710305921386
415751.0,7730.0,415751.0,23261.0,415751.0,19697.0,-899.4418549703837,-435.728092231484,-581.5732158792466
415751.0,7734.0,415751.0,23308.0,415751.0,19683.0,-911.2991864373587,-440.3186382464872,-587.4348005673514
415751.0,7730.0,415751.0,23309.0,415751.0,19706.0,-923.1978677620998,-444.9617305065289,-593.3575324503273
415751.0,7697.0,415751.0,23287.0,415751.0,19691.0,-935.1408101751817,-449.65854449461676,-599.3430211207149
415751.0,7722.0,415751.0,23343.0,415751.0,19706.0,-947.1306224070511,-454.4097979577059,-605.39244224597
415751.0,7738.0,415751.0,23351.0,415751.0,19715.0,-959.169424095476,-459.2153001891907,-611.5062419872454
415762.0,7715.0,415762.0,23355.0,415762.0,19701.0,-971.2583563669932,-464.073228491869,-617.6838030772714
415762.0,7686.0,415762.0,23296.0,415762.0,19683.0,-983.3971173731388,-468.9795608644956,-623.9232101602605
415762.0,7643.0,415762.0,23229.0,415762.0,19686.0,-995.5840023711996,-473.92831256522146,-630.2212702428701
415762.0,7623.0,415762.0,23234.0,415762.0,19637.0,-1007.8164159808441,-478.9125847731865,-636.5737134410134
415762.0,7599.0,415762.0,23212.0,415762.0,19626.0,-1020.0915025168708,-483.9256990155626,-642.9755599567682
415762.0,7590.0,415762.0,23197.0,415762.0,19630.0,-1032.406623297012,-488.96185295190134,-649.4216169910462
415772.0,7586.0,415772.0,23215.0,415772.0,19641.0,-1044.7595919679222,-494.0164130724338,-655.9067556446131
415772.0,7592.0,415772.0,23259.0,415772.0,19627.0,-1057.1486517426079,-499.08587484897237,-662.4257959562548
415772.0,7585.0,415772.0,23252.0,415772.0,19641.0,-1069.5722229535213,-504.1673124031076,-668.9732532088393
415772.0,7585.0,415772.0,23255.0,415772.0,19630.0,-1082.0285484767637,-509.2576233932036,-675.5431237609844
415772.0,7580.0,415772.0,23312.0,415772.0,19664.0,-1094.5153585075855,-514.3529253988061,-682.1286296370315
415772.0,7595.0,415772.0,23311.0,415772.0,19660.0,-1107.0295345135278,-519.4478711866311,-688.7218026752712
415782.0,7563.0,415782.0,23253.0,415782.0,19636.0,-1119.5667360184927,-524.5349153740224,-695.3130157166579
415782.0,7541.0,415782.0,23208.0,415782.0,19601.0,-1132.1211704352852,-529.604263231577,-701.890845603018
415782.0,7506.0,415782.0,23187.0,415782.0,19585.0,-1144.685726675475,-534.6447184061385,-708.4424463843336
415782.0,7500.0,415782.0,23190.0,415782.0,19584.0,-1157.2523735613295,-539.6447094288903,-714.954111329789
415782.0,7477.0,415782.0,23162.0,415782.0,19570.0,-1169.8125298274456,-544.5929044329146,-721.4116396454746
415782.0,7478.0,415782.0,23202.0,415782.0,19572.0,-1182.357256212805,-549.4784286104821,-727.8004638148306
415793.0,7471.0,415793.0,23193.0,415793.0,19576.0,-1194.8772678949779,-554.2907657213295,-734.1056432517082
415793.0,7469.0,415793.0,23213.0,415793.0,19580.0,-1207.3627898170728,-559.0193763845114,-740.3117247374378
415793.0,7449.0,415793.0,23206.0,415793.0,19580.0,-1219.803346277614,-563.6532459889834,-746.4024863170752
415793.0,7440.0,415793.0,23240.0,415793.0,19584.0,-1232.187630810407,-568.1804779222214,-752.3606602729147
415793.0,7470.0,415793.0,23266.0,415793.0,19608.0,-1244.5034040798334,-572.5877665359124,-758.1676316570205
415793.0,7455.0,415793.0,23244.0,415793.0,19579.0,-1256.73717124421,-576.8596976257779,-763.8030704484561
415803.0,7433.0,415803.0,23210.0,415803.0,19559.0,-1268.8737140660776,-580.9782856552565,-769.2447124559052
415803.0,7397.0,415803.0,23134.0,415803.0,19521.0,-1280.8959193815267,-584.9232622497163,-774.4685830637018
415803.0,7363.0,415803.0,23114.0,415803.0,19519.0,-1292.785090604982,-588.6731468939636,-779.4495795424717
415803.0,7362.0,415803.0,23098.0,415803.0,19490.0,-1304.5214979505913,-592.2065662136736,-784.1620767556952
415803.0,7351.0,415803.0,23124.0,415803.0,19502.0,-1316.0847895342017,-595.5031465974989,-788.5803668363205
415803.0,7365.0,415803.0,23162.0,415803.0,19515.0,-1327.4540494756131,-598.5436327597768,-792.6788466360487
415813.0,7353.0,415813.0,23146.0,415813.0,19509.0,-1338.6075623464503,-601.3093705128706,-796.4318930647021
415813.0,7336.0,415813.0,23155.0,415813.0,19501.0,-1349.5225153468243,-603.7816906615726,-799.813617377962
415813.0,7341.0,415813.0,23160.0,415813.0,19507.0,-1360.1748372414145,-605.941581160253,-802.7977582801913
415813.0,7344.0,415813.0,23203.0,415813.0,19521.0,-1370.5390918242153,-607.7694336292384,-805.3576337332709
415813.0,7338.0,415813.0,23235.0,415813.0,19529.0,-1380.588240512041,-609.2444702271791,-807.4659378090391
415813.0,7316.0,415813.0,23191.0,415813.0,19501.0,-1390.2933760790218,-610.3439446131763,-809.0944664233417
415824.0,7285.0,415824.0,23089.0,415824.0,19504.0,-1399.6236955403026,-611.0429210937007,-810.2140662761875
415824.0,7251.0,415824.0,23088.0,415824.0,19461.0,-1408.546834543051,-611.3152661127392,-810.7949111198614
415824.0,7249.0,415824.0,23104.0,415824.0,19458.0,-1417.029430691761,-611.1351425557016,-810.8070132029519
415824.0,7224.0,415824.0,23101.0,415824.0,19443.0,-1425.0376294801335,-610.4778157269135,-810.220833234765
415824.0,7231.0,415824.0,23093.0,415824.0,19478.0,-1432.537380099459,-609.3197313492975,-809.0077287723174
415824.0,7234.0,415824.0,23122.0,415824.0,19494.0,-1439.4945222140661,-607.638463377252,-807.1399708014941
415834.0,7214.0,415834.0,23119.0,415834.0,19451.0,-1445.8747012308195,-605.4126234519791,-804.5904630027611
415834.0,7212.0,415834.0,23114.0,415834.0,19469.0,-1451.6432872076782,-602.6216801094761,-801.3326867178337
415834.0,7217.0,415834.0,23141.0,415834.0,19481.0,-1456.765399699151,-599.2458462844356,-797.3409554660204
415834.0,7235.0,415834.0,23206.0,415834.0,19498.0,-1461.2058453829575,-595.2658576897184,-792.5905063167991
415834.0,7223.0,415834.0,23182.0,415834.0,19483.0,-1464.9288481749945,-590.6623351115879,-787.0573378806382
415834.0,7194.0,415834.0,23127.0,415834.0,19492.0,-1467.8978279618648,-585.4152331320222,-780.7181478454721
415844.0,7169.0,415844.0,23098.0,415844.0,19457.0,-1470.075577188677,-579.5042157502569,-773.5505509449292
415844.0,7134.0,415844.0,23084.0,415844.0,19443.0,-1471.4248729089736,-572.9098320519178,-765.5335942973293
415844.0,7146.0,415844.0,23056.0,415844.0,19449.0,-1471.9092502665576,-565.6147356989379,-756.6484939296377
415844.0,7129.0,415844.0,23076.0,415844.0,19443.0,-1471.4936046893752,-557.6046129142103,-746.8793138800212
415844.0,7139.0,415844.0,23117.0,415844.0,19465.0,-1470.14450456636,-548.8686980841544,-736.2133901516756
415844.0,7162.0,415844.0,23101.0,415844.0,19488.0,-1467.8302802956684,-539.3997580344271,-724.6414959778461
415855.0,7144.0,415855.0,23103.0,415855.0,19477.0,-1464.5209332813745,-529.1939095928258,-712.1578135620844
415855.0,7157.0,415855.0,23153.0,415855.0,19504.0,-1460.1880278000217,-518.2506430365582,-698.7599190089026
415855.0,7168.0,415855.0,23209.0,415855.0,19549.0,-1454.8047063437257,-506.5726690677785,-684.4488008684622
415855.0,7203.0,415855.0,23251.0,415855.0,19561.0,-1448.345635082835,-494.1651562624404,-669.2286411954491
415855.0,7173.0,415855.0,23208.0,415855.0,19537.0,-1440.7867771077586,-481.03477984577177,-653.1065088456177
415855.0,7158.0,415855.0,23156.0,415855.0,19549.0,-1432.1053585383688,-467.1895246866242,-636.0924788982124
415865.0,7146.0,415865.0,23140.0,415865.0,19572.0,-1422.2803419516822,-452.63964501308993,-618.2001354736403
415865.0,7147.0,415865.0,23164.0,415865.0,19579.0,-1411.2931812004954,-437.3991006094322,-599.446967873706
415865.0,7141.0,415865.0,23198.0,415865.0,19587.0,-1399.1284960466896,-421.486479546502,-579.8545705530872
415865.0,7179.0,415865.0,23222.0,415865.0,19618.0,-1385.7745397030862,-404.92512365848626,-559.4488487206405
415865.0,7198.0,415865.0,23262.0,415865.0,19668.0,-1371.2233606103036,-387.74280626118156,-538.2601216095527
415865.0,7221.0,415865.0,23334.0,415865.0,19720.0,-1355.4706446578639,-369.9711961089501,-516.3228392551816
415875.0,7227.0,415875.0,23346.0,415875.0,19752.0,-1338.5154870224246,-351.6450702714864,-493.67493001440084
415875.0,7278.0,415875.0,23383.0,415875.0,19798.0,-1320.3602657785764,-332.8014833572916,-470.357081274804
415875.0,7308.0,415875.0,23493.0,415875.0,19855.0,-1301.0104452959672,-313.4790417234816,-446.4120958179303
415875.0,7332.0,415875.0,23486.0,415875.0,19859.0,-1280.4741838764398,-293.7169576896344,-421.88427598183716
415875.0,7341.0,415875.0,23437.0,415875.0,19881.0,-1258.7619842546928,-273.5541840507463,-396.8190143543522
415875.0,7347.0,415875.0,23445.0,415875.0,19902.0,-1235.8866619245493,-253.02956663026185,-371.2627858659099
415886.0,7348.0,415886.0,23465.0,415886.0,19898.0,-1211.863659280063,-232.1828334977999,-345.2634042217028
415886.0,7371.0,415886.0,23449.0,415886.0,19960.0,-1186.7115634890329,-211.05545629331434,-318.87033676768067
415886.0,7390.0,415886.0,23525.0,415886.0,19998.0,-1160.4526070036386,-189.69110510787982,-292.13482327173847
415886.0,7432.0,415886.0,23578.0,415886.0,20023.0,-1133.112969985375,-168.1356389054969,-265.1096310701982
415886.0,7490.0,415886.0,23615.0,415886.0,20090.0,-1104.722780707305,-146.43647222113154,-237.84864931597582
415886.0,7523.0,415886.0,23634.0,415886.0,20129.0,-1075.315780703238,-124.64172139920149,-210.40642788009086
415896.0,7565.0,415896.0,23697.0,415896.0,20168.0,-1044.9288358235522,-102.7996064429166,-182.83759440808575
415896.0,7636.0,415896.0,23794.0,415896.0,20221.0,-1013.6014762664997,-80.95782562968526,-155.19627526511977
415896.0,7679.0,415896.0,23816.0,415896.0,20251.0,-981.3753510677489,-59.162452077046964,-127.53559550851776
