c_ts,c_val,d_ts,d_val,e_ts,e_val,c_val_filtered,d_val_filtered,e_val_filtered
379775.0,15994.0,379775.0,15375.0,379775.0,34405.0,62.762541519698175,135.93601854413592,237.46846983593557
379775.0,15988.0,379775.0,15353.0,379775.0,34391.0,71.67580045225428,139.75194298194506,245.777230120556
379786.0,15985.0,379786.0,15344.0,379786.0,34411.0,80.91966529970748,143.66561821036288,254.32501431356076
379786.0,16009.0,379786.0,15362.0,379786.0,34428.0,90.49338254766114,147.6766572965739,263.1075898968687
379786.0,16012.0,379786.0,15389.0,379786.0,34432.0,100.39509758641336,151.7836135229479,272.1198109211371
379786.0,16039.0,379786.0,15390.0,379786.0,34428.0,110.62190662886732,155.98420372795033,281.35575454858713
379786.0,16028.0,379786.0,15369.0,379786.0,34423.0,121.16998531737927,160.27562785551424,290.8086703420434
379786.0,16052.0,379786.0,15364.0,379786.0,34417.0,132.03464638247792,164.6545517090574,300.47070404257977
379796.0,16020.0,379796.0,15392.0,379796.0,34441.0,143.21024755317393,169.11682383075964,310.3325640265572
379796.0,16076.0,379796.0,15409.0,379796.0,34471.0,154.68998022894974,173.65739814139368,320.38339985433396
379796.0,16091.0,379796.0,15418.0,379796.0,34474.0,166.46580420598224,178.27063449120814,330.611022730812
379796.0,16090.0,379796.0,15378.0,379796.0,34477.0,178.52869462402478,182.9505988477569,341.00221526265466
379796.0,16111.0,379796.0,15418.0,379796.0,34486.0,190.8688958123736,187.6910071266429,351.5428293704425
379796.0,16100.0,379796.0,15395.0,379796.0,34484.0,203.47593138506363,192.48500510994648,362.217699090187
379806.0,16122.0,379806.0,15417.0,379806.0,34505.0,216.33846804003338,197.32508619115146,373.01052454909063
379806.0,16133.0,379806.0,15429.0,379806.0,34542.0,229.44417304045382,202.20313502746936,383.90388545752137
379806.0,16145.0,379806.0,15429.0,379806.0,34528.0,242.77966288648128,207.11056293892406,394.8794797588598
379806.0,16155.0,379806.0,15421.0,379806.0,34526.0,256.3305172706845,212.03844424800883,405.9183289633927
379806.0,16170.0,379806.0,15450.0,379806.0,34545.0,270.08126970852044,216.9775263423911,417.00067755580915
379806.0,16192.0,379806.0,15423.0,379806.0,34554.0,284.0154076914214,221.91821088715756,428.1058056522665
379817.0,16211.0,379817.0,15424.0,379817.0,34558.0,298.1154638125921,226.85049839155704,439.2119983943034
379817.0,16217.0,379817.0,15446.0,379817.0,34605.0,312.3631720917631,231.7638053751479,450.29663430046435
379817.0,16247.0,379817.0,15492.0,379817.0,34606.0,326.73959292533544,236.64696206282701,461.3364297041078
379817.0,16233.0,379817.0,15448.0,379817.0,34613.0,341.2251708258946,241.48859129797154,472.30778536584853
379817.0,16261.0,379817.0,15444.0,379817.0,34595.0,355.7996972326409,246.27735905578623,483.186912216235
379817.0,16266.0,379817.0,15449.0,379817.0,34622.0,370.4421972410344,251.00171241740398,493.9496358056324
379827.0,16286.0,379827.0,15487.0,379827.0,34642.0,385.13086030743824,255.6495647564447,504.5712060508846
379827.0,16317.0,379827.0,15492.0,379827.0,34668.0,399.8430844160288,260.2084344427832,515.0264226908903
379827.0,16336.0,379827.0,15495.0,379827.0,34677.0,414.5556647701237,264.665869485106,525.2900084446601
379827.0,16346.0,379827.0,15478.0,379827.0,34692.0,429.2450751214622,269.00970317602776,535.3369696236725
379827.0,16350.0,379827.0,15489.0,379827.0,34667.0,443.88763809127727,273.2279832897176,545.1427588302561
379827.0,16361.0,379827.0,15497.0,379827.0,34702.0,458.45947798690054,277.3087998579721,554.6831899559934
379838.0,16381.0,379838.0,15507.0,379838.0,34707.0,472.93638032825356,281.2402709482461,563.9343147173606
379838.0,16416.0,379838.0,15509.0,379838.0,34738.0,487.2937753967732,285.010682781879,572.8725347134734
379838.0,16412.0,379838.0,15528.0,379838.0,34741.0,501.50692146912724,288.60866112870957,581.4749174000087
379838.0,16434.0,379838.0,15499.0,379838.0,34720.0,515.5510983010918,292.0233015010573,589.7194415142503
379838.0,16438.0,379838.0,15499.0,379838.0,34740.0,529.4016457168385,295.2441209009943,597.5849521058261
379838.0,16461.0,379838.0,15523.0,379838.0,34750.0,543.0339310761537,298.2608375456477,605.0509736168598
379848.0,16483.0,379848.0,15543.0,379848.0,34771.0,556.423388078723,301.06334115601317,612.0977237049337
379848.0,16508.0,379848.0,15547.0,379848.0,34791.0,569.5456985328599,303.6420342518962,618.7063891822698
379848.0,16511.0,379848.0,15545.0,379848.0,34794.0,582.3770672894259,305.9882432426926,624.8595088816396
379848.0,16516.0,379848.0,15532.0,379848.0,34778.0,594.8943988728603,308.0943879673695,630.5412515623996
379848.0,16545.0,379848.0,15540.0,379848.0,34783.0,607.075303724389,309.9539018665191,635.7374052602715
379848.0,16547.0,379848.0,15544.0,379848.0,34811.0,618.8981068206151,311.56110742684575,640.4352283467593
379858.0,16569.0,379858.0,15546.0,379858.0,34796.0,630.3419524833653,312.91121710333533,644.6234825055819
379858.0,16596.0,379858.0,15550.0,379858.0,34811.0,641.3869635838266,314.0004295469116,648.2926055395615
379858.0,16601.0,379858.0,15556.0,379858.0,34806.0,652.014482122455,314.826040342427,651.4348098558146
379858.0,16604.0,379858.0,15540.0,379858.0,34826.0,662.2073088531165,315.3865329748311,654.0441494344448
379858.0,16598.0,379858.0,15537.0,379858.0,34812.0,671.9497361346052,315.6815630898443,656.1166506449875
379858.0,16630.0,379858.0,15550.0,379858.0,34833.0,681.227406945626,315.71184216907636,657.6504585313494
379869.0,16646.0,379869.0,15558.0,379869.0,34822.0,690.0272940116356,315.4791331209158,658.6459683351497
379869.0,16644.0,379869.0,15550.0,379869.0,34820.0,698.3379128365902,314.9864366880835,659.1059342198512
379869.0,16655.0,379869.0,15537.0,379869.0,34813.0,706.1495262140368,314.23814195640693,659.0354843504108
379869.0,16652.0,379869.0,15526.0,379869.0,34792.0,713.4541705953263,313.2399465890565,658.4420058115156
379869.0,16653.0,379869.0,15528.0,379869.0,34812.0,720.2455734361727,311.9986275929878,657.33496395773
379869.0,16677.0,379869.0,15519.0,379869.0,34807.0,726.5190649898339,310.52185468793596,655.7258279731642
379879.0,16681.0,379879.0,15537.0,379879.0,34810.0,732.2716142688039,308.81814117497396,653.6282014956021
379879.0,16672.0,379879.0,15551.0,379879.0,34785.0,737.5019771836437,306.89698872010496,651.0579778210754
379879.0,16703.0,379879.0,15501.0,379879.0,34778.0,742.2107889874837,304.7691428023523,648.033298661056
379879.0,16677.0,379879.0,15496.0,379879.0,34751.0,746.400609160004,302.446576033929,644.5743078423596
379879.0,16681.0,379879.0,15494.0,379879.0,34741.0,750.0759227570998,299.94209377152663,640.7028005502884
379879.0,16696.0,379879.0,15503.0,379879.0,34752.0,753.2430293374921,297.26901292254564,636.4419131738903
379889.0,16697.0,379889.0,15496.0,379889.0,34756.0,755.9099933614252,294.44117459376884,631.8160635164975
379889.0,16683.0,379889.0,15475.0,379889.0,34745.0,758.0867287115666,291.4730533770708,626.8511689538302
379889.0,16673.0,379889.0,15464.0,379889.0,34709.0,759.7849661343689,288.3796795029365,621.5748240229561
379889.0,16665.0,379889.0,15449.0,379889.0,34690.0,761.018000072489,285.17636125134806,616.016124948166
379889.0,16670.0,379889.0,15444.0,379889.0,34675.0,761.8003925982489,281.8783751044344,610.2052110413258
379889.0,16674.0,379889.0,15478.0,379889.0,34678.0,762.147822226786,278.50082349599296,604.1728579755678
379900.0,16678.0,379900.0,15454.0,379900.0,34659.0,762.0771216610597,275.0588033476422,597.9503162367243
379900.0,16662.0,379900.0,15444.0,379900.0,34630.0,761.6063865853811,271.5676825286784,591.5692440033291
379900.0,16652.0,379900.0,15419.0,379900.0,34628.0,760.7549667560418,268.04309317068504,585.0615067879864
379900.0,16631.0,379900.0,15414.0,379900.0,34604.0,759.543251783669,264.50062514889447,578.4588934092794
379900.0,16643.0,379900.0,15409.0,379900.0,34614.0,757.9923582401359,260.9554964755701,571.7929293988643
379900.0,16643.0,379900.0,15430.0,379900.0,34591.0,756.1239461129794,257.42242675975024,565.0948333608735
379910.0,16632.0,379910.0,15427.0,379910.0,34578.0,753.9602509453873,253.91580430844235,558.3955181241673
379910.0,16625.0,379910.0,15392.0,379910.0,34562.0,751.524144778633,250.44995008968894,551.7254980631701
379910.0,16604.0,379910.0,15394.0,379910.0,34535.0,748.8390470896824,247.03911584357314,545.1146732542106
379910.0,16597.0,379910.0,15393.0,379910.0,34526.0,745.9286951027209,243.69724420831542,538.5920380499598
379910.0,16591.0,379910.0,15389.0,379910.0,34521.0,742.8168779520089,240.43783847988917,532.1854041734922
379910.0,16597.0,379910.0,15383.0,379910.0,34523.0,739.5272755903885,237.27400024217968,525.9212911972004
379920.0,16593.0,379920.0,15362.0,379920.0,34497.0,736.0834785757755,234.21843205853924,519.8249855297952
379920.0,16561.0,379920.0,15352.0,379920.0,34490.0,732.5090584509076,231.28328337722138,513.9205606320269
379920.0,16559.0,379920.0,15344.0,379920.0,34466.0,728.8274552246854,228.47988173866167,508.230736218176
379920.0,16546.0,379920.0,15339.0,379920.0,34459.0,725.0616933351839,225.8184905537001,502.7766464936587
379920.0,16552.0,379920.0,15339.0,379920.0,34466.0,721.2341681834719,223.30818010812203,497.57765835416745
379920.0,16543.0,379920.0,15373.0,379920.0,34454.0,717.3666117753244,220.95687824440077,492.65136433284675
379931.0,16526.0,379931.0,15340.0,379931.0,34419.0,713.4801254416857,218.77164494651782,488.01364038626696
379931.0,16524.0,379931.0,15317.0,379931.0,34417.0,709.5951291786757,216.7588791523875,483.6784927232725
379931.0,16497.0,379931.0,15320.0,379931.0,34397.0,705.7312026393159,214.92412567347293,479.65772149482524
379931.0,16507.0,379931.0,15317.0,379931.0,34411.0,701.9068859232598,213.2717228371279,475.9606740946797
379931.0,16499.0,379931.0,15323.0,379931.0,34415.0,698.1395447653489,211.80467518032995,472.59424553971974
379931.0,16503.0,379931.0,15340.0,379931.0,34429.0,694.4453905904047,210.5247733160263,469.563141814641
379941.0,16491.0,379941.0,15308.0,379941.0,34410.0,690.8395941594604,209.4328111176668,466.87026429239614
379941.0,16477.0,379941.0,15317.0,379941.0,34393.0,687.3363384780293,208.52867755191906,464.5169297272754
379941.0,16470.0,379941.0,15296.0,379941.0,34385.0,683.9487335725382,207.81122599350186,462.5027739433768
379941.0,16448.0,379941.0,15302.0,379941.0,34376.0,680.6886250550408,207.27807280437543,460.82549297661103
379941.0,16461.0,379941.0,15338.0,379941.0,34402.0,677.5663850965033,206.92553770539416,459.48069488406503
379941.0,16452.0,379941.0,15325.0,379941.0,34410.0,674.5908088732217,206.74888993735732,458.4620525235058
379951.0,16454.0,379951.0,15309.0,379951.0,34375.0,671.7691687670851,206.74270807360273,457.76164816074834
379951.0,16443.0,379951.0,15300.0,379951.0,34379.0,669.1073127053465,206.9009266289342,457.3701013136522
379951.0,16432.0,379951.0,15289.0,379951.0,34379.0,666.6096789081461,207.2165574962204,457.2763971131082
379951.0,16443.0,379951.0,15316.0,379951.0,34380.0,664.2792369713545,207.68142841623182,457.46776356215975
379951.0,16451.0,379951.0,15329.0,379951.0,34405.0,662.1175129893397,208.2862220284548,457.9297761354744
379951.0,16449.0,379951.0,15334.0,379951.0,34389.0,660.1248058759388,209.02084005005958,458.64662334652184
379962.0,16448.0,379962.0,15320.0,379962.0,34395.0,658.3004612648399,209.87479336948405,459.6013677991559
379962.0,16416.0,379962.0,15312.0,379962.0,34382.0,656.6429844137147,210.83731279486466,460.7760372853464
379962.0,16419.0,379962.0,15322.0,379962.0,34388.0,655.1498929684844,211.89721722051132,462.15157682913
379962.0,16433.0,379962.0,15334.0,379962.0,34422.0,653.817481651685,213.0428309742921,463.7078686747984
379962.0,16434.0,379962.0,15341.0,379962.0,34412.0,652.6408207263025,214.26213284132797,465.42400499069265
379962.0,16432.0,379962.0,15326.0,379962.0,34422.0,651.6139924008311,215.5429995264715,467.2786945344252
379972.0,16428.0,379972.0,15326.0,379972.0,34410.0,650.7302961771743,216.87329097670843,469.2505125343128
379972.0,16416.0,379972.0,15324.0,379972.0,34400.0,649.9822978582711,218.24074759772992,471.3179155454855
379972.0,16427.0,379972.0,15340.0,379972.0,34426.0,649.3617811173377,219.63290010478585,473.459147441071
379972.0,16424.0,379972.0,15336.0,379972.0,34432.0,648.8597334090841,221.03713608777983,475.65228007959087
379972.0,16429.0,379972.0,15356.0,379972.0,34428.0,648.4664413644657,222.44088524161216,477.8754783925114
379972.0,16424.0,379972.0,15353.0,379972.0,34445.0,648.1716271514032,223.8318508124446,480.1072781064823
379982.0,16416.0,379982.0,15336.0,379982.0,34405.0,647.9645249268149,225.1981925477735,482.32670680886184
379982.0,16413.0,379982.0,15331.0,379982.0,34423.0,647.8338552117649,226.52849560041676,484.51319440714144
379982.0,16429.0,379982.0,15344.0,379982.0,34447.0,647.7677744375709,227.81156624300417,486.64642341392073
379982.0,16435.0,379982.0,15363.0,379982.0,34461.0,647.7539720416827,229.03637248590707,488.7064941085773
379982.0,16437.0,379982.0,15360.0,379982.0,34440.0,647.7799418014193,230.19227769089852,490.67436677762294
379982.0,16428.0,379982.0,15351.0,379982.0,34443.0,647.8332395933062,231.26932873559798,492.5321162163838
379993.0,16426.0,379993.0,15337.0,379993.0,34426.0,647.9015741752966,232.25830563001873,494.2628493476889
379993.0,16415.0,379993.0,15329.0,379993.0,34442.0,647.9727496045294,233.15050659706753,495.8505192622819
379993.0,16430.0,379993.0,15352.0,379993.0,34426.0,648.0345750385113,233.93749354864536,497.2798264563273
379993.0,16429.0,379993.0,15367.0,379993.0,34441.0,648.0748779020472,234.61109572614458,498.53621587914813
379993.0,16428.0,379993.0,15372.0,379993.0,34441.0,648.0816450966689,235.1637466540102,499.6059379044411
379993.0,16416.0,379993.0,15350.0,379993.0,34442.0,648.0431408644301,235.58885515589498,500.47617976355804
380002.0,16414.0,380002.0,15339.0,380002.0,34427.0,647.9478802686708,235.88086057024128,501.135182885466
380002.0,16419.0,380002.0,15347.0,380002.0,34425.0,647.7845335468984,236.034994636973,501.5722170363814
380002.0,16429.0,380002.0,15354.0,380002.0,34440.0,647.5419316979901,236.04709426727766,501.7774844905236
380002.0,16440.0,380002.0,15359.0,380002.0,34436.0,647.2092606873045,235.91367177004867,501.7421609957369
380002.0,16421.0,380002.0,15356.0,380002.0,34422.0,646.7763434406482,235.63212124492446,501.45854956321705
380002.0,16411.0,380002.0,15323.0,380002.0,34407.0,646.233767125921,235.20081031068173,500.9200923746606
380012.0,16402.0,380012.0,15309.0,380012.0,34399.0,645.5727427199643,234.61885690367933,500.12115605747505
380012.0,16409.0,380012.0,15326.0,380012.0,34404.0,644.7848772748266,233.88569441010955,499.05677672133936
380012.0,16408.0,380012.0,15338.0,380012.0,34426.0,643.8620878476303,233.00085419107762,497.7226098076297
380012.0,16418.0,380012.0,15334.0,380012.0,34415.0,642.7966978387035,231.9641496778349,496.11517192936986
380012.0,16413.0,380012.0,15326.0,380012.0,34402.0,641.5816310000014,230.77595646841922,494.2321461567026
380012.0,16398.0,380012.0,15314.0,380012.0,34380.0,640.2105697921982,229.4372848701616,492.07242503641726
380023.0,16387.0,380023.0,15286.0,380023.0,34371.0,638.677936655088,227.94960439889886,489.6358590372672
380023.0,16387.0,380023.0,15321.0,380023.0,34365.0,636.9787145831114,226.31455781523368,486.92293306509856
380023.0,16396.0,380023.0,15328.0,380023.0,34384.0,635.1083176519182,224.53389856421245,483.93460782798803
380023.0,16396.0,380023.0,15314.0,380023.0,34382.0,633.0626674828902,222.60979120006857,480.67245352802956
380023.0,16365.0,380023.0,15297.0,380023.0,34350.0,630.8383462730739,220.54507808682973,477.1389159708127
380023.0,16368.0,380023.0,15294.0,380023.0,34323.0,628.4325593884353,218.34320064837124,473.337312316921
380033.0,16357.0,380033.0,15267.0,380033.0,34328.0,625.8429197710685,216.0079268531261,469.2714572316206
380033.0,16368.0,380033.0,15278.0,380033.0,34335.0,623.0673132854527,213.54306898171322,464.94533621077665
380033.0,16358.0,380033.0,15285.0,380033.0,34345.0,620.1039482891742,210.9523210752805,460.36317808563774
380033.0,16358.0,380033.0,15287.0,380033.0,34313.0,616.9514842602515,208.23935355383063,455.52976872404685
380033.0,16341.0,380033.0,15273.0,380033.0,34314.0,613.6091079932575,205.40804953047552,450.4506172315332
380033.0,16340.0,380033.0,15259.0,380033.0,34281.0,610.0765068108211,202.46259937872034,445.13184699763826
380043.0,16331.0,380043.0,15261.0,380043.0,34292.0,606.3537934542061,199.4073886651991,439.5799753275543
380043.0,16345.0,380043.0,15268.0,380043.0,34275.0,602.4414959885869,196.24688977730324,433.8017696649216
380043.0,16324.0,380043.0,15268.0,380043.0,34280.0,598.340667356437,192.98574530803248,427.8042550707624
380043.0,16321.0,380043.0,15249.0,380043.0,34254.0,594.0530012295765,189.62894995976998,421.59479178740423
380043.0,16306.0,380043.0,15228.0,380043.0,34261.0,589.5808205563566,186.18186570665617,415.18110528029933
380043.0,16284.0,380043.0,15228.0,380043.0,34217.0,584.9269427934893,182.64998910363366,408.5712320886239
380054.0,16290.0,380054.0,15214.0,380054.0,34232.0,580.0944804336336,179.03867091708287,401.7733731368478
380054.0,16296.0,380054.0,15237.0,380054.0,34204.0,575.0867285152452,175.35300039056324,394.7957291227971
380054.0,16269.0,380054.0,15222.0,380054.0,34234.0,569.9072503160709,171.59791063608898,387.64648163553755
380054.0,16272.0,380054.0,15195.0,380054.0,34190.0,564.5599749381975,167.77833296777314,380.3339521134407
380054.0,16248.0,380054.0,15212.0,380054.0,34170.0,559.0491447680579,163.89915514558973,372.86669147923965
380054.0,16240.0,380054.0,15185.0,380054.0,34170.0,553.3791794638128,159.96507038761237,365.25329375977685
380064.0,16241.0,380064.0,15188.0,380064.0,34178.0,547.5545413271205,155.9804930551336,357.5022025652802
380064.0,16246.0,380064.0,15203.0,380064.0,34173.0,541.5797233370532,151.9495408581892,349.62184810765035
380064.0,16227.0,380064.0,15189.0,380064.0,34147.0,535.4594102909797,147.87615426647602,341.62094853462884
380064.0,16209.0,380064.0,15183.0,380064.0,34136.0,529.1986064831334,143.76429834847463,333.5086231737872
380064.0,16194.0,380064.0,15162.0,380064.0,34110.0,522.802541559085,139.61800608527847,325.2942566872216
380064.0,16182.0,380064.0,15162.0,380064.0,34099.0,516.2764373539317,135.44123064882518,316.98726157035634
380075.0,16184.0,380075.0,15158.0,380075.0,34108.0,509.62532779684614,131.23768460025872,308.596902610758
380075.0,16189.0,380075.0,15162.0,380075.0,34080.0,502.85406527663343,127.01081361137332,300.1323023997486
380075.0,16157.0,380075.0,15167.0,380075.0,34075.0,495.9674809222986,122.76392887184369,291.6025304550114
380075.0,16160.0,380075.0,15153.0,380075.0,34056.0,488.970476027857,118.50041711836374,283.0165955436612
380075.0,16144.0,380075.0,15140.0,380075.0,34058.0,481.8679655353751,114.22386830056604,274.38338947730847
380075.0,16121.0,380075.0,15132.0,380075.0,34040.0,474.6647887658382,109.93801553737748,265.7117035064432
380085.0,16130.0,380085.0,15127.0,380085.0,34019.0,467.36560949707393,105.64658236063627,257.0102664293577
380085.0,16147.0,380085.0,15165.0,380085.0,34017.0,459.9749266521652,101.35327187508054,248.28769687012806
380085.0,16120.0,380085.0,15128.0,380085.0,33996.0,452.4973573395765,97.06203127675465,239.55241598486026
380085.0,16086.0,380085.0,15103.0,380085.0,33990.0,444.9378946065611,92.77729007182825,230.8126032862604
380085.0,16100.0,380085.0,15078.0,380085.0,33953.0,437.3018038135717,88.50373878959465,222.07612852851446
380085.0,16064.0,380085.0,15079.0,380085.0,33951.0,429.59438412060695,84.24578565961866,213.35037034149786
380095.0,16070.0,380095.0,15113.0,380095.0,33940.0,421.82084990156034,80.00723548407422,204.6420063539938
380095.0,16069.0,380095.0,15076.0,380095.0,33934.0,413.986307628594,75.79143138642215,195.9569445573443
380095.0,16047.0,380095.0,15091.0,380095.0,33936.0,406.09583817261625,71.60153754003042,187.30042199851437
380095.0,16030.0,380095.0,15068.0,380095.0,33919.0,398.1545750692716,67.4406227796803,178.67718763363683
380095.0,16013.0,380095.0,15061.0,380095.0,33888.0,390.1675984711184,63.311591535321696,170.0916214351256
380095.0,16016.0,380095.0,15042.0,380095.0,33914.0,382.13974782629685,59.217034841038014,161.54769852581524
380106.0,16008.0,380106.0,15082.0,380106.0,33907.0,374.0755737019172,55.15909441588815,153.04903901543554
380106.0,16010.0,380106.0,15062.0,380106.0,33881.0,365.979475137373,51.139588648403674,144.59919113612392
380106.0,15981.0,380106.0,15039.0,380106.0,33864.0,357.85588476215963,47.160297202342804,136.20180959254856
380106.0,15969.0,380106.0,15041.0,380106.0,33864.0,349.70931130049485,43.222995390145,127.86055698989713
380106.0,15952.0,380106.0,15020.0,380106.0,33830.0,341.54419276935494,39.329240277487145,119.57896094471698
380106.0,15943.0,380106.0,15033.0,380106.0,33826.0,333.36470188135746,35.48019582872632,111.36029556400865
380116.0,15945.0,380116.0,15033.0,380116.0,33819.0,325.1746532619026,31.676622513155507,103.20744063100187
380116.0,15941.0,380116.0,15032.0,380116.0,33821.0,316.9775791249907,27.91903537991419,95.12285600135363
380116.0,15924.0,380116.0,15010.0,380116.0,33794.0,308.77691863882177,24.207880818180172,87.10870551586436
380116.0,15899.0,380116.0,14990.0,380116.0,33759.0,300.5761184892805,20.54349723148391,79.16687333333607
380116.0,15867.0,380116.0,14980.0,380116.0,33770.0,292.3784704855425,16.925821159866643,71.29872083151304
380116.0,15889.0,380116.0,15004.0,380116.0,33783.0,284.1867872798835,13.354093828192106,63.50490375972845
380126.0,15879.0,380126.0,15009.0,380126.0,33762.0,276.00327429152776,9.826897988998724,55.785569343097336
380126.0,15876.0,380126.0,15013.0,380126.0,33737.0,267.8297394005719,6.3425352002557815,48.1406479675652
380126.0,15852.0,380126.0,14980.0,380126.0,33738.0,259.66785094334097,2.8993833565673413,40.569858975719285
380126.0,15833.0,380126.0,14957.0,380126.0,33721.0,251.51917074221222,-0.5041236745809101,33.07256818314431
380126.0,15833.0,380126.0,14981.0,380126.0,33709.0,243.38500258518468,-3.869837597064759,25.64772175363737
380126.0,15833.0,380126.0,14992.0,380126.0,33710.0,235.26629894712858,-7.200064573071984,18.29382811870437
380137.0,15818.0,380137.0,14979.0,380137.0,33700.0,227.16376554323614,-10.497312476705417,11.0089879716121
380137.0,15803.0,380137.0,14977.0,380137.0,33685.0,219.0780078526991,-13.76396857007228,3.7909845216598796
380137.0,15792.0,380137.0,14965.0,380137.0,33687.0,211.00954149710185,-17.002211083487225,-3.362652954569853
380137.0,15798.0,380137.0,14954.0,380137.0,33655.0,202.9587473975845,-20.214087843791162,-10.454642554303064
380137.0,15778.0,380137.0,14937.0,380137.0,33674.0,194.92592953929466,-23.401680932959152,-17.487973797888344
380137.0,15779.0,380137.0,14965.0,380137.0,33674.0,186.91144294623268,-26.56727636194671,-24.465844827650017
380147.0,15759.0,380147.0,14984.0,380147.0,33644.0,178.91577852281262,-29.713273586596586,-31.391437787580344
380147.0,15741.0,380147.0,14927.0,380147.0,33641.0,170.93956022339682,-32.84182265289735,-38.26777108514
380147.0,15720.0,380147.0,14937.0,380147.0,33632.0,162.98341405551628,-35.95469887509222,-45.09776200334784
380147.0,15720.0,380147.0,14923.0,380147.0,33620.0,155.04775139201172,-39.0535890196453,-51.88429922183957
380147.0,15710.0,380147.0,14941.0,380147.0,33609.0,147.13263858573384,-42.14032753064953,-58.63025432596635
380147.0,15707.0,380147.0,14929.0,380147.0,33624.0,139.2378338192716,-45.2168378722028,-65.33846459370602
380157.0,15694.0,380157.0,14935.0,380157.0,33618.0,131.36290213959558,-48.284950946221215,-72.01157364445817
380157.0,15693.0,380157.0,14920.0,380157.0,33585.0,123.50731963619398,-51.34627456684086,-78.6517804573948
380157.0,15669.0,380157.0,14907.0,380157.0,33580.0,115.67054248620104,-54.40218881339169,-85.26079416622372
380157.0,15668.0,380157.0,14915.0,380157.0,33553.0,107.85201456978518,-57.45395304607533,-91.84005325167482
380157.0,15649.0,380157.0,14905.0,380157.0,33568.0,100.05112176359478,-60.50278895188967,-98.39096016151984
380157.0,15660.0,380157.0,14922.0,380157.0,33545.0,92.26717792212219,-63.54982625334574,-104.91494917861701
380168.0,15641.0,380168.0,14902.0,380168.0,33552.0,84.49951339219672,-66.59594949376586,-111.41341380278186
380168.0,15606.0,380168.0,14882.0,380168.0,33516.0,76.74755274954873,-69.64171990556417,-117.88764538331759
380168.0,15596.0,380168.0,14867.0,380168.0,33495.0,69.01065511861418,-72.6875544695138,-124.33894890580268
380168.0,15599.0,380168.0,14866.0,380168.0,33493.0,61.287806135227925,-75.73408119788098,-130.76895613073782
380168.0,15610.0,380168.0,14897.0,380168.0,33508.0,53.57754405342621,-78.78233064199185,-137.1798567699821
380168.0,15587.0,380168.0,14890.0,380168.0,33520.0,45.87820906875345,-81.8335349244797,-143.57423397425032
380178.0,15581.0,380178.0,14883.0,380178.0,33471.0,38.188204246671944,-84.8887224724698,-149.9546578694281
380178.0,15570.0,380178.0,14846.0,380178.0,33484.0,30.50606168326783,-87.94854756404723,-156.32350859145419
380178.0,15544.0,380178.0,14854.0,380178.0,33473.0,22.83038477401817,-91.01351453210444,-162.6830773125331
380178.0,15557.0,380178.0,14866.0,380178.0,33466.0,15.159755677546173,-94.08427078649999,-169.0356011545456
380178.0,15561.0,380178.0,14876.0,380178.0,33456.0,7.4927516994789585,-97.16156794227271,-175.3831853739402
380178.0,15537.0,380178.0,14867.0,380178.0,33459.0,-0.17182615357592113,-100.24592543853629,-181.7277442916474
380188.0,15534.0,380188.0,14858.0,380188.0,33442.0,-7.834732995763375,-103.33734875557587,-188.07093054962962
380188.0,15508.0,380188.0,14822.0,380188.0,33425.0,-15.496270598979777,-106.43534101688505,-194.4140850162707
380188.0,15493.0,380188.0,14821.0,380188.0,33415.0,-23.156431961702992,-109.53922012002107,-200.75831657232982
380188.0,15480.0,380188.0,14817.0,380188.0,33394.0,-30.81511895389258,-112.6485248729741,-207.10468340475757
380188.0,15483.0,380188.0,14844.0,380188.0,33398.0,-38.472321735505034,-115.76317624253645,-213.45436851756403
380188.0,15473.0,380188.0,14831.0,380188.0,33400.0,-46.128128412724436,-118.88327635418497,-219.8087340754259
380199.0,15464.0,380199.0,14808.0,380199.0,33377.0,-53.78260541061297,-122.0088285697536,-226.1692140710377
380199.0,15441.0,380199.0,14805.0,380199.0,33364.0,-61.43572260429096,-125.13973886528842,-232.53723348225515
380199.0,15430.0,380199.0,14799.0,380199.0,33366.0,-69.08742844476501,-128.27604387095244,-238.9142854185929
380199.0,15432.0,380199.0,14805.0,380199.0,33356.0,-76.73779008817814,-131.41805797139722,-245.30199622281998
380199.0,15427.0,380199.0,14819.0,380199.0,33377.0,-84.38700830420771,-134.5663018531896,-251.70201253840378
380199.0,15431.0,380199.0,14820.0,380199.0,33352.0,-92.03524443098024,-137.72123070553835,-258.1157345807028
380209.0,15399.0,380209.0,14782.0,380209.0,33340.0,-99.68240306015218,-140.88295836307157,-264.54408579475364
380209.0,15380.0,380209.0,14778.0,380209.0,33318.0,-107.32810115720702,-144.05129712741063,-270.98752932738137
380209.0,15376.0,380209.0,14752.0,380209.0,33302.0,-114.97188028866026,-147.22612945485088,-277.44630497922776
380209.0,15374.0,380209.0,14796.0,380209.0,33319.0,-122.61340900678738,-150.40774522177287,-283.9206599670364
380209.0,15368.0,380209.0,14792.0,380209.0,33308.0,-130.25246291901612,-153.59678030150212,-290.41085088138334
380209.0,15351.0,380209.0,14795.0,380209.0,33300.0,-137.88878769012967,-156.79378882540817,-296.9169370727549
380219.0,15328.0,380219.0,14748.0,380219.0,33276.0,-145.5220655748725,-159.99892063931412,-303.43864271222753
380219.0,15329.0,380219.0,14743.0,380219.0,33260.0,-153.1520441816058,-163.21208035327118,-309.97545549842323
380219.0,15303.0,380219.0,14759.0,380219.0,33252.0,-160.77869593895844,-166.43335144287875,-316.5268709553984
380219.0,15316.0,380219.0,14758.0,380219.0,33250.0,-168.40229697181837,-169.66316530852419,-323.0925860385887
380219.0,15319.0,380219.0,14770.0,380219.0,33253.0,-176.02335658484503,-172.90208779567956,-329.67250445422087
380219.0,15315.0,380219.0,14738.0,380219.0,33253.0,-183.64233866271275,-176.15054088903054,-336.2665537056514
380230.0,15277.0,380230.0,14729.0,380230.0,33216.0,-191.2593692550522,-179.40877121878134,-342.8744757729802
380230.0,15265.0,380230.0,14716.0,380230.0,33203.0,-198.87425413277356,-182.67710381823832,-349.4958524930606
380230.0,15250.0,380230.0,14735.0,380230.0,33217.0,-206.48678203134455,-185.9562139935481,-356.13034541465834
380230.0,15253.0,380230.0,14752.0,380230.0,33202.0,-214.0969897943122,-189.24709552369745,-362.77778992316746
380230.0,15258.0,380230.0,14730.0,380230.0,33201.0,-221.70517288770202,-192.55072112384943,-369.43804853382335
380230.0,15242.0,380230.0,14758.0,380230.0,33187.0,-229.31167569134197,-195.86769060781808,-376.11086216203205
380240.0,15224.0,380240.0,14694.0,380240.0,33152.0,-236.91669226739634,-199.19808528567825,-382.79585925388574
380240.0,15214.0,380240.0,14705.0,380240.0,33161.0,-244.52026985445457,-202.5416277426679,-389.4927490969984
380240.0,15211.0,380240.0,14693.0,380240.0,33153.0,-252.1224240184498,-205.8980721189867,-396.2015252857917
380240.0,15194.0,380240.0,14717.0,380240.0,33165.0,-259.7231873755119,-209.26744039126424,-402.92242841180246
380240.0,15197.0,380240.0,14712.0,380240.0,33139.0,-267.3225858186664,-212.64988407795056,-409.65571655237
380240.0,15165.0,380240.0,14688.0,380240.0,33109.0,-274.9206211764372,-216.04541624003866,-416.4015572313249
380250.0,15158.0,380250.0,14685.0,380250.0,33104.0,-282.5173432789379,-219.4538618552632,-423.16023512415677
380250.0,15146.0,380250.0,14681.0,380250.0,33093.0,-290.11302155304486,-222.87503263900493,-429.9324852743408
380250.0,15148.0,380250.0,14671.0,380250.0,33109.0,-297.7082684161684,-226.30887942466063,-436.71962599374615
380250.0,15137.0,380250.0,14682.0,380250.0,33103.0,-305.30400518218687,-229.75553104218636,-443.5233963103691
380250.0,15142.0,380250.0,14667.0,380250.0,33100.0,-312.90132105710745,-233.2152541004245,-450.34563553902
380250.0,15120.0,380250.0,14652.0,380250.0,33078.0,-320.50131222037464,-236.68841866696079,-457.1880376530162
380261.0,15106.0,380261.0,14658.0,380261.0,33068.0,-328.1050061959213,-240.1755791190646,-464.05212206413864
380261.0,15100.0,380261.0,14660.0,380261.0,33065.0,-335.7134301703318,-243.67756087413898,-470.93934385920875
380261.0,15092.0,380261.0,14666.0,380261.0,33071.0,-343.3277078768009,-247.19536882498187,-477.8511309568112
380261.0,15103.0,380261.0,14683.0,380261.0,33054.0,-350.949027165383,-250.7299194799432,-484.78875100229345
380261.0,15083.0,380261.0,14647.0,380261.0,33048.0,-358.57846001450355,-254.28173236958486,-491.7531516431055
380261.0,15060.0,380261.0,14646.0,380261.0,33025.0,-366.216808990769,-257.85082151741835,-498.7449380695456
380271.0,15055.0,380271.0,14614.0,380271.0,33008.0,-373.86466833341046,-261.43691243094173,-505.7645100545426
380271.0,15035.0,380271.0,14635.0,380271.0,33017.0,-381.5226186923244,-265.03978426390614,-512.8122613363009
380271.0,15059.0,380271.0,14647.0,380271.0,33006.0,-389.1913227755457,-268.659401220083,-519.8886511028387
380271.0,15024.0,380271.0,14637.0,380271.0,33000.0,-396.8714267757849,-272.29569761692676,-526.9940969751814
380271.0,15016.0,380271.0,14612.0,380271.0,32991.0,-404.5634355275938,-275.94831409977564,-534.1288533993123
380271.0,15002.0,380271.0,14609.0,380271.0,32968.0,-412.267771845423,-279.61664321000916,-541.2929907896978
380282.0,14991.0,380282.0,14590.0,380282.0,32971.0,-419.98493908116075,-283.30010741886133,-548.4864713721337
380282.0,14985.0,380282.0,14602.0,380282.0,32972.0,-427.71562296881075,-286.9984025147203,-555.7092023273024
380282.0,14995.0,380282.0,14612.0,380282.0,32956.0,-435.4606781023539,-290.71154041659105,-562.960942792477
380282.0,14974.0,380282.0,14612.0,380282.0,32950.0,-443.22097474432917,-294.4396367842706,-570.2411699616937
380282.0,14963.0,380282.0,14578.0,380282.0,32924.0,-450.9972354608384,-298.18265389500175,-577.549074288389
380282.0,14947.0,380282.0,14580.0,380282.0,32913.0,-458.7900376235684,-301.94042055727596,-584.8837060715706
380292.0,14935.0,380292.0,14575.0,380292.0,32917.0,-466.599945332601,-305.7128724004268,-592.2441661957928
380292.0,14940.0,380292.0,14590.0,380292.0,32910.0,-474.42761694155547,-309.50016648986787,-599.6296568989518
380292.0,14940.0,380292.0,14600.0,380292.0,32896.0,-482.2737566282249,-313.302506349643,-607.0393723618208
380292.0,14913.0,380292.0,14575.0,380292.0,32888.0,-490.13893225469576,-317.11981905065886,-614.4724153309038
380292.0,14904.0,380292.0,14562.0,380292.0,32860.0,-498.023490203042,-320.95160410976854,-621.9278490846733
380292.0,14881.0,380292.0,14552.0,380292.0,32872.0,-505.9276865718758,-324.79710395991845,-629.4048362055512
380302.0,14899.0,380302.0,14559.0,380302.0,32871.0,-513.851858661975,-328.65556328029044,-636.9026881264367
380302.0,14880.0,380302.0,14571.0,380302.0,32855.0,-521.7964181836257,-332.52627770000936,-644.4207141771537
380302.0,14880.0,380302.0,14570.0,380302.0,32849.0,-529.7616843919419,-336.40837321305156,-651.9580462205474
380302.0,14855.0,380302.0,14548.0,380302.0,32827.0,-537.7477595134803,-340.3005288208183,-659.5136210395953
380302.0,14845.0,380302.0,14536.0,380302.0,32821.0,-545.754561810596,-344.2009318261254,-667.08628610358
380302.0,14837.0,380302.0,14515.0,380302.0,32807.0,-553.781957595895,-348.10752046327855,-674.6749356584892
380313.0,14833.0,380313.0,14515.0,380313.0,32815.0,-561.8298505416296,-352.0183317870469,-682.2785820653484
380313.0,14818.0,380313.0,14533.0,380313.0,32820.0,-569.8981655556989,-355.9317140621344,-689.8962551674795
380313.0,14828.0,380313.0,14528.0,380313.0,32782.0,-577.9867758000387,-359.84623777089297,-697.5267782917704
380313.0,14804.0,380313.0,14523.0,380313.0,32781.0,-586.0953930955314,-363.7604226701513,-705.1686920978474
380313.0,14771.0,380313.0,14483.0,380313.0,32752.0,-594.2235289790866,-367.6726270023546,-712.82043762068
380313.0,14772.0,380313.0,14500.0,380313.0,32739.0,-602.370692369988,-371.5812547370422,-720.4806386808602
380323.0,14775.0,380323.0,14510.0,380323.0,32765.0,-610.5366417281817,-375.48498745665916,-728.1483036013027
380323.0,14770.0,380323.0,14511.0,380323.0,32763.0,-618.7213659035407,-379.3826827402634,-735.8227256904607
380323.0,14754.0,380323.0,14492.0,380323.0,32748.0,-626.9248705882998,-383.2730807498259,-743.5030906230149
380323.0,14761.0,380323.0,14478.0,380323.0,32710.0,-635.147019295289,-387.1547136840924,-751.1882278694534
380323.0,14735.0,380323.0,14469.0,380323.0,32713.0,-643.3874491047005,-391.02609504409327,-758.8767713125134
380323.0,14714.0,380323.0,14454.0,380323.0,32717.0,-651.6455692832991,-394.88600055138903,-766.5674275561596
380333.0,14718.0,380333.0,14483.0,380333.0,32702.0,-659.9207055257714,-398.73364851187074,-774.2589897264252
380333.0,14729.0,380333.0,14487.0,380333.0,32702.0,-668.2121874679949,-402.5685975296055,-781.9501777560721
380333.0,14709.0,380333.0,14468.0,380333.0,32678.0,-676.5191649831934,-406.3903980252645,-789.6395460176429
380333.0,14683.0,380333.0,14447.0,380333.0,32686.0,-684.8403900620912,-410.198394225984,-797.3254907291563
380333.0,14678.0,380333.0,14437.0,380333.0,32647.0,-693.1742739378666,-413.99191341862144,-805.0063025413396
380333.0,14669.0,380333.0,14434.0,380333.0,32642.0,-701.5190920050966,-417.7706138070504,-812.6803068571995
380344.0,14659.0,380344.0,14461.0,380344.0,32656.0,-709.8730795735938,-421.53464493731053,-820.3460514650603
380344.0,14652.0,380344.0,14455.0,380344.0,32653.0,-718.2344205380716,-425.28446285113137,-828.0022784566684
380344.0,14637.0,380344.0,14458.0,380344.0,32629.0,-726.6012302091674,-429.02045174455094,-835.6476663140056
380344.0,14627.0,380344.0,14411.0,380344.0,32595.0,-734.9715728418136,-432.7427184142329,-843.2807469521136
380344.0,14622.0,380344.0,14416.0,380344.0,32594.0,-743.343503806159,-436.45128411418614,-850.900192039586
380344.0,14615.0,380344.0,14421.0,380344.0,32613.0,-751.7150737310409,-440.1464572809368,-858.5051185406306
380354.0,14586.0,380354.0,14438.0,380354.0,32610.0,-760.08430885168,-443.8289378590633,-866.0950006831299
380354.0,14603.0,380354.0,14423.0,380354.0,32585.0,-768.4492505996363,-447.4995702443631,-873.6693158777498
380354.0,14582.0,380354.0,14410.0,380354.0,32565.0,-776.8079735529396,-451.15910099851294,-881.2273981590536
380354.0,14564.0,380354.0,14395.0,380354.0,32554.0,-785.15852919591,-454.80821653616795,-888.7686388051817
380354.0,14552.0,380354.0,14396.0,380354.0,32547.0,-793.4989875694154,-458.4477757649189,-896.2927690507597
380354.0,14555.0,380354.0,14400.0,380354.0,32550.0,-801.8275789002689,-462.07898064241084,-903.7999861128062
380364.0,14536.0,380364.0,14409.0,380364.0,32550.0,-810.142738973412,-465.7033308193231,-911.2908739688768
380364.0,14530.0,380364.0,14396.0,380364.0,32539.0,-818.4430704481351,-469.32242101801046,-918.7661998319835
380364.0,14512.0,380364.0,14397.0,380364.0,32495.0,-826.7273577840273,-472.9377713302709,-926.2268149865257
380364.0,14502.0,380364.0,14369.0,380364.0,32522.0,-834.9946540374357,-476.55082395034754,-933.6738178122262
380364.0,14491.0,380364.0,14378.0,380364.0,32487.0,-843.2443909998998,-480.1630981997569,-941.1087644546409
380364.0,14493.0,380364.0,14365.0,380364.0,32508.0,-851.4764459277026,-483.7763742782473,-948.5336964023713
380375.0,14490.0,380375.0,14395.0,380375.0,32491.0,-859.6910859576999,-487.392725579665,-955.9510375376819
380375.0,14482.0,380375.0,14377.0,380375.0,32497.0,-867.8887983114671,-491.01432666170183,-963.3634314268107
380375.0,14446.0,380375.0,14364.0,380375.0,32455.0,-876.0701762751554,-494.64322096301134,-970.7736240079221
380375.0,14461.0,380375.0,14336.0,380375.0,32458.0,-884.2360046263692,-498.28135782803133,-978.1845595613715
380375.0,14439.0,380375.0,14349.0,380375.0,32448.0,-892.3873987828862,-501.93090889173806,-985.5996129721959
380375.0,14449.0,380375.0,14365.0,380375.0,32460.0,-900.5257973011799,-505.5944853239449,-993.0226789156131
380385.0,14446.0,380385.0,14349.0,380385.0,32445.0,-908.652815785562,-509.2750089678543,-1000.4580288128426
380385.0,14421.0,380385.0,14345.0,380385.0,32453.0,-916.7700593035818,-512.9754801351853,-1007.9100872120632
380385.0,14400.0,380385.0,14344.0,380385.0,32401.0,-924.8790794410892,-516.6989232620529,-1015.3833197124957
380385.0,14403.0,380385.0,14310.0,380385.0,32416.0,-932.9815589194616,-520.4484819978326,-1022.8823658553111
380385.0,14382.0,380385.0,14332.0,380385.0,32389.0,-941.0795071874516,-524.2275988692437,-1030.4123116028468
380385.0,14402.0,380385.0,14336.0,380385.0,32398.0,-949.1752888459234,-528.0401296611835,-1037.9788543603822
380395.0,14383.0,380395.0,14335.0,380395.0,32412.0,-957.2714888892236,-531.8901940782694,-1045.5882551410718
380395.0,14382.0,380395.0,14325.0,380395.0,32381.0,-965.3707057571565,-535.7819163662975,-1053.247108046623
380395.0,14355.0,380395.0,14295.0,380395.0,32375.0,-973.47544211009,-539.7193714623002,-1060.9621555435492
380395.0,14348.0,380395.0,14314.0,380395.0,32348.0,-981.5881802656303,-543.7067790384378,-1068.7403759799029
380395.0,14329.0,380395.0,14317.0,380395.0,32347.0,-989.7115693630157,-547.7486579388578,-1076.5892378904175
380395.0,14339.0,380395.0,14315.0,380395.0,32363.0,-997.8485825140757,-551.8497040971909,-1084.5168517079715
380406.0,14335.0,380406.0,14321.0,380406.0,32351.0,-1006.0025042185006,-556.0145294022493,-1092.5318425751518
380406.0,14319.0,380406.0,14305.0,380406.0,32344.0,-1014.1767600909877,-560.2474698055076,-1100.6430633940688
380406.0,14304.0,380406.0,14281.0,380406.0,32332.0,-1022.3748012869821,-564.5525616856435,-1108.8594250874348
380406.0,14302.0,380406.0,14284.0,380406.0,32325.0,-1030.6001548229879,-568.9337389463676,-1117.1898862849007
380406.0,14295.0,380406.0,14287.0,380406.0,32324.0,-1038.8564919499036,-573.395068580305,-1125.6434645344862
380406.0,14300.0,380406.0,14302.0,380406.0,32324.0,-1047.1475707823702,-577.9407412491489,-1134.2291635163997
380416.0,14278.0,380416.0,14264.0,380416.0,32297.0,-1055.4770894940705,-582.5748673410905,-1142.9558402528492
380416.0,14257.0,380416.0,14272.0,380416.0,32292.0,-1063.8486239993526,-587.3014062128439,-1151.8321718968828
380416.0,14252.0,380416.0,14258.0,380416.0,32277.0,-1072.265765354599,-592.1243114560509,-1160.8667683591239
380416.0,14251.0,380416.0,14265.0,380416.0,32276.0,-1080.7323009372674,-597.0476552839636,-1170.0682827590715
380416.0,14250.0,380416.0,14270.0,380416.0,32270.0,-1089.252214653307,-602.075586201546,-1179.4454121638498
380416.0,14247.0,380416.0,14260.0,380416.0,32277.0,-1097.8295100987211,-607.2121603016292,-1189.00677416801
380426.0,14226.0,380426.0,14260.0,380426.0,32264.0,-1106.4680204699443,-612.4611695010733,-1198.7606812951437
380426.0,14209.0,380426.0,14232.0,380426.0,32247.0,-1115.1713710410431,-617.826098128874,-1208.714934367669
380426.0,14199.0,380426.0,14223.0,380426.0,32229.0,-1123.9431284879474,-623.3102684547962,-1218.8767924274327
380426.0,14202.0,380426.0,14242.0,380426.0,32236.0,-1132.7869669495926,-628.9170617156312,-1229.2530784803448
380426.0,14200.0,380426.0,14236.0,380426.0,32218.0,-1141.7066564329307,-634.6499352564588,-1239.8502123863195
380426.0,14196.0,380426.0,14250.0,380426.0,32238.0,-1150.7058714199725,-640.512160799671,-1250.6740755582678
380437.0,14165.0,380437.0,14232.0,380437.0,32207.0,-1159.7880097865473,-646.5065002698145,-1261.7297679749393
380437.0,14160.0,380437.0,14204.0,380437.0,32193.0,-1168.9562141690692,-652.6350598938066,-1273.021427311294
380437.0,14154.0,380437.0,14212.0,380437.0,32194.0,-1178.213536981992,-658.8994256976955,-1284.552235493064
380437.0,14148.0,380437.0,14224.0,380437.0,32193.0,-1187.563018279749,-665.3008354610024,-1296.3244304071345
380437.0,14148.0,380437.0,14224.0,380437.0,32172.0,-1197.0076055337795,-671.8400470916688,-1308.3391506488556
380437.0,14130.0,380437.0,14204.0,380437.0,32157.0,-1206.550014389271,-678.5170207578515,-1320.5962913211188
380447.0,14123.0,380447.0,14192.0,380447.0,32147.0,-1216.1926395886007,-685.3307830705205,-1333.0945226273877
380447.0,14107.0,380447.0,14176.0,380447.0,32120.0,-1225.9375625203425,-692.2795623625584,-1345.8313882887192
380447.0,14091.0,380447.0,14163.0,380447.0,32121.0,-1235.7866290081301,-699.3610352204253,-1358.8034089480611
380447.0,14102.0,380447.0,14178.0,380447.0,32112.0,-1245.7415264411234,-706.572512306192,-1372.0061258798341
380447.0,14097.0,380447.0,14193.0,380447.0,32101.0,-1255.8037225732319,-713.9108733132739,-1385.4340102384203
380447.0,14066.0,380447.0,14181.0,380447.0,32096.0,-1265.9742740321635,-721.3721965031773,-1399.080298701052
380457.0,14056.0,380457.0,14158.0,380457.0,32062.0,-1276.253775669986,-728.951392555979,-1412.9368811548907
380457.0,14039.0,380457.0,14145.0,380457.0,32051.0,-1286.6425417882306,-736.6421747539746,-1426.9943337379568
380457.0,14040.0,380457.0,14125.0,380457.0,32056.0,-1297.140792560291,-744.4373110227571,-1441.2420347594643
380457.0,14042.0,380457.0,14144.0,380457.0,32050.0,-1307.7486574332163,-752.3288726861132,-1455.668110838311
380457.0,14032.0,380457.0,14149.0,380457.0,32042.0,-1318.465987406449,-760.3082191061364,-1470.2591488441808
380457.0,14019.0,380457.0,14135.0,380457.0,32013.0,-1329.2921239162729,-768.3656941800583,-1484.9999188966942
380468.0,14011.0,380468.0,14114.0,380468.0,31996.0,-1340.225780159129,-776.4903567461877,-1499.873319324616
380468.0,13979.0,380468.0,14088.0,380468.0,31972.0,-1351.2650591609122,-784.6700406756322,-1514.860527887523
380468.0,13993.0,380468.0,14081.0,380468.0,31965.0,-1362.407558040367,-792.8916822670458,-1529.9411999367264
380468.0,13978.0,380468.0,14114.0,380468.0,31977.0,-1373.650412818943,-801.1415672549517,-1545.093517820198
380468.0,13978.0,380468.0,14102.0,380468.0,31945.0,-1384.9901705260477,-809.4051679857237,-1560.2939990970076
380468.0,13957.0,380468.0,14071.0,380468.0,31919.0,-1396.4226080920394,-817.6667533399664,-1575.5172929470436
380478.0,13946.0,380478.0,14068.0,380478.0,31899.0,-1407.9426580154613,-825.9092798262399,-1590.7362609979257
380478.0,13921.0,380478.0,14047.0,380478.0,31895.0,-1419.5444712968897,-834.11460685366,-1605.9222219641092
380478.0,13924.0,380478.0,14062.0,380478.0,31899.0,-1431.2215530429605,-842.2636906771074,-1621.0450189645267
380478.0,13932.0,380478.0,14042.0,380478.0,31867.0,-1442.966790817014,-850.336589630506,-1636.0728416379184
380478.0,13908.0,380478.0,14046.0,380478.0,31849.0,-1454.7722585701954,-858.3123581639345,-1650.9720752088315
380478.0,13880.0,380478.0,14026.0,380478.0,31848.0,-1466.6290270873671,-866.1689679423368,-1665.7073455012448
380488.0,13873.0,380488.0,14004.0,380488.0,31826.0,-1478.5272544061813,-873.883349774129,-1680.2415788515805
380488.0,13863.0,380488.0,13986.0,380488.0,31811.0,-1490.4564087651654,-881.4316157680425,-1694.5359768773706
380488.0,13867.0,380488.0,14001.0,380488.0,31780.0,-1502.4053289337503,-888.789357227434,-1708.5500631246125
380488.0,13859.0,380488.0,14005.0,380488.0,31805.0,-1514.362069646388,-895.931719540922,-1722.2418048700183
380488.0,13862.0,380488.0,14009.0,380488.0,31776.0,-1526.3136336882142,-902.8331435530863,-1735.5675806814722
380488.0,13836.0,380488.0,13977.0,380488.0,31754.0,-1538.2457124438333,-909.4670453986644,-1748.48201735572
380499.0,13817.0,380499.0,13971.0,380499.0,31733.0,-1550.142583062839,-915.8057654948936,-1760.9380153664583
380499.0,13792.0,380499.0,13961.0,380499.0,31740.0,-1561.987249724417,-921.8207835042936,-1772.8869622646082
380499.0,13800.0,380499.0,13974.0,380499.0,31731.0,-1573.7616959414677,-927.4829046974621,-1784.2788077087946
380499.0,13805.0,380499.0,13954.0,380499.0,31731.0,-1585.4469529878197,-932.7622486433406,-1795.0619045577246
380499.0,13772.0,380499.0,13962.0,380499.0,31689.0,-1597.0229061042098,-937.62816056892,-1805.1828463223278
380499.0,13760.0,380499.0,13934.0,380499.0,31683.0,-1608.468150748573,-942.0492042041774,-1814.5865556118597
380509.0,13753.0,380509.0,13909.0,380509.0,31653.0,-1619.7600917938096,-945.9933342406468,-1823.2166212505695
380509.0,13753.0,380509.0,13918.0,380509.0,31652.0,-1630.8750516125467,-949.4282676299064,-1831.0156794212185
380509.0,13740.0,380509.0,13914.0,380509.0,31642.0,-1641.7881995720254,-952.321820001848,-1837.925688874021
380509.0,13746.0,380509.0,13935.0,380509.0,31633.0,-1652.4733866762238,-954.6419492063559,-1843.8880737182017
380509.0,13732.0,380509.0,13938.0,380509.0,31621.0,-1662.9029650837842,-956.3565272545528,-1848.843816616942
380509.0,13696.0,380509.0,13890.0,380509.0,31602.0,-1673.0476823916265,-957.4331128747552,-1852.7336236752658
380520.0,13690.0,380520.0,13891.0,380520.0,31577.0,-1682.8768175221785,-957.8391001099008,-1855.498237801713
380520.0,13697.0,380520.0,13907.0,380520.0,31605.0,-1692.3584478526686,-957.5421751960796,-1857.0788356720095
380520.0,13694.0,380520.0,13905.0,380520.0,31609.0,-1701.4594964496405,-956.5105647001146,-1857.417216765462
380520.0,13676.0,380520.0,13901.0,380520.0,31576.0,-1710.1455462726744,-954.7129808418617,-1856.4557195888842
380520.0,13663.0,380520.0,13897.0,380520.0,31558.0,-1718.380734068584,-952.1186050105575,-1854.1373223023702
380520.0,13639.0,380520.0,13861.0,380520.0,31545.0,-1726.1278768468128,-948.6973007140625,-1850.4061906652478
380530.0,13627.0,380530.0,13874.0,380530.0,31542.0,-1733.3487592386957,-944.4200650476223,-1845.2083756267073
380530.0,13632.0,380530.0,13872.0,380530.0,31551.0,-1740.0044291351292,-939.2595334672018,-1838.4923446311873
380530.0,13634.0,380530.0,13864.0,380530.0,31572.0,-1746.0553126037441,-933.190310117142,-1830.209247186511
380530.0,13618.0,380530.0,13879.0,380530.0,31558.0,-1751.4611270807864,-926.1891792300152,-1820.3129669464765
380530.0,13601.0,380530.0,13855.0,380530.0,31557.0,-1756.1808369612827,-918.2353340028181,-1808.76021889374
380530.0,13584.0,380530.0,13865.0,380530.0,31536.0,-1760.1728471644465,-909.310682382046,-1795.510937977409
380540.0,13580.0,380540.0,13884.0,380540.0,31549.0,-1763.3953570716958,-899.4001899493448,-1780.5289160736024
380540.0,13595.0,380540.0,13901.0,380540.0,31564.0,-1765.8066394013197,-888.4920419251202,-1763.7824234452132
380540.0,13582.0,380540.0,13925.0,380540.0,31583.0,-1767.3650915633066,-876.5775337044836,-1745.2445851553555
380540.0,13564.0,380540.0,13909.0,380540.0,31584.0,-1768.0292146421612,-863.6509007720257,-1724.893559995151
380540.0,13563.0,380540.0,13912.0,380540.0,31599.0,-1767.7577864560963,-849.7093796900713,-1702.7127615842937
380540.0,13545.0,380540.0,13927.0,380540.0,31606.0,-1766.510209792289,-834.7535570065895,-1678.691223527219
380551.0,13550.0,380551.0,13950.0,380551.0,31641.0,-1764.2468732231332,-818.787716773796,-1652.82399986987
380551.0,13559.0,380551.0,13980.0,380551.0,31662.0,-1760.9294286699956,-801.8199235680844,-1625.1124473981947
380551.0,13557.0,380551.0,13990.0,380551.0,31684.0,-1756.5209161585094,-783.8618894367603,-1595.5643757616178
380551.0,13561.0,380551.0,14000.0,380551.0,31715.0,-1750.9857997353674,-764.9288612825246,-1564.1941908384606
380551.0,13545.0,380551.0,14005.0,380551.0,31736.0,-1744.2900857292034,-745.0397205566676,-1531.0230897690062
380551.0,13533.0,380551.0,14035.0,380551.0,31756.0,-1736.4016398506537,-724.2172522644196,-1496.0793092038364
380561.0,13568.0,380561.0,14058.0,380561.0,31807.0,-1727.2906313690091,-702.4883580321488,-1459.3984240466552
380561.0,13559.0,380561.0,14121.0,380561.0,31863.0,-1716.9298261228275,-679.8840121449908,-1421.0235176798835
380561.0,13581.0,380561.0,14147.0,380561.0,31929.0,-1705.2946503962064,-656.438890875042,-1381.0049999042335
380561.0,13569.0,380561.0,14166.0,380561.0,31962.0,-1692.3632592623449,-632.1908643276433,-1339.4001561888524
380561.0,13565.0,380561.0,14166.0,380561.0,32007.0,-1678.116790293317,-607.1807503807327,-1296.2727686058952
380561.0,13575.0,380561.0,14194.0,380561.0,32070.0,-1662.539817500041,-581.4524954350004,-1251.6929644426673
380571.0,13596.0,380571.0,14254.0,380571.0,32145.0,-1645.6208280144754,-555.0534507828238,-1205.7370455533016
380571.0,13633.0,380571.0,14305.0,380571.0,32195.0,-1627.3524548716177,-528.0342594996862,-1158.487069520084
380571.0,13637.0,380571.0,14327.0,380571.0,32255.0,-1607.7314278043837,-500.4483199435542,-1110.030342049552
380571.0,13637.0,380571.0,14354.0,380571.0,32340.0,-1586.758531674637,-472.3512876553422,-1060.4589899620041
380571.0,13664.0,380571.0,14398.0,380571.0,32381.0,-1564.4388357226605,-443.8008810644195,-1009.8695168330563
380571.0,13683.0,380571.0,14427.0,380571.0,32478.0,-1540.7820478935096,-414.8567888496569,-958.3623039008206
380582.0,13744.0,380582.0,14498.0,380582.0,32540.0,-1515.8026642008115,-385.58044031135313,-906.0410733516879
380582.0,13766.0,380582.0,14537.0,380582.0,32632.0,-1489.5197873357076,-356.0345477781793,-853.0122297872415
380582.0,13789.0,380582.0,14592.0,380582.0,32684.0,-1461.9568022528358,-326.2824635848891,-799.3841271095312
380582.0,13809.0,380582.0,14588.0,380582.0,32750.0,-1433.1412420249433,-296.38761470179367,-745.2664597537772
380582.0,13840.0,380582.0,14634.0,380582.0,32826.0,-1403.1049160582593,-266.41330033557495,-690.7698536866441
380582.0,13886.0,380582.0,14693.0,380582.0,32902.0,-1371.884067042785,-236.42271485884953,-636.0054856496391
380592.0,13929.0,380592.0,14732.0,380592.0,32980.0,-1339.5193410861084,-206.47874677593893,-581.0845570728887
380592.0,13970.0,380592.0,14775.0,380592.0,33067.0,-1306.055559732707,-176.64348894305192,-526.1176332259881
380592.0,14022.0,380592.0,14828.0,380592.0,33123.0,-1271.5414159956538,-146.9777312102675,-471.2139330509856
380592.0,14061.0,380592.0,14862.0,380592.0,33198.0,-1236.029161753713,-117.54049419003923,-416.4807077602859
380592.0,14088.0,380592.0,14887.0,380592.0,33261.0,-1199.574347670292,-88.3886163531746,-362.02278763690265
380592.0,14167.0,380592.0,14928.0,380592.0,33335.0,-1162.2356604849851,-59.57651598965265,-307.9422004732387
380602.0,14208.0,380602.0,14982.0,380602.0,33409.0,-1124.07467576526,-31.156031079586796,-254.3377469486927
380602.0,14260.0,380602.0,15006.0,380602.0,33465.0,-1085.1554169588471,-3.176120798130569,-201.30452559370724
380602.0,14307.0,380602.0,15029.0,380602.0,33516.0,-1045.5439271946486,24.317469814573315,-148.93353365790085
380602.0,14349.0,380602.0,15025.0,380602.0,33586.0,-1005.3079853234914,51.282269928397,-97.31144805771464
380602.0,14418.0,380602.0,15050.0,380602.0,33632.0,-964.5168790622268,77.67877006612002,-46.52048631483012
380602.0,14453.0,380602.0,15112.0,380602.0,33721.0,-923.2411278105092,103.47003923036004,3.361803057418456
380613.0,14515.0,380613.0,15161.0,380613.0,33764.0,-881.5521670599725,128.62176506410492,52.2628840974653
380613.0,14586.0,380613.0,15169.0,380613.0,33825.0,-839.5220163947095,153.1027546707943,100.11563648166339
380613.0,14618.0,380613.0,15172.0,380613.0,33853.0,-797.2228599622118,176.88531437443464,146.85861003815603
380613.0,14659.0,380613.0,15195.0,380613.0,33911.0,-754.7266767177517,199.9451229003862,192.4360397754674
380613.0,14735.0,380613.0,15209.0,380613.0,33930.0,-712.1050820235292,222.2608518425958,236.79771246616974
380613.0,14786.0,380613.0,15274.0,380613.0,34015.0,-669.4291313752269,243.81395919274905,279.8988221897521
380623.0,14852.0,380623.0,15292.0,380623.0,34046.0,-626.7688815625345,264.5888670944769,321.6999925329694
380623.0,14889.0,380623.0,15289.0,380623.0,34084.0,-584.1928931431481,284.57332812498737,362.1674628588794
380623.0,14931.0,380623.0,15309.0,380623.0,34101.0,-541.767906712016,303.7585171785905,401.2731302977197
380623.0,14987.0,380623.0,15290.0,380623.0,34142.0,-499.55872919381966,322.1387238816212,438.99429475886313
380623.0,15039.0,380623.0,15325.0,380623.0,34187.0,-457.6281539534857,339.7108785593773,475.3133426352272
380623.0,15081.0,380623.0,15362.0,380623.0,34229.0,-416.03677500811864,356.4742155071581,510.21763707719697
380633.0,15150.0,380633.0,15378.0,380633.0,34249.0,-374.8427438950994,372.43032258975654,543.6995850604501
380633.0,15188.0,380633.0,15385.0,380633.0,34284.0,-334.10148544391245,387.58341125361994,575.7566469140452
380633.0,15219.0,380633.0,15368.0,380633.0,34299.0,-293.8654272294018,401.94036168518574,606.3911894009104
380633.0,15266.0,380633.0,15394.0,380633.0,34313.0,-254.1839169706659,415.51041144145313,635.6102188696925
380633.0,15323.0,380633.0,15411.0,380633.0,34334.0,-215.10325534203935,428.30479291814754,663.4250004846494
380633.0,15377.0,380633.0,15438.0,380633.0,34374.0,-176.66656129523608,440.336653277203,689.8506746242608
380644.0,15415.0,380644.0,15439.0,380644.0,34415.0,-138.91343803236714,451.62121802460524,714.9061109183915
380644.0,15442.0,380644.0,15415.0,380644.0,34408.0,-101.87969321793344,462.17585378453975,738.6140034912244
380644.0,15481.0,380644.0,15404.0,380644.0,34417.0,-65.59730034858785,472.01972622413564,761.0008344435939
380644.0,15512.0,380644.0,15444.0,380644.0,34422.0,-30.094525237153448,481.17319625872074,782.0964660511636
380644.0,15554.0,380644.0,15457.0,380644.0,34459.0,4.603953425395503,489.657500330472,801.9336158216436
380644.0,15611.0,380644.0,15481.0,380644.0,34493.0,38.47704570593896,497.4949306462988,820.5476101061092
380654.0,15623.0,380654.0,15475.0,380654.0,34489.0,71.5074013782239,504.7091767297212,837.9764658088827
380654.0,15653.0,380654.0,15454.0,380654.0,34484.0,103.6815145738799,511.3254329408735,854.2609165784213
380654.0,15680.0,380654.0,15448.0,380654.0,34488.0,134.98959247513085,517.370105255887,869.4440665574796
380654.0,15722.0,380654.0,15463.0,380654.0,34498.0,165.42534229789862,522.8702986314697,883.5708403775996
380654.0,15729.0,380654.0,15489.0,380654.0,34544.0,194.98585497945714,527.8535151604358,896.6876145457181
380654.0,15754.0,380654.0,15468.0,380654.0,34507.0,223.6714643618136,532.3477098793139,908.84215020374
380664.0,15793.0,380664.0,15477.0,380664.0,34521.0,251.48549900317835,536.3813775239287,920.0834938802689
380664.0,15809.0,380664.0,15466.0,380664.0,34530.0,278.43409458582937,539.9834183907017,930.4616079235229
380664.0,15838.0,380664.0,15451.0,380664.0,34520.0,304.5261194396171,543.1828552400161,940.0269718848988
380664.0,15877.0,380664.0,15453.0,380664.0,34528.0,329.7731239483576,546.0084711435002,948.8302787183804
380664.0,15878.0,380664.0,15476.0,380664.0,34545.0,354.1893216553201,548.4884907907262,956.9221533436876
380664.0,15898.0,380664.0,15477.0,380664.0,34572.0,377.79150861134804,550.6505330103573,964.353043721022
380675.0,15911.0,380675.0,15479.0,380675.0,34553.0,400.59879504476567,552.5217830034424,971.1733394705186
380675.0,15930.0,380675.0,15468.0,380675.0,34562.0,422.6322621485592,554.1290940055105,977.4334270183456
380675.0,15952.0,380675.0,15480.0,380675.0,34546.0,443.914691109532,555.4989163138034,983.1834813207918
380675.0,15971.0,380675.0,15468.0,380675.0,34578.0,464.4703900169418,556.6571782841747,988.4731584887181
380675.0,16000.0,380675.0,15481.0,380675.0,34573.0,484.3251118522037,557.6292074893606,993.3514487571513
380675.0,16011.0,380675.0,15495.0,380675.0,34571.0,503.50604052071094,558.439731677651,997.8666882011878
380685.0,16017.0,380685.0,15488.0,380685.0,34566.0,522.0417469618508,559.1130072839783,1002.0664908450958
380685.0,16038.0,380685.0,15454.0,380685.0,34547.0,539.9620132800685,559.6728945842517,1005.9974741375952
380685.0,16022.0,380685.0,15469.0,380685.0,34560.0,557.2975381480185,560.1426216991399,1009.704859234379
380685.0,16056.0,380685.0,15464.0,380685.0,34582.0,574.0795690749392,560.5444127438969,1013.2321692224339
380685.0,16087.0,380685.0,15480.0,380685.0,34575.0,590.3396143609275,560.8993335293089,1016.621218108754
380685.0,16099.0,380685.0,15477.0,380685.0,34593.0,606.1094482500348,561.2273702893369,1019.9122616774234
380695.0,16104.0,380695.0,15480.0,380695.0,34568.0,621.4212585150553,561.5475606455948,1023.1440538784859
380695.0,16119.0,380695.0,15459.0,380695.0,34564.0,636.3076197524708,561.8780243846437,1026.3536880519162
380695.0,16123.0,380695.0,15469.0,380695.0,34574.0,650.80129540037,562.2358246282663,1029.5762601910385
380695.0,16132.0,380695.0,15496.0,380695.0,34593.0,664.935000999528,562.6368328537317,1032.8446222085436
380695.0,16139.0,380695.0,15480.0,380695.0,34602.0,678.7411499085224,563.0958380373812,1036.1894406150857
380695.0,16145.0,380695.0,15480.0,380695.0,34577.0,692.2515844722702,563.6267476310076,1039.6393693236955
380706.0,16165.0,380706.0,15446.0,380706.0,34591.0,705.4973320801178,564.242525743772,1043.2210037029818
380706.0,16181.0,380706.0,15462.0,380706.0,34602.0,718.5084579466711,564.9548357039062,1046.9586655506114
380706.0,16182.0,380706.0,15478.0,380706.0,34604.0,731.3140217151742,565.773714429057,1050.8743196671514
380706.0,16211.0,380706.0,15493.0,380706.0,34609.0,743.9420397797901,566.7076060755523,1054.9876293447765
380706.0,16228.0,380706.0,15501.0,380706.0,34628.0,756.4194706068911,567.7637060750549,1059.3160043578937
380706.0,16237.0,380706.0,15487.0,380706.0,34625.0,768.772303103518,568.9482894660638,1063.8746691559286
380716.0,16239.0,380716.0,15480.0,380716.0,34618.0,781.0256216960254,570.2667784166781,1068.6767142724389
380716.0,16236.0,380716.0,15479.0,380716.0,34622.0,793.2034712210775,571.7235487369493,1073.7329827321698
380716.0,16271.0,380716.0,15498.0,380716.0,34634.0,805.328587608026,573.3217140081647,1079.0518557981848
380716.0,16282.0,380716.0,15508.0,380716.0,34653.0,817.4222566667725,575.0631340852619,1084.6391663953377
380716.0,16291.0,380716.0,15520.0,380716.0,34665.0,829.5043832257948,576.9486559688431,1090.498324941355
380716.0,16297.0,380716.0,15503.0,380716.0,34672.0,841.5935453057771,578.9783724727916,1096.630542049027
380726.0,16300.0,380726.0,15500.0,380726.0,34666.0,853.7068768649244,581.1516618850635,1103.0349638336922
380726.0,16310.0,380726.0,15503.0,380726.0,34665.0,865.8598392341817,583.4669944547038,1109.7086003917664
380726.0,16325.0,380726.0,15520.0,380726.0,34704.0,878.0659940252315,585.9217505989157,1116.6461547405358
380726.0,16354.0,380726.0,15534.0,380726.0,34731.0,890.3368984431575,588.512269445115,1123.8400882588803
380726.0,16369.0,380726.0,15532.0,380726.0,34720.0,902.6821954262093,591.2340832729969,1131.281003752782
380726.0,16369.0,380726.0,15507.0,380726.0,34728.0,915.1097828924271,594.0820607264408,1138.957939624166
380737.0,16373.0,380737.0,15530.0,380737.0,34728.0,927.6258209639536,597.0502666881413,1146.8583164139352
380737.0,16389.0,380737.0,15527.0,380737.0,34756.0,940.2345263270001,600.131739334423,1154.9677667818937
380737.0,16423.0,380737.0,15527.0,380737.0,34767.0,952.9379963821771,603.3184233653506,1163.270130633663
380737.0,16436.0,380737.0,15551.0,380737.0,34789.0,965.7362816177476,606.601198927849,1171.7476421729325
380737.0,16451.0,380737.0,15561.0,380737.0,34793.0,978.6276130527292,609.9699963759314,1180.3811677447004
380737.0,16457.0,380737.0,15549.0,380737.0,34793.0,991.6085398826287,613.4140133534277,1189.1503371972092
380747.0,16464.0,380747.0,15547.0,380747.0,34804.0,1004.6738842987977,616.9218017980023,1198.0334965311708
380747.0,16499.0,380747.0,15550.0,380747.0,34823.0,1017.8166228799166,620.4811118897285,1207.0075897578586
380747.0,16531.0,380747.0,15602.0,380747.0,34847.0,1031.0279294809982,624.0787887802126,1216.0481770912565
380747.0,16540.0,380747.0,15598.0,380747.0,34876.0,1044.2974749666714,627.7010483189937,1225.129679268332
380747.0,16551.0,380747.0,15593.0,380747.0,34866.0,1057.6137351602565,631.3339520911939,1234.2257293906946
380747.0,16560.0,380747.0,15585.0,380747.0,34879.0,1070.9640624759247,634.9635944946369,1243.3093720570396
380758.0,16566.0,380758.0,15584.0,380758.0,34884.0,1084.334566133377,638.5759132638556,1252.3530094560501
380758.0,16590.0,380758.0,15604.0,380758.0,34903.0,1097.7099491026383,642.1564416176757,1261.3282855260788
380758.0,16635.0,380758.0,15630.0,380758.0,34941.0,1111.0734843706352,645.6903019998695,1270.206133712337
380758.0,16645.0,380758.0,15627.0,380758.0,34950.0,1124.4072807849127,649.1624965232984,1278.9570742387862
380758.0,16657.0,380758.0,15628.0,380758.0,34954.0,1137.6926649791326,652.5582294913693,1287.5515979152403
380758.0,16672.0,380758.0,15616.0,380758.0,34961.0,1150.9103683088008,655.8629771369388,1295.9603500663836
380768.0,16670.0,380768.0,15626.0,380768.0,34974.0,1164.0404890488949,659.0623252954634,1304.1540993495005
380768.0,16709.0,380768.0,15642.0,380768.0,35005.0,1177.0623842848918,662.1418163078779,1312.1037352604164
380768.0,16725.0,380768.0,15651.0,380768.0,35002.0,1189.9546722584694,665.0870039470506,1319.7804369372138
380768.0,16739.0,380768.0,15681.0,380768.0,35047.0,1202.6954146475891,667.8837229079556,1327.1559453996485
380768.0,16752.0,380768.0,15653.0,380768.0,35036.0,1215.2623034135352,670.5184235726325,1334.202865279757
380768.0,16777.0,380768.0,15628.0,380768.0,35036.0,1227.632741623878,672.9782588308489,1340.8948897012485
380778.0,16786.0,380778.0,15663.0,380778.0,35054.0,1239.7839201628146,675.2507736414173,1347.2068014643867
380778.0,16807.0,380778.0,15657.0,380778.0,35063.0,1251.6929295148477,677.3236126159456,1353.1143910273267
380778.0,16831.0,380778.0,15699.0,380778.0,35066.0,1263.3368830792767,679.1846345856795,1358.5944964991959
380778.0,16837.0,380778.0,15688.0,380778.0,35082.0,1274.6930770448212,680.8223090815978,1363.6250935784187
380778.0,16862.0,380778.0,15672.0,380778.0,35080.0,1285.7391531648855,682.2260531100903,1368.1853592873515
380778.0,16849.0,380778.0,15684.0,380778.0,35100.0,1296.4531781516946,683.3862536070236,1372.2557405742807
380789.0,16870.0,380789.0,15678.0,380789.0,35109.0,1306.8135857768525,684.2940953124062,1375.8180689331402
380789.0,16898.0,380789.0,15701.0,380789.0,35126.0,1316.7990754846148,684.941501984066,1378.8557661969162
380789.0,16918.0,380789.0,15711.0,380789.0,35115.0,1326.3887070196126,685.3212924231955,1381.3540834053426
380789.0,16935.0,380789.0,15705.0,380789.0,35129.0,1335.5622200936857,685.4274706240265,1383.3002336473867
380789.0,16931.0,380789.0,15689.0,380789.0,35114.0,1344.3003288301304,685.2554155271366,1384.6833890012626
380789.0,16948.0,380789.0,15673.0,380789.0,35106.0,1352.5848155789733,684.8017580798762,1385.4945682971877
380799.0,16967.0,380799.0,15691.0,380799.0,35141.0,1360.3985178210578,684.0640590841842,1385.7264808164034
380799.0,16989.0,380799.0,15721.0,380799.0,35143.0,1367.7254313628362,683.0406825694104,1385.373571091015
380799.0,16996.0,380799.0,15705.0,380799.0,35152.0,1374.550974901712,681.7310752374839,1384.4323500377573
380799.0,17015.0,380799.0,15699.0,380799.0,35149.0,1380.8622687498278,680.1361241900796,1382.9017394032314
380799.0,17009.0,380799.0,15685.0,380799.0,35140.0,1386.6483229555263,678.2581963051151,1380.7832313073682
380799.0,17010.0,380799.0,15679.0,380799.0,35130.0,1391.9000846480574,676.1009118505681,1378.0808608963434
380809.0,17027.0,380809.0,15681.0,380809.0,35139.0,1396.6103550832022,673.6688991554789,1374.8010730074889
380809.0,17032.0,380809.0,15712.0,380809.0,35152.0,1400.7737365608434,670.9677346198732,1370.9526850903744
380809.0,17046.0,380809.0,15694.0,380809.0,35144.0,1404.3867187323044,668.004173148234,1366.5470696241036
380809.0,17036.0,380809.0,15669.0,380809.0,35120.0,1407.4478053132798,664.7864097891376,1361.598353374216
380809.0,17030.0,380809.0,15668.0,380809.0,35112.0,1409.9575173977207,661.3239979738189,1356.1233538487268
380809.0,17035.0,380809.0,15660.0,380809.0,35115.0,1411.9182268796683,657.6275333705001,1350.1413293997298
380820.0,17044.0,380820.0,15656.0,380820.0,35109.0,1413.3339778212667,653.7084329146543,1343.6738399162753
380820.0,17050.0,380820.0,15676.0,380820.0,35086.0,1414.2104697351624,649.578897719476,1336.7447478447036
380820.0,17053.0,380820.0,15677.0,380820.0,35067.0,1414.5551743222265,645.2520797351723,1329.3801180194287
380820.0,17039.0,380820.0,15629.0,380820.0,35052.0,1414.3774296564015,640.7423121245575,1321.6079163733739
380820.0,17044.0,380820.0,15614.0,380820.0,35034.0,1413.6884002729328,636.064988066793,1313.4576422787147
380820.0,17031.0,380820.0,15619.0,380820.0,35028.0,1412.5009352406978,631.2360531248366,1304.9600211133688
380830.0,17044.0,380830.0,15633.0,380830.0,35032.0,1410.829437190113,626.2716489920656,1296.1468309814015
380830.0,17030.0,380830.0,15642.0,380830.0,35021.0,1408.6898046204963,621.1882359480387,1287.0509212843115
380830.0,17016.0,380830.0,15608.0,380830.0,34972.0,1406.0993802424084,616.0029304178354,1277.7062561715143
380830.0,17021.0,380830.0,15588.0,380830.0,34957.0,1403.076799611347,610.7335795030709,1268.1476519433836
380830.0,17007.0,380830.0,15584.0,380830.0,34945.0,1399.6418042551657,605.398440388874,1258.4102417155889
380830.0,16994.0,380830.0,15575.0,380830.0,34938.0,1395.8150935745946,600.0157939182724,1248.529056801943
380840.0,17017.0,380840.0,15581.0,380840.0,34937.0,1391.6181946458648,594.6037710204712,1238.5389017719906
380840.0,16984.0,380840.0,15589.0,380840.0,34919.0,1387.0734200895085,589.1804035465402,1228.4744026535768
380840.0,16986.0,380840.0,15561.0,380840.0,34891.0,1382.2038627190752,583.7637936923921,1218.3700207359375
380840.0,16963.0,380840.0,15535.0,380840.0,34870.0,1377.0332481639666,578.3721322701713,1208.2598547906655
380840.0,16956.0,380840.0,15508.0,380840.0,34855.0,1371.5856730554497,573.023340610891,1198.1772670254272
380840.0,16959.0,380840.0,15528.0,380840.0,34854.0,1365.8853696733406,567.7345358619369,1188.1545563041882
380851.0,16945.0,380851.0,15539.0,380851.0,34838.0,1359.956589369785,562.521788607213,1178.2228232665157
380851.0,16944.0,380851.0,15525.0,380851.0,34833.0,1353.8235837524644,557.4003220138607,1168.411967615485
380851.0,16933.0,380851.0,15509.0,380851.0,34805.0,1347.510585706826,552.3847715258769,1158.7506688374617
380851.0,16917.0,380851.0,15499.0,380851.0,34798.0,1341.0417469766348,547.489156530746,1149.2662603437363
380851.0,16922.0,380851.0,15485.0,380851.0,34763.0,1334.4410335450636,542.726644473804,1139.9844920603152
380851.0,16902.0,380851.0,15487.0,380851.0,34777.0,1327.7321306542055,538.1093174355287,1130.9292514148333
380861.0,16893.0,380861.0,15501.0,380861.0,34759.0,1320.9383668089536,533.6480844321047,1122.1223936695003
380861.0,16887.0,380861.0,15496.0,380861.0,34768.0,1314.0825932666387,529.3528220213711,1113.5837718962657
380861.0,16867.0,380861.0,15476.0,380861.0,34738.0,1307.1870364741146,525.2325931046096,1105.3313505353844
380861.0,16857.0,380861.0,15454.0,380861.0,34733.0,1300.2731348586726,521.2956339741875,1097.3812136883525
380861.0,16855.0,380861.0,15434.0,380861.0,34716.0,1293.361351162648,517.5490121759989,1089.7474230422758
380861.0,16861.0,380861.0,15451.0,380861.0,34731.0,1286.4710810542779,513.9981856276994,1082.4418766848821
380871.0,16855.0,380871.0,15490.0,380871.0,34707.0,1279.6207524693302,510.646877630059,1075.474316087756
380871.0,16831.0,380871.0,15470.0,380871.0,34727.0,1272.8279733961658,507.49746591957586,1068.8524383744502
380871.0,16813.0,380871.0,15443.0,380871.0,34688.0,1266.1094806145725,504.5514444679948,1062.5819961816162
380871.0,16811.0,380871.0,15436.0,380871.0,34683.0,1259.4808685835446,501.80939940199863,1056.6667614160842
380871.0,16810.0,380871.0,15439.0,380871.0,34675.0,1252.9563509044883,499.27064267782464,1051.1083082009288
380871.0,16807.0,380871.0,15455.0,380871.0,34701.0,1246.5487299222614,496.9330134707626,1045.9058536882894
380882.0,16805.0,380882.0,15464.0,380882.0,34705.0,1240.2695031757762,494.7930334855089,1041.056437985394
380882.0,16805.0,380882.0,15450.0,380882.0,34696.0,1234.1289949793313,492.84623209753454,1036.5553460781089
380882.0,16785.0,380882.0,15440.0,380882.0,34666.0,1228.1364581212456,491.0873277585484,1032.3963731709132
380882.0,16770.0,380882.0,15447.0,380882.0,34664.0,1222.3000482070881,489.51016057498947,1028.5716988420015
380882.0,16768.0,380882.0,15453.0,380882.0,34675.0,1216.6266359462422,488.1076028860465,1025.0715988942952
380882.0,16794.0,380882.0,15451.0,380882.0,34683.0,1211.1216797289023,486.87163219881234,1021.8843897819272
380892.0,16765.0,380892.0,15479.0,380892.0,34683.0,1205.7893667154149,485.7935282593735,1018.9966646148357
380892.0,16761.0,380892.0,15453.0,380892.0,34676.0,1200.6328097707087,484.8641277338281,1016.3935661288103
380892.0,16740.0,380892.0,15434.0,380892.0,34673.0,1195.6539925028196,484.07394857261016,1014.0589068217682
380892.0,16756.0,380892.0,15430.0,380892.0,34682.0,1190.8535614677016,483.4129678160954,1011.9751812563026
380892.0,16734.0,380892.0,15461.0,380892.0,34707.0,1186.230720466548,482.87029599604745,1010.1236754457125
380892.0,16754.0,380892.0,15481.0,380892.0,34703.0,1181.7832592961518,482.4342381983904,1008.4848034046863
380902.0,16754.0,380902.0,15485.0,380902.0,34696.0,1177.50768055138,482.0927907072768,1007.0384954022342
380902.0,16742.0,380902.0,15463.0,380902.0,34688.0,1173.3994124073843,481.83413243320416,1005.7643552253726
380902.0,16724.0,380902.0,15433.0,380902.0,34678.0,1169.4529273820863,481.6466743854231,1004.6415607917227
380902.0,16738.0,380902.0,15460.0,380902.0,34700.0,1165.6616498504675,481.51868983071495,1003.6487131661504
380902.0,16744.0,380902.0,15473.0,380902.0,34698.0,1162.0178912882943,481.43803549239715,1002.7638532170129
380902.0,16741.0,380902.0,15476.0,380902.0,34722.0,1158.5130138060726,481.3923122501003,1001.9647032672087
380913.0,16738.0,380913.0,15463.0,380913.0,34711.0,1155.1376663942985,481.36918645914426,1001.2290089763765
380913.0,16733.0,380913.0,15464.0,380913.0,34718.0,1151.8819039279433,481.35648980522524,1000.5348182489671
380913.0,16730.0,380913.0,15469.0,380913.0,34690.0,1148.7352013730426,481.34213654173845,999.860570389576
380913.0,16733.0,380913.0,15477.0,380913.0,34717.0,1145.68645053641,481.31409932508416,999.185000261118
380913.0,16733.0,380913.0,15484.0,380913.0,34733.0,1142.7240044576288,481.2605371291927,998.4871151544929
380913.0,16731.0,380913.0,15501.0,380913.0,34737.0,1139.8357758731768,481.1700331281484,997.7464798067081
380923.0,16742.0,380923.0,15474.0,380923.0,34707.0,1137.0093597723526,481.03184578784226,996.9435775154723
380923.0,16715.0,380923.0,15451.0,380923.0,34716.0,1134.23214603115,480.8359327107297,996.0598533822929
380923.0,16727.0,380923.0,15478.0,380923.0,34709.0,1131.491337527975,480.5726544899128,995.077511143395
380923.0,16735.0,380923.0,15473.0,380923.0,34712.0,1128.7739146227932,480.23253328669983,993.9793778650443
380923.0,16732.0,380923.0,15495.0,380923.0,34732.0,1126.0667366423431,479.8063598837461,992.7489402888721
380923.0,16741.0,380923.0,15493.0,380923.0,34713.0,1123.356768648464,479.28549774025066,991.3705149305215
380933.0,16737.0,380933.0,15484.0,380933.0,34704.0,1120.6312922515456,478.6621516155991,989.8293824708849
380933.0,16719.0,380933.0,15460.0,380933.0,34704.0,1117.8780320811434,477.92941485507777,988.111710881407
380933.0,16717.0,380933.0,15474.0,380933.0,34697.0,1115.085119398383,477.08105106680887,986.2043831106464
380933.0,16728.0,380933.0,15474.0,380933.0,34712.0,1112.2409620533094,476.1112714737342,984.0949301274572
380933.0,16728.0,380933.0,15466.0,380933.0,34720.0,1109.3342538986064,475.0147125391872,981.7716425979231
380933.0,16726.0,380933.0,15483.0,380933.0,34704.0,1106.3541523658746,473.78651084385376,979.2238130271404
380944.0,16715.0,380944.0,15468.0,380944.0,34699.0,1103.2904282674172,472.42238634254227,976.4418922026645
380944.0,16709.0,380944.0,15448.0,380944.0,34667.0,1100.133468772754,470.9186714209297,973.4173842196166
380944.0,16702.0,380944.0,15453.0,380944.0,34694.0,1096.8741743639305,469.2721523248295,970.1425755101334
380944.0,16697.0,380944.0,15486.0,380944.0,34692.0,1093.5038391244302,467.47990521539487,966.6104037337195
380944.0,16712.0,380944.0,15479.0,380944.0,34709.0,1090.0141016762886,465.5394811038332,962.8146590297999
380944.0,16718.0,380944.0,15476.0,380944.0,34674.0,1086.397070255717,463.44931226279033,958.7503134616686
380954.0,16683.0,380954.0,15457.0,380954.0,34673.0,1082.6455533887045,461.2089152081184,954.4136226734142
380954.0,16689.0,380954.0,15433.0,380954.0,34654.0,1078.753102980145,458.8187405432011,949.8019392073788
380954.0,16680.0,380954.0,15455.0,380954.0,34656.0,1074.713833620473,456.2798376499712,944.9134622350747
380954.0,16681.0,380954.0,15443.0,380954.0,34667.0,1070.5222935437405,453.5936458664344,939.7471362776953
380954.0,16681.0,380954.0,15445.0,380954.0,34658.0,1066.1734865897342,450.7620294935346,934.3027698031054
380954.0,16666.0,380954.0,15417.0,380954.0,34625.0,1061.662944159556,447.7873198094949,928.5811956432335
380964.0,16662.0,380964.0,15414.0,380964.0,34624.0,1056.9867420910534,444.6721576114601,922.5841838430633
380964.0,16644.0,380964.0,15410.0,380964.0,34629.0,1052.1414140279292,441.4192212056257,916.314200003452
380964.0,16651.0,380964.0,15409.0,380964.0,34610.0,1047.1238180730238,438.0310461809733,909.7743267829619
380964.0,16657.0,380964.0,15421.0,380964.0,34623.0,1041.9310984974852,434.51002997175317,902.9683484772589
380964.0,16643.0,380964.0,15433.0,380964.0,34609.0,1036.5608174834297,430.8586251723972,895.9008710789619
380964.0,16631.0,380964.0,15392.0,380964.0,34579.0,1031.01109711594,427.07961021890384,888.5774068606881
380975.0,16632.0,380975.0,15399.0,380975.0,34582.0,1025.2806098027984,423.17614391438804,881.0042877398774
380975.0,16620.0,380975.0,15401.0,380975.0,34559.0,1019.3685143186938,419.1515854930438,873.1884537904224
380975.0,16630.0,380975.0,15425.0,380975.0,34564.0,1013.2744710802194,415.00947676741123,865.1373129957632
380975.0,16618.0,380975.0,15408.0,380975.0,34571.0,1006.9987488188251,410.75384409770606,856.858759037028
380975.0,16600.0,380975.0,15384.0,380975.0,34555.0,1000.5423356395236,406.38948210356995,848.3613630626585
380975.0,16596.0,380975.0,15370.0,380975.0,34514.0,993.9069208882074,401.9218749520342,839.6545347836359
380985.0,16582.0,380985.0,15346.0,380985.0,34486.0,987.0947700543993,397.35680970606734,830.7483085812504
380985.0,16570.0,380985.0,15350.0,380985.0,34495.0,980.108605981768,392.69995071320983,821.6528312238021
380985.0,16559.0,380985.0,15360.0,380985.0,34501.0,972.9514942888594,387.9566015068512,812.3780588217826
380985.0,16564.0,380985.0,15372.0,380985.0,34462.0,965.6267470773319,383.1318017692199,802.9338488751652
380985.0,16551.0,380985.0,15362.0,380985.0,34474.0,958.1379338703616,378.2306782328876,793.3300868665322
380985.0,16547.0,380985.0,15339.0,380985.0,34450.0,950.4889774105861,373.2587235338962,783.5766629182251
380996.0,16516.0,380996.0,15317.0,380996.0,34439.0,942.6841864674889,368.22173571538684,773.6834378259234
380996.0,16527.0,380996.0,15330.0,380996.0,34420.0,934.728156718187,363.12550724595206,763.6601880269227
380996.0,16512.0,380996.0,15323.0,380996.0,34432.0,926.6256731254459,357.97562156370066,753.5165231100572
380996.0,16512.0,380996.0,15322.0,380996.0,34414.0,918.3817472273155,352.7775087376225,743.2619333972534
380996.0,16478.0,380996.0,15312.0,380996.0,34401.0,910.0016819239131,347.53657590569867,732.9059470442533
380996.0,16466.0,380996.0,15282.0,380996.0,34369.0,901.4909672959033,342.25820791592287,722.458163620958
381005.0,16455.0,381005.0,15285.0,381005.0,34367.0,892.8550174003569,336.9475732346697,711.9280788631853
381005.0,16455.0,381005.0,15266.0,381005.0,34332.0,884.0989644037876,331.60935030041287,701.3248378958797
381005.0,16460.0,381005.0,15295.0,381005.0,34357.0,875.2276778448487,326.24759474153876,690.6570663746436
381005.0,16451.0,381005.0,15311.0,381005.0,34342.0,866.2459865964222,320.8659294402851,679.932912812649
381005.0,16431.0,381005.0,15263.0,381005.0,34331.0,857.1589212294945,315.46797231087214,669.1602997855505
381005.0,16409.0,381005.0,15256.0,381005.0,34306.0,847.9717600792186,310.0575159768163,658.3471145899528
381015.0,16411.0,381015.0,15256.0,381015.0,34305.0,838.6898747989388,304.6382689972344,647.5011832667853
381015.0,16405.0,381015.0,15251.0,381015.0,34274.0,829.3186160513151,299.2135976651369,636.6301612950697
381015.0,16394.0,381015.0,15257.0,381015.0,34293.0,819.8633808204622,293.78653741227004,625.7414702174584
381015.0,16376.0,381015.0,15258.0,381015.0,34272.0,810.3297215319456,288.3599624056114,614.8423608947602
381015.0,16373.0,381015.0,15249.0,381015.0,34244.0,800.7233551415961,282.93680192873103,603.94005255157
381015.0,16340.0,381015.0,15212.0,381015.0,34231.0,791.0500942706016,277.52013750567073,593.0417045273721
381026.0,16338.0,381026.0,15207.0,381026.0,34218.0,781.3157163890698,272.1129985355344,582.1542022824535
381026.0,16327.0,381026.0,15217.0,381026.0,34200.0,771.5258113326457,266.71801621175337,571.2839780097376
381026.0,16324.0,381026.0,15238.0,381026.0,34202.0,761.685738504779,261.33736263281656,560.4369384816791
381026.0,16320.0,381026.0,15230.0,381026.0,34189.0,751.8007300075313,255.97310453510238,549.6184938497361
381026.0,16304.0,381026.0,15168.0,381026.0,34171.0,741.8760504791564,250.6275324259932,538.8336568448867
381026.0,16272.0,381026.0,15200.0,381026.0,34144.0,731.9170637088591,245.30300970958697,528.0870523256817
381036.0,16280.0,381036.0,15184.0,381036.0,34149.0,721.9291147868989,240.00161695478334,517.3827762958813
381036.0,16271.0,381036.0,15210.0,381036.0,34156.0,711.9174097478856,234.7251376326219,506.724336965769
381036.0,16252.0,381036.0,15182.0,381036.0,34145.0,701.8870706183367,229.47534275578988,496.1148800914842
381036.0,16232.0,381036.0,15186.0,381036.0,34113.0,691.8431936804996,224.25421413652896,485.55749002929554
381036.0,16215.0,381036.0,15167.0,381036.0,34098.0,681.7907286485802,219.06396656419145,475.0552162930088
381036.0,16204.0,381036.0,15142.0,381036.0,34075.0,671.734267633435,213.90690728606876,464.6108234860783
381046.0,16202.0,381046.0,15134.0,381046.0,34097.0,661.6779096787236,208.78515093308806,454.2265660410501
381046.0,16188.0,381046.0,15144.0,381046.0,34092.0,651.6252695239921,203.7003132639398,443.9042689707627
381046.0,16181.0,381046.0,15161.0,381046.0,34062.0,641.579567723162,198.65347507510768,433.64565384146283
381046.0,16163.0,381046.0,15125.0,381046.0,34041.0,631.5436947396449,193.6454384835286,423.4524990870066
381046.0,16156.0,381046.0,15112.0,381046.0,34029.0,621.5202145058615,188.67686472861982,413.32645853928136
381046.0,16145.0,381046.0,15121.0,381046.0,34013.0,611.5113478235203,183.74809109289424,403.26879512580354
381057.0,16135.0,381057.0,15126.0,381057.0,34032.0,601.5189840867741,178.85898106839784,393.2802826435884
381057.0,16137.0,381057.0,15134.0,381057.0,34001.0,591.5447435127901,174.00909310038804,383.36133020547925
381057.0,16113.0,381057.0,15087.0,381057.0,34009.0,581.5900857660182,169.19793720537086,373.5121896915084
381057.0,16111.0,381057.0,15115.0,381057.0,33958.0,571.656398135611,164.42498556023446,363.7330256006138
381057.0,16085.0,381057.0,15090.0,381057.0,33970.0,561.7449964309129,159.6895301662426,354.0237724115366
381057.0,16062.0,381057.0,15089.0,381057.0,33939.0,551.8570183088129,154.99063044921837,344.383910985973
381067.0,16074.0,381067.0,15084.0,381067.0,33958.0,541.9932454145801,150.32709820109312,334.8123623379628
381067.0,16080.0,381067.0,15110.0,381067.0,33936.0,532.154082976354,145.6975259622251,325.3075696129297
381067.0,16050.0,381067.0,15091.0,381067.0,33947.0,522.3398182462947,141.10051268157014,315.8676994992577
381067.0,16024.0,381067.0,15089.0,381067.0,33920.0,512.5508117134547,136.5349511060984,306.4908518111574
381067.0,16021.0,381067.0,15059.0,381067.0,33899.0,502.7873519191178,132.00009159560454,297.1751417059643
381067.0,16011.0,381067.0,15058.0,381067.0,33890.0,493.04942682379397,127.49534192122917,287.91857566669694
381077.0,16013.0,381077.0,15059.0,381077.0,33915.0,483.33670110546177,123.02001151425162,278.71892367856924
381077.0,15988.0,381077.0,15072.0,381077.0,33889.0,473.6486447453392,118.57325517264229,269.57387907435725
381077.0,15991.0,381077.0,15044.0,381077.0,33865.0,463.9846348196678,114.15423243586184,260.4813300514919
381077.0,15971.0,381077.0,15031.0,381077.0,33856.0,454.343992058161,109.76218516584021,251.4393563986448
381077.0,15957.0,381077.0,15013.0,381077.0,33828.0,444.72598861087647,105.3962289636006,242.44598792229283
381077.0,15953.0,381077.0,15045.0,381077.0,33835.0,435.12981692232904,101.05507903072794,233.49897354986012
381088.0,15950.0,381088.0,15038.0,381088.0,33857.0,425.55458449088064,96.73707882020534,224.59575747129372
381088.0,15935.0,381088.0,15051.0,381088.0,33816.0,415.99941548322033,92.44054972870481,215.73374940672613
381088.0,15924.0,381088.0,15024.0,381088.0,33805.0,406.46356815991646,88.16414213064917,206.91057135223707
381088.0,15906.0,381088.0,14982.0,381088.0,33776.0,396.9464527828602,83.90685996039048,198.12393684906613
381088.0,15889.0,381088.0,15001.0,381088.0,33773.0,387.44754799991335,79.66768400618764,189.3713206992113
381088.0,15891.0,381088.0,15026.0,381088.0,33784.0,377.9662865522422,75.44523511929441,180.6497632313792
381098.0,15879.0,381098.0,15016.0,381098.0,33785.0,368.50202971684314,71.23795294430323,171.95599740166415
381098.0,15870.0,381098.0,15029.0,381098.0,33765.0,359.0541588302053,67.04457367382429,163.28679560882597
381098.0,15838.0,381098.0,14982.0,381098.0,33739.0,349.6221301061754,62.86441915525563,154.63917812397176
381098.0,15834.0,381098.0,14963.0,381098.0,33735.0,340.20536122165936,58.69726465752893,146.0103091922657
381098.0,15822.0,381098.0,14961.0,381098.0,33740.0,330.80304479898814,54.542854125332894,137.3973257678424
381098.0,15820.0,381098.0,14974.0,381098.0,33739.0,321.4140770063708,50.40048386369949,128.79740252719512
381108.0,15824.0,381108.0,14993.0,381108.0,33717.0,312.03716201012094,46.26903107431923,120.20800063111767
381108.0,15815.0,381108.0,14950.0,381108.0,33712.0,302.67105183380977,42.14728155672651,111.62702509428414
381108.0,15787.0,381108.0,14971.0,381108.0,33688.0,293.3147799983442,38.03411341189235,103.05279572278812
381108.0,15766.0,381108.0,14955.0,381108.0,33672.0,283.9676663674361,33.92844976276524,94.48390453634704
381108.0,15772.0,381108.0,14955.0,381108.0,33661.0,274.6291094144484,29.829231465596877,85.9190123431107
381108.0,15758.0,381108.0,14970.0,381108.0,33680.0,265.2984613917595,25.735492816612236,77.35672414643602
381119.0,15751.0,381119.0,14953.0,381119.0,33675.0,255.9751017704474,21.64651802388488,68.79574579421887
381119.0,15742.0,381119.0,14931.0,381119.0,33639.0,246.65855313993632,17.56196514321084,60.23520453369429
381119.0,15730.0,381119.0,14919.0,381119.0,33623.0,237.34855256173398,13.481734889259997,51.674720667726206
381119.0,15711.0,381119.0,14928.0,381119.0,33611.0,228.04507636288042,9.405673375632318,43.114139268082226
381119.0,15685.0,381119.0,14937.0,381119.0,33633.0,218.74825563752415,5.333460913671445,34.553306460814724
381119.0,15702.0,381119.0,14910.0,381119.0,33612.0,209.4582087619192,1.2647536565033874,25.992181700630454
381129.0,15693.0,381129.0,14939.0,381129.0,33602.0,200.1750216185551,-2.8006627268694047,17.431109970112743
381129.0,15673.0,381129.0,14918.0,381129.0,33576.0,190.898946350521,-6.862761981297638,8.87091188978684
381129.0,15646.0,381129.0,14883.0,381129.0,33557.0,181.63051507963667,-10.921210820135684,0.31271279687609876
381129.0,15645.0,381129.0,14891.0,381129.0,33545.0,172.37039251116778,-14.975555550699823,-8.242349600639841
381129.0,15639.0,381129.0,14896.0,381129.0,33556.0,163.1192021548294,-19.025528216459122,-16.793336661080502
381129.0,15631.0,381129.0,14909.0,381129.0,33573.0,153.87754469833953,-23.071053361592703,-25.33941272101447
381139.0,15617.0,381139.0,14881.0,381139.0,33545.0,144.6461235124824,-27.111989832009726,-33.87944151910517
381139.0,15605.0,381139.0,14874.0,381139.0,33508.0,135.42581334114175,-31.1480022441217,-42.411692053396905
381139.0,15584.0,381139.0,14871.0,381139.0,33483.0,126.21762762595529,-35.178693671246606,-50.93404449351226
381139.0,15568.0,381139.0,14867.0,381139.0,33498.0,117.02259455124567,-39.20376885675472,-59.444479669206544
381139.0,15578.0,381139.0,14875.0,381139.0,33483.0,107.84162069777267,-43.22304583335642,-67.94132401456261
381139.0,15574.0,381139.0,14873.0,381139.0,33487.0,98.67552844989314,-47.236328102651385,-76.42313468319867
381150.0,15554.0,381150.0,14859.0,381150.0,33467.0,89.52528533439522,-51.24323654693643,-84.88849607200257
381150.0,15540.0,381150.0,14843.0,381150.0,33443.0,80.39216622159438,-55.243169052208714,-93.3359504155685
381150.0,15513.0,381150.0,14809.0,381150.0,33438.0,71.27768240595287,-59.23551535113222,-101.76412119110114
381150.0,15501.0,381150.0,14837.0,381150.0,33424.0,62.183350374353495,-63.22003401417237,-110.17190593787734
381150.0,15501.0,381150.0,14851.0,381150.0,33448.0,53.11046413167935,-67.1970151962484,-118.55851593056991
381150.0,15494.0,381150.0,14846.0,381150.0,33430.0,44.06003900059534,-71.1669923732897,-126.92325751396174
381160.0,15477.0,381160.0,14836.0,381160.0,33403.0,35.03291875459331,-75.1303228116555,-135.26524536120462
381160.0,15459.0,381160.0,14803.0,381160.0,33379.0,26.02984165057478,-79.08707388230005,-143.58340385972383
381160.0,15447.0,381160.0,14807.0,381160.0,33381.0,17.051356047504555,-83.03726378138595,-151.876764753075
381160.0,15445.0,381160.0,14817.0,381160.0,33359.0,8.097696887134134,-86.98114905082849,-160.14472513918065
381160.0,15449.0,381160.0,14814.0,381160.0,33376.0,-0.8312009218340108,-90.9192371272232,-168.38709991344592
381160.0,15439.0,381160.0,14813.0,381160.0,33358.0,-9.73550163652942,-94.85207450570977,-176.60400510713737
381170.0,15427.0,381170.0,14810.0,381170.0,33354.0,-18.615219971401757,-98.78005740007853,-184.79566522414245
381170.0,15401.0,381170.0,14777.0,381170.0,33329.0,-27.470118827781675,-102.7033883328487,-192.96230850067354
381170.0,15387.0,381170.0,14765.0,381170.0,33308.0,-36.2998222736677,-106.62226768864156,-201.10425936711113
381170.0,15396.0,381170.0,14792.0,381170.0,33317.0,-45.10400010183821,-110.5372129673845,-209.22215120746307
381170.0,15372.0,381170.0,14800.0,381170.0,33313.0,-53.88240542052165,-114.44909289266673,-217.3170165630761
381170.0,15372.0,381170.0,14771.0,381170.0,33301.0,-62.63478350526441,-118.35880755453036,-225.390145483511
381181.0,15359.0,381181.0,14753.0,381181.0,33295.0,-71.36080370422485,-122.26711846827328,-233.44290425041754
381181.0,15330.0,381181.0,14766.0,381181.0,33264.0,-80.06005893286897,-126.17485113274063,-241.47669859731684
381181.0,15317.0,381181.0,14756.0,381181.0,33270.0,-88.73219348498083,-130.08309770116404,-249.493083410414
381181.0,15326.0,381181.0,14766.0,381181.0,33275.0,-97.37710858359094,-133.99317486891346,-257.4938468532223
381181.0,15305.0,381181.0,14765.0,381181.0,33253.0,-105.99501295925575,-137.9064482495752,-265.48089887719163
381181.0,15306.0,381181.0,14761.0,381181.0,33236.0,-114.58630834462394,-141.82413248198122,-273.4561320344211
381191.0,15284.0,381191.0,14751.0,381191.0,33233.0,-123.15149808989645,-145.7471459540564,-281.42147512157055
381191.0,15266.0,381191.0,14727.0,381191.0,33209.0,-131.69120591193996,-149.6761273651893,-289.37903638864225
381191.0,15269.0,381191.0,14730.0,381191.0,33218.0,-140.20628250483026,-153.61163028917576,-297.33119459361797
381191.0,15263.0,381191.0,14742.0,381191.0,33205.0,-148.6978542883072,-157.5543054881909,-305.2805993876683
381191.0,15253.0,381191.0,14731.0,381191.0,33216.0,-157.16721308573528,-161.50485442301812,-313.23004250836277
381191.0,15235.0,381191.0,14738.0,381191.0,33191.0,-165.6156863374099,-165.46383286608295,-321.18225029458654
381201.0,15228.0,381201.0,14700.0,381201.0,33168.0,-174.04462947383092,-169.4315514919263,-329.13978362162027
381201.0,15204.0,381201.0,14682.0,381201.0,33164.0,-182.45551207923074,-173.40824949325287,-337.1051706440833
381201.0,15205.0,381201.0,14680.0,381201.0,33166.0,-190.8500310229192,-177.39452097507393,-345.08109215697243
381201.0,15216.0,381201.0,14704.0,381201.0,33164.0,-199.23013516295634,-181.39164401392412,-353.07035236568163
381201.0,15189.0,381201.0,14704.0,381201.0,33154.0,-207.59785836296805,-185.4014824963421,-361.07566736280535
381201.0,15188.0,381201.0,14726.0,381201.0,33140.0,-215.95511861554087,-189.4260517657716,-369.0994877652738
381212.0,15173.0,381212.0,14685.0,381212.0,33114.0,-224.3036653479278,-193.4670819379495,-377.14399506694997
381212.0,15148.0,381212.0,14661.0,381212.0,33104.0,-232.64513235599748,-197.52593095328558,-385.21128377433433
381212.0,15154.0,381212.0,14685.0,381212.0,33120.0,-240.98114572131567,-201.60389790651703,-393.3035552180171
381212.0,15139.0,381212.0,14675.0,381212.0,33097.0,-249.31340571359556,-205.70247520253622,-401.42309024758947
381212.0,15137.0,381212.0,14684.0,381212.0,33090.0,-257.64364549164566,-209.8232440338487,-409.5720837157601
381212.0,15118.0,381212.0,14663.0,381212.0,33075.0,-265.9735434541832,-213.96766609823044,-417.7525956716412
381222.0,15106.0,381222.0,14644.0,381222.0,33056.0,-274.30470858919284,-218.13706090060418,-425.96664348196566
381222.0,15088.0,381222.0,14648.0,381222.0,33049.0,-282.6387650807684,-222.3327989499678,-434.21634779747797
381222.0,15098.0,381222.0,14652.0,381222.0,33057.0,-290.9774551768063,-226.55648820040886,-442.50403111606204
381222.0,15084.0,381222.0,14653.0,381222.0,33040.0,-299.32261456146375,-230.809931083692,-450.8321474547197
381222.0,15094.0,381222.0,14651.0,381222.0,33030.0,-307.6759878020674,-235.09492089019687,-459.2031280564113
381222.0,15058.0,381222.0,14643.0,381222.0,33021.0,-316.0390194069547,-239.41306362603154,-467.6193251926104
381233.0,15044.0,381233.0,14611.0,381233.0,33006.0,-324.41281876892447,-243.76575683410056,-476.0830458933143
381233.0,15033.0,381233.0,14647.0,381233.0,33014.0,-332.79835359294657,-248.15432735330182,-484.5965682760145
381233.0,15029.0,381233.0,14642.0,381233.0,33018.0,-341.1966613087087,-252.58004667586988,-493.1620290994339
381233.0,15028.0,381233.0,14645.0,381233.0,33005.0,-349.60887606773053,-257.04384172845846,-501.7811440240657
381233.0,15019.0,381233.0,14626.0,381233.0,32980.0,-358.0360935565567,-261.54598031371575,-510.45496288953336
381233.0,15004.0,381233.0,14615.0,381233.0,32978.0,-366.4792132317589,-266.0860145080368,-519.1838663794235
381243.0,14985.0,381243.0,14584.0,381243.0,32953.0,-374.9388955604411,-270.6629840335944,-527.9677129770862
381243.0,14990.0,381243.0,14583.0,381243.0,32943.0,-383.41563424250694,-275.2757845038717,-536.8059925192736
381243.0,14962.0,381243.0,14592.0,381243.0,32947.0,-391.9098138798622,-279.92349415223384,-545.6979458797744
381243.0,14961.0,381243.0,14610.0,381243.0,32935.0,-400.42173284330715,-284.60538182876485,-554.6425597352936
381243.0,14951.0,381243.0,14598.0,381243.0,32919.0,-408.9516398978368,-289.32057808380307,-563.6384526321158
381243.0,14938.0,381243.0,14566.0,381243.0,32889.0,-417.49974005928857,-294.06777768325355,-572.6838709522656
381253.0,14930.0,381253.0,14559.0,381253.0,32884.0,-426.0661717025255,-298.84532369137594,-581.7768960133885
381253.0,14920.0,381253.0,14563.0,381253.0,32893.0,-434.65100146470684,-303.6515335284756,-590.9156539184198
381253.0,14914.0,381253.0,14575.0,381253.0,32884.0,-443.2542086119648,-308.4848380287485,-600.0982651364682
381253.0,14908.0,381253.0,14556.0,381253.0,32865.0,-451.87562649295205,-313.3436222488833,-609.3226148286321
381253.0,14893.0,381253.0,14548.0,381253.0,32854.0,-460.5148592987182,-318.2260574723517,-618.5862414717899
381253.0,14870.0,381253.0,14539.0,381253.0,32839.0,-469.171259135778,-323.13013493151766,-627.8864065893563
381264.0,14857.0,381264.0,14517.0,381264.0,32814.0,-477.8440484255974,-328.0538345260021,-637.2202363917456
381264.0,14853.0,381264.0,14530.0,381264.0,32813.0,-486.5325127769297,-332.9953132504686,-646.5848989901335
381264.0,14851.0,381264.0,14532.0,381264.0,32812.0,-495.2360781768908,-337.9529757842788,-655.9777241873044
381264.0,14843.0,381264.0,14533.0,381264.0,32810.0,-503.9542097922101,-342.925318023527,-665.3961222562732
381264.0,14807.0,381264.0,14509.0,381264.0,32781.0,-512.6862983490705,-347.9107055077569,-674.8373908413512
381264.0,14816.0,381264.0,14491.0,381264.0,32761.0,-521.4317202956895,-352.9073721377465,-684.2986852959937
381274.0,14799.0,381274.0,14494.0,381274.0,32761.0,-530.1899705857022,-357.9136614998622,-693.7772112367666
381274.0,14797.0,381274.0,14512.0,381274.0,32755.0,-538.9606677580134,-362.92819920184536,-703.270378348315
381274.0,14799.0,381274.0,14514.0,381274.0,32739.0,-547.7434374049014,-367.94972307270825,-712.775761729717
381274.0,14769.0,381274.0,14513.0,381274.0,32741.0,-556.5377651134891,-372.97668460322643,-722.2910003873701
381274.0,14760.0,381274.0,14440.0,381274.0,32721.0,-565.3429484163967,-378.00705070123377,-731.8137240249196
381274.0,14754.0,381274.0,14469.0,381274.0,32706.0,-574.1581983658234,-383.03861746714756,-741.3415223774018
381284.0,14751.0,381284.0,14463.0,381284.0,32709.0,-582.9827065993734,-388.069500117473,-750.871979431166
381284.0,14738.0,381284.0,14490.0,381284.0,32681.0,-591.8155666225807,-393.0981899868008,-760.402705828435
381284.0,14729.0,381284.0,14466.0,381284.0,32690.0,-600.6556646908364,-398.1231928360073,-769.9313331110463
381284.0,14713.0,381284.0,14443.0,381284.0,32668.0,-609.5016435348034,-403.14275444889245,-779.4554921450701
381284.0,14684.0,381284.0,14445.0,381284.0,32641.0,-618.351975396791,-408.1549508191431,-788.9728183045477
381284.0,14671.0,381284.0,14426.0,381284.0,32639.0,-627.2051808514827,-413.1579527564809,-798.4810867032884
381295.0,14680.0,381295.0,14434.0,381295.0,32629.0,-636.0600801336998,-418.15019784282595,-807.9783986279449
381295.0,14664.0,381295.0,14443.0,381295.0,32633.0,-644.915842271371,-423.1303928958247,-817.4632047322864
381295.0,14670.0,381295.0,14446.0,381295.0,32621.0,-653.7718219466237,-428.0973125889211,-826.9341529147744
381295.0,14647.0,381295.0,14417.0,381295.0,32586.0,-662.6273702991696,-433.0495237916949,-836.3899572344988
381295.0,14635.0,381295.0,14407.0,381295.0,32591.0,-671.4817492168843,-437.9853412553722,-845.8294700480039
381295.0,14607.0,381295.0,14378.0,381295.0,32579.0,-680.3342138983267,-442.90310373511124,-855.251846106835
381305.0,14615.0,381305.0,14387.0,381305.0,32576.0,-689.1842090736623,-447.801568230327,-864.6565598565157
381305.0,14622.0,381305.0,14400.0,381305.0,32574.0,-698.0314401117107,-452.68013097870755,-874.0432779907737
381305.0,14617.0,381305.0,14393.0,381305.0,32552.0,-706.8756470189819,-457.5387113220696,-883.4117127528025
381305.0,14570.0,381305.0,14389.0,381305.0,32539.0,-715.7163140734706,-462.37747452911924,-892.7615693270488
381305.0,14569.0,381305.0,14369.0,381305.0,32515.0,-724.5527077085342,-467.19669713916255,-902.0926601879837
381305.0,14558.0,381305.0,14368.0,381305.0,32518.0,-733.3841718369633,-471.99684160716356,-911.4051054683521
381315.0,14558.0,381315.0,14384.0,381315.0,32512.0,-742.2102880394284,-476.77865406071066,-920.6994351955229
381315.0,14550.0,381315.0,14370.0,381315.0,32520.0,-751.0307974306593,-481.54307873589926,-929.9764800659107
381315.0,14526.0,381315.0,14376.0,381315.0,32486.0,-759.8454744498799,-486.2910477581222,-939.2371478825082
381315.0,14519.0,381315.0,14333.0,381315.0,32479.0,-768.6541246042252,-491.0233971810894,-948.4823345505702
381315.0,14506.0,381315.0,14348.0,381315.0,32459.0,-777.4566940337254,-495.74102865504904,-957.7130586490882
381315.0,14503.0,381315.0,14319.0,381315.0,32449.0,-786.253347222934,-500.44518515505627,-966.9306657479872
381326.0,14494.0,381326.0,14344.0,381326.0,32449.0,-795.0444440571491,-505.137626224295,-976.1369567307979
381326.0,14499.0,381326.0,14343.0,381326.0,32444.0,-803.8304303876112,-509.82058329212464,-985.3341753211307
381326.0,14475.0,381326.0,14354.0,381326.0,32420.0,-812.6116785257655,-514.4964848932212,-994.5248992787929
381326.0,14465.0,381326.0,14318.0,381326.0,32405.0,-821.3883930091124,-519.1676480204136,-1003.7120274489346
381326.0,14451.0,381326.0,14307.0,381326.0,32411.0,-830.1606625795405,-523.836255283835,-1012.8989030573957
381326.0,14437.0,381326.0,14293.0,381326.0,32405.0,-838.9285814691023,-528.5046623242752,-1022.0893465039912
381336.0,14446.0,381336.0,14332.0,381336.0,32406.0,-847.6923185694602,-533.1756751870344,-1031.2874821961234
381336.0,14428.0,381336.0,14326.0,381336.0,32409.0,-856.4520596068485,-537.8524191439889,-1040.4974625129073
381336.0,14410.0,381336.0,14309.0,381336.0,32366.0,-865.2078971982069,-542.5379243458128,-1049.7232385270272
381336.0,14397.0,381336.0,14290.0,381336.0,32353.0,-873.9598529442471,-547.2349280655417,-1058.968585797063
381336.0,14380.0,381336.0,14283.0,381336.0,32349.0,-882.7080396539614,-551.9460593832537,-1068.2373972463245
381336.0,14377.0,381336.0,14281.0,381336.0,32339.0,-891.4528220409188,-556.6741208789804,-1077.5339192106264
381346.0,14371.0,381346.0,14297.0,381346.0,32346.0,-900.1948787503331,-561.4221859503513,-1086.8627423227429
381346.0,14367.0,381346.0,14284.0,381346.0,32330.0,-908.9351373750342,-566.1934549998364,-1096.2286401884235
381346.0,14349.0,381346.0,14288.0,381346.0,32316.0,-917.6746532719378,-570.9910282440933,-1105.6364135587214
381346.0,14338.0,381346.0,14248.0,381346.0,32306.0,-926.4145596469702,-575.8178257485365,-1115.0908632942646
381346.0,14332.0,381346.0,14247.0,381346.0,32286.0,-935.1561111386175,-580.6767760110002,-1124.596877802302
381346.0,14334.0,381346.0,14265.0,381346.0,32304.0,-943.9006953957362,-585.5711050302925,-1134.1595052742841
381357.0,14326.0,381357.0,14269.0,381357.0,32277.0,-952.6497114263282,-590.5043473283937,-1143.7838931915478
381357.0,14315.0,381357.0,14250.0,381357.0,32284.0,-961.4043834828158,-595.4800585853238,-1153.4751333883828
381357.0,14286.0,381357.0,14229.0,381357.0,32259.0,-970.165682458867,-600.5016547553029,-1163.2381541692073
381357.0,14272.0,381357.0,14233.0,381357.0,32238.0,-978.9344640418892,-605.5725698041084,-1173.0777362188655
381357.0,14270.0,381357.0,14205.0,381357.0,32225.0,-987.7117244285041,-610.6965133951705,-1182.998682503207
381357.0,14268.0,381357.0,14248.0,381357.0,32232.0,-996.4987287054685,-615.8776017548566,-1193.0060226052383
381367.0,14257.0,381367.0,14248.0,381367.0,32215.0,-1005.2969268685217,-621.120189580528,-1203.1050368268138
381367.0,14242.0,381367.0,14214.0,381367.0,32198.0,-1014.1078233855606,-626.4284635723975,-1213.3011565575082
381367.0,14229.0,381367.0,14216.0,381367.0,32193.0,-1022.9329601340844,-631.8062487411453,-1223.5999512076453
381367.0,14209.0,381367.0,14201.0,381367.0,32183.0,-1031.7740187378279,-637.257173065976,-1234.0071792702502
381367.0,14211.0,381367.0,14208.0,381367.0,32179.0,-1040.6329613049904,-642.7848483711833,-1244.5287677436295
381367.0,14216.0,381367.0,14217.0,381367.0,32175.0,-1049.5120638068483,-648.3928507649513,-1255.1707035398913
381377.0,14204.0,381377.0,14212.0,381377.0,32170.0,-1058.4137448969286,-654.0845086190116,-1265.9388670457172
381377.0,14173.0,381377.0,14189.0,381377.0,32148.0,-1067.3403702114308,-659.8626699918884,-1276.8388663324347
381377.0,14164.0,381377.0,14158.0,381377.0,32134.0,-1076.2943032539674,-665.7297387816111,-1287.875989203417
381377.0,14165.0,381377.0,14149.0,381377.0,32120.0,-1085.2781198172231,-671.6880564161448,-1299.0553012304254
381377.0,14164.0,381377.0,14170.0,381377.0,32128.0,-1094.2946661182825,-677.7403132999937,-1310.381737829126
381377.0,14159.0,381377.0,14176.0,381377.0,32118.0,-1103.3468796169223,-683.8895791230258,-1321.8600202178145
381388.0,14131.0,381388.0,14172.0,381388.0,32113.0,-1112.4375869419039,-690.1389458729147,-1333.4944193858296
381388.0,14120.0,381388.0,14161.0,381388.0,32088.0,-1121.5694973950708,-696.4911578429062,-1345.2885561275925
381388.0,14103.0,381388.0,14139.0,381388.0,32072.0,-1130.745385872305,-702.94849971711,-1357.2453806904905
381388.0,14099.0,381388.0,14141.0,381388.0,32052.0,-1139.9682850026875,-709.5129183619287,-1369.3673218015858
381388.0,14099.0,381388.0,14165.0,381388.0,32055.0,-1149.2415447551339,-716.1861131425742,-1381.656459268871
381388.0,14102.0,381388.0,14155.0,381388.0,32032.0,-1158.5687088222453,-722.9693255476684,-1394.1145743691927
381398.0,14079.0,381398.0,14121.0,381398.0,32046.0,-1167.9532764822238,-729.8630102035734,-1406.7430658126195
381398.0,14065.0,381398.0,14120.0,381398.0,32022.0,-1177.3985602943926,-736.8668162686081,-1419.5427757485234
381398.0,14046.0,381398.0,14111.0,381398.0,31985.0,-1186.907762964603,-743.9798366949009,-1432.5138593353222
381398.0,14056.0,381398.0,14110.0,381398.0,31998.0,-1196.4841295902056,-751.2007651458812,-1445.655867839745
381398.0,14043.0,381398.0,14098.0,381398.0,31996.0,-1206.1309505486156,-758.5278857190151,-1458.9678428888433
381398.0,14053.0,381398.0,14104.0,381398.0,31988.0,-1215.8513724275972,-765.9590128909169,-1472.4481142845946
381408.0,14015.0,381408.0,14099.0,381408.0,31973.0,-1225.6481727200612,-773.4913898358645,-1486.093959264027
381408.0,14017.0,381408.0,14081.0,381408.0,31950.0,-1235.5236884142005,-781.1215532847141,-1499.9014227722396
381408.0,13996.0,381408.0,14065.0,381408.0,31943.0,-1245.4799085096292,-788.845306674616,-1513.865329194511
381408.0,13996.0,381408.0,14046.0,381408.0,31936.0,-1255.5185644395572,-796.6578907446103,-1527.9793258022755
381408.0,13992.0,381408.0,14092.0,381408.0,31923.0,-1265.6411090539582,-804.5541473159009,-1542.2358184438795
381408.0,13986.0,381408.0,14098.0,381408.0,31911.0,-1275.8485800613282,-812.5282817856297,-1556.6258361127611
381419.0,13953.0,381419.0,14062.0,381419.0,31902.0,-1286.1414571648918,-820.5732629549278,-1571.1389177308993
381419.0,13931.0,381419.0,14012.0,381419.0,31866.0,-1296.5197273751091,-828.6805545183165,-1585.7630619130505
381419.0,13935.0,381419.0,14023.0,381419.0,31855.0,-1306.9831584824428,-836.8405366414189,-1600.4848088564297
381419.0,13945.0,381419.0,14044.0,381419.0,31849.0,-1317.5314366573305,-845.0430026901676,-1615.289408196934
381419.0,13925.0,381419.0,14031.0,381419.0,31846.0,-1328.1639637890248,-853.2771000188884,-1630.1608466093085
381419.0,13935.0,381419.0,14025.0,381419.0,31842.0,-1338.8795290896496,-861.530943826525,-1645.081642536919
381429.0,13924.0,381429.0,14000.0,381429.0,31827.0,-1349.676041169175,-869.7914204822946,-1660.032542136249
381429.0,13886.0,381429.0,14002.0,381429.0,31809.0,-1360.5503489569005,-878.0442596324679,-1674.9922869968927
381429.0,13869.0,381429.0,13974.0,381429.0,31780.0,-1371.498309389122,-886.2741913539215,-1689.9375635429253
381429.0,13881.0,381429.0,14000.0,381429.0,31782.0,-1382.5150614898964,-894.4650491776462,-1704.8431064715014
381429.0,13862.0,381429.0,13999.0,381429.0,31776.0,-1393.5951325895617,-902.5996757911327,-1719.6817485390147
381429.0,13864.0,381429.0,13974.0,381429.0,31751.0,-1404.7322837463323,-910.6596299200568,-1734.4242940645559
381440.0,13829.0,381440.0,13974.0,381440.0,31730.0,-1415.919357631898,-918.6249904092248,-1749.0394092826425
381440.0,13820.0,381440.0,13934.0,381440.0,31718.0,-1427.1483091950502,-926.474442259109,-1763.4936984578676
381440.0,13818.0,381440.0,13942.0,381440.0,31701.0,-1438.410352552024,-934.1855380042799,-1777.7518433271562
381440.0,13805.0,381440.0,13950.0,381440.0,31689.0,-1449.6960138962866,-941.7349064400998,-1791.776675406072
381440.0,13806.0,381440.0,13959.0,381440.0,31699.0,-1460.9950239287668,-949.0981544334225,-1805.5291499203254
381440.0,13792.0,381440.0,13930.0,381440.0,31663.0,-1472.2961513017435,-956.2495354277049,-1818.9682043510356
381450.0,13769.0,381450.0,13899.0,381450.0,31636.0,-1483.5870806199405,-963.1618266039131,-1832.0506829677156
381450.0,13756.0,381450.0,13894.0,381450.0,31633.0,-1494.8544345253492,-969.8066300440877,-1844.7315209292774
381450.0,13757.0,381450.0,13900.0,381450.0,31626.0,-1506.0838896709101,-976.1547790277407,-1856.9639728089503
381450.0,13758.0,381450.0,13881.0,381450.0,31626.0,-1517.260162382518,-982.1764921771651,-1868.6996016539595
381450.0,13741.0,381450.0,13899.0,381450.0,31619.0,-1528.3667997140692,-987.8413249610264,-1879.8880766362988
381450.0,13736.0,381450.0,13883.0,381450.0,31593.0,-1539.385960549872,-993.1180632028116,-1890.4769812104419
381460.0,13698.0,381460.0,13861.0,381460.0,31573.0,-1550.2983593045735,-997.9746465993472,-1900.4118175648775
381460.0,13707.0,381460.0,13847.0,381460.0,31555.0,-1561.0833849403132,-1002.3783013457004,-1909.6362515597598
381460.0,13685.0,381460.0,13860.0,381460.0,31554.0,-1571.7192461685336,-1006.2958404029861,-1918.0924238461876
381460.0,13676.0,381460.0,13865.0,381460.0,31534.0,-1582.1830180306333,-1009.6937965290526,-1925.721150897229
381460.0,13680.0,381460.0,13861.0,381460.0,31543.0,-1592.450624964003,-1012.5382737916834,-1932.4620117467925
381460.0,13643.0,381460.0,13856.0,381460.0,31540.0,-1602.4968056161447,-1014.7947533981388,-1938.2533405614026
381471.0,13656.0,381471.0,13819.0,381471.0,31486.0,-1612.2951148255465,-1016.4281099266193,-1943.0322160410676
381471.0,13624.0,381471.0,13805.0,381471.0,31475.0,-1621.8179858464828,-1017.4029604973346,-1946.734757245699
381471.0,13633.0,381471.0,13835.0,381471.0,31473.0,-1631.0367808180995,-1017.6841739745759,-1949.2967440658254
381471.0,13631.0,381471.0,13840.0,381471.0,31481.0,-1639.9217656094027,-1017.2370779071193,-1950.654094893219
381471.0,13620.0,381471.0,13824.0,381471.0,31447.0,-1648.441967468334,-1016.0272773199559,-1950.7430315447807
381471.0,13590.0,381471.0,13794.0,381471.0,31436.0,-1656.5650479788774,-1014.0205964541132,-1949.500295750976
381481.0,13591.0,381481.0,13806.0,381481.0,31442.0,-1664.2573946996185,-1011.1834420514489,-1946.8635973525975
381481.0,13580.0,381481.0,13792.0,381481.0,31417.0,-1671.4843252710602,-1007.4832958460407,-1942.7720716117637
381481.0,13576.0,381481.0,13814.0,381481.0,31438.0,-1678.2101844910462,-1002.8890175945469,-1937.1666322915726
381481.0,13573.0,381481.0,13798.0,381481.0,31423.0,-1684.3983314301659,-997.3709657624186,-1929.9902649631017
381481.0,13556.0,381481.0,13790.0,381481.0,31419.0,-1690.0111128536657,-990.901127098102,-1921.1882968468947
381481.0,13529.0,381481.0,13788.0,381481.0,31406.0,-1695.009943532883,-983.4534219942124,-1910.7087745433105
381491.0,13532.0,381491.0,13778.0,381491.0,31396.0,-1699.355573586167,-975.0041460612915,-1898.503026288513
381491.0,13528.0,381491.0,13789.0,381491.0,31393.0,-1703.0083801718379,-965.5324050660448,-1884.526333503948
381491.0,13521.0,381491.0,13820.0,381491.0,31428.0,-1705.9284884975757,-955.0204043564743,-1868.7385391612402
381491.0,13522.0,381491.0,13806.0,381491.0,31428.0,-1708.0757861594295,-943.4534983291213,-1851.1043859544257
381491.0,13517.0,381491.0,13800.0,381491.0,31430.0,-1709.409941378553,-930.8202251422608,-1831.5936685413933
381491.0,13494.0,381491.0,13819.0,381491.0,31429.0,-1709.8904729765684,-917.1126023696384,-1810.1815389470576
381502.0,13480.0,381502.0,13823.0,381502.0,31449.0,-1709.476988742511,-902.3265119435539,-1786.8490369260053
381502.0,13496.0,381502.0,13838.0,381502.0,31481.0,-1708.1295692108365,-886.461941910879,-1761.5835789465532
381502.0,13489.0,381502.0,13848.0,381502.0,31492.0,-1705.8090330439509,-869.5231478633834,-1734.3792202162979
381502.0,13484.0,381502.0,13890.0,381502.0,31515.0,-1702.4770144747395,-851.5187623690648,-1705.2368156166265
381502.0,13474.0,381502.0,13892.0,381502.0,31541.0,-1698.0960847754554,-832.4617632190552,-1674.16425579276
381502.0,13461.0,381502.0,13904.0,381502.0,31564.0,-1692.6300545780318,-812.3694094880626,-1641.1767480067806
381512.0,13458.0,381512.0,13939.0,381512.0,31599.0,-1686.0444056331517,-791.263321048292,-1606.297068634603
381512.0,13484.0,381512.0,13953.0,381512.0,31654.0,-1678.306691273082,-769.1695856225657,-1569.5557281172748
381512.0,13477.0,381512.0,14009.0,381512.0,31684.0,-1669.3867184814794,-746.1187044672723,-1530.990958577677
381512.0,13484.0,381512.0,14013.0,381512.0,31724.0,-1659.256579396331,-722.1453839329728,-1490.648610128203
381512.0,13469.0,381512.0,14038.0,381512.0,31785.0,-1647.890798324513,-697.2883500010626,-1448.582100333798
381512.0,13473.0,381512.0,14074.0,381512.0,31825.0,-1635.2666963505324,-671.5903344264549,-1404.8523343923066
381522.0,13480.0,381522.0,14107.0,381522.0,31872.0,-1621.3648569796983,-645.098087546374,-1359.527551799859
381522.0,13500.0,381522.0,14155.0,381522.0,31953.0,-1606.169501286649,-617.8622139976563,-1312.6831663313205
381522.0,13510.0,381522.0,14224.0,381522.0,32027.0,-1589.6686740262726,-589.9367751881298,-1264.401439273573
381522.0,13523.0,381522.0,14226.0,381522.0,32089.0,-1571.854326206258,-561.3787014079322,-1214.7708559753703
381522.0,13523.0,381522.0,14277.0,381522.0,32134.0,-1552.7224523515704,-532.2472992022263,-1163.885476253672
381522.0,13542.0,381522.0,14306.0,381522.0,32211.0,-1532.273355568223,-502.6040403707631,-1111.844535066306
381533.0,13570.0,381533.0,14365.0,381533.0,32275.0,-1510.511937318357,-472.51239187689964,-1058.752168983018
381533.0,13596.0,381533.0,14413.0,381533.0,32370.0,-1487.4478297543224,-442.03744790148266,-1004.7169960867823
381533.0,13622.0,381533.0,14451.0,381533.0,32454.0,-1463.0953502091884,-411.2454004393089,-949.8514346299096
381533.0,13652.0,381533.0,14487.0,381533.0,32523.0,-1437.4734029974368,-380.20304263457757,-894.270835856493
381533.0,13675.0,381533.0,14528.0,381533.0,32595.0,-1410.6054029360519,-348.97743830458563,-838.0926681789633
381533.0,13702.0,381533.0,14559.0,381533.0,32664.0,-1382.5192442546822,-317.63570692170464,-781.4359149236427
381543.0,13737.0,381543.0,14627.0,381543.0,32758.0,-1353.2473141322507,-286.244796412311,-724.4205725645389
381543.0,13776.0,381543.0,14664.0,381543.0,32850.0,-1322.8264730508017,-254.87110803494755,-667.1670088203849
381543.0,13842.0,381543.0,14718.0,381543.0,32931.0,-1291.2978713961152,-223.579961053698,-609.7950856662848
381543.0,13863.0,381543.0,14746.0,381543.0,32991.0,-1258.7065545641365,-192.43506910023928,-552.423249787212
381543.0,13888.0,381543.0,14773.0,381543.0,33074.0,-1225.1010839203964,-161.49819610524446,-495.16784968126365
381543.0,13951.0,381543.0,14801.0,381543.0,33138.0,-1190.5334028568195,-130.82905449649127,-438.142653320494
381553.0,13984.0,381553.0,14860.0,381553.0,33209.0,-1155.058750071105,-100.48531414456704,-381.4584148723692
381553.0,14041.0,381553.0,14899.0,381553.0,33303.0,-1118.735395775291,-70.52244084776339,-325.2224179917482
381553.0,14074.0,381553.0,14914.0,381553.0,33343.0,-1081.6243103473237,-40.99335236910497,-269.53795364704524
381553.0,14133.0,381553.0,14958.0,381553.0,33387.0,-1043.7888768660118,-11.948187715696804,-214.50391518866786
381553.0,14170.0,381553.0,14969.0,381553.0,33461.0,-1005.294621269701,16.565714915356466,-160.21473801653474
381553.0,14206.0,381553.0,15014.0,381553.0,33548.0,-966.2089762983331,44.50377481064652,-106.76039124866747
381564.0,14271.0,381564.0,15068.0,381564.0,33596.0,-926.6011216166853,71.82422144360976,-54.2260317985922
381564.0,14344.0,381564.0,15085.0,381564.0,33654.0,-886.5417299647258,98.4883680994933,-2.6915182931302297
381564.0,14379.0,381564.0,15114.0,381564.0,33706.0,-846.1024430547961,124.46094790147788,47.76886580170367
381564.0,14426.0,381564.0,15123.0,381564.0,33755.0,-805.3553157505114,149.7102200519571,97.08649862502602
381564.0,14467.0,381564.0,15145.0,381564.0,33802.0,-764.3725257187486,174.20782719595877,145.1984417928834
381564.0,14532.0,381564.0,15190.0,381564.0,33843.0,-723.2262389639818,197.9286073108551,192.04740599732304
381574.0,14595.0,381574.0,15206.0,381574.0,33883.0,-681.9883455855419,220.85057758365826,237.5816441653535
381574.0,14655.0,381574.0,15251.0,381574.0,33968.0,-640.7299561629474,242.95511133166508,281.7548732033449
381574.0,14676.0,381574.0,15247.0,381574.0,33984.0,-599.5208466716757,264.2271366643256,324.52639802561
381574.0,14740.0,381574.0,15249.0,381574.0,34023.0,-558.4291369954619,284.65514095375113,365.8612936645727
381574.0,14769.0,381574.0,15262.0,381574.0,34045.0,-517.5211926800083,304.23085411220006,405.7303088259714
381574.0,14832.0,381574.0,15288.0,381574.0,34117.0,-476.86153725258134,322.94880938105825,444.10959119031213
381584.0,14889.0,381584.0,15323.0,381584.0,34147.0,-436.51265153154816,340.8061380816654,480.9806199229963
381584.0,14943.0,381584.0,15329.0,381584.0,34173.0,-396.53460319354497,357.8026652942067,516.3303542683839
381584.0,14968.0,381584.0,15351.0,381584.0,34204.0,-356.9846179022272,373.94106776264243,550.1512689689475
381584.0,14997.0,381584.0,15331.0,381584.0,34231.0,-317.9168814675031,389.2268511880368,582.4411838476383
381584.0,15061.0,381584.0,15351.0,381584.0,34245.0,-279.38261367690154,403.6680739742012,613.2030274427052
381584.0,15107.0,381584.0,15371.0,381584.0,34285.0,-241.43007205480205,417.27498319919243,642.4445813216541
381595.0,15147.0,381595.0,15395.0,381595.0,34320.0,-204.1042977039017,430.0598640929127,670.1782940335495
381595.0,15190.0,381595.0,15394.0,381595.0,34325.0,-167.44681212919295,442.0371370979724,696.4212454059102
381595.0,15200.0,381595.0,15407.0,381595.0,34323.0,-131.49548416815105,453.22343701282773,721.1950260411013
381595.0,15243.0,381595.0,15376.0,381595.0,34348.0,-96.28462436586392,463.63747138217207,744.5253108842883
381595.0,15279.0,381595.0,15400.0,381595.0,34374.0,-61.84519223348548,473.29963534089563,766.4413629511073
381595.0,15322.0,381595.0,15420.0,381595.0,34385.0,-28.204882543431722,482.2316170652374,786.9757719776987
381605.0,15361.0,381605.0,15430.0,381605.0,34406.0,4.611977131194635,490.45631494928864,806.1643542032957
381605.0,15402.0,381605.0,15429.0,381605.0,34413.0,36.58462139680137,497.9979828375249,824.0460301051992
381605.0,15418.0,381605.0,15404.0,381605.0,34405.0,67.6960280737485,504.88221806931733,840.6626040582585
381605.0,15448.0,381605.0,15424.0,381605.0,34412.0,97.93295846771275,511.1356458469629,856.0583758627738
381605.0,15472.0,381605.0,15431.0,381605.0,34446.0,127.28583112675324,516.7855621882925,870.2796941039087
381605.0,15511.0,381605.0,15431.0,381605.0,34458.0,155.7485772515422,521.8598078107023,883.3747555012792
381615.0,15518.0,381615.0,15459.0,381615.0,34446.0,183.31857116816423,526.3868194518616,895.3936345917257
381615.0,15548.0,381615.0,15442.0,381615.0,34450.0,209.99653892976426,530.3957363057771,906.3881698294374
381615.0,15574.0,381615.0,15420.0,381615.0,34445.0,235.78639454734162,533.9164068534856,916.4115810442968
381615.0,15567.0,381615.0,15410.0,381615.0,34445.0,260.69505645154845,536.9790624220757,925.5180128918639
381615.0,15594.0,381615.0,15458.0,381615.0,34444.0,284.73216716737625,539.6138528131694,933.7621199602447
381615.0,15633.0,381615.0,15428.0,381615.0,34467.0,307.90975443895877,541.8507226503788,941.1987423863518
381626.0,15663.0,381626.0,15440.0,381626.0,34461.0,330.24213705965667,543.7195465263932,947.8827552188334
381626.0,15668.0,381626.0,15441.0,381626.0,34476.0,351.7460891917042,545.250141524829,953.8690452392825
381626.0,15667.0,381626.0,15424.0,381626.0,34442.0,372.4408741644497,546.4721622234176,959.2124232431686
381626.0,15694.0,381626.0,15413.0,381626.0,34461.0,392.34796103306553,547.4149217392945,963.9673384703294
381626.0,15709.0,381626.0,15426.0,381626.0,34474.0,411.49067624778536,548.1070973879855,968.187547222177
381626.0,15733.0,381626.0,15444.0,381626.0,34486.0,429.8940427133375,548.5765547642569,971.9260394934056
381636.0,15732.0,381636.0,15456.0,381636.0,34477.0,447.5847346624928,548.8505119294426,975.2351895054292
381636.0,15740.0,381636.0,15419.0,381636.0,34438.0,464.59094112269304,548.9558303143215,978.1667378543966
381636.0,15745.0,381636.0,15420.0,381636.0,34453.0,480.9420642671846,548.9190085004844,980.771378953264
381636.0,15760.0,381636.0,15387.0,381636.0,34468.0,496.6683610288893,548.765786946697,983.0982617315542
381636.0,15786.0,381636.0,15437.0,381636.0,34466.0,511.8006950043757,548.5207027936221,985.1948370614477
381636.0,15799.0,381636.0,15458.0,381636.0,34490.0,526.3704867212434,548.207057351537,987.107005805635
381646.0,15804.0,381646.0,15412.0,381646.0,34451.0,540.4097702098697,547.8473258353586,988.8792603744191
381646.0,15807.0,381646.0,15428.0,381646.0,34464.0,553.9511504732377,547.4634035013344,990.5546058204711
381646.0,15808.0,381646.0,15384.0,381646.0,34470.0,567.0275778525051,547.0763535453694,992.1743035589573
381646.0,15826.0,381646.0,15402.0,381646.0,34437.0,579.672041451124,546.7059474740308,993.7776569137393
381646.0,15835.0,381646.0,15428.0,381646.0,34478.0,591.9173404340809,546.3703615429865,995.4018412102091
381646.0,15848.0,381646.0,15435.0,381646.0,34460.0,603.7959908311861,546.0862917116146,997.0817892925318
381657.0,15858.0,381657.0,15419.0,381657.0,34461.0,615.3401959601954,545.8693448667995,998.8502061456793
381657.0,15840.0,381657.0,15405.0,381657.0,34434.0,626.5817580010932,545.7342059168388,1000.7374828180875
381657.0,15855.0,381657.0,15392.0,381657.0,34433.0,637.5518183824479,545.6944041877891,1002.7713365776153
381657.0,15868.0,381657.0,15413.0,381657.0,34458.0,648.2805150030877,545.7619538767349,1004.9764050065382
381657.0,15878.0,381657.0,15416.0,381657.0,34498.0,658.7967940890828,545.9472121617829,1007.374203961577
381657.0,15902.0,381657.0,15433.0,381657.0,34482.0,669.1284202405427,546.2590416038299,1009.9835578870561
381667.0,15907.0,381667.0,15422.0,381667.0,34497.0,679.3020825513254,546.7050842527199,1012.8210788286146
381667.0,15914.0,381667.0,15411.0,381667.0,34473.0,689.3434987689564,547.2918982533525,1015.9013049844486
381667.0,15914.0,381667.0,15391.0,381667.0,34474.0,699.2774033071535,548.0248089741126,1019.2365205193951
381667.0,15923.0,381667.0,15426.0,381667.0,34499.0,709.1274000707831,548.9075958723103,1022.8364828341457
381667.0,15938.0,381667.0,15458.0,381667.0,34508.0,718.9157966751425,549.9424480040927,1026.708354385301
381667.0,15953.0,381667.0,15451.0,381667.0,34522.0,728.6635467968492,551.1304066194832,1030.856921718292
381678.0,15950.0,381678.0,15410.0,381678.0,34504.0,738.3902898220742,552.4718090779974,1035.2848323299509
381678.0,15958.0,381678.0,15394.0,381678.0,34524.0,748.1143353406974,553.9661168167272,1039.992620528296
381678.0,15953.0,381678.0,15432.0,381678.0,34519.0,757.8525048370172,555.6113155693862,1044.9786011324463
381678.0,15969.0,381678.0,15445.0,381678.0,34543.0,767.6198987981027,557.4036467544494,1050.2388232537176
381678.0,15994.0,381678.0,15487.0,381678.0,34561.0,777.4297465531029,559.3379797307679,1055.7671773081297
381678.0,15995.0,381678.0,15445.0,381678.0,34560.0,787.2934516898442,561.4084283926401,1061.5556331303637
381688.0,16002.0,381688.0,15448.0,381688.0,34568.0,797.2207071553105,563.6086334835007,1067.5944454678543
381688.0,16015.0,381688.0,15437.0,381688.0,34556.0,807.219493493529,565.9315408252899,1073.8721631960339
381688.0,16021.0,381688.0,15459.0,381688.0,34571.0,817.296006457472,568.3690541075982,1080.3754668591394
381688.0,16038.0,381688.0,15457.0,381688.0,34596.0,827.4546209992752,570.9119267393088,1087.0890291898813
381688.0,16054.0,381688.0,15488.0,381688.0,34601.0,837.6979157283624,573.5499011234612,1093.9955933213591
381688.0,16059.0,381688.0,15487.0,381688.0,34613.0,848.0267536531924,576.2719944693587,1101.0761963372354
381698.0,16072.0,381698.0,15485.0,381698.0,34615.0,858.4403503210046,579.0667938595604,1108.3103161120864
381698.0,16077.0,381698.0,15475.0,381698.0,34610.0,868.9362686205366,581.9225545068487,1115.6758611097796
381698.0,16090.0,381698.0,15478.0,381698.0,34655.0,879.5103686100624,584.8270530021238,1123.1490948752585
381698.0,16110.0,381698.0,15504.0,381698.0,34674.0,890.1567792377095,587.7674205689399,1130.7047569979493
