c_ts,c_val,d_ts,d_val,e_ts,e_val,c_val_filtered,d_val_filtered,e_val_filtered
712.0,11698.0,712.0,13621.0,712.0,44521.0,38.29949397999011,-43.32814668103497,-48.99711770276646
712.0,11683.0,712.0,13626.0,712.0,44509.0,33.85465833591114,-45.15114919762729,-57.476281875727025
712.0,11663.0,712.0,13616.0,712.0,44503.0,29.294068112551514,-47.046868037603744,-66.18342232211545
712.0,11676.0,712.0,13634.0,712.0,44495.0,24.62397440747592,-49.018695067024794,-75.11264794021288
712.0,11668.0,712.0,13647.0,712.0,44499.0,19.850285879673628,-51.06981339298916,-84.25791671677241
712.0,11677.0,712.0,13644.0,712.0,44491.0,14.978628676312944,-53.202908849279765,-93.61294380284217
722.0,11656.0,722.0,13619.0,722.0,44452.0,10.014488451291939,-55.419917530092405,-103.171121221683
722.0,11652.0,722.0,13602.0,722.0,44449.0,4.963250132869405,-57.72211082132391,-112.92566190441663
722.0,11634.0,722.0,13618.0,722.0,44468.0,-0.1699193792600937,-60.11045310730591,-122.86985089212064
722.0,11645.0,722.0,13609.0,722.0,44428.0,-5.380242552225852,-62.58585367403326,-132.997070010879
722.0,11643.0,722.0,13619.0,722.0,44450.0,-10.663384744685928,-65.14915897261515,-143.30067313947305
722.0,11641.0,722.0,13617.0,722.0,44424.0,-16.015337456767256,-67.80103294446793,-153.773916681949
733.0,11628.0,733.0,13617.0,733.0,44411.0,-21.432273108024546,-70.54183263957896,-164.40992724996423
733.0,11621.0,733.0,13593.0,733.0,44412.0,-26.910521230869747,-73.37155600950423,-175.2017310600113
733.0,11632.0,733.0,13595.0,733.0,44373.0,-32.44661763622632,-76.28996305012592,-186.1423513406604
733.0,11626.0,733.0,13610.0,733.0,44415.0,-38.03725667965159,-79.2967569652993,-197.22488290925287
733.0,11615.0,733.0,13609.0,733.0,44354.0,-43.67914471844742,-82.39156429900626,-208.44246117278644
733.0,11622.0,733.0,13605.0,733.0,44391.0,-49.36890462450566,-85.57372821237107,-219.78817434764136
743.0,11597.0,743.0,13595.0,743.0,44340.0,-55.10305979420005,-88.84217193173313,-231.2550324513299
743.0,11591.0,743.0,13583.0,743.0,44331.0,-60.87809371878703,-92.19545179024337,-242.83603983730856
743.0,11570.0,743.0,13585.0,743.0,44335.0,-66.6906378445301,-95.63192502042432,-254.52438161852243
743.0,11588.0,743.0,13589.0,743.0,44332.0,-72.53769272053891,-99.14987651703632,-266.31351981087363
743.0,11578.0,743.0,13611.0,743.0,44325.0,-78.41668219448212,-102.74744879669669,-278.1970314500897
743.0,11574.0,743.0,13587.0,743.0,44295.0,-84.32533063517388,-106.42238330617519,-290.16841757672887
753.0,11561.0,753.0,13567.0,753.0,44280.0,-90.26156361530673,-110.17186051001843,-302.2211443595768
753.0,11570.0,753.0,13554.0,753.0,44289.0,-96.22351105533488,-113.99269989140119,-314.348837644966
753.0,11560.0,753.0,13585.0,753.0,44279.0,-102.20948742723934,-117.88169937104803,-326.54533163359326
753.0,11564.0,753.0,13595.0,753.0,44269.0,-108.21789039295314,-121.83563462442429,-338.80450308659374
753.0,11543.0,753.0,13566.0,753.0,44248.0,-114.24710697783362,-125.85090625917391,-351.1201320855067
753.0,11538.0,753.0,13544.0,753.0,44241.0,-120.29552851894789,-129.92337124463268,-363.48592716009307
764.0,11538.0,764.0,13525.0,764.0,44224.0,-126.3616542044281,-134.04866429237143,-375.89562796749647
764.0,11522.0,764.0,13530.0,764.0,44185.0,-132.4441658807128,-138.2227179038327,-388.3431513235508
764.0,11527.0,764.0,13551.0,764.0,44198.0,-138.54194989182466,-142.44204005105792,-400.82283947550843
764.0,11524.0,764.0,13549.0,764.0,44194.0,-144.65408623132527,-146.70357760335975,-413.3296408197026
764.0,11524.0,764.0,13542.0,764.0,44172.0,-150.779760522835,-151.00438012813206,-425.8590309943247
764.0,11511.0,764.0,13539.0,764.0,44168.0,-156.91813731198087,-155.34139605786612,-438.40687283650095
774.0,11506.0,774.0,13523.0,774.0,44146.0,-163.0683080267103,-159.71147619956173,-450.9694177243934
774.0,11480.0,774.0,13530.0,774.0,44151.0,-169.22936625139718,-164.11147338200126,-463.5433593969265
774.0,11490.0,774.0,13522.0,774.0,44164.0,-175.40058201223948,-168.53832096681657,-476.1257622870967
774.0,11499.0,774.0,13539.0,774.0,44132.0,-181.58150308686427,-172.9889992576646,-488.71379769660643
774.0,11487.0,774.0,13530.0,774.0,44133.0,-187.77182348878048,-177.46037371809928,-501.30449837751496
774.0,11475.0,774.0,13493.0,774.0,44079.0,-193.9711850882515,-181.94907104251482,-513.8947845810284
784.0,11469.0,784.0,13481.0,784.0,44084.0,-200.17915725194354,-186.45167447877841,-526.4817636940728
784.0,11455.0,784.0,13490.0,784.0,44073.0,-206.39535606408904,-190.96517375041236,-539.0630769052548
784.0,11468.0,784.0,13509.0,784.0,44072.0,-212.61954326971562,-195.48720018283484,-551.6370177658926
784.0,11461.0,784.0,13498.0,784.0,44076.0,-218.85159567193057,-200.01584070987408,-564.2023883190907
784.0,11455.0,784.0,13486.0,784.0,44062.0,-225.09135915848168,-204.54935463310125,-576.7582405859109
784.0,11440.0,784.0,13483.0,784.0,44031.0,-231.3385533087398,-209.08612104070275,-589.3036896337858
795.0,11434.0,795.0,13485.0,795.0,44047.0,-237.59282575018395,-213.62473801899148,-601.8379277791403
795.0,11436.0,795.0,13471.0,795.0,44026.0,-243.85385913588325,-218.16407336103723,-614.360276033759
795.0,11434.0,795.0,13480.0,795.0,43997.0,-250.1213830234217,-222.7032668172498,-626.8701554469101
795.0,11424.0,795.0,13491.0,795.0,44022.0,-256.39508257155137,-227.24167785366046,-639.3671180021098
795.0,11411.0,795.0,13453.0,795.0,43987.0,-262.67454370138586,-231.77875668611375,-651.8508642347329
795.0,11404.0,795.0,13460.0,795.0,43944.0,-268.95932377722175,-236.3140430074329,-664.3212475858434
805.0,11399.0,805.0,13455.0,805.0,43958.0,-275.24907901432744,-240.84735718410306,-676.7785366790807
805.0,11405.0,805.0,13463.0,805.0,43956.0,-281.54362113365687,-245.37890871082783,-689.2237230333803
805.0,11410.0,805.0,13448.0,805.0,43952.0,-287.8428203029044,-249.90922681313737,-701.6584573159591
805.0,11391.0,805.0,13454.0,805.0,43916.0,-294.1464029413604,-254.43908318364217,-714.0848164758122
805.0,11368.0,805.0,13449.0,805.0,43938.0,-300.4538710518506,-258.9694655236046,-726.5052518097057
805.0,11373.0,805.0,13444.0,805.0,43903.0,-306.7646746315244,-263.501545201722,-738.9226207573047
816.0,11372.0,816.0,13437.0,816.0,43913.0,-313.07841456844307,-268.0366592358084,-751.3401485450781
816.0,11385.0,816.0,13450.0,816.0,43893.0,-319.3948068868405,-272.5763146547289,-763.7613742278265
816.0,11357.0,816.0,13455.0,816.0,43896.0,-325.71347109028517,-277.1220937750423,-776.1900911437273
816.0,11356.0,816.0,13441.0,816.0,43889.0,-332.0338178399135,-281.6754360608358,-788.6302371483218
816.0,11331.0,816.0,13418.0,816.0,43844.0,-338.35516347601015,-286.23753126862573,-801.0858154555447
816.0,11339.0,816.0,13413.0,816.0,43845.0,-344.67694795519503,-290.80950394219064,-813.5610260696152
826.0,11319.0,826.0,13401.0,826.0,43841.0,-350.99889837371796,-295.39274553286043,-826.060530776087
826.0,11330.0,826.0,13428.0,826.0,43842.0,-357.3210955954962,-299.9891168562148,-838.5895176413112
826.0,11338.0,826.0,13420.0,826.0,43836.0,-363.64391768523313,-304.6008629879948,-851.153504157757
826.0,11319.0,826.0,13418.0,826.0,43820.0,-369.9678459798473,-309.2303457729472,-863.7581035020074
826.0,11311.0,826.0,13416.0,826.0,43805.0,-376.2933098520239,-313.879850888543,-876.4089237222192
826.0,11306.0,826.0,13402.0,826.0,43800.0,-382.62072597876073,-318.55155033832,-889.1116057461999
836.0,11314.0,836.0,13404.0,836.0,43787.0,-388.9505782996143,-323.2475514955206,-901.8718786064801
836.0,11307.0,836.0,13415.0,836.0,43790.0,-395.2833524699184,-327.96993144065794,-914.6955365847774
836.0,11290.0,836.0,13411.0,836.0,43756.0,-401.619407766851,-332.7206310545436,-927.588374517953
836.0,11279.0,836.0,13393.0,836.0,43749.0,-407.95898880574936,-337.50128367821503,-940.5562166671324
836.0,11265.0,836.0,13369.0,836.0,43750.0,-414.3024114584264,-342.3132454083584,-953.6050450332392
836.0,11267.0,836.0,13375.0,836.0,43713.0,-420.6502792803086,-347.1578856621883,-966.7410771745217
847.0,11260.0,847.0,13359.0,847.0,43724.0,-427.00359686881546,-352.0368951186094,-979.9708115443509
847.0,11270.0,847.0,13372.0,847.0,43709.0,-433.36373965815415,-356.9524248054805,-993.3010765742073
847.0,11263.0,847.0,13396.0,847.0,43721.0,-439.73230642722416,-361.9070036595323,-1006.7389416312811
847.0,11253.0,847.0,13346.0,847.0,43686.0,-446.1109495930693,-366.9032810356242,-1020.2915058207454
847.0,11245.0,847.0,13362.0,847.0,43666.0,-452.50131275841346,-371.943909785104,-1033.965819393654
847.0,11245.0,847.0,13365.0,847.0,43690.0,-458.9050754612913,-377.0316710043609,-1047.7689962192378
857.0,11244.0,857.0,13372.0,857.0,43684.0,-465.3239694852108,-382.16947002766966,-1061.708171038031
857.0,11232.0,857.0,13351.0,857.0,43658.0,-471.75971810675753,-387.36012869707713,-1075.7901757963375
857.0,11237.0,857.0,13337.0,857.0,43661.0,-478.2139731030683,-392.60631177680557,-1090.0212930314938
857.0,11206.0,857.0,13336.0,857.0,43624.0,-484.68831219954546,-397.91070277274287,-1104.407247986579
857.0,11207.0,857.0,13328.0,857.0,43586.0,-491.1843474974187,-403.27622062617803,-1118.9533927058894
857.0,11196.0,857.0,13331.0,857.0,43610.0,-497.70392054418426,-408.70611124733875,-1133.6650596613795
867.0,11205.0,867.0,13343.0,867.0,43578.0,-504.249222095707,-414.20389557906867,-1148.5477993886698
867.0,11199.0,867.0,13342.0,867.0,43585.0,-510.82273937093726,-419.7731659911957,-1163.6073238694962
867.0,11196.0,867.0,13306.0,867.0,43578.0,-517.4271076302057,-425.41737255369094,-1178.8493376145111
867.0,11184.0,867.0,13332.0,867.0,43548.0,-524.0649995636445,-431.1398277538316,-1194.2793776858869
867.0,11182.0,867.0,13294.0,867.0,43550.0,-530.7391110938607,-436.9438485970205,-1209.9027373537363
867.0,11182.0,867.0,13333.0,867.0,43541.0,-537.4521767245428,-442.8328153975421,-1225.7244610654582
878.0,11184.0,878.0,13336.0,878.0,43539.0,-544.2069091150761,-448.8100237045692,-1241.7492344935815
878.0,11171.0,878.0,13321.0,878.0,43526.0,-551.0058648175204,-454.87831913729633,-1257.9811553336965
878.0,11157.0,878.0,13317.0,878.0,43522.0,-557.8513716784887,-461.03979632265793,-1274.423508149631
878.0,11174.0,878.0,13292.0,878.0,43457.0,-564.7455623459728,-467.29580266852383,-1291.0786827710065
878.0,11130.0,878.0,13270.0,878.0,43462.0,-571.6904085726566,-473.64718821648944,-1307.9484041048277
878.0,11148.0,878.0,13303.0,878.0,43463.0,-578.6877845780607,-480.09461939274615,-1325.0340870978143
888.0,11158.0,888.0,13303.0,888.0,43468.0,-585.739535120224,-486.6386227127111,-1342.336835145491
888.0,11139.0,888.0,13305.0,888.0,43455.0,-592.8473438210873,-493.27923901803536,-1359.8570414268665
888.0,11132.0,888.0,13283.0,888.0,43445.0,-600.012529181302,-500.0156565478826,-1377.593965495514
888.0,11119.0,888.0,13264.0,888.0,43437.0,-607.2360454805034,-506.84616080682963,-1395.5454692767412
888.0,11114.0,888.0,13260.0,888.0,43384.0,-614.5186197143782,-513.7683688765633,-1413.707922616192
888.0,11113.0,888.0,13295.0,888.0,43401.0,-621.8608484731087,-520.779414311311,-1432.0763128520098
898.0,11114.0,898.0,13285.0,898.0,43400.0,-629.2631839063038,-527.8757467556165,-1450.6443419885536
898.0,11094.0,898.0,13254.0,898.0,43377.0,-636.725843158143,-535.0527345842056,-1469.404218193743
898.0,11094.0,898.0,13253.0,898.0,43359.0,-644.2487728000508,-542.3045745866289,-1488.3463522906695
898.0,11074.0,898.0,13237.0,898.0,43352.0,-651.831720870488,-549.6245270606034,-1507.4592569833135
898.0,11077.0,898.0,13215.0,898.0,43325.0,-659.4743456925798,-557.0051790129089,-1526.7295459177606
898.0,11070.0,898.0,13233.0,898.0,43318.0,-667.176280527487,-564.4386547328045,-1546.1419196215147
909.0,11073.0,909.0,13238.0,909.0,43295.0,-674.9370994332885,-571.9166606462888,-1565.6791610133455
909.0,11073.0,909.0,13203.0,909.0,43312.0,-682.7561823176828,-579.4303080408481,-1585.3220721710009
909.0,11066.0,909.0,13206.0,909.0,43267.0,-690.6325297926822,-586.9700276051698,-1605.0492820837003
909.0,11040.0,909.0,13206.0,909.0,43256.0,-698.5646472524614,-594.525691423094,-1624.8370879079323
909.0,11052.0,909.0,13210.0,909.0,43244.0,-706.5505933221733,-602.08663917319,-1644.6594821967685
909.0,11053.0,909.0,13202.0,909.0,43223.0,-714.5880348759723,-609.6415056515303,-1664.4882130656624
919.0,11049.0,919.0,13214.0,919.0,43201.0,-722.6741063153984,-617.1780037660085,-1684.2927809957944
919.0,11027.0,919.0,13201.0,919.0,43189.0,-730.8052087734441,-624.6827159889103,-1704.0404723486681
919.0,11017.0,919.0,13173.0,919.0,43185.0,-738.9770023026981,-632.1409654974375,-1723.6963840310857
919.0,11007.0,919.0,13177.0,919.0,43150.0,-747.1845810450477,-639.5369111204698,-1743.2233533474714
919.0,11015.0,919.0,13168.0,919.0,43160.0,-755.4226210548194,-646.8537552604281,-1762.5818751161396
919.0,11001.0,919.0,13189.0,919.0,43145.0,-763.6853653429916,-654.0737819800684,-1781.7300011801924
929.0,11000.0,929.0,13183.0,929.0,43132.0,-771.966517143959,-661.1781387770322,-1800.623132524166
929.0,10986.0,929.0,13158.0,929.0,43104.0,-780.2591751566334,-668.1465548738124,-1819.2138348719777
929.0,10980.0,929.0,13138.0,929.0,43079.0,-788.5558413195661,-674.9573184056508,-1837.4518653909736
929.0,10987.0,929.0,13138.0,929.0,43064.0,-796.8484345603166,-681.587565778068,-1855.284381678609
929.0,10974.0,929.0,13136.0,929.0,43065.0,-805.12822171783,-688.0135661694878,-1872.656130257929
929.0,10978.0,929.0,13135.0,929.0,43052.0,-813.3856800655626,-694.2107813296809,-1889.509432129484
940.0,10985.0,940.0,13142.0,940.0,43032.0,-821.6103382645788,-700.1537601273112,-1905.7840299001782
940.0,10953.0,940.0,13091.0,940.0,43012.0,-829.7906021276293,-705.8160568458309,-1921.4170290578081
940.0,10929.0,940.0,13088.0,940.0,42967.0,-837.9137476683184,-711.1704290382236,-1936.3430749752397
940.0,10932.0,940.0,13117.0,940.0,42960.0,-845.9662113268454,-716.1892287728815,-1950.4947616029153
940.0,10931.0,940.0,13105.0,940.0,42977.0,-853.9338843414519,-720.8444984086277,-1963.8030250399008
940.0,10935.0,940.0,13107.0,940.0,42946.0,-861.8021182618951,-725.1077211983676,-1976.1972064342517
950.0,10922.0,950.0,13086.0,950.0,42934.0,-869.5555412219148,-728.9496586777761,-1987.6049442929097
950.0,10919.0,950.0,13085.0,950.0,42924.0,-877.1779121014833,-732.3404437307514,-1997.9522506107485
950.0,10906.0,950.0,13071.0,950.0,42891.0,-884.6520920020921,-735.249800758091,-2007.163758990625
950.0,10909.0,950.0,13093.0,950.0,42911.0,-891.960074872636,-737.6472279674957,-2015.163005482428
950.0,10905.0,950.0,13088.0,950.0,42898.0,-899.0829827249864,-739.50200110121,-2021.8726089844686
950.0,10902.0,950.0,13081.0,950.0,42880.0,-906.0009875704886,-740.7830441085522,-2027.2143071302946
960.0,10887.0,960.0,13070.0,960.0,42840.0,-912.6932315180883,-741.4589045316675,-2031.1091375272517
960.0,10868.0,960.0,13046.0,960.0,42845.0,-919.1378711455217,-741.4979762684468,-2033.4779712672116
960.0,10858.0,960.0,13044.0,960.0,42817.0,-925.312295385474,-740.8689221566136,-2034.2421705505938
960.0,10858.0,960.0,13022.0,960.0,42829.0,-931.1934022778485,-739.5411739476632,-2033.3241240547723
960.0,10868.0,960.0,13056.0,960.0,42803.0,-936.7577309200416,-737.4853487789303,-2030.6476686504607
960.0,10864.0,960.0,13040.0,960.0,42804.0,-941.9813643639627,-734.6734272996421,-2026.1385092471903
971.0,10859.0,971.0,13037.0,971.0,42807.0,-946.8397377836301,-731.0787712981003,-2019.7246776721859
971.0,10846.0,971.0,13030.0,971.0,42769.0,-951.3075510120746,-726.6762630295915,-2011.3370167860035
971.0,10834.0,971.0,13040.0,971.0,42766.0,-955.3588611194904,-721.4426015060984,-2000.9098216688883
971.0,10843.0,971.0,13057.0,971.0,42777.0,-958.9672708529855,-715.3565177570952,-1988.3816603382475
971.0,10838.0,971.0,13058.0,971.0,42790.0,-962.1060437818552,-708.3987924353929,-1973.6960462420338
971.0,10826.0,971.0,13058.0,971.0,42798.0,-964.7481146200464,-700.5522181133666,-1956.8018026043073
981.0,10821.0,981.0,13017.0,981.0,42793.0,-966.8661554618609,-691.8017841375199,-1937.6533551898913
981.0,10814.0,981.0,13056.0,981.0,42782.0,-968.4327615389925,-682.1351878020408,-1916.211230357875
981.0,10808.0,981.0,13058.0,981.0,42801.0,-969.4206683355989,-671.543340429428,-1892.442808434624
981.0,10806.0,981.0,13073.0,981.0,42811.0,-969.8029523742928,-660.0205388821857,-1866.3231151059013
981.0,10812.0,981.0,13086.0,981.0,42875.0,-969.5531922658932,-647.5644505250135,-1837.8353624755935
981.0,10809.0,981.0,13082.0,981.0,42866.0,-968.6455504157998,-634.1761587116582,-1806.9711555891224
991.0,10797.0,991.0,13098.0,991.0,42895.0,-967.0548349262788,-619.8603295797893,-1773.7306462498623
991.0,10801.0,991.0,13135.0,991.0,42925.0,-964.7566599026393,-604.6254009520128,-1738.1229217573352
991.0,10797.0,991.0,13158.0,991.0,42985.0,-961.727680689628,-588.4835584367084,-1700.1664221312299
991.0,10794.0,991.0,13169.0,991.0,43018.0,-957.9458117309671,-571.4504964294657,-1659.8890738633409
991.0,10801.0,991.0,13171.0,991.0,43069.0,-953.3904257782012,-553.5452833668451,-1617.32823268151
991.0,10807.0,991.0,13202.0,991.0,43112.0,-948.0425189685789,-534.7904865488848,-1572.530654998832
1001.0,10799.0,1001.0,13198.0,1001.0,43180.0,-941.8848242212126,-515.2123960355598,-1525.5524968319755
1001.0,10806.0,1001.0,13229.0,1001.0,43208.0,-934.9019626053373,-494.8412335526903,-1476.459269861467
1001.0,10807.0,1001.0,13270.0,1001.0,43307.0,-927.0806696612324,-473.71129293346746,-1425.325773046098
1001.0,10816.0,1001.0,13303.0,1001.0,43367.0,-918.4100141935442,-451.86084112086,-1372.2358964787459
1001.0,10837.0,1001.0,13344.0,1001.0,43452.0,-908.8815350830946,-429.3317583821464,-1317.2821675640266
1001.0,10839.0,1001.0,13374.0,1001.0,43524.0,-898.4892681341876,-406.16910470375217,-1260.565164294401
1011.0,10842.0,1011.0,13398.0,1011.0,43602.0,-887.2297542947363,-382.4207567211131,-1202.1929504796672
1011.0,10846.0,1011.0,13448.0,1011.0,43676.0,-875.1021832406204,-358.13714610658513,-1142.2805620535378
1011.0,10877.0,1011.0,13478.0,1011.0,43764.0,-862.1086198147058,-333.37099263390564,-1080.949532864162
1011.0,10896.0,1011.0,13520.0,1011.0,43879.0,-848.2540826378213,-308.1769473156812,-1018.3273287301315
1011.0,10905.0,1011.0,13565.0,1011.0,43968.0,-833.546430298978,-282.6111924784039,-954.5465117893965
1011.0,10911.0,1011.0,13577.0,1011.0,44037.0,-817.996287686946,-256.7310617674014,-889.7437645839364
1022.0,10923.0,1022.0,13617.0,1022.0,44129.0,-801.6171761266327,-230.59478956924846,-824.0591358856416
1022.0,10951.0,1022.0,13661.0,1022.0,44233.0,-784.4257316197995,-204.26138799615478,-757.6355078894244
1022.0,10979.0,1022.0,13696.0,1022.0,44328.0,-766.4417921855394,-177.7904390804406,-690.6179483516019
1022.0,11003.0,1022.0,13764.0,1022.0,44420.0,-747.6882829274552,-151.24169098854992,-623.1528742437648
1022.0,11025.0,1022.0,13775.0,1022.0,44500.0,-728.1910216295782,-124.67452715838215,-555.3872488845565
1022.0,11061.0,1022.0,13795.0,1022.0,44613.0,-707.9785534184106,-98.14754522770113,-487.4679089986789
1032.0,11085.0,1032.0,13861.0,1032.0,44722.0,-687.0819772276838,-71.71841382557812,-419.5408307659402
1032.0,11122.0,1032.0,13880.0,1032.0,44798.0,-665.5347206430682,-45.443736176048105,-351.7502026163088
1032.0,11143.0,1032.0,13942.0,1032.0,44924.0,-643.3723005703255,-19.378687943579962,-284.23747004184474
1032.0,11172.0,1032.0,13947.0,1032.0,44995.0,-620.6321293559215,6.423402518706098,-217.14044894892822
1032.0,11203.0,1032.0,13980.0,1032.0,45058.0,-597.3533854466066,31.91131069363564,-150.59255964053864
1032.0,11233.0,1032.0,14004.0,1032.0,45148.0,-573.5768947587361,57.03595021214551,-84.7223874350907
1042.0,11261.0,1042.0,14023.0,1042.0,45217.0,-549.3449850602799,81.75029994157387,-19.65349072341678
1042.0,11300.0,1042.0,14067.0,1042.0,45281.0,-524.7013302555908,106.00935496093598,44.49578447831823
1042.0,11338.0,1042.0,14114.0,1042.0,45360.0,-499.6907508218357,129.7702223481465,107.61245308309276
1042.0,11358.0,1042.0,14154.0,1042.0,45448.0,-474.3589568402091,152.9924866839376,169.58903274110617
1042.0,11404.0,1042.0,14161.0,1042.0,45521.0,-448.7523232376203,175.63869690458841,230.323860651921
1042.0,11431.0,1042.0,14183.0,1042.0,45585.0,-422.91770790078226,197.67462368294855,289.7215281532244
1053.0,11461.0,1053.0,14192.0,1053.0,45658.0,-396.90225854390906,219.06917926945601,347.69322186684485
1053.0,11503.0,1053.0,14226.0,1053.0,45725.0,-370.75323514384894,239.79420327623734,404.1569562808945
1053.0,11541.0,1053.0,14256.0,1053.0,45768.0,-344.5178140356968,259.82436028556947,459.0377613594826
1053.0,11568.0,1053.0,14280.0,1053.0,45833.0,-318.24281952162005,279.1372432897042,512.2677509394848
1053.0,11600.0,1053.0,14280.0,1053.0,45896.0,-291.97448265085416,297.7135299823151,563.7860945859902
1053.0,11622.0,1053.0,14296.0,1053.0,45936.0,-265.75832279239364,315.5369457359128,613.539040820049
1063.0,11675.0,1063.0,14314.0,1063.0,45986.0,-239.6390837191891,332.5940359181884,661.4799350089768
1063.0,11699.0,1063.0,14341.0,1063.0,46033.0,-213.6605790439802,348.8739848543138,707.5691183165052
1063.0,11731.0,1063.0,14361.0,1063.0,46092.0,-187.8654475802058,364.36862353603226,751.7738164896487
1063.0,11766.0,1063.0,14363.0,1063.0,46104.0,-162.2949548210173,379.0725272691807,794.0680885822771
1063.0,11797.0,1063.0,14375.0,1063.0,46167.0,-136.9888472498052,392.98300520262524,834.4327010975846
1063.0,11812.0,1063.0,14381.0,1063.0,46176.0,-111.98522171765808,406.0999272774262,872.8548879253992
1073.0,11840.0,1073.0,14410.0,1073.0,46229.0,-87.32049764181158,418.4255364194437,909.3280877757838
1073.0,11888.0,1073.0,14433.0,1073.0,46292.0,-63.02945436121888,429.96443216628495,943.8517829804214
1073.0,11907.0,1073.0,14440.0,1073.0,46291.0,-39.14513414240275,440.72374994355357,976.4315532123007
1073.0,11948.0,1073.0,14428.0,1073.0,46292.0,-15.698607683233377,450.7132990681631,1007.0790466630206
1073.0,11965.0,1073.0,14380.0,1073.0,46318.0,7.28123908301086,459.94530307656726,1035.811473883282
1073.0,11988.0,1073.0,14439.0,1073.0,46377.0,29.76782301294361,468.43371778278413,1062.6509598602306
1084.0,12014.0,1084.0,14442.0,1084.0,46387.0,51.736879450429115,476.19370343981143,1087.6243163820336
1084.0,12043.0,1084.0,14445.0,1084.0,46425.0,73.16644729018503,483.2416370911384,1110.7631429181074
1084.0,12062.0,1084.0,14471.0,1084.0,46434.0,94.03691121686552,489.5953084522911,1132.1038787440443
1084.0,12090.0,1084.0,14454.0,1084.0,46435.0,114.33107147857334,495.27400130728074,1151.6876737540815
1084.0,12092.0,1084.0,14461.0,1084.0,46444.0,134.03416088475285,500.2984638927287,1169.5600444115516
1084.0,12130.0,1084.0,14475.0,1084.0,46451.0,153.1337772098815,504.69077371956166,1185.7703722054084
1094.0,12149.0,1094.0,14475.0,1094.0,46481.0,171.61982457668205,508.47424187189176,1200.3714617143987
1094.0,12158.0,1094.0,14456.0,1094.0,46465.0,189.48454517349296,511.67337833319664,1213.41927002189
1094.0,12199.0,1094.0,14472.0,1094.0,46479.0,206.72256271185813,514.3137293836924,1224.9726560291833
1094.0,12179.0,1094.0,14463.0,1094.0,46472.0,223.3308791914062,516.4216368730928,1235.0930041836755
1094.0,12217.0,1094.0,14444.0,1094.0,46471.0,239.3087846761456,518.0240359228293,1243.8437773931196
1094.0,12243.0,1094.0,14452.0,1094.0,46464.0,254.65773077725783,519.1481849779752,1251.2900477452013
1104.0,12213.0,1104.0,14450.0,1104.0,46474.0,269.38128929364575,519.8213576991876,1257.4980212054802
1104.0,12255.0,1104.0,14474.0,1104.0,46497.0,283.4850239530973,520.0707184268318,1262.5347019317028
1104.0,12275.0,1104.0,14479.0,1104.0,46496.0,296.9762609785025,519.9234612867774,1266.4678235901465
1104.0,12280.0,1104.0,14465.0,1104.0,46500.0,309.86406793326023,519.4070602807386,1269.3659180188993
1104.0,12274.0,1104.0,14442.0,1104.0,46468.0,322.159311095907,518.5493198523181,1271.2982357323135
1104.0,12291.0,1104.0,14444.0,1104.0,46477.0,333.8744753756466,517.3780833814837,1272.3343845146683
1115.0,12327.0,1115.0,14479.0,1115.0,46495.0,345.0234285570443,515.9209204830826,1272.543904457018
1115.0,12324.0,1115.0,14464.0,1115.0,46477.0,355.62143910389443,514.2051827899116,1271.99608884701
1115.0,12323.0,1115.0,14434.0,1115.0,46473.0,365.6852952991318,512.2582188876327,1270.7599373658381
1115.0,12315.0,1115.0,14429.0,1115.0,46450.0,375.23317108013543,510.10723754139894,1268.9039277053707
1115.0,12328.0,1115.0,14423.0,1115.0,46452.0,384.28424207934574,507.7788588072008,1266.4956033815301
1115.0,12349.0,1115.0,14438.0,1115.0,46447.0,392.8583568708291,505.29878725259425,1263.6011799335379
1125.0,12350.0,1125.0,14437.0,1125.0,46468.0,400.9759510155154,502.691788565631,1260.2853433968453
1125.0,12354.0,1125.0,14456.0,1125.0,46438.0,408.6580737504846,499.9818796793011,1256.611251057434
1125.0,12366.0,1125.0,14440.0,1125.0,46456.0,415.92633441216435,497.19258792565995,1252.6405401472182
1125.0,12354.0,1125.0,14421.0,1125.0,46423.0,422.80276994011774,494.3470801170223,1248.433210900789
1125.0,12373.0,1125.0,14406.0,1125.0,46414.0,429.30967526537665,491.4679827064664,1244.0473779381532
1125.0,12376.0,1125.0,14430.0,1125.0,46415.0,435.4694444450646,488.57703596546537,1239.5389103015038
1135.0,12385.0,1135.0,14447.0,1135.0,46433.0,441.30450479948377,485.6950044076109,1234.9611687410008
1135.0,12391.0,1135.0,14415.0,1135.0,46431.0,446.8373129757117,482.8419318008836,1230.3650570106736
1135.0,12381.0,1135.0,14386.0,1135.0,46385.0,452.0903110300202,480.03724428671046,1225.7991608205043
1135.0,12389.0,1135.0,14405.0,1135.0,46399.0,457.0857790715273,477.2994014489591,1221.3095680592012
1135.0,12401.0,1135.0,14387.0,1135.0,46416.0,461.8456444574058,474.64548528620344,1216.939518477096
1135.0,12400.0,1135.0,14384.0,1135.0,46413.0,466.39138848419566,472.09102600620713,1212.7293670369309
1146.0,12415.0,1146.0,14416.0,1146.0,46399.0,470.74404987016067,469.64996290909914,1208.7167927563366
1146.0,12409.0,1146.0,14396.0,1146.0,46392.0,474.9242332700147,467.3347600958042,1204.9368308070625
1146.0,12419.0,1146.0,14403.0,1146.0,46395.0,478.9520836937286,465.15662393422974,1201.4216861818918
1146.0,12409.0,1146.0,14386.0,1146.0,46388.0,482.84720390540804,463.12556891487475,1198.2005564815524
1146.0,12419.0,1146.0,14406.0,1146.0,46382.0,486.6285121310232,461.25033760493875,1195.2995234981277
1146.0,12438.0,1146.0,14406.0,1146.0,46421.0,490.3141284889157,459.53839698708146,1192.741508609099
1156.0,12443.0,1156.0,14381.0,1156.0,46404.0,493.9214231001863,457.9960270911738,1190.5464206605675
1156.0,12441.0,1156.0,14389.0,1156.0,46374.0,497.467170654813,456.628277046545,1188.7313478696526
1156.0,12433.0,1156.0,14391.0,1156.0,46404.0,500.96758219345475,455.4387802589615,1187.310440979191
1156.0,12418.0,1156.0,14393.0,1156.0,46397.0,504.4380961897871,454.4296734216549,1186.294675322587
1156.0,12442.0,1156.0,14395.0,1156.0,46413.0,507.89303567142906,453.6016536486783,1185.6918576398848
1156.0,12446.0,1156.0,14416.0,1156.0,46423.0,511.34539396978323,452.9540866428948,1185.5068044409463
1166.0,12463.0,1166.0,14414.0,1166.0,46431.0,514.8068903010236,452.4852043262724,1185.741556077002
1166.0,12461.0,1166.0,14417.0,1166.0,46424.0,518.2881510768478,452.19235147737686,1186.3955697020947
1166.0,12465.0,1166.0,14405.0,1166.0,46430.0,521.79882431401,452.0721114397953,1187.4657777326738
1166.0,12466.0,1166.0,14421.0,1166.0,46433.0,525.3475701361872,452.12027456038084,1188.946521945049
1166.0,12495.0,1166.0,14443.0,1166.0,46455.0,528.9420282442322,452.33185184030253,1190.829521164626
1166.0,12478.0,1166.0,14416.0,1166.0,46476.0,532.5888915950807,452.7012614298329,1193.1040164182168
1177.0,12481.0,1177.0,14419.0,1177.0,46456.0,536.2939747401599,453.2224432587866,1195.7570452507177
1177.0,12487.0,1177.0,14418.0,1177.0,46466.0,540.0621106648904,453.8887137785738,1198.773568307248
1177.0,12494.0,1177.0,14416.0,1177.0,46475.0,543.8969993916241,454.69256136251477,1202.1363575361606
1177.0,12505.0,1177.0,14426.0,1177.0,46468.0,547.8011761623717,455.62554852925996,1205.8258630422308
1177.0,12498.0,1177.0,14414.0,1177.0,46504.0,551.7760505161582,456.6782787377464,1209.820174505457
1177.0,12514.0,1177.0,14432.0,1177.0,46510.0,555.821906901283,457.84037136513746,1214.0951182773015
1187.0,12516.0,1187.0,14456.0,1187.0,46527.0,559.9378768982841,459.1005160033991,1218.6245151509675
1187.0,12532.0,1187.0,14433.0,1187.0,46517.0,564.1219660195999,460.4466873592178,1223.3804154311852
1187.0,12534.0,1187.0,14448.0,1187.0,46542.0,568.3711432113342,461.8663248221288,1228.333156326472
1187.0,12546.0,1187.0,14465.0,1187.0,46570.0,572.6814384831263,463.34635971381783,1233.4514024443013
1187.0,12552.0,1187.0,14491.0,1187.0,46583.0,577.0480224573922,464.8733678734976,1238.7024030789512
1187.0,12551.0,1187.0,14476.0,1187.0,46592.0,581.4652578494902,466.4339471627822,1244.0523802869343
1197.0,12569.0,1197.0,14453.0,1197.0,46604.0,585.9267108948915,468.01494795842314,1249.4667998925972
1197.0,12571.0,1197.0,14457.0,1197.0,46627.0,590.4251694536897,469.6032717221809,1254.9105224695618
1197.0,12565.0,1197.0,14476.0,1197.0,46638.0,594.9526760979702,471.1855072306215,1260.3479912425191
1197.0,12574.0,1197.0,14472.0,1197.0,46643.0,599.5004711851838,472.7478217788592,1265.743460071547
1197.0,12600.0,1197.0,14492.0,1197.0,46655.0,604.0589028424653,474.27609970062275,1271.0611372003846
1197.0,12613.0,1197.0,14501.0,1197.0,46688.0,608.6175328280976,475.75615056549844,1276.265282354112
1208.0,12614.0,1208.0,14489.0,1208.0,46684.0,613.165424417643,477.17392274965385,1281.3204141720523
1208.0,12632.0,1208.0,14514.0,1208.0,46684.0,617.6913779010313,478.51563784155053,1286.1915299716272
1208.0,12616.0,1208.0,14496.0,1208.0,46709.0,622.1840189294718,479.7678443128758,1290.8441487638956
1208.0,12632.0,1208.0,14544.0,1208.0,46723.0,626.6317603128942,480.9175163704994,1295.244332457905
1208.0,12652.0,1208.0,14515.0,1208.0,46764.0,631.0227327534337,481.9522692540961,1299.3589413598738
1208.0,12662.0,1208.0,14528.0,1208.0,46748.0,635.3448771455269,482.8605679527427,1303.1560785199401
1218.0,12662.0,1218.0,14516.0,1218.0,46763.0,639.58617656715,483.6317415347002,1306.6054346056972
1218.0,12661.0,1218.0,14513.0,1218.0,46755.0,643.7347834831937,484.2558378674947,1309.6783521995476
1218.0,12670.0,1218.0,14527.0,1218.0,46777.0,647.7789676733947,484.72347085484546,1312.3477460910526
1218.0,12685.0,1218.0,14545.0,1218.0,46778.0,651.7070471678621,485.0258102700408,1314.588092985408
1218.0,12692.0,1218.0,14520.0,1218.0,46816.0,655.5074482800997,485.1547509173836,1316.3755805507897
1218.0,12706.0,1218.0,14540.0,1218.0,46827.0,659.1688708326124,485.10303475093167,1317.6884571053363
1229.0,12702.0,1229.0,14530.0,1229.0,46802.0,662.6804496694506,484.8642270503027,1318.507445100073
1229.0,12700.0,1229.0,14552.0,1229.0,46830.0,666.031811636032,484.43272699935545,1318.8159155422845
1229.0,12714.0,1229.0,14556.0,1229.0,46817.0,669.2130081422353,483.80392013291436,1318.5998442204477
1229.0,12713.0,1229.0,14573.0,1229.0,46850.0,672.2144450700674,482.97445461782297,1317.847843709053
1229.0,12744.0,1229.0,14550.0,1229.0,46859.0,675.0269358209182,481.94252818658856,1316.5513950553163
1229.0,12747.0,1229.0,14540.0,1229.0,46819.0,677.6419142409053,480.7079611970712,1314.7051378557437
1239.0,12751.0,1239.0,14529.0,1239.0,46839.0,680.0517287959061,479.27196278572603,1312.3069012744304
1239.0,12750.0,1239.0,14531.0,1239.0,46824.0,682.249830066512,477.63678237640346,1309.3574721310647
1239.0,12736.0,1239.0,14517.0,1239.0,46830.0,684.2307486006957,475.80545292952155,1305.8604239269773
1239.0,12762.0,1239.0,14522.0,1239.0,46856.0,685.989946310404,473.78162586351397,1301.8221363059474
1239.0,12758.0,1239.0,14557.0,1239.0,46838.0,687.5237419400777,471.56953600389977,1297.2519987642436
1239.0,12755.0,1239.0,14553.0,1239.0,46821.0,688.8293734919338,469.174264410237,1292.1626203160574
1249.0,12757.0,1249.0,14535.0,1249.0,46791.0,689.9050196420966,466.6021491859814,1286.5697088741522
1249.0,12755.0,1249.0,14525.0,1249.0,46789.0,690.749711432597,463.8609130517862,1280.4916158934423
1249.0,12762.0,1249.0,14540.0,1249.0,46811.0,691.3632456049945,460.9594872382906,1273.948934329173
1249.0,12779.0,1249.0,14525.0,1249.0,46798.0,691.7461927005464,457.9078876234724,1266.964473115957
1249.0,12781.0,1249.0,14508.0,1249.0,46769.0,691.9000505275984,454.7171893728607,1259.5634233459284
1249.0,12770.0,1249.0,14504.0,1249.0,46760.0,691.8274438154078,451.39937108066937,1251.773276262545
1260.0,12765.0,1260.0,14462.0,1260.0,46741.0,691.5321554917819,447.9669754397696,1243.6234679726124
1260.0,12759.0,1260.0,14502.0,1260.0,46714.0,691.0189530738791,444.4327135517895,1235.1449827194197
1260.0,12767.0,1260.0,14486.0,1260.0,46718.0,690.2933800451593,440.80926341708516,1226.369974482549
1260.0,12762.0,1260.0,14497.0,1260.0,46730.0,689.3616517045158,437.10938766619813,1217.3315293543465
1260.0,12770.0,1260.0,14485.0,1260.0,46693.0,688.2306532874948,433.34613334727453,1208.0636951501929
1260.0,12763.0,1260.0,14466.0,1260.0,46662.0,686.9079733776617,429.53287455625315,1198.6014675552142
1270.0,12754.0,1270.0,14460.0,1270.0,46648.0,685.401899532685,425.68315296536144,1188.9803998189263
1270.0,12758.0,1270.0,14454.0,1270.0,46656.0,683.7213273119328,421.8104089100181,1179.236093905865
1270.0,12764.0,1270.0,14467.0,1270.0,46647.0,681.8756654119443,417.92780699418904,1169.4039969378557
1270.0,12754.0,1270.0,14465.0,1270.0,46612.0,679.8748418570525,414.0482772041713,1159.5194289258916
1270.0,12753.0,1270.0,14428.0,1270.0,46625.0,677.7293299935762,410.1846213499408,1149.617506733145
1270.0,12740.0,1270.0,14440.0,1270.0,46577.0,675.4500765921177,406.34940716640006,1139.7329267007963
1280.0,12731.0,1280.0,14428.0,1280.0,46561.0,673.0483296974677,402.5547022781269,1129.8996574198077
1280.0,12737.0,1280.0,14417.0,1280.0,46559.0,670.5354286103995,398.811896540494,1120.150515222972
1280.0,12731.0,1280.0,14427.0,1280.0,46568.0,667.9226649216546,395.1316083219447,1110.516866172456
1280.0,12743.0,1280.0,14440.0,1280.0,46534.0,665.2212769690694,391.52368245497485,1101.0286335953826
1280.0,12733.0,1280.0,14405.0,1280.0,46545.0,662.4425328319087,387.99732808087333,1091.7143571892097
1280.0,12725.0,1280.0,14411.0,1280.0,46516.0,659.597794241861,384.56115727026884,1082.6011266649843
1291.0,12722.0,1291.0,14436.0,1291.0,46518.0,656.6984639080958,381.2230755516309,1073.7144699541388
1291.0,12727.0,1291.0,14424.0,1291.0,46512.0,653.7558745775964,377.99036405287575,1065.0782618857515
1291.0,12711.0,1291.0,14421.0,1291.0,46511.0,650.7812348154039,374.86994288004155,1056.7147152443063
1291.0,12721.0,1291.0,14404.0,1291.0,46486.0,647.7856007840273,371.8684633685996,1048.6444291505616
1291.0,12701.0,1291.0,14410.0,1291.0,46453.0,644.7798190203608,368.9921783891222,1040.88627750953
1291.0,12706.0,1291.0,14372.0,1291.0,46471.0,641.7744398539016,366.2467341768213,1033.4570599595809
1301.0,12701.0,1301.0,14397.0,1301.0,46439.0,638.7796173068164,363.6369138412741,1026.3711737511398
1301.0,12699.0,1301.0,14388.0,1301.0,46468.0,635.8050477529496,361.16644165743435,1019.6405002919425
1301.0,12693.0,1301.0,14407.0,1301.0,46465.0,632.8599449849235,358.8380200008613,1013.274499823156
1301.0,12697.0,1301.0,14379.0,1301.0,46459.0,629.9530088787517,356.6535016679403,1007.2804693184958
1301.0,12686.0,1301.0,14387.0,1301.0,46444.0,627.0923995009483,354.6139425040275,1001.6637508068186
1301.0,12674.0,1301.0,14393.0,1301.0,46437.0,624.2856819745421,352.7195241598656,996.4276996501669
1311.0,12678.0,1311.0,14397.0,1311.0,46438.0,621.5396851775665,350.9695655030398,991.5735239081071
1311.0,12693.0,1311.0,14389.0,1311.0,46450.0,618.8603974777928,349.3626611284981,987.1002172894468
1311.0,12695.0,1311.0,14383.0,1311.0,46436.0,616.2530793944155,347.89675473582577,983.0046605297669
1311.0,12685.0,1311.0,14375.0,1311.0,46453.0,613.7225059722193,346.56905432693884,979.2817778979879
1311.0,12678.0,1311.0,14380.0,1311.0,46413.0,611.2730796603869,345.37587631106,975.9246072706472
1311.0,12641.0,1311.0,14401.0,1311.0,46429.0,608.9086759281431,344.31259062431366,972.9241989409959
1322.0,12690.0,1322.0,14387.0,1322.0,46424.0,606.6323307575535,343.37376614526204,970.2694202902077
1322.0,12700.0,1322.0,14383.0,1322.0,46437.0,604.4461786814766,342.55334453870637,967.9468973149689
1322.0,12677.0,1322.0,14413.0,1322.0,46480.0,602.3518132845234,341.8446909227155,965.9412350317491
1322.0,12683.0,1322.0,14404.0,1322.0,46451.0,600.3505985694901,341.2407077344893,964.2354868305159
1322.0,12657.0,1322.0,14393.0,1322.0,46460.0,598.4436053166839,340.7340484342949,962.8115757839921
1322.0,12670.0,1322.0,14393.0,1322.0,46464.0,596.631370716173,340.3171560497103,961.6504094192796
1332.0,12666.0,1332.0,14412.0,1332.0,46472.0,594.9137159920124,339.98215512883195,960.7318929285276
1332.0,12691.0,1332.0,14436.0,1332.0,46474.0,593.2897555685645,339.72094340167416,960.0350559482331
1332.0,12666.0,1332.0,14413.0,1332.0,46491.0,591.7580815951687,339.52554209016535,959.5382389149624
1332.0,12658.0,1332.0,14392.0,1332.0,46477.0,590.3168688682791,339.38830442967117,959.2192809848195
1332.0,12658.0,1332.0,14400.0,1332.0,46463.0,588.9637241329399,339.30170540909046,959.0555928392853
1332.0,12664.0,1332.0,14389.0,1332.0,46458.0,587.6954700532851,339.2579801088757,959.0239754571198
1342.0,12671.0,1342.0,14404.0,1342.0,46488.0,586.5081108249342,339.24893265468427,959.1003576002462
1342.0,12679.0,1342.0,14432.0,1342.0,46517.0,585.3969775089967,339.2659888939815,959.2598575085559
1342.0,12681.0,1342.0,14405.0,1342.0,46531.0,584.3569439347607,339.3004627039113,959.4773011215121
1342.0,12688.0,1342.0,14403.0,1342.0,46511.0,583.3826343942653,339.34375693212104,959.7278374032259
1342.0,12670.0,1342.0,14389.0,1342.0,46523.0,582.4685565090792,339.3872321190544,959.9872225498945
1342.0,12679.0,1342.0,14418.0,1342.0,46521.0,581.6090987300579,339.4219496992804,960.2317981624659
1353.0,12679.0,1353.0,14434.0,1353.0,46525.0,580.798451335143,339.43868256356734,960.4384515345417
1353.0,12688.0,1353.0,14443.0,1353.0,46539.0,580.0306069332607,339.4282823132026,960.584666076838
1353.0,12671.0,1353.0,14452.0,1353.0,46529.0,579.2994386384922,339.3821566068434,960.6486302449287
1353.0,12676.0,1353.0,14386.0,1353.0,46519.0,578.5987023061163,339.2924926211574,960.6092964161822
1353.0,12680.0,1353.0,14411.0,1353.0,46521.0,577.9219529100963,339.15197595981886,960.4462689971563
1353.0,12675.0,1353.0,14430.0,1353.0,46529.0,577.2625088297291,338.9533108469001,960.1396317231905
1363.0,12683.0,1363.0,14444.0,1363.0,46516.0,576.6134824677024,338.6891813386828,959.6698827788749
1363.0,12684.0,1363.0,14435.0,1363.0,46570.0,575.9678288462287,338.352639624093,959.0180107629192
1363.0,12690.0,1363.0,14421.0,1363.0,46534.0,575.3184306164756,337.9373752435988,958.165754623518
1363.0,12683.0,1363.0,14412.0,1363.0,46528.0,574.6581994705546,337.4376246257435,957.0958579455611
1363.0,12678.0,1363.0,14418.0,1363.0,46547.0,573.9801071652573,336.84789720834505,955.7920308090902
1363.0,12691.0,1363.0,14429.0,1363.0,46553.0,573.2771382912902,336.162809747969,954.2388666680657
1373.0,12702.0,1373.0,14444.0,1373.0,46552.0,572.5423147699171,335.3771848222785,952.4220122608154
1373.0,12692.0,1373.0,14423.0,1373.0,46576.0,571.7688712276635,334.4863044172284,950.3284453393098
1373.0,12672.0,1373.0,14416.0,1373.0,46529.0,570.9503669591513,333.4860233009428,947.9466805659027
1373.0,12682.0,1373.0,14425.0,1373.0,46543.0,570.0805444665748,332.37263710177194,945.2667542395401
1373.0,12683.0,1373.0,14407.0,1373.0,46499.0,569.1531189431365,331.14271569107126,942.2799214393204
1373.0,12679.0,1373.0,14425.0,1373.0,46529.0,568.1617275842548,329.79302948565476,938.9782601858566
1384.0,12686.0,1384.0,14436.0,1384.0,46537.0,567.099976195454,328.32058699458554,935.354486463356
1384.0,12702.0,1384.0,14404.0,1384.0,46529.0,565.9615225903839,326.7227837132359,931.4021220188197
1384.0,12680.0,1384.0,14431.0,1384.0,46537.0,564.7402334106728,324.9974783010549,927.115790537733
1384.0,12682.0,1384.0,14405.0,1384.0,46508.0,563.4302729103906,323.1429374377211,922.4913570568682
1384.0,12696.0,1384.0,14426.0,1384.0,46515.0,562.0260470008611,321.15780525202433,917.5258723328515
1384.0,12698.0,1384.0,14426.0,1384.0,46520.0,560.5222253521843,319.0411621375228,912.2174639581923
1394.0,12691.0,1394.0,14428.0,1394.0,46485.0,558.9139145848175,316.7926831153632,906.5653119309563
1394.0,12694.0,1394.0,14405.0,1394.0,46501.0,557.1967823734544,314.41278446668724,900.5696075515136
1394.0,12683.0,1394.0,14381.0,1394.0,46498.0,555.3670557180801,311.9025198446816,894.2314693624917
1394.0,12676.0,1394.0,14402.0,1394.0,46462.0,553.4214420904602,309.2632339481458,887.5529415940581
1394.0,12670.0,1394.0,14392.0,1394.0,46478.0,551.3569816733672,306.4963116853502,880.5369435348417
1394.0,12685.0,1394.0,14411.0,1394.0,46476.0,549.1709097250549,303.6032271816338,873.1871636889126
1404.0,12682.0,1404.0,14382.0,1404.0,46458.0,546.8606728489234,300.5857205690513,865.5081131359897
1404.0,12688.0,1404.0,14415.0,1404.0,46452.0,544.4240931855452,297.4459082308409,857.5052205964959
1404.0,12667.0,1404.0,14378.0,1404.0,46439.0,541.8595085912305,294.1863466783601,849.1847869176988
1404.0,12663.0,1404.0,14380.0,1404.0,46416.0,539.1657391162248,290.8100358237872,840.5538534429729
1404.0,12661.0,1404.0,14389.0,1404.0,46433.0,536.3419081676838,287.32031097192134,831.6200609595788
1404.0,12680.0,1404.0,14390.0,1404.0,46426.0,533.3873329099064,283.7208116388459,822.3916406557227
1415.0,12668.0,1415.0,14357.0,1415.0,46383.0,530.3016336848716,280.01557970497464,812.8775388598211
1415.0,12654.0,1415.0,14363.0,1415.0,46371.0,527.0848985522789,276.2090034632933,803.087335308288
1415.0,12654.0,1415.0,14338.0,1415.0,46360.0,523.7376621367572,272.3055548152228,793.030873701971
1415.0,12639.0,1415.0,14342.0,1415.0,46369.0,520.2607392526305,268.3095198216084,782.7179867236666
1415.0,12640.0,1415.0,14366.0,1415.0,46338.0,516.6550650680188,264.22487829215817,772.1585013797824
1415.0,12652.0,1415.0,14348.0,1415.0,46358.0,512.9216186839498,260.05544357888954,761.3623462583807
1425.0,12638.0,1425.0,14349.0,1425.0,46346.0,509.0614887854874,255.8051187581426,750.3396935981305
1425.0,12631.0,1425.0,14336.0,1425.0,46315.0,505.07598014559727,251.4779918247898,739.1011479829021
1425.0,12621.0,1425.0,14357.0,1425.0,46310.0,500.96658083381084,247.07832036194017,727.6577850271253
1425.0,12638.0,1425.0,14326.0,1425.0,46287.0,496.7348609161595,242.61058768588865,716.0209850641384
1425.0,12639.0,1425.0,14350.0,1425.0,46306.0,492.38252925317465,238.079589852092,704.2023103936622
1425.0,12618.0,1425.0,14317.0,1425.0,46274.0,487.9116382242459,233.49047040229593,692.2135795196339
1435.0,12615.0,1435.0,14323.0,1435.0,46272.0,483.3246691893365,228.8486905533391,680.0670125296157
1435.0,12608.0,1435.0,14299.0,1435.0,46252.0,478.62441767061443,224.15990430450833,667.7752731884373
1435.0,12603.0,1435.0,14284.0,1435.0,46218.0,473.81386233093986,219.42973423981465,655.3513790143619
1435.0,12603.0,1435.0,14293.0,1435.0,46204.0,468.8961168207417,214.66350653164432,642.808464759157
1435.0,12603.0,1435.0,14290.0,1435.0,46192.0,463.87445427750635,209.86610281537796,630.1594616057425
1435.0,12598.0,1435.0,14295.0,1435.0,46184.0,458.75239425654115,205.04203601970576,617.4168980768954
1446.0,12594.0,1446.0,14277.0,1446.0,46184.0,453.5337993676932,200.19561237999054,604.5929112787964
1446.0,12583.0,1446.0,14285.0,1446.0,46159.0,448.22291876605635,195.33100949337015,591.6993810504164
1446.0,12578.0,1446.0,14280.0,1446.0,46145.0,442.8243621795683,190.45230062884627,578.7480206758466
1446.0,12568.0,1446.0,14289.0,1446.0,46148.0,437.34302861908407,185.56354860114547,565.7503630584822
1446.0,12567.0,1446.0,14271.0,1446.0,46125.0,431.7840341425356,180.66896502590802,552.7177816094628
1446.0,12552.0,1446.0,14269.0,1446.0,46092.0,426.15266077477395,175.77300125613476,539.6615272593237
1456.0,12552.0,1456.0,14251.0,1456.0,46092.0,420.45430617935455,170.8802959834334,526.5925970628539
1456.0,12530.0,1456.0,14235.0,1456.0,46075.0,414.6944055785035,165.99550161996828,513.5215392635578
1456.0,12528.0,1456.0,14223.0,1456.0,46064.0,408.8783055088629,161.12301562022978,500.45840087828435
1456.0,12525.0,1456.0,14244.0,1456.0,46045.0,403.0111256638878,156.26673801695833,487.41274865153014
1456.0,12529.0,1456.0,14225.0,1456.0,46052.0,397.09772400124945,151.4300472829759,474.39368007735254
1456.0,12519.0,1456.0,14231.0,1456.0,46028.0,391.14279732742284,146.61593975140505,461.4098990522805
1467.0,12504.0,1467.0,14217.0,1467.0,46021.0,385.1509775630759,141.82711999215678,448.46983764536753
1467.0,12494.0,1467.0,14224.0,1467.0,45975.0,379.12678389818643,137.06601776014946,435.58165370669167
1467.0,12502.0,1467.0,14211.0,1467.0,45985.0,373.0744934205493,132.33481237390498,422.7530332071681
1467.0,12500.0,1467.0,14234.0,1467.0,45960.0,366.998130418089,127.63551098896488,409.9909751304498
1467.0,12491.0,1467.0,14230.0,1467.0,45979.0,360.90161064136714,122.97014949856293,397.3017792508791
1467.0,12481.0,1467.0,14213.0,1467.0,45956.0,354.788862305734,118.34106539907879,384.69125275626186
1477.0,12475.0,1477.0,14170.0,1477.0,45921.0,348.6638184697772,113.75093494535804,372.16491492028683
1477.0,12466.0,1477.0,14156.0,1477.0,45909.0,342.53034744320047,109.20235393428385,359.7279244050867
1477.0,12465.0,1477.0,14170.0,1477.0,45918.0,336.39220204397645,104.69723321127282,347.3848362683427
1477.0,12451.0,1477.0,14199.0,1477.0,45911.0,330.25300174416384,100.23656534218293,335.1395912243363
1477.0,12453.0,1477.0,14191.0,1477.0,45887.0,324.11622329668353,95.82075869006184,322.9957552206681
1477.0,12446.0,1477.0,14179.0,1477.0,45875.0,317.9852037712666,91.45013006941713,310.95666516497863
1487.0,12428.0,1487.0,14175.0,1487.0,45873.0,311.86315386114995,87.12510871669934,299.0253956839473
1487.0,12423.0,1487.0,14149.0,1487.0,45840.0,305.7531024256779,82.84614144318073,287.2047167937076
1487.0,12430.0,1487.0,14163.0,1487.0,45859.0,299.6577964480122,78.61348918432816,275.49708689963666
1487.0,12423.0,1487.0,14185.0,1487.0,45852.0,293.57972022931773,74.42715170600007,263.904739718948
1487.0,12426.0,1487.0,14176.0,1487.0,45825.0,287.521249917597,70.28711675780113,252.42991765687134
1487.0,12408.0,1487.0,14154.0,1487.0,45800.0,281.48479960309146,66.19370701303052,241.0749864504778
1498.0,12381.0,1498.0,14143.0,1498.0,45765.0,275.4728111683939,62.147611952843874,229.84219422799276
1498.0,12377.0,1498.0,14116.0,1498.0,45766.0,269.48751495970697,58.149582421171374,218.73322870774496
1498.0,12386.0,1498.0,14135.0,1498.0,45747.0,263.53064333512447,54.20005293641498,207.74887602202955
1498.0,12373.0,1498.0,14127.0,1498.0,45774.0,257.60336819632266,50.29894875033273,196.88896729287865
1498.0,12386.0,1498.0,14148.0,1498.0,45756.0,251.70643816186737,46.44578287396723,186.15263114387244
1498.0,12358.0,1498.0,14126.0,1498.0,45767.0,245.84032713530434,42.63991152902207,175.5387064381456
1508.0,12368.0,1508.0,14115.0,1508.0,45727.0,240.00529103016618,38.88068900057169,165.0460683676631
1508.0,12357.0,1508.0,14120.0,1508.0,45712.0,234.20135691780735,35.167400485458586,154.67366959858907
1508.0,12357.0,1508.0,14136.0,1508.0,45734.0,228.4283457727966,31.499189492915264,144.4203794756462
1508.0,12349.0,1508.0,14142.0,1508.0,45704.0,222.68593690705245,27.875248972498582,134.2849633231939
1508.0,12347.0,1508.0,14125.0,1508.0,45729.0,216.97371945518933,24.295168935959737,124.26629698938541
1508.0,12337.0,1508.0,14121.0,1508.0,45692.0,211.2912248471403,20.759122870356748,114.36361631863235
1518.0,12318.0,1518.0,14081.0,1518.0,45672.0,205.63790587547936,17.26774724431897,104.57661742300786
1518.0,12323.0,1518.0,14108.0,1518.0,45639.0,200.01302594395776,13.821815287142556,94.90525194598877
1518.0,12337.0,1518.0,14095.0,1518.0,45651.0,194.41559814986311,10.421992389555953,85.34932053570799
1518.0,12325.0,1518.0,14109.0,1518.0,45676.0,188.84454623743073,7.068869402484154,75.90830772239133
1518.0,12331.0,1518.0,14085.0,1518.0,45644.0,183.29897614556893,3.7631200085785395,66.5816787878648
1518.0,12311.0,1518.0,14074.0,1518.0,45624.0,177.77834568905837,0.5055150141691342,57.369231870164526
1529.0,12301.0,1529.0,14082.0,1529.0,45621.0,172.28246966221616,-2.703244912496075,48.27108235595415
1529.0,12304.0,1529.0,14080.0,1529.0,45609.0,166.81140894890564,-5.8626595207855985,39.287473838533174
1529.0,12301.0,1529.0,14082.0,1529.0,45622.0,161.36539946942088,-8.972374567003442,30.418751570659197
1529.0,12290.0,1529.0,14084.0,1529.0,45607.0,155.9449019090569,-12.03203784639419,21.665530779312576
1529.0,12279.0,1529.0,14077.0,1529.0,45570.0,150.55063865304925,-15.041168892227631,13.028855429866098
1529.0,12264.0,1529.0,14034.0,1529.0,45570.0,145.18350255880893,-17.999163779511377,4.510094449225335
1539.0,12266.0,1539.0,14061.0,1539.0,45554.0,139.84439015731442,-20.905552425290807,-3.889341656710826
1539.0,12265.0,1539.0,14060.0,1539.0,45560.0,134.53410091420653,-23.76025746353139,-12.168158256764627
1539.0,12256.0,1539.0,14073.0,1539.0,45572.0,129.25336930287847,-26.563512701483887,-20.325086744983878
1539.0,12269.0,1539.0,14065.0,1539.0,45528.0,124.00296894954431,-29.315558537936738,-28.3586506448039
1539.0,12247.0,1539.0,14050.0,1539.0,45533.0,118.78383620603353,-32.01643813498151,-36.26707103502497
1539.0,12240.0,1539.0,14038.0,1539.0,45518.0,113.59713621997622,-34.66604409460183,-44.048406465734956
1549.0,12242.0,1549.0,14043.0,1549.0,45516.0,108.44420468626447,-37.26433469160605,-51.700678508554915
1549.0,12230.0,1549.0,14066.0,1549.0,45498.0,103.32647654418264,-39.81144039352307,-59.22188789298161
1549.0,12236.0,1549.0,14064.0,1549.0,45546.0,98.24549668954973,-42.30746032223152,-66.60993546299983
1549.0,12222.0,1549.0,14051.0,1549.0,45511.0,93.20296813129141,-44.752122696661445,-73.86231041310702
1549.0,12206.0,1549.0,14027.0,1549.0,45449.0,88.2007565908894,-47.1446816219659,-80.97581098639284
1549.0,12200.0,1549.0,14021.0,1549.0,45443.0,83.24077256253804,-49.48416761220153,-87.94688055199572
1560.0,12205.0,1560.0,14031.0,1560.0,45475.0,78.32480564994876,-51.769734858037225,-94.77228394104714
1560.0,12185.0,1560.0,14049.0,1560.0,45476.0,73.45446087207807,-54.00075719002717,-101.44924991018036
1560.0,12195.0,1560.0,14046.0,1560.0,45469.0,68.63116247538613,-56.17658574580042,-107.9750252000481
1560.0,12195.0,1560.0,14039.0,1560.0,45433.0,63.856184723869944,-58.29622335369788,-114.3465121595865
1560.0,12190.0,1560.0,14007.0,1560.0,45423.0,59.130774376247075,-60.35824147711526,-120.56036442113759
1560.0,12168.0,1560.0,14019.0,1560.0,45417.0,54.45626766667016,-62.361014631967635,-126.61334847798844
1570.0,12177.0,1570.0,14022.0,1570.0,45434.0,49.83404996636267,-64.30299709776727,-132.50256653082397
1570.0,12183.0,1570.0,14031.0,1570.0,45432.0,45.265491645401255,-66.1827384167484,-138.22533631482872
1570.0,12154.0,1570.0,14002.0,1570.0,45423.0,40.752015913386685,-67.9987328465881,-143.7788797856291
1570.0,12161.0,1570.0,14002.0,1570.0,45395.0,36.29513467094182,-69.74943065781446,-149.16014860061114
1570.0,12154.0,1570.0,14016.0,1570.0,45386.0,31.896359232453563,-71.43341942096907,-154.36596255519203
1570.0,12136.0,1570.0,13992.0,1570.0,45378.0,27.557121458024994,-73.04951427479648,-159.39332346336641
1580.0,12135.0,1580.0,13995.0,1580.0,45372.0,23.278689054782433,-74.59677543474845,-164.23965971695793
1580.0,12134.0,1580.0,13990.0,1580.0,45380.0,19.062042620667228,-76.07461487787987,-168.90290448350174
1580.0,12132.0,1580.0,14027.0,1580.0,45361.0,14.907837834932877,-77.48283640936296,-173.381450127324
1580.0,12136.0,1580.0,14005.0,1580.0,45362.0,10.81648514088846,-78.82141283151407,-177.6740983244025
1580.0,12116.0,1580.0,14009.0,1580.0,45363.0,6.788249757960784,-80.0901904551165,-181.780064616054
1580.0,12135.0,1580.0,13985.0,1580.0,45360.0,2.8232991522415887,-81.28883463434556,-185.698944354241
1591.0,12137.0,1591.0,14017.0,1591.0,45365.0,-1.078215027181841,-82.41696776404609,-189.43059352408432
1591.0,12109.0,1591.0,14008.0,1591.0,45376.0,-4.9159838918246805,-83.4741880992774,-192.97494672370556
1591.0,12111.0,1591.0,13988.0,1591.0,45337.0,-8.689491660172052,-84.45993905520896,-196.33182897746087
1591.0,12102.0,1591.0,13987.0,1591.0,45324.0,-12.3981703683732,-85.37353255965701,-199.50099614180772
1591.0,12091.0,1591.0,13971.0,1591.0,45322.0,-16.041562662888282,-86.2144033783166,-202.48249093254276
1591.0,12084.0,1591.0,13987.0,1591.0,45318.0,-19.619446148226075,-86.98236373030664,-205.27699685883613
1601.0,12097.0,1601.0,13996.0,1601.0,45315.0,-23.13193954225187,-87.67766595812844,-207.88596947764609
1601.0,12094.0,1601.0,13997.0,1601.0,45318.0,-26.579471248660695,-88.30083480829813,-210.3116360156141
1601.0,12087.0,1601.0,13995.0,1601.0,45326.0,-29.96261641698618,-88.85242919153308,-212.5569240267256
1601.0,12084.0,1601.0,13962.0,1601.0,45315.0,-33.28198461483703,-89.332982326418,-214.62531699578358
1601.0,12073.0,1601.0,13973.0,1601.0,45312.0,-36.53823095146532,-89.74322143628513,-216.5207420321476
1601.0,12080.0,1601.0,13989.0,1601.0,45318.0,-39.7321137346683,-90.0843403253437,-218.24755835323617
1611.0,12096.0,1611.0,14020.0,1611.0,45326.0,-42.86446305331219,-90.3579261381841,-219.81052096563883
1611.0,12081.0,1611.0,13990.0,1611.0,45299.0,-45.9359793159461,-90.56553621941208,-221.21466881514664
1611.0,12063.0,1611.0,13970.0,1611.0,45293.0,-48.947051952568245,-90.70843905114009,-222.46534569946596
1611.0,12055.0,1611.0,13972.0,1611.0,45310.0,-51.8978512253658,-90.78784099256518,-223.5684003297864
1611.0,12053.0,1611.0,13955.0,1611.0,45252.0,-54.78859802279544,-90.80531748371658,-224.53038121219606
1611.0,12055.0,1611.0,13963.0,1611.0,45297.0,-57.619744500976935,-90.76312487644725,-225.3587565164803
1622.0,12059.0,1622.0,13962.0,1622.0,45306.0,-60.39197247448658,-90.66436248265603,-226.06205955964788
1622.0,12052.0,1622.0,13979.0,1622.0,45328.0,-63.106082397887064,-90.51297869454248,-226.64961361111511
1622.0,12043.0,1622.0,13988.0,1622.0,45294.0,-65.76290850842406,-90.31359476990457,-227.13102395644614
1622.0,12039.0,1622.0,13990.0,1622.0,45302.0,-68.36335117455587,-90.07121294128831,-227.51596714063407
1622.0,12029.0,1622.0,13978.0,1622.0,45301.0,-70.9084920224227,-89.79098072043223,-227.81430946699368
1622.0,12045.0,1622.0,14018.0,1622.0,45317.0,-73.39968455555424,-89.4780780236648,-228.03618410294166
1632.0,12042.0,1632.0,13978.0,1632.0,45319.0,-75.83851095386717,-89.13758934315314,-228.19184434305134
1632.0,12032.0,1632.0,13992.0,1632.0,45294.0,-78.22663131962099,-88.77441139249606,-228.29146877014762
1632.0,12015.0,1632.0,13969.0,1632.0,45312.0,-80.56573781289444,-88.39337819839233,-228.34515071577277
1632.0,12021.0,1632.0,13972.0,1632.0,45271.0,-82.85770671650846,-87.99952050753507,-228.36306764745348
1632.0,12014.0,1632.0,13974.0,1632.0,45296.0,-85.1047723135299,-87.59829138219683,-228.35572087762
1632.0,12020.0,1632.0,14001.0,1632.0,45300.0,-87.30957276225121,-87.19562425508437,-228.33410765308633
1642.0,12018.0,1642.0,13985.0,1642.0,45322.0,-89.47509420632628,-86.79775243790627,-228.30961684516797
1642.0,12017.0,1642.0,14008.0,1642.0,45289.0,-91.60457982023303,-86.41094976854893,-228.2937308620227
1642.0,12012.0,1642.0,13988.0,1642.0,45293.0,-93.701458337389,-86.04136421552545,-228.29791590366074
1642.0,12022.0,1642.0,13999.0,1642.0,45307.0,-95.76930207816008,-85.69496043047275,-228.33375685718624
1642.0,12016.0,1642.0,14002.0,1642.0,45291.0,-97.8117536588083,-85.37752045943029,-228.41303088408858
1642.0,12028.0,1642.0,13999.0,1642.0,45292.0,-99.83239496130363,-85.09461337840733,-228.54767885329
1653.0,12001.0,1653.0,14013.0,1653.0,45326.0,-101.83463110399731,-84.85151140721564,-228.74977947587
1653.0,12005.0,1653.0,13988.0,1653.0,45284.0,-103.82170870008906,-84.65312113013155,-229.0314245742726
1653.0,11995.0,1653.0,13970.0,1653.0,45257.0,-105.7968723432349,-84.50407333814778,-229.40469949500164
1653.0,12000.0,1653.0,13976.0,1653.0,45281.0,-107.7635074374295,-84.40905430589441,-229.88205766748956
1653.0,11980.0,1653.0,13987.0,1653.0,45300.0,-109.72521057886672,-84.37312741018096,-230.47665584322658
1653.0,12003.0,1653.0,13982.0,1653.0,45294.0,-111.68584404522778,-84.40177578220943,-231.2021902300803
1663.0,12003.0,1663.0,14020.0,1663.0,45325.0,-113.64949940051997,-84.50071642286292,-232.072473923173
1663.0,11990.0,1663.0,14000.0,1663.0,45302.0,-115.62032354831854,-84.67558679322352,-233.1010607789824
1663.0,11988.0,1663.0,13980.0,1663.0,45297.0,-117.60240947655029,-84.93169595356821,-234.30102862315346
1663.0,11982.0,1663.0,14000.0,1663.0,45290.0,-119.5998628674526,-85.27408089452643,-235.6850225455354
1663.0,11993.0,1663.0,14003.0,1663.0,45320.0,-121.6168845690579,-85.70765337648152,-237.26537775322163
1663.0,11990.0,1663.0,14005.0,1663.0,45320.0,-123.65772916078777,-86.23711534443717,-239.05398563902918
1674.0,11991.0,1674.0,14006.0,1674.0,45292.0,-125.72657185958474,-86.86676418429488,-241.06198362069279
1674.0,11980.0,1674.0,13992.0,1674.0,45294.0,-127.82740707930537,-87.60040218553212,-243.29967311525672
1674.0,11969.0,1674.0,13979.0,1674.0,45279.0,-129.96407362628855,-88.44141685621105,-245.77673005200097
1674.0,11969.0,1674.0,13985.0,1674.0,45271.0,-132.14039830905978,-89.39300363554887,-248.50245462797602
1674.0,11971.0,1674.0,13996.0,1674.0,45278.0,-134.36033439198894,-90.45833256929458,-251.48594666541032
1674.0,11988.0,1674.0,13989.0,1674.0,45313.0,-136.62794299148254,-91.64049897061878,-254.73608687257126
1684.0,11981.0,1684.0,14007.0,1684.0,45268.0,-138.94718693389257,-92.942349032778,-258.261240745842
1684.0,11951.0,1684.0,13976.0,1684.0,45278.0,-141.32174336707237,-94.36633814645393,-262.0690146978118
1684.0,11960.0,1684.0,13975.0,1684.0,45267.0,-143.75508796564782,-95.91455337405063,-266.16631508771934
1684.0,11965.0,1684.0,13997.0,1684.0,45283.0,-146.2507130001863,-97.5888716706983,-270.5594367108813
1684.0,11957.0,1684.0,14006.0,1684.0,45282.0,-148.81216345881012,-99.39093606176971,-275.2539295868802
1684.0,11969.0,1684.0,13989.0,1684.0,45278.0,-151.4429153944459,-101.32186269879767,-280.254330867877
1694.0,11952.0,1694.0,13987.0,1694.0,45240.0,-154.14626030725708,-103.38203491845724,-285.56401061125644
1694.0,11956.0,1694.0,13945.0,1694.0,45245.0,-156.9252500939001,-105.57122711765882,-291.1853154328933
1694.0,11943.0,1694.0,13974.0,1694.0,45231.0,-159.7827206736324,-107.8889592703041,-297.11986422702205
1694.0,11953.0,1694.0,13963.0,1694.0,45251.0,-162.72134360186863,-110.3347704383192,-303.3686781541646
1694.0,11941.0,1694.0,13988.0,1694.0,45212.0,-165.74362868009672,-112.90817046882793,-309.93209627785825
1694.0,11947.0,1694.0,13964.0,1694.0,45220.0,-168.85188152537643,-115.60838726936683,-316.8097176427091
1705.0,11938.0,1705.0,13962.0,1705.0,45201.0,-172.04815851898678,-118.4342051431556,-324.0004871625696
1705.0,11930.0,1705.0,13946.0,1705.0,45182.0,-175.33425144180706,-121.38403384897583,-331.5028281963473
1705.0,11926.0,1705.0,13941.0,1705.0,45172.0,-178.7117341116973,-124.45612140602711,-339.31481375258534
1705.0,11936.0,1705.0,13968.0,1705.0,45198.0,-182.18201835014065,-127.64870022807565,-347.43430554504084
1705.0,11931.0,1705.0,13952.0,1705.0,45168.0,-185.74629780637093,-130.95989260408749,-355.85885049825936
1705.0,11925.0,1705.0,13956.0,1705.0,45163.0,-189.40540792831257,-134.38747069961522,-364.5854602472998
1715.0,11905.0,1715.0,13928.0,1715.0,45140.0,-193.15978013214465,-137.9287564870532,-373.6105853685824
1715.0,11895.0,1715.0,13925.0,1715.0,45157.0,-197.00959133158022,-141.58076691250795,-382.9302217080053
1715.0,11910.0,1715.0,13920.0,1715.0,45131.0,-200.95498739061998,-145.3404708205781,-392.53990000792874
1715.0,11899.0,1715.0,13924.0,1715.0,45110.0,-204.9961477666966,-149.20495536044086,-402.4346136060941
1715.0,11903.0,1715.0,13917.0,1715.0,45098.0,-209.13317110375982,-153.1714250693343,-412.6089130348636
1715.0,11904.0,1715.0,13930.0,1715.0,45117.0,-213.36593557494945,-157.23710253502566,-423.0570624522584
1725.0,11882.0,1725.0,13903.0,1725.0,45075.0,-217.6940048058354,-161.39910965509932,-433.77299702464313
1725.0,11882.0,1725.0,13901.0,1725.0,45059.0,-222.11664009695136,-165.65444696105016,-444.7502534658448
1725.0,11881.0,1725.0,13909.0,1725.0,45069.0,-226.6329068195804,-170.00009336273007,-455.9821005886456
1725.0,11872.0,1725.0,13920.0,1725.0,45075.0,-231.24172727881677,-174.43299570779595,-467.46157461853466
1725.0,11868.0,1725.0,13879.0,1725.0,45030.0,-235.94186590959282,-178.94989361543605,-479.1812393811191
1725.0,11874.0,1725.0,13889.0,1725.0,45015.0,-240.7319116014711,-183.54729133765323,-491.1330763368585
1736.0,11849.0,1736.0,13877.0,1736.0,45005.0,-245.61024505245655,-188.22164556132577,-503.30871315042407
1736.0,11842.0,1736.0,13868.0,1736.0,44990.0,-250.57507214831185,-192.9695183232596,-515.6996713090085
1736.0,11840.0,1736.0,13865.0,1736.0,44973.0,-255.62458413251125,-197.7876506302386,-528.2974509269951
1736.0,11842.0,1736.0,13874.0,1736.0,44965.0,-260.7570786808061,-202.6729993932429,-541.0935663407488
1736.0,11840.0,1736.0,13866.0,1736.0,44961.0,-265.97091039838665,-207.62265683384277,-554.0795489612435
1736.0,11817.0,1736.0,13853.0,1736.0,44918.0,-271.264388172484,-212.63371519867178,-567.2469075441824
1746.0,11823.0,1746.0,13837.0,1746.0,44918.0,-276.63578740477794,-217.70327317870118,-580.5871938860718
1746.0,11816.0,1746.0,13835.0,1746.0,44903.0,-282.0834306351147,-222.82861043677616,-594.0921681523461
1746.0,11818.0,1746.0,13848.0,1746.0,44893.0,-287.60567876423477,-228.00732796533543,-607.7538556703159
1746.0,11812.0,1746.0,13847.0,1746.0,44891.0,-293.2008288846424,-233.237258062127,-621.5644549819108
1746.0,11807.0,1746.0,13824.0,1746.0,44841.0,-298.8670098430232,-238.51624114198194,-635.5162471733386
1746.0,11772.0,1746.0,13804.0,1746.0,44823.0,-304.6021788019003,-243.8420932521143,-649.601717203955
1756.0,11790.0,1756.0,13815.0,1756.0,44821.0,-310.4042856454455,-249.21283519219924,-663.8138874855791
1756.0,11788.0,1756.0,13817.0,1756.0,44809.0,-316.27141911415265,-254.62685749111887,-678.1465219473587
1756.0,11761.0,1756.0,13802.0,1756.0,44810.0,-322.2017606959548,-260.0828351221977,-692.5940247499394
1756.0,11765.0,1756.0,13797.0,1756.0,44776.0,-328.19355073232964,-265.5796105715372,-707.1512281307573
1756.0,11763.0,1756.0,13815.0,1756.0,44773.0,-334.24517203342407,-271.1161647038036,-721.8132881284394
1756.0,11762.0,1756.0,13784.0,1756.0,44762.0,-340.3551446419523,-276.6915338052672,-736.5756822869076
1767.0,11745.0,1767.0,13788.0,1767.0,44743.0,-346.5220156106386,-282.30472545583706,-751.4341658163474
1767.0,11756.0,1767.0,13768.0,1767.0,44717.0,-352.74429359884743,-287.95478706513114,-766.3847207639592
1767.0,11762.0,1767.0,13803.0,1767.0,44718.0,-359.0203635798589,-293.64088139803255,-781.4236035681697
1767.0,11744.0,1767.0,13769.0,1767.0,44711.0,-365.34827647777286,-299.36216270262776,-796.5473535168101
1767.0,11721.0,1767.0,13752.0,1767.0,44671.0,-371.72560806710817,-305.1176315565875,-811.7526752137979
1767.0,11712.0,1767.0,13757.0,1767.0,44662.0,-378.1496037385368,-310.9062477337431,-827.0364157547747
1777.0,11691.0,1777.0,13737.0,1777.0,44618.0,-384.61749790508895,-316.7271554157762,-842.3957702859022
1777.0,11693.0,1777.0,13737.0,1777.0,44652.0,-391.12680171684326,-322.5798042437435,-857.8285177244347
1777.0,11711.0,1777.0,13744.0,1777.0,44606.0,-397.6754134642081,-328.4639844495133,-873.333025672875
1777.0,11700.0,1777.0,13742.0,1777.0,44599.0,-404.2614465176763,-334.37973763490083,-888.9080954308904
1777.0,11668.0,1777.0,13744.0,1777.0,44600.0,-410.88297724704876,-340.3271351129108,-904.5528839361737
1777.0,11671.0,1777.0,13718.0,1777.0,44565.0,-417.5380671350506,-346.30609178152474,-920.266848036795
1787.0,11664.0,1787.0,13716.0,1787.0,44545.0,-424.2249782008038,-352.31636730947133,-936.0496969600033
1787.0,11663.0,1787.0,13705.0,1787.0,44540.0,-430.9422600253482,-358.35771618717547,-951.9014845387635
1787.0,11655.0,1787.0,13704.0,1787.0,44528.0,-437.68868212753375,-364.4300166580089,-967.8226853813851
1787.0,11646.0,1787.0,13703.0,1787.0,44527.0,-444.4631614940396,-370.5332894936406,-983.8140728501082
1787.0,11640.0,1787.0,13682.0,1787.0,44487.0,-451.2647480409555,-376.667659234213,-999.8765182361933
1787.0,11619.0,1787.0,13673.0,1787.0,44458.0,-458.09267209119594,-382.83338943480703,-1016.01097419347
1798.0,11623.0,1798.0,13675.0,1798.0,44443.0,-464.9464478282514,-389.031020246244,-1032.218737518435
1798.0,11619.0,1798.0,13667.0,1798.0,44435.0,-471.82594977915676,-395.26145249506794,-1048.5017423286517
1798.0,11613.0,1798.0,13677.0,1798.0,44434.0,-478.73136925240544,-401.5258851542575,-1064.8626002762014
1798.0,11613.0,1798.0,13664.0,1798.0,44424.0,-485.6630993059117,-407.82566081721586,-1081.304379640246
1798.0,11598.0,1798.0,13659.0,1798.0,44383.0,-492.6216393088297,-414.1621203246029,-1097.8303478508528
1798.0,11588.0,1798.0,13635.0,1798.0,44384.0,-499.6075696800675,-420.53658387837584,-1114.4439161474647
1808.0,11587.0,1808.0,13622.0,1808.0,44378.0,-506.6216048839842,-426.95051526428756,-1131.148691155465
1808.0,11595.0,1808.0,13653.0,1808.0,44352.0,-513.6646032428129,-433.40571938399853,-1147.948380308069
1808.0,11578.0,1808.0,13646.0,1808.0,44321.0,-520.7374343824293,-439.90426342030423,-1164.8466744461848
1808.0,11557.0,1808.0,13645.0,1808.0,44318.0,-527.8408641597299,-446.44810741291343,-1181.8473260396638
1808.0,11572.0,1808.0,13593.0,1808.0,44286.0,-534.9756108481124,-453.0388711858783,-1198.9542933938214
1808.0,11543.0,1808.0,13603.0,1808.0,44274.0,-542.14243089739,-459.6780330281575,-1216.171817154729
1818.0,11551.0,1818.0,13619.0,1818.0,44255.0,-549.342131035932,-466.3672605641476,-1233.5044816014977
1818.0,11538.0,1818.0,13614.0,1818.0,44254.0,-556.5755734737614,-473.1083820015413,-1250.9572282096244
1818.0,11539.0,1818.0,13573.0,1818.0,44209.0,-563.8436559683201,-479.90312722053716,-1268.5352909825422
1818.0,11520.0,1818.0,13587.0,1818.0,44235.0,-571.1472626790675,-486.75312838597887,-1286.244138389394
1818.0,11506.0,1818.0,13580.0,1818.0,44209.0,-578.4872910163903,-493.66011122101065,-1304.0893448410318
1818.0,11503.0,1818.0,13572.0,1818.0,44186.0,-585.8647868361395,-500.6259227386336,-1322.0763308193468
1829.0,11510.0,1829.0,13562.0,1829.0,44189.0,-593.2810422430284,-507.65245203889134,-1340.21016778418
1829.0,11503.0,1829.0,13598.0,1829.0,44174.0,-600.7375062144461,-514.7415432750402,-1358.4954456626724
1829.0,11497.0,1829.0,13550.0,1829.0,44141.0,-608.2355849061013,-521.8947793070803,-1376.9360833617097
1829.0,11469.0,1829.0,13541.0,1829.0,44125.0,-615.7765440856843,-529.1133241911484,-1395.5352481024327
1829.0,11485.0,1829.0,13527.0,1829.0,44112.0,-623.3615804337339,-536.3981097985657,-1414.2954380922147
1829.0,11460.0,1829.0,13533.0,1829.0,44083.0,-630.9919058454493,-543.7501337982062,-1433.2185442740497
1839.0,11467.0,1839.0,13533.0,1839.0,44097.0,-638.6687394616471,-551.1705208904776,-1452.3058121476834
1839.0,11470.0,1839.0,13540.0,1839.0,44064.0,-646.3932336987773,-558.660335117578,-1471.5576813420662
1839.0,11459.0,1839.0,13541.0,1839.0,44040.0,-654.1663140036009,-566.2202666628065,-1490.9735838499696
1839.0,11443.0,1839.0,13535.0,1839.0,44040.0,-661.9885132467302,-573.850302389648,-1510.5518709054854
1839.0,11432.0,1839.0,13518.0,1839.0,44005.0,-669.8599727433572,-581.5495015259498,-1530.2897956712789
1839.0,11423.0,1839.0,13499.0,1839.0,43990.0,-677.7805795290946,-589.3159817299821,-1550.1834647702465
1849.0,11402.0,1849.0,13516.0,1849.0,43998.0,-685.7501184626968,-597.1470487868644,-1570.2277891073677
1849.0,11422.0,1849.0,13495.0,1849.0,43957.0,-693.7683824938305,-605.0392372684607,-1590.4163349472458
1849.0,11402.0,1849.0,13494.0,1849.0,43941.0,-701.8351500351517,-612.9882177218224,-1610.741146244566
1849.0,11392.0,1849.0,13471.0,1849.0,43903.0,-709.9500598018714,-620.9887587043254,-1631.1927731881667
1849.0,11386.0,1849.0,13454.0,1849.0,43896.0,-718.1125733568011,-629.0348449914277,-1651.7604586470945
1849.0,11373.0,1849.0,13449.0,1849.0,43878.0,-726.3220375159038,-637.1199035555824,-1672.432256166911
1860.0,11380.0,1860.0,13461.0,1860.0,43889.0,-734.5777130669175,-645.2369614451429,-1693.1949260608997
1860.0,11381.0,1860.0,13453.0,1860.0,43874.0,-742.8786848267083,-653.3785556638371,-1714.0335735579652
1860.0,11362.0,1860.0,13441.0,1860.0,43831.0,-751.2236652053767,-661.5364964630228,-1734.9312257406318
1860.0,11342.0,1860.0,13427.0,1860.0,43811.0,-759.6108855859045,-669.7017473735116,-1755.868689767803
1860.0,11338.0,1860.0,13417.0,1860.0,43775.0,-768.0382131750274,-677.8644890260242,-1776.8247475737076
1860.0,11349.0,1860.0,13420.0,1860.0,43785.0,-776.5032930343478,-686.0142213449766,-1797.7763861289898
1870.0,11343.0,1870.0,13402.0,1870.0,43782.0,-785.0034563248197,-694.1397789620262,-1818.6987462252384
1870.0,11326.0,1870.0,13421.0,1870.0,43734.0,-793.535477814421,-702.229256141342,-1839.5647925519202
1870.0,11304.0,1870.0,13393.0,1870.0,43709.0,-802.0954842713625,-710.2698699109083,-1860.3451207344035
1870.0,11297.0,1870.0,13371.0,1870.0,43666.0,-810.6791130104418,-718.2478872567767,-1881.0081754105984
1870.0,11298.0,1870.0,13378.0,1870.0,43686.0,-819.2817163214905,-726.1487604778605,-1901.5206010228358
1870.0,11287.0,1870.0,13370.0,1870.0,43667.0,-827.898405500253,-733.9572930574304,-1921.847289220043
1881.0,11278.0,1881.0,13363.0,1881.0,43675.0,-836.5239791530378,-741.657622006635,-1941.9510268106355
1881.0,11296.0,1881.0,13345.0,1881.0,43606.0,-845.1528310486534,-749.2331527600004,-1961.7920874130928
1881.0,11269.0,1881.0,13356.0,1881.0,43593.0,-853.7787870950119,-756.6665786777313,-1981.3282010871555
1881.0,11249.0,1881.0,13352.0,1881.0,43579.0,-862.3949728096276,-763.9398561742739,-2000.5148769226946
1881.0,11245.0,1881.0,13346.0,1881.0,43569.0,-870.9939158800627,-771.0340449665974,-2019.3056246151532
1881.0,11244.0,1881.0,13337.0,1881.0,43551.0,-879.5677383284591,-777.9291455691058,-2037.6518862345822
1891.0,11247.0,1891.0,13331.0,1891.0,43540.0,-888.1081572240904,-784.6040479777673,-2055.5028780161856
1891.0,11232.0,1891.0,13323.0,1891.0,43493.0,-896.6063103883777,-791.0365496933496,-2072.805529925885
1891.0,11221.0,1891.0,13301.0,1891.0,43477.0,-905.0526158046382,-797.203417458106,-2089.504642019359
1891.0,11215.0,1891.0,13306.0,1891.0,43483.0,-913.4367702540113,-803.0805217548162,-2105.543160146634
1891.0,11201.0,1891.0,13281.0,1891.0,43454.0,-921.747814634191,-808.6430023197408,-2120.8622651803735
1891.0,11203.0,1891.0,13297.0,1891.0,43455.0,-929.974177250237,-813.8653925937895,-2135.401261421804
1901.0,11197.0,1901.0,13293.0,1901.0,43451.0,-938.1036549570315,-818.7216371318323,-2149.0974401268904
1901.0,11209.0,1901.0,13283.0,1901.0,43423.0,-946.1232859828007,-823.1849845800818,-2161.8859322599073
1901.0,11183.0,1901.0,13273.0,1901.0,43401.0,-954.0191411384503,-827.2279128911528,-2173.699659761267
1901.0,11172.0,1901.0,13249.0,1901.0,43365.0,-961.7762098974491,-830.8222475156513,-2184.469567537566
1901.0,11173.0,1901.0,13286.0,1901.0,43368.0,-969.378476912539,-833.9393722733524,-2194.1250533437806
1901.0,11156.0,1901.0,13290.0,1901.0,43368.0,-976.8090316045467,-836.5502100191109,-2202.594292204845
1912.0,11152.0,1912.0,13257.0,1912.0,43325.0,-984.0501121779633,-838.624933555192,-2209.8043362319395
1912.0,11146.0,1912.0,13230.0,1912.0,43313.0,-991.0831453204103,-840.1329156845227,-2215.681287615361
1912.0,11125.0,1912.0,13220.0,1912.0,43269.0,-997.8888023967485,-841.0432067360648,-2220.1507940417523
1912.0,11133.0,1912.0,13216.0,1912.0,43285.0,-1004.447080832261,-841.32517425469,-2223.1387029735447
1912.0,11125.0,1912.0,13231.0,1912.0,43276.0,-1010.7373627396444,-840.9488950342391,-2224.5715513678288
1912.0,11115.0,1912.0,13231.0,1912.0,43283.0,-1016.7383887008093,-839.8852215534544,-2224.3767414466
1922.0,11113.0,1922.0,13232.0,1922.0,43257.0,-1022.4282303423482,-838.1056755589427,-2222.4825870237664
1922.0,11107.0,1922.0,13215.0,1922.0,43214.0,-1027.7843109612675,-835.5824085362151,-2218.8186010492846
1922.0,11087.0,1922.0,13190.0,1922.0,43232.0,-1032.7834486014995,-832.2884181944204,-2213.316174413356
1922.0,11109.0,1922.0,13201.0,1922.0,43248.0,-1037.4019263577384,-828.1980218614867,-2205.9092637743906
1922.0,11101.0,1922.0,13201.0,1922.0,43236.0,-1041.6154813749058,-823.2873265969611,-2196.534675758059
1922.0,11074.0,1922.0,13191.0,1922.0,43224.0,-1045.3991991442035,-817.534498521972,-2185.1322046435
1932.0,11072.0,1932.0,13212.0,1932.0,43203.0,-1048.7275769631992,-810.919935342817,-2171.6450849571834
1932.0,11060.0,1932.0,13204.0,1932.0,43205.0,-1051.5748079568716,-803.4264115765058,-2156.020766983059
1932.0,11062.0,1932.0,13209.0,1932.0,43196.0,-1053.9150436349714,-795.0391869903274,-2138.21176202345
1932.0,11067.0,1932.0,13200.0,1932.0,43207.0,-1055.7225103460132,-785.7461880896197,-2118.176399221288
1932.0,11067.0,1932.0,13239.0,1932.0,43235.0,-1056.9714885562453,-775.5382489603089,-2095.8794226109785
1932.0,11055.0,1932.0,13230.0,1932.0,43240.0,-1057.6362448298853,-764.4092135283944,-2071.292369021643
1943.0,11050.0,1943.0,13243.0,1943.0,43258.0,-1057.69107316802,-752.3559157192071,-2044.3938331956786
1943.0,11039.0,1943.0,13256.0,1943.0,43268.0,-1057.1104910585602,-739.378234013341,-2015.1698193577813
1943.0,11037.0,1943.0,13262.0,1943.0,43306.0,-1055.86950809283,-725.4792144277068,-1983.6141697981866
1943.0,11042.0,1943.0,13271.0,1943.0,43346.0,-1053.9438688063608,-710.6651931156966,-1949.7288766353668
1943.0,11041.0,1943.0,13319.0,1943.0,43364.0,-1051.3101976939197,-694.9458861044424,-1913.5241959991222
1943.0,11040.0,1943.0,13319.0,1943.0,43388.0,-1047.9460694407244,-678.3343103723234,-1875.018768955999
1953.0,11040.0,1953.0,13299.0,1953.0,43435.0,-1043.8300982139585,-660.846679634062,-1834.2399168047973
1953.0,11036.0,1953.0,13333.0,1953.0,43492.0,-1038.9420851876396,-642.5026427254384,-1791.2239057339937
1953.0,11017.0,1953.0,13365.0,1953.0,43514.0,-1033.2632533207097,-623.3256697809355,-1746.0159917417996
1953.0,11028.0,1953.0,13390.0,1953.0,43573.0,-1026.776608486872,-603.3430998707453,-1698.670426771087
1953.0,11051.0,1953.0,13420.0,1953.0,43649.0,-1019.4672717309151,-582.5858898080913,-1649.2504994648696
1953.0,11047.0,1953.0,13441.0,1953.0,43711.0,-1011.3225605869351,-561.0883587040737,-1597.8283497445054
1963.0,11045.0,1963.0,13472.0,1963.0,43782.0,-1002.3319535009799,-538.8880102411091,-1544.4845106368086
1963.0,11060.0,1963.0,13492.0,1963.0,43834.0,-992.487200848512,-516.0254032223667,-1489.3074380965493
1963.0,11066.0,1963.0,13540.0,1963.0,43908.0,-981.7825140772254,-492.544018589842,-1432.3931820430778
1963.0,11082.0,1963.0,13580.0,1963.0,44005.0,-970.2146672932388,-468.4900082700218,-1373.8450783708251
1963.0,11094.0,1963.0,13610.0,1963.0,44084.0,-957.783021592406,-443.91177789558486,-1313.7732159774675
1963.0,11088.0,1963.0,13637.0,1963.0,44150.0,-944.4895633049883,-418.859567856603,-1252.293709868831
1974.0,11106.0,1974.0,13670.0,1974.0,44212.0,-930.3390533088684,-393.3851930143022,-1189.5281248575443
1974.0,11114.0,1974.0,13685.0,1974.0,44304.0,-915.3392610338091,-367.54191921517327,-1125.6031735916745
1974.0,11133.0,1974.0,13735.0,1974.0,44406.0,-899.5011474080038,-341.3844000499949,-1060.650383442973
1974.0,11175.0,1974.0,13772.0,1974.0,44511.0,-882.838903399265,-314.9685446380645,-994.8054084053964
1974.0,11188.0,1974.0,13805.0,1974.0,44603.0,-865.3697871288499,-288.35121752866326,-928.2070201991432
1974.0,11201.0,1974.0,13866.0,1974.0,44700.0,-847.1138744492871,-261.58983367004885,-860.9960453733802
1984.0,11226.0,1984.0,13870.0,1984.0,44762.0,-828.0939551544269,-234.7419316040984,-793.3144705790332
1984.0,11268.0,1984.0,13915.0,1984.0,44889.0,-808.3355114355757,-207.864848501263,-725.3047580040493
1984.0,11280.0,1984.0,13979.0,1984.0,44984.0,-787.8665572595407,-181.01550124635372,-657.1091255567577
1984.0,11309.0,1984.0,13995.0,1984.0,45047.0,-766.7174066489075,-154.2500187564445,-588.8686455294562
1984.0,11341.0,1984.0,14028.0,1984.0,45139.0,-744.9205237595952,-127.62328035478794,-520.7224829607748
1984.0,11365.0,1984.0,14055.0,1984.0,45211.0,-722.5103890149725,-101.18867206197456,-452.80745733813467
1994.0,11392.0,1994.0,14083.0,1994.0,45286.0,-699.5233316754197,-74.99802867296899,-385.2577288583841
1994.0,11415.0,1994.0,14109.0,1994.0,45378.0,-675.9974046271444,-49.10159799321451,-318.2044914865171
1994.0,11448.0,1994.0,14132.0,1994.0,45459.0,-651.9723123549063,-23.548021505776603,-251.77560573118603
1994.0,11482.0,1994.0,14189.0,1994.0,45552.0,-627.4893139636715,1.6157106340739915,-186.09508998663114
1994.0,11538.0,1994.0,14235.0,1994.0,45677.0,-602.5909947292467,26.344518034618147,-121.28241975633136
1994.0,11555.0,1994.0,14247.0,1994.0,45692.0,-577.3208684156314,50.59572773845889,-57.451675268200006
2004.0,11565.0,2004.0,14267.0,2004.0,45770.0,-551.7230275431943,74.32946248201046,5.28903937991322
2004.0,11619.0,2004.0,14289.0,2004.0,45833.0,-525.8420668557013,97.50868010139243,66.83763603630473
2004.0,11633.0,2004.0,14341.0,2004.0,45937.0,-499.72309844669905,120.09910619872625,127.09801832711287
2004.0,11682.0,2004.0,14346.0,2004.0,45988.0,-473.4116304427961,142.06935268551086,185.98042584212544
2004.0,11711.0,2004.0,14359.0,2004.0,46039.0,-446.9533543267438,163.39108772560223,243.40189480183676
2004.0,11730.0,2004.0,14361.0,2004.0,46107.0,-420.39393049332955,184.03894442017366,299.28645563216355
2014.0,11770.0,2014.0,14395.0,2014.0,46171.0,-393.7788575777562,203.99020355928678,353.56516120426136
2014.0,11811.0,2014.0,14402.0,2014.0,46179.0,-367.1533856262148,223.22453863522145,406.1761181974173
2014.0,11851.0,2014.0,14457.0,2014.0,46267.0,-340.5622915235812,241.72397766153142,457.0643679993118
2014.0,11876.0,2014.0,14456.0,2014.0,46315.0,-314.0495314027445,259.4730723409201,506.18171022391243
2014.0,11908.0,2014.0,14481.0,2014.0,46344.0,-287.6579608394437,276.459119338651,553.4867296707214
2014.0,11933.0,2014.0,14494.0,2014.0,46391.0,-261.42919831093104,292.6722459564936,598.9448117570016
2024.0,11964.0,2024.0,14513.0,2024.0,46431.0,-235.4035677945373,308.10539502279187,642.5279555191184
2024.0,12001.0,2024.0,14529.0,2024.0,46492.0,-209.62003416024436,322.75432871980456,684.2146160165862
2024.0,12024.0,2024.0,14531.0,2024.0,46519.0,-184.11608148001432,336.61763336607953,723.9897308566924
2024.0,12059.0,2024.0,14556.0,2024.0,46540.0,-158.92756536973354,349.6966706537272,761.8447554819761
2024.0,12077.0,2024.0,14548.0,2024.0,46556.0,-134.08860290718337,361.9954915794168,797.77744463359
2024.0,12113.0,2024.0,14532.0,2024.0,46600.0,-109.63150908164312,373.5206523178812,831.7914065861396
2035.0,12129.0,2035.0,14571.0,2035.0,46635.0,-85.58675438318846,384.2808590591312,863.8957499860539
2035.0,12157.0,2035.0,14569.0,2035.0,46645.0,-61.982942482358,394.2866824260269,894.1049567541156
2035.0,12195.0,2035.0,14579.0,2035.0,46728.0,-38.846788796747774,403.5505253545589,922.4388694624622
2035.0,12225.0,2035.0,14582.0,2035.0,46678.0,-16.202999853539836,412.08662958504,948.9227421319649
2035.0,12239.0,2035.0,14580.0,2035.0,46717.0,5.925943371530707,419.9109645399203,973.5871210876146
2035.0,12269.0,2035.0,14578.0,2035.0,46708.0,27.51992894787486,427.0410284868948,996.4673344795649
2045.0,12285.0,2045.0,14596.0,2045.0,46733.0,48.56123647701202,433.49562016332595,1017.6028728141027
2045.0,12303.0,2045.0,14608.0,2045.0,46781.0,69.03451612801462,439.2947280318989,1037.0370175632706
2045.0,12334.0,2045.0,14589.0,2045.0,46770.0,88.92675515496933,444.4595628711754,1054.8167975350843
2045.0,12350.0,2045.0,14612.0,2045.0,46775.0,108.22728096660694,449.01253473280997,1070.9930125765436
2045.0,12360.0,2045.0,14607.0,2045.0,46780.0,126.92779510207117,452.9771492969244,1085.6199790631476
2045.0,12364.0,2045.0,14592.0,2045.0,46781.0,145.02229275492823,456.37792408924906,1098.7550825601952
2055.0,12383.0,2055.0,14607.0,2055.0,46779.0,162.5068155029005,459.24024083075983,1110.4583524469745
2055.0,12411.0,2055.0,14584.0,2055.0,46756.0,179.37921148397493,461.59011896475147,1120.7920020193046
2055.0,12428.0,2055.0,14605.0,2055.0,46799.0,195.6390873116693,463.4540147780398,1129.8199098796058
2055.0,12444.0,2055.0,14606.0,2055.0,46774.0,211.28790728214494,464.8587140851819,1137.6072551275888
2055.0,12455.0,2055.0,14594.0,2055.0,46783.0,226.32906382580802,465.8313398838501,1144.2203386982237
2055.0,12472.0,2055.0,14597.0,2055.0,46786.0,240.76785642376058,466.3993365042776,1149.7263742331593
2066.0,12485.0,2066.0,14608.0,2066.0,46795.0,254.61143959434867,466.5903747370161,1154.1932767039034
2066.0,12497.0,2066.0,14618.0,2066.0,46783.0,267.8687863279288,466.432369305929,1157.6895579237123
2066.0,12513.0,2066.0,14610.0,2066.0,46797.0,280.55066067129064,465.9536563611473,1160.284231642683
2066.0,12508.0,2066.0,14579.0,2066.0,46774.0,292.66956679606255,465.18307307708994,1162.0466673280794
2066.0,12515.0,2066.0,14563.0,2066.0,46752.0,304.23960337739356,464.14968142852763,1163.0463337396036
2066.0,12514.0,2066.0,14557.0,2066.0,46729.0,315.27619252839315,462.88221616563044,1163.352294475609
2076.0,12526.0,2076.0,14568.0,2076.0,46746.0,325.79577188485257,461.4086162771514,1163.032566582093
2076.0,12551.0,2076.0,14581.0,2076.0,46762.0,335.8155930322846,459.75590210240796,1162.1537447452004
2076.0,12558.0,2076.0,14577.0,2076.0,46729.0,345.35372288766143,457.950358741031,1160.7810183936137
2076.0,12549.0,2076.0,14577.0,2076.0,46745.0,354.42913010599307,456.0177779927692,1158.9782193407223
2076.0,12557.0,2076.0,14540.0,2076.0,46732.0,363.0616049896404,453.98350703511653,1156.8077015613687
2076.0,12567.0,2076.0,14547.0,2076.0,46733.0,371.2715224094853,451.87220586702256,1154.330225082412
2086.0,12576.0,2086.0,14562.0,2086.0,46723.0,379.0796737592922,449.70752924002875,1151.6048885205346
2086.0,12591.0,2086.0,14575.0,2086.0,46722.0,386.50724621409927,447.5121147653754,1148.6890354531206
2086.0,12585.0,2086.0,14534.0,2086.0,46711.0,393.57585958030086,445.30782584057636,1145.6381428341742
2086.0,12583.0,2086.0,14525.0,2086.0,46689.0,400.30752244238033,443.11575285312733,1142.5056612736475
2086.0,12588.0,2086.0,14511.0,2086.0,46663.0,406.7244381044926,440.95580803523467,1139.34269206441
2086.0,12597.0,2086.0,14538.0,2086.0,46688.0,412.8487769955585,438.84630994087445,1136.1975417342949
2097.0,12609.0,2097.0,14557.0,2097.0,46685.0,418.70257267488057,436.8039717681994,1133.1154762736633
2097.0,12614.0,2097.0,14536.0,2097.0,46699.0,424.3077508439451,434.844264604145,1130.138847521658
2097.0,12610.0,2097.0,14546.0,2097.0,46687.0,429.6861753027665,432.981742210573,1127.307367641268
2097.0,12598.0,2097.0,14525.0,2097.0,46685.0,434.8595603893327,431.23008400300944,1124.658273302031
2097.0,12611.0,2097.0,14522.0,2097.0,46670.0,439.8492168196875,429.60195693693026,1122.2263054335444
2097.0,12629.0,2097.0,14533.0,2097.0,46659.0,444.67583260324113,428.1088415692408,1120.0435316810533
2107.0,12619.0,2107.0,14543.0,2107.0,46698.0,449.35946441227827,426.7609959277247,1118.1391662711637
2107.0,12631.0,2107.0,14538.0,2107.0,46662.0,453.91959910363096,425.56762967232476,1116.5395987458
2107.0,12634.0,2107.0,14513.0,2107.0,46658.0,458.3751309438345,424.53704941787953,1115.2684849162372
2107.0,12627.0,2107.0,14517.0,2107.0,46656.0,462.7443004555496,423.6765340987067,1114.3465936065297
2107.0,12624.0,2107.0,14499.0,2107.0,46655.0,467.0445760642309,422.9920291525657,1113.791544015795
2107.0,12634.0,2107.0,14512.0,2107.0,46683.0,471.2924476039965,422.4878798785596,1113.6177305199508
2118.0,12652.0,2118.0,14521.0,2118.0,46678.0,475.5032930197465,422.1667292518822,1113.8364970829657
2118.0,12650.0,2118.0,14522.0,2118.0,46675.0,479.69144118279246,422.0296185082443,1114.4564009406356
2118.0,12650.0,2118.0,14537.0,2118.0,46680.0,483.8702886648647,422.07620339309426,1115.4833324638569
2118.0,12660.0,2118.0,14526.0,2118.0,46667.0,488.05230204032637,422.3049585465277,1116.920466642249
2118.0,12658.0,2118.0,14549.0,2118.0,46693.0,492.24895587841206,422.7133315828936,1118.768181590667
2118.0,12682.0,2118.0,14542.0,2118.0,46707.0,496.4707234006057,423.2978873874531,1121.0241058775835
2128.0,12676.0,2128.0,14556.0,2128.0,46730.0,500.72715586140646,424.0544771148045,1123.683418112444
2128.0,12675.0,2128.0,14552.0,2128.0,46712.0,505.02696734323774,424.978393548644,1126.739257208953
2128.0,12685.0,2128.0,14535.0,2128.0,46685.0,509.3780032355603,426.0644299841564,1130.1828609977315
2128.0,12675.0,2128.0,14523.0,2128.0,46715.0,513.7871265224109,427.3067294585792,1134.0032856821315
2128.0,12678.0,2128.0,14550.0,2128.0,46706.0,518.2600803164966,428.6984872370317,1138.187072719725
2128.0,12693.0,2128.0,14554.0,2128.0,46728.0,522.8013345174677,430.23183661309247,1142.718187285625
2138.0,12701.0,2138.0,14554.0,2138.0,46740.0,527.4140317648815,431.89802348017565,1147.578145786434
2138.0,12707.0,2138.0,14541.0,2138.0,46752.0,532.1000811136286,433.6875643476593,1152.7462277133054
2138.0,12706.0,2138.0,14550.0,2138.0,46742.0,536.860257672173,435.5901836899276,1158.199683390014
2138.0,12717.0,2138.0,14562.0,2138.0,46774.0,541.6942110051274,437.5946948575934,1163.9138209123023
2138.0,12737.0,2138.0,14570.0,2138.0,46757.0,546.6004713206287,439.68904749415674,1169.8620377762265
2138.0,12737.0,2138.0,14576.0,2138.0,46819.0,551.5765708312978,441.8605236073962,1176.015939657044
2149.0,12736.0,2149.0,14587.0,2149.0,46790.0,556.6191912941086,444.0959450718917,1182.3456079128669
2149.0,12741.0,2149.0,14572.0,2149.0,46809.0,561.7241678182932,446.38181607152455,1188.8198690013542
2149.0,12748.0,2149.0,14557.0,2149.0,46799.0,566.8863875016541,448.7042896038297,1195.406323932726
2149.0,12749.0,2149.0,14589.0,2149.0,46837.0,572.0997145751226,451.0489483663215,1202.0712419804024
2149.0,12753.0,2149.0,14579.0,2149.0,46847.0,577.3569422248756,453.4006797488432,1208.7796354009583
2149.0,12772.0,2149.0,14598.0,2149.0,46851.0,582.6497530807178,455.74378706110156,1215.4955385184423
2159.0,12786.0,2159.0,14617.0,2159.0,46890.0,587.9687816976053,458.0622059432848,1222.1822980291727
2159.0,12794.0,2159.0,14614.0,2159.0,46878.0,593.3038177514438,460.3397839677079,1228.8028412868798
2159.0,12789.0,2159.0,14603.0,2159.0,46901.0,598.6440004975861,462.5605166919183,1235.3199237538765
2159.0,12797.0,2159.0,14615.0,2159.0,46927.0,603.9778510204479,464.70855855008836,1241.696320391057
2159.0,12821.0,2159.0,14616.0,2159.0,46932.0,609.2932255996582,466.7681244527843,1247.8950856382392
2159.0,12832.0,2159.0,14667.0,2159.0,46951.0,614.5774131749002,468.7235760477285,1253.8798933076505
2169.0,12830.0,2169.0,14647.0,2169.0,46958.0,619.8173752797888,470.5598085032433,1259.6153118773009
2169.0,12840.0,2169.0,14634.0,2169.0,46958.0,624.9999042236421,472.26264487838483,1265.0669819559978
2169.0,12854.0,2169.0,14622.0,2169.0,46975.0,630.1116574454038,473.8188135856505,1270.2017051618125
2169.0,12845.0,2169.0,14657.0,2169.0,46987.0,635.1391939385827,475.2156449946422,1274.9875163573859
2169.0,12854.0,2169.0,14646.0,2169.0,47003.0,640.068982825411,476.44098544313493,1279.3938597169831
2169.0,12873.0,2169.0,14667.0,2169.0,47011.0,644.8873582093289,477.48340192129024,1283.3918554938537
2180.0,12882.0,2180.0,14665.0,2180.0,47007.0,649.5805785956503,478.3324289045066,1286.9545330061364
2180.0,12878.0,2180.0,14653.0,2180.0,47023.0,654.1350034663553,478.9787261611238,1290.056945779137
2180.0,12895.0,2180.0,14647.0,2180.0,47021.0,658.5372073435727,479.4140608527564,1292.6762243580442
2180.0,12921.0,2180.0,14658.0,2180.0,47053.0,662.7740682103166,479.6311364914292,1294.791697116915
2180.0,12917.0,2180.0,14673.0,2180.0,47063.0,666.8330027385854,479.62351996271644,1296.3851769427392
2180.0,12922.0,2180.0,14674.0,2180.0,47051.0,670.7022354205357,479.3858145833277,1297.4413497026333
2190.0,12927.0,2190.0,14686.0,2190.0,47044.0,674.3708976137113,478.91394785850673,1297.9479837841452
2190.0,12922.0,2190.0,14640.0,2190.0,47036.0,677.8289973560915,478.2053353129371,1297.8958195439532
2190.0,12931.0,2190.0,14652.0,2190.0,47033.0,681.0673554192458,477.2587282731534,1297.2783171504445
2190.0,12946.0,2190.0,14682.0,2190.0,47009.0,684.0775706608936,476.07393186877897,1296.0914047852987
2190.0,12952.0,2190.0,14670.0,2190.0,47068.0,686.8521121142269,474.65184863140826,1294.333306345985
2190.0,12942.0,2190.0,14661.0,2190.0,47054.0,689.3844793989252,472.994766749051,1292.0046956773558
2200.0,12955.0,2200.0,14661.0,2200.0,47047.0,691.669255634718,471.10645177541574,1289.1091409624278
2200.0,12941.0,2200.0,14650.0,2200.0,47024.0,693.7020449739873,468.9920295766229,1285.6533353425011
2200.0,12963.0,2200.0,14632.0,2200.0,47016.0,695.4794042115483,466.6578222920696,1281.646909255118
2200.0,12971.0,2200.0,14664.0,2200.0,47034.0,696.9988718255134,464.1111816678988,1277.1021500936565
2200.0,12974.0,2200.0,14639.0,2200.0,47012.0,698.2591471782277,461.3604632444131,1272.0339364854844
2200.0,12968.0,2200.0,14648.0,2200.0,47006.0,699.2602863911873,458.41514318382264,1266.4598038215108
2211.0,12934.0,2211.0,14619.0,2211.0,46973.0,700.0036761374698,455.2858386692041,1260.3998572369005
2211.0,12957.0,2211.0,14613.0,2211.0,46968.0,700.4917266644071,451.9841263352237,1253.8764626718712
2211.0,12962.0,2211.0,14599.0,2211.0,46947.0,700.7275754212925,448.5222352907639,1246.9138691691173
2211.0,12958.0,2211.0,14613.0,2211.0,46972.0,700.7150825151072,444.9127782837716,1239.5379640611054
2211.0,12957.0,2211.0,14603.0,2211.0,46942.0,700.4589539741463,441.1686784658026,1231.7762816892873
2211.0,12958.0,2211.0,14599.0,2211.0,46926.0,699.9647619917935,437.30324075663435,1223.6580948264348
2221.0,12955.0,2221.0,14595.0,2221.0,46906.0,699.2389085442003,433.33019537472535,1215.214296496878
2221.0,12955.0,2221.0,14570.0,2221.0,46877.0,698.2886010092523,429.2636382251545,1206.477061130754
2221.0,12963.0,2221.0,14589.0,2221.0,46902.0,697.1218496997107,425.11789400965483,1197.47950666571
2221.0,12955.0,2221.0,14596.0,2221.0,46876.0,695.7475133865495,420.9074715957539,1188.2555872622988
2221.0,12955.0,2221.0,14584.0,2221.0,46855.0,694.1753520794801,416.64725081746974,1178.8401669943323
2221.0,12946.0,2221.0,14562.0,2221.0,46852.0,692.416009877418,412.3526654852554,1169.268977953363
2231.0,12930.0,2231.0,14539.0,2231.0,46781.0,690.480901266092,408.03956642272846,1159.5783503358111
2231.0,12923.0,2231.0,14525.0,2231.0,46763.0,688.381988378847,403.72379641190605,1149.804660744192
2231.0,12911.0,2231.0,14504.0,2231.0,46780.0,686.1314852823461,399.42069307687007,1139.9836149102107
2231.0,12934.0,2231.0,14540.0,2231.0,46758.0,683.7416325885463,395.1447316896748,1130.1498675758362
2231.0,12918.0,2231.0,14531.0,2231.0,46763.0,681.2246796139785,390.90952394393224,1120.3370998046898
2231.0,12925.0,2231.0,14512.0,2231.0,46730.0,678.5930048851842,386.72808520800766,1110.5781559548823
2242.0,12914.0,2242.0,14524.0,2242.0,46721.0,675.8591904357182,382.6129832853808,1100.9050044707528
2242.0,12910.0,2242.0,14503.0,2242.0,46719.0,673.0360029483605,378.57629945228945,1091.3485841658105
2242.0,12901.0,2242.0,14519.0,2242.0,46718.0,670.1363137154988,374.62959968912594,1081.9387454289763
2242.0,12903.0,2242.0,14500.0,2242.0,46672.0,667.1729893856974,370.7839622599226,1072.704307614391
2242.0,12895.0,2242.0,14496.0,2242.0,46657.0,664.1588137932426,367.04999448259525,1063.6729280913135
2242.0,12882.0,2242.0,14467.0,2242.0,46643.0,661.106428313908,363.4377250033567,1054.8706950038977
2252.0,12879.0,2252.0,14462.0,2252.0,46613.0,658.0282114101606,359.9563125460295,1046.3217039092533
2252.0,12882.0,2252.0,14478.0,2252.0,46625.0,654.9361333857787,356.61373473596734,1038.0477550675496
2252.0,12885.0,2252.0,14472.0,2252.0,46646.0,651.8417215401913,353.41671776455917,1030.0682778647258
2252.0,12875.0,2252.0,14477.0,2252.0,46639.0,648.7561434308785,350.37090461318564,1022.4006455827848
2252.0,12872.0,2252.0,14466.0,2252.0,46606.0,645.6902682343149,347.4810268662719,1015.060618825255
2252.0,12855.0,2252.0,14455.0,2252.0,46578.0,642.6546107292719,344.750940292062,1008.0623969358627
2262.0,12851.0,2262.0,14462.0,2262.0,46572.0,639.6591676705269,342.1835422504288,1001.4182202350967
2262.0,12870.0,2262.0,14482.0,2262.0,46594.0,636.7132656140618,339.7807488897228,995.137990096054
2262.0,12845.0,2262.0,14484.0,2262.0,46598.0,633.8255635559453,337.54372226701685,989.2293233518542
2262.0,12864.0,2262.0,14475.0,2262.0,46551.0,631.0041433010034,335.4732279271397,983.6978747685305
2262.0,12851.0,2262.0,14442.0,2262.0,46561.0,628.2565678813546,333.56977279607986,978.5474031918735
2262.0,12828.0,2262.0,14451.0,2262.0,46553.0,625.5898834780644,331.8333756309616,973.7795427327885
2273.0,12825.0,2273.0,14430.0,2273.0,46551.0,623.0104573449937,330.26319464458993,969.3936714707961
2273.0,12842.0,2273.0,14427.0,2273.0,46530.0,620.5237243629766,328.85723694062585,965.3869180981187
2273.0,12831.0,2273.0,14467.0,2273.0,46568.0,618.1341334357207,327.6122226442307,961.754164864162
2273.0,12840.0,2273.0,14454.0,2273.0,46550.0,615.8452895051507,326.523745453671,958.4881845242365
2273.0,12838.0,2273.0,14439.0,2273.0,46543.0,613.660094740799,325.58660222272897,955.579909431299
2273.0,12828.0,2273.0,14446.0,2273.0,46546.0,611.5808381918005,324.7948869701089,953.0185577755844
2283.0,12816.0,2283.0,14452.0,2283.0,46560.0,609.6091852373218,324.1418899563545,950.7916516655748
2283.0,12820.0,2283.0,14481.0,2283.0,46553.0,607.7460343822866,323.6201743820241,948.8851682187226
2283.0,12825.0,2283.0,14461.0,2283.0,46585.0,605.9913911009389,323.2218977048539,947.2838260859609
2283.0,12841.0,2283.0,14464.0,2283.0,46544.0,604.3444307159677,322.939094492474,945.9713844122177
2283.0,12813.0,2283.0,14447.0,2283.0,46535.0,602.8036956720396,322.76369035728055,944.9307321143806
2283.0,12810.0,2283.0,14437.0,2283.0,46533.0,601.36715807465,322.6872937757979,944.1436283640996
2293.0,12824.0,2293.0,14467.0,2293.0,46538.0,600.0320726634367,322.70096640334407,943.5903821983422
2293.0,12819.0,2293.0,14461.0,2293.0,46577.0,598.7948955115271,322.7952109558254,943.2498462370496
2293.0,12830.0,2293.0,14464.0,2293.0,46574.0,597.6513980580162,322.9601850424711,943.0998000211674
2293.0,12820.0,2293.0,14482.0,2293.0,46557.0,596.5968227849153,323.18591662183127,943.1174423534036
2293.0,12820.0,2293.0,14452.0,2293.0,46566.0,595.625961274272,323.46244044748113,943.2795967056265
2293.0,12823.0,2293.0,14465.0,2293.0,46550.0,594.7331527743512,323.779813325653,943.56263042639
2304.0,12829.0,2304.0,14491.0,2304.0,46585.0,593.9122945099493,324.12805909911657,943.9423880068307
2304.0,12833.0,2304.0,14488.0,2304.0,46608.0,593.15694486782,324.49732295049216,944.3943880847338
2304.0,12831.0,2304.0,14471.0,2304.0,46598.0,592.460477155134,324.8781705863431,944.8943234146658
2304.0,12825.0,2304.0,14484.0,2304.0,46590.0,591.8161809278181,325.2616744199929,945.4185124624206
2304.0,12825.0,2304.0,14473.0,2304.0,46566.0,591.217258485077,325.639315388327,945.9439391351085
2304.0,12820.0,2304.0,14451.0,2304.0,46577.0,590.656757221129,326.0028605649535,946.4479664066359
2314.0,12826.0,2314.0,14464.0,2314.0,46579.0,590.1275109082562,326.3441460171947,946.9080706398729
2314.0,12828.0,2314.0,14493.0,2314.0,46600.0,589.6221407293801,326.6549088591157,947.3018422087913
2314.0,12842.0,2314.0,14491.0,2314.0,46606.0,589.1331527183746,326.9269743460275,947.6072531479417
2314.0,12832.0,2314.0,14492.0,2314.0,46584.0,588.6531136316339,327.15265459120513,947.8029780357198
2314.0,12827.0,2314.0,14465.0,2314.0,46592.0,588.1747779968556,327.3249402556378,947.8685057361319
2314.0,12818.0,2314.0,14473.0,2314.0,46583.0,587.691045154906,327.4373559387311,947.7840406616851
2325.0,12841.0,2325.0,14493.0,2325.0,46613.0,587.1948396198277,327.4837466272222,947.5304573024254
2325.0,12831.0,2325.0,14488.0,2325.0,46589.0,586.6791274770846,327.45831718335285,947.0894462723287
2325.0,12844.0,2325.0,14478.0,2325.0,46597.0,586.1370791667284,327.3558340033975,946.4436905914389
2325.0,12836.0,2325.0,14462.0,2325.0,46606.0,585.5622270981683,327.1716409529775,945.5769351793534
2325.0,12825.0,2325.0,14442.0,2325.0,46585.0,584.9485252241194,326.9013824911666,944.4740411840858
2325.0,12820.0,2325.0,14463.0,2325.0,46589.0,584.2902622124725,326.5406162709602,943.1210175742744
2335.0,12821.0,2335.0,14468.0,2335.0,46617.0,583.5818769814757,326.0846209415736,941.5050203634811
2335.0,12827.0,2335.0,14487.0,2335.0,46580.0,582.8178407052247,325.5285591711307,939.6144858607
2335.0,12817.0,2335.0,14467.0,2335.0,46575.0,581.9926641580499,324.8678078345068,937.4392445565827
2335.0,12829.0,2335.0,14475.0,2335.0,46580.0,581.1009435565805,324.09815600848765,934.9703792421776
2335.0,12811.0,2335.0,14456.0,2335.0,46568.0,580.1373843645074,323.2157859241553,932.2000502963231
2335.0,12830.0,2335.0,14481.0,2335.0,46568.0,579.0968072811131,322.2171806950013,929.1214665163538
2345.0,12822.0,2345.0,14474.0,2345.0,46550.0,577.9741831291285,321.0991471491803,925.7288661554329
2345.0,12845.0,2345.0,14488.0,2345.0,46563.0,576.7647656139986,319.8589983998051,922.0174537440097
2345.0,12824.0,2345.0,14471.0,2345.0,46569.0,575.4642998535032,318.4947606644593,917.9834284680495
2345.0,12817.0,2345.0,14446.0,2345.0,46534.0,574.0691388596258,317.0052020460941,913.6241386588623
2345.0,12807.0,2345.0,14453.0,2345.0,46532.0,572.5761325193807,315.38959429466405,908.9381115729315
2345.0,12807.0,2345.0,14457.0,2345.0,46517.0,570.9823924022301,313.64742615203534,903.924843192804
2356.0,12818.0,2356.0,14461.0,2356.0,46540.0,569.2851510587541,311.778357696738,898.5846253446368
2356.0,12809.0,2356.0,14462.0,2356.0,46538.0,567.481798877052,309.78237927802,892.9186671583559
2356.0,12820.0,2356.0,14455.0,2356.0,46508.0,565.5700115654488,307.65997469976537,886.929391457605
2356.0,12800.0,2356.0,14442.0,2356.0,46496.0,563.547846920544,305.41216925220135,880.6205296231882
2356.0,12793.0,2356.0,14428.0,2356.0,46473.0,561.4137239338042,303.04040995744197,873.9968853299703
2356.0,12798.0,2356.0,14450.0,2356.0,46480.0,559.1662802512435,300.54637108665025,867.0640220233026
2366.0,12801.0,2366.0,14455.0,2366.0,46470.0,556.804273982072,297.93194393784984,859.8281249203648
2366.0,12808.0,2366.0,14453.0,2366.0,46468.0,554.326669536203,295.19949581460776,852.2960636633029
2366.0,12790.0,2366.0,14433.0,2366.0,46425.0,551.7328083666341,292.3521229151452,844.475461143719
2366.0,12785.0,2366.0,14400.0,2366.0,46410.0,549.0224642994341,289.39358539948483,836.3745173323657
2366.0,12783.0,2366.0,14425.0,2366.0,46420.0,546.195738948906,286.3279488185654,828.0016526248969
2366.0,12771.0,2366.0,14402.0,2366.0,46408.0,543.2529287661931,283.15928391231347,819.3653428017537
2376.0,12783.0,2376.0,14424.0,2376.0,46400.0,540.1944547853678,279.89163511370606,810.4742404426834
2376.0,12782.0,2376.0,14401.0,2376.0,46385.0,537.0208935074149,276.52912608539674,801.3373153867582
2376.0,12780.0,2376.0,14408.0,2376.0,46376.0,533.7331210486685,273.07604025853215,791.9638803875678
2376.0,12765.0,2376.0,14386.0,2376.0,46364.0,530.3324430378234,269.53680945535194,782.3635704745083
2376.0,12760.0,2376.0,14383.0,2376.0,46350.0,526.8205746413774,265.9159003370519,772.5463263080162
2376.0,12767.0,2376.0,14419.0,2376.0,46344.0,523.1995374560989,262.21773614564364,762.5223832367171
2387.0,12751.0,2387.0,14407.0,2387.0,46338.0,519.4716249908289,258.44689643937033,752.3022960864413
2387.0,12739.0,2387.0,14377.0,2387.0,46306.0,515.6393941732313,254.60846313302045,741.8969932742825
2387.0,12744.0,2387.0,14358.0,2387.0,46316.0,511.7055654309116,250.708016880448,731.3177728817477
2387.0,12719.0,2387.0,14363.0,2387.0,46295.0,507.67288995137915,246.75124518293387,720.5762828270854
2387.0,12726.0,2387.0,14350.0,2387.0,46280.0,503.5440346257929,242.74360119112805,709.6845677388218
2387.0,12734.0,2387.0,14378.0,2387.0,46235.0,499.32151291931297,238.69024574628236,698.6550202525577
2397.0,12727.0,2397.0,14351.0,2397.0,46253.0,495.00777693213786,234.59620974877046,687.5001290810108
2397.0,12715.0,2397.0,14335.0,2397.0,46228.0,490.6053916420895,230.46653586195515,676.2322764191509
2397.0,12713.0,2397.0,14339.0,2397.0,46202.0,486.11708280324234,226.30617880090375,664.8637239145048
2397.0,12716.0,2397.0,14340.0,2397.0,46221.0,481.5456988889489,222.11983403384133,653.4066127591992
2397.0,12702.0,2397.0,14359.0,2397.0,46209.0,476.89423269639656,217.91200031624808,641.8730361898974
2397.0,12705.0,2397.0,14334.0,2397.0,46178.0,472.1658741863082,213.6872475711224,630.275277087235
2407.0,12700.0,2407.0,14330.0,2407.0,46164.0,467.36404184178764,209.45040664528287,618.6259148144347
2407.0,12681.0,2407.0,14318.0,2407.0,46164.0,462.4924025591069,205.20651889281987,606.9377098245379
2407.0,12670.0,2407.0,14292.0,2407.0,46116.0,457.5548030566473,200.96062840024035,595.2234963285752
2407.0,12658.0,2407.0,14300.0,2407.0,46105.0,452.5550661372028,196.71751382955537,583.4960320162359
2407.0,12662.0,2407.0,14307.0,2407.0,46120.0,447.4967811973626,192.48150137790694,571.7677659610304
2407.0,12665.0,2407.0,14306.0,2407.0,46105.0,442.3832487340419,188.25653678621455,560.0508460649072
2418.0,12653.0,2418.0,14294.0,2418.0,46058.0,437.2175908730163,184.0464049502755,548.3573373027814
2418.0,12651.0,2418.0,14287.0,2418.0,46044.0,432.0028780546143,179.85483391982177,536.6991687241176
2418.0,12636.0,2418.0,14274.0,2418.0,46049.0,426.7421543964847,175.68542649595634,525.0878067934178
2418.0,12653.0,2418.0,14296.0,2418.0,46026.0,421.4384223425966,171.54156905965525,513.5341059699243
2418.0,12639.0,2418.0,14274.0,2418.0,46012.0,416.09471803862664,167.4264794107226,502.0483826981115
2418.0,12652.0,2418.0,14269.0,2418.0,45993.0,410.7142955464823,163.34331862800025,490.6404311569745
2428.0,12621.0,2428.0,14273.0,2428.0,45968.0,405.30079837221257,159.29519482833697,479.3194055519765
2428.0,12590.0,2428.0,14254.0,2428.0,45955.0,399.85821785030157,155.28511336010618,468.0936313646275
2428.0,12605.0,2428.0,14228.0,2428.0,45930.0,394.3905674351691,151.31588344824496,456.9703918066043
2428.0,12590.0,2428.0,14233.0,2428.0,45969.0,388.9015682342989,147.38985774729738,445.9558308668858
2428.0,12602.0,2428.0,14254.0,2428.0,45937.0,383.39461683208174,143.50870101322795,435.05516698825215
2428.0,12590.0,2428.0,14252.0,2428.0,45902.0,377.8729320731831,139.67351363595267,424.27302693791125
2438.0,12589.0,2438.0,14237.0,2438.0,45897.0,372.3397086759902,135.8851723631366,413.61344435969977
2438.0,12571.0,2438.0,14227.0,2438.0,45875.0,366.7981925714929,132.14448747903356,403.079581540641
2438.0,12568.0,2438.0,14225.0,2438.0,45867.0,361.25164345760174,128.45210355230077,392.6735344800344
2438.0,12565.0,2438.0,14229.0,2438.0,45867.0,355.7032532679084,124.80838454709885,382.396294010258
2438.0,12559.0,2438.0,14232.0,2438.0,45865.0,350.1561256808407,121.21345529136704,372.24785682606137
2438.0,12557.0,2438.0,14223.0,2438.0,45842.0,344.6133266822106,117.66735679027641,362.22744995667824
2449.0,12531.0,2449.0,14187.0,2449.0,45849.0,339.0779129870791,114.17010086391278,352.3337108236052
2449.0,12508.0,2449.0,14178.0,2449.0,45809.0,333.5527965594715,110.72141768740414,342.56475611893256
2449.0,12527.0,2449.0,14204.0,2449.0,45820.0,328.0404532254729,107.32036420273568,332.91815977909675
2449.0,12517.0,2449.0,14209.0,2449.0,45825.0,322.54276265351086,103.96525684354498,323.3909574854098
2449.0,12533.0,2449.0,14179.0,2449.0,45776.0,317.0611516364746,100.65395086340806,313.9797890682379
2449.0,12515.0,2449.0,14216.0,2449.0,45786.0,311.59687264260094,97.38405348028812,304.6809643911363
2459.0,12502.0,2459.0,14198.0,2459.0,45770.0,306.15118283224535,94.15304256941414,295.49034960851884
2459.0,12493.0,2459.0,14188.0,2459.0,45758.0,300.72531016713265,90.9584427560606,286.4033147339792
2459.0,12486.0,2459.0,14192.0,2459.0,45748.0,295.32029358858045,87.79789708887466,277.41476693315315
2459.0,12489.0,2459.0,14182.0,2459.0,45750.0,289.93687935821697,84.66911008647463,268.5191786188301
2459.0,12474.0,2459.0,14218.0,2459.0,45747.0,284.57552816656965,81.56989293480734,259.710703597976
2459.0,12491.0,2459.0,14182.0,2459.0,45719.0,279.2364864374726,78.49839387885925,250.98336930030302
2469.0,12464.0,2469.0,14163.0,2469.0,45708.0,273.9198934776811,75.45325281619807,242.3311388517949
2469.0,12448.0,2469.0,14143.0,2469.0,45702.0,268.6258172030596,72.43336040285436,233.74779865886717
2469.0,12459.0,2469.0,14173.0,2469.0,45687.0,263.35412129580675,69.4374261115488,225.22685989970444
2469.0,12462.0,2469.0,14171.0,2469.0,45711.0,258.1043762788158,66.46386525656669,216.7616117321013
2469.0,12454.0,2469.0,14156.0,2469.0,45698.0,252.87601080955505,63.51103335879969,208.34537903827572
2469.0,12444.0,2469.0,14157.0,2469.0,45680.0,247.6685129740436,60.577401132231785,199.9718796818196
2480.0,12429.0,2480.0,14141.0,2480.0,45673.0,242.48146100983536,57.661508244067704,191.63541030584543
2480.0,12428.0,2480.0,14131.0,2480.0,45657.0,237.31441180312027,54.76181529540361,183.33082039322733
2480.0,12427.0,2480.0,14149.0,2480.0,45664.0,232.1668029978485,51.87655727901591,175.05347713924584
2480.0,12420.0,2480.0,14176.0,2480.0,45644.0,227.03796789145463,49.00380902974996,166.79933057855885
2480.0,12398.0,2480.0,14154.0,2480.0,45639.0,221.9271740894664,46.141878072738905,158.56501839925613
2480.0,12408.0,2480.0,14113.0,2480.0,45606.0,216.8335604674893,43.28961006435361,150.34787497987054
2490.0,12400.0,2490.0,14114.0,2490.0,45566.0,211.75606555291512,40.446159635347385,142.14570916474315
2490.0,12385.0,2490.0,14124.0,2490.0,45574.0,206.69345056140622,37.61050999381138,133.95634883853143
2490.0,12397.0,2490.0,14134.0,2490.0,45581.0,201.64433010006928,34.781322124061376,125.777290331475
2490.0,12394.0,2490.0,14137.0,2490.0,45595.0,196.60722474004456,31.957180397022114,117.60582306364768
2490.0,12383.0,2490.0,14117.0,2490.0,45567.0,191.58071037665536,29.136892623739584,109.43948784286522
2490.0,12371.0,2490.0,14106.0,2490.0,45548.0,186.56352276053366,26.319555201454932,101.27638724965414
2500.0,12367.0,2500.0,14109.0,2500.0,45521.0,181.5545059375625,23.504383387871712,93.1150972395576
2500.0,12362.0,2500.0,14110.0,2500.0,45532.0,176.55251594021814,20.690559696585808,84.95437429563208
2500.0,12360.0,2500.0,14111.0,2500.0,45509.0,171.5563951174894,17.877262335850617,76.79299208780208
2500.0,12353.0,2500.0,14108.0,2500.0,45512.0,166.56501106681947,15.063792766611016,68.62977041128408
2500.0,12357.0,2500.0,14098.0,2500.0,45495.0,161.57732175165359,12.249668837997035,60.46365275529297
2500.0,12330.0,2500.0,14068.0,2500.0,45473.0,156.5924283869055,9.434568168314627,52.29372932429203
2511.0,12321.0,2511.0,14084.0,2511.0,45454.0,151.60951291343412,6.618085359512349,44.11912459270616
2511.0,12335.0,2511.0,14068.0,2511.0,45454.0,146.62767020724192,3.799489238166757,35.93877775022827
2511.0,12320.0,2511.0,14105.0,2511.0,45455.0,141.64585765698405,0.9777108403460488,27.75133462477254
2511.0,12323.0,2511.0,14082.0,2511.0,45446.0,136.66300868215933,-1.8484176007482347,19.55527253545972
2511.0,12323.0,2511.0,14091.0,2511.0,45429.0,131.6781564194764,-4.679866911087686,11.349100263742798
2511.0,12307.0,2511.0,14068.0,2511.0,45423.0,126.69053118030354,-7.517285099714059,3.1314409310226665
2521.0,12298.0,2521.0,14078.0,2521.0,45424.0,121.69959325559523,-10.361053465093619,-5.0989576537954235
2521.0,12295.0,2521.0,14064.0,2521.0,45412.0,116.70495252080661,-13.211374909868255,-13.343133360303682
2521.0,12297.0,2521.0,14064.0,2521.0,45401.0,111.70629627879634,-16.068321598883642,-21.601765066692906
2521.0,12294.0,2521.0,14069.0,2521.0,45370.0,106.70344475001923,-18.931848026246996,-29.875138871927106
2521.0,12281.0,2521.0,14023.0,2521.0,45379.0,101.696469457712,-21.801824130769376,-38.16327374275977
2521.0,12269.0,2521.0,14029.0,2521.0,45356.0,96.6857247549109,-24.67825035895953,-46.466048740694305
2532.0,12268.0,2532.0,14038.0,2532.0,45349.0,91.6717580845459,-27.561595990849412,-54.783230646708944
2532.0,12256.0,2532.0,14077.0,2532.0,45341.0,86.65520823949339,-30.452823605215883,-63.11447889300325
2532.0,12265.0,2532.0,14059.0,2532.0,45335.0,81.63677862277865,-33.352931703142815,-71.45933793348229
2532.0,12246.0,2532.0,14032.0,2532.0,45308.0,76.61728143717653,-36.26248294362807,-79.81720290329076
2532.0,12231.0,2532.0,14046.0,2532.0,45314.0,71.59765159257239,-39.181565206847324,-88.18733953644164
2532.0,12225.0,2532.0,14034.0,2532.0,45295.0,66.5788189978083,-42.10998309915834,-96.56892801045694
2542.0,12229.0,2542.0,14020.0,2542.0,45285.0,61.561538367237574,-45.04735407958833,-104.96105586956355
2542.0,12231.0,2542.0,14042.0,2542.0,45285.0,56.54638090559911,-47.99314968857584,-113.3626964851054
2542.0,12226.0,2542.0,14024.0,2542.0,45266.0,51.53389796238139,-50.94667784522994,-121.77267106464399
2542.0,12211.0,2542.0,14016.0,2542.0,45222.0,46.52478259303109,-53.907000161332974,-130.1896711498273
2542.0,12191.0,2542.0,13968.0,2542.0,45232.0,41.51985901232172,-56.87304737919794,-138.61250556610094
2542.0,12184.0,2542.0,13997.0,2542.0,45220.0,36.519875630180366,-59.844032125278716,-147.0403917582554
2552.0,12172.0,2552.0,13980.0,2552.0,45207.0,31.52523723164802,-62.81981700357062,-155.473012280224
2552.0,12194.0,2552.0,14004.0,2552.0,45207.0,26.535862458738734,-65.80094056586103,-163.91043360644312
2552.0,12188.0,2552.0,14017.0,2552.0,45219.0,21.55129407363944,-68.78834973367202,-172.35297632463607
2552.0,12180.0,2552.0,13984.0,2552.0,45201.0,16.570977005472457,-71.78303293622236,-180.8009436251242
2552.0,12176.0,2552.0,13996.0,2552.0,45163.0,11.594453248643958,-74.78582916522697,-189.25438414795065
2552.0,12166.0,2552.0,13983.0,2552.0,45168.0,6.621394700112376,-77.79748779662282,-197.71317048210108
2563.0,12163.0,2563.0,13991.0,2563.0,45152.0,1.6515771556598224,-80.81873630854,-206.17723344657895
2563.0,12160.0,2563.0,13996.0,2563.0,45149.0,-3.3151336972578065,-83.85021623655445,-214.64664050873444
2563.0,12153.0,2563.0,13967.0,2563.0,45132.0,-8.27876000119494,-86.89236829375938,-223.12154465416143
2563.0,12131.0,2563.0,13981.0,2563.0,45130.0,-13.239207804076443,-89.94542246375477,-231.6021413239837
2563.0,12128.0,2563.0,13968.0,2563.0,45082.0,-18.196380652053847,-93.00948900697597,-240.08870425008024
2563.0,12123.0,2563.0,13965.0,2563.0,45092.0,-23.15035808786166,-96.08460669036651,-248.58178113475242
2573.0,12116.0,2573.0,13960.0,2573.0,45086.0,-28.101493351408465,-99.1707624038753,-257.08241762730563
2573.0,12128.0,2573.0,13971.0,2573.0,45119.0,-33.05038980734116,-102.26790442482599,-265.59206959927894
2573.0,12112.0,2573.0,13965.0,2573.0,45076.0,-37.99778239985994,-105.37585826556614,-274.1121713118299
2573.0,12107.0,2573.0,13935.0,2573.0,45055.0,-42.944413163100876,-108.49423010488988,-282.6438127498691
2573.0,12095.0,2573.0,13952.0,2573.0,45049.0,-47.891022190610784,-111.62249006409778,-291.18784785569574
2573.0,12082.0,2573.0,13936.0,2573.0,45053.0,-52.838452019383794,-114.76013820321177,-299.74513007486667
2583.0,12088.0,2583.0,13936.0,2583.0,45049.0,-57.787774339247164,-117.9067630255687,-308.31647651832645
2583.0,12098.0,2583.0,13944.0,2583.0,45024.0,-62.74030138946489,-121.06202286342204,-316.9024517856252
2583.0,12094.0,2583.0,13940.0,2583.0,45007.0,-67.69738487301277,-124.22556432596915,-325.50329117643514
2583.0,12073.0,2583.0,13912.0,2583.0,44984.0,-72.66016222489827,-127.39692639289217,-334.11907053486834
2583.0,12055.0,2583.0,13894.0,2583.0,44977.0,-77.62953351636742,-130.57566694151325,-342.7499810618866
2583.0,12060.0,2583.0,13908.0,2583.0,44961.0,-82.6063790801519,-133.7617157697311,-351.39654315047824
2594.0,12069.0,2594.0,13929.0,2594.0,44969.0,-87.5917122478885,-136.95555140815213,-360.0596823382118
2594.0,12055.0,2594.0,13922.0,2594.0,44973.0,-92.5865769437263,-140.1579568545642,-368.74061070048276
2594.0,12060.0,2594.0,13909.0,2594.0,44968.0,-97.59185200221316,-143.36964968170554,-377.44050759031256
2594.0,12030.0,2594.0,13901.0,2594.0,44953.0,-102.60817264807133,-146.5911689806951,-386.1601656392867
2594.0,12032.0,2594.0,13908.0,2594.0,44909.0,-107.63601768252533,-149.82297662272998,-394.8998691210518
2594.0,12030.0,2594.0,13914.0,2594.0,44907.0,-112.67586319583671,-153.06548343219498,-403.6596240570991
2604.0,12034.0,2604.0,13908.0,2604.0,44926.0,-117.72821256291934,-156.31889704868127,-412.43945673844246
2604.0,12013.0,2604.0,13897.0,2604.0,44907.0,-122.79348854323712,-159.5830574125602,-421.2393637802322
2604.0,12012.0,2604.0,13873.0,2604.0,44878.0,-127.87198174898583,-162.8574622421179,-430.0590533496552
2604.0,12004.0,2604.0,13867.0,2604.0,44866.0,-132.96391415909534,-166.14152095917365,-438.8979389806758
2604.0,11998.0,2604.0,13872.0,2604.0,44867.0,-138.06950232050946,-169.4348630385578,-447.75535563467156
2604.0,11995.0,2604.0,13869.0,2604.0,44849.0,-143.1889716627042,-172.73747009519673,-456.6306600685382
2614.0,12000.0,2614.0,13892.0,2614.0,44835.0,-148.32252192110133,-176.04956696185184,-465.5232013693751
2614.0,11977.0,2614.0,13874.0,2614.0,44844.0,-153.4702456894289,-179.37135675716326,-474.43230334097507
2614.0,11986.0,2614.0,13860.0,2614.0,44812.0,-158.63208307061188,-182.70280636044959,-483.3572223416231
2614.0,11956.0,2614.0,13847.0,2614.0,44820.0,-163.8078650432068,-186.04370085183194,-492.2970826242748
2614.0,11964.0,2614.0,13870.0,2614.0,44782.0,-168.99741721577118,-189.39384752106287,-501.2508843230281
2614.0,11968.0,2614.0,13866.0,2614.0,44811.0,-174.20063493290542,-192.75308137347344,-510.21754769220365
2625.0,11955.0,2625.0,13866.0,2625.0,44784.0,-179.4174143893078,-196.12102761936046,-519.1958459039915
2625.0,11950.0,2625.0,13858.0,2625.0,44750.0,-184.64752475479378,-199.49688221542442,-528.1842831091551
2625.0,11944.0,2625.0,13842.0,2625.0,44776.0,-189.89057916751426,-202.87937034816542,-537.18113839076
2625.0,11913.0,2625.0,13805.0,2625.0,44715.0,-195.14611270103848,-206.26693145645942,-546.1846028099112
2625.0,11927.0,2625.0,13815.0,2625.0,44740.0,-200.41375315356225,-209.65813285699022,-555.1928881795025
2625.0,11936.0,2625.0,13815.0,2625.0,44722.0,-205.69333289669947,-213.05205905505096,-564.204311674674
2635.0,11927.0,2635.0,13820.0,2635.0,44719.0,-210.9847353792133,-216.44838739286848,-573.2172369426437
2635.0,11921.0,2635.0,13802.0,2635.0,44681.0,-216.28762807427404,-219.8472532743416,-582.2299668858079
2635.0,11898.0,2635.0,13822.0,2635.0,44686.0,-221.6013732944553,-223.24914984855008,-591.2408249507243
2635.0,11901.0,2635.0,13823.0,2635.0,44677.0,-226.9251431977192,-226.654817629378,-600.2483076062426
2635.0,11895.0,2635.0,13837.0,2635.0,44689.0,-232.2580609201138,-230.06497630828574,-609.251038914454
2635.0,11885.0,2635.0,13832.0,2635.0,44649.0,-237.59923834552757,-233.47995945330592,-618.247553556427
2645.0,11883.0,2645.0,13813.0,2645.0,44632.0,-242.94776315942232,-236.8994504013309,-627.2362260866221
2645.0,11884.0,2645.0,13782.0,2645.0,44622.0,-248.30268378720615,-240.32251968533876,-636.2154901518904
2645.0,11866.0,2645.0,13787.0,2645.0,44626.0,-253.66296189425316,-243.74798424478598,-645.1840725046795
2645.0,11850.0,2645.0,13768.0,2645.0,44598.0,-259.02748152494746,-247.17482131611007,-654.1410131832461
2645.0,11858.0,2645.0,13789.0,2645.0,44601.0,-264.39518372287125,-250.60238407360708,-663.0856095158913
2645.0,11855.0,2645.0,13804.0,2645.0,44581.0,-269.76515263040403,-254.03033000877713,-672.0174175497389
2656.0,11839.0,2656.0,13781.0,2656.0,44597.0,-275.1365478708075,-257.45831064067136,-680.936221888159
2656.0,11834.0,2656.0,13774.0,2656.0,44563.0,-280.5085552610735,-260.8857342251283,-689.8419091971559
2656.0,11814.0,2656.0,13751.0,2656.0,44557.0,-285.88047730846336,-264.3118605134903,-698.7343769347572
2656.0,11832.0,2656.0,13774.0,2656.0,44550.0,-291.251862333217,-267.73605758882456,-707.6135805214087
2656.0,11831.0,2656.0,13785.0,2656.0,44556.0,-296.62248403617093,-271.1578524868593,-716.4795550380211
2656.0,11814.0,2656.0,13782.0,2656.0,44525.0,-301.9921452208499,-274.5766461057383,-725.3322940819653
2666.0,11798.0,2666.0,13748.0,2666.0,44515.0,-307.36056269348353,-277.99141014729736,-734.1716800613406
2666.0,11810.0,2666.0,13765.0,2666.0,44494.0,-312.72745882147865,-281.4007060977717,-742.9976136632033
2666.0,11784.0,2666.0,13718.0,2666.0,44501.0,-318.09265941406386,-284.80293521560327,-751.810194770891
2666.0,11786.0,2666.0,13728.0,2666.0,44488.0,-323.456127105497,-288.1966516029421,-760.6097565117991
2666.0,11783.0,2666.0,13745.0,2666.0,44510.0,-328.8180111967058,-291.580827105147,-769.3966977956363
2666.0,11791.0,2666.0,13731.0,2666.0,44463.0,-334.17862693912434,-294.95484547483574,-778.1712114765414
2676.0,11777.0,2676.0,13736.0,2676.0,44472.0,-339.53830152397086,-298.3182926173834,-786.9331388366329
2676.0,11773.0,2676.0,13731.0,2676.0,44453.0,-344.8972284310896,-301.6708181661967,-795.6820232439809
2676.0,11750.0,2676.0,13726.0,2676.0,44439.0,-350.2554677434772,-305.0120845943348,-804.4171889545869
2676.0,11765.0,2676.0,13734.0,2676.0,44447.0,-355.6130580207831,-308.34172090407634,-813.1377621036618
2676.0,11760.0,2676.0,13730.0,2676.0,44430.0,-360.9700555735835,-311.6592384096108,-821.842617721629
2676.0,11742.0,2676.0,13719.0,2676.0,44415.0,-366.3264343567745,-314.9639207697477,-830.5302750684027
2687.0,11737.0,2687.0,13700.0,2687.0,44393.0,-371.68203873623725,-318.25482792494205,-839.1989072711986
2687.0,11740.0,2687.0,13682.0,2687.0,44355.0,-377.0366579387147,-321.5310191955926,-847.8465745971625
2687.0,11724.0,2687.0,13704.0,2687.0,44372.0,-382.39006231863743,-324.79186605266233,-856.4715964240254
2687.0,11726.0,2687.0,13715.0,2687.0,44363.0,-387.741981213514,-328.0371307946141,-865.07277865057
2687.0,11719.0,2687.0,13696.0,2687.0,44351.0,-393.0920932277228,-331.2667180606234,-873.6493347047563
2687.0,11710.0,2687.0,13692.0,2687.0,44340.0,-398.4400127663532,-334.48044726988445,-882.2007329185037
2697.0,11708.0,2697.0,13690.0,2697.0,44338.0,-403.78528092696286,-337.67807264967485,-890.7266544574861
2697.0,11691.0,2697.0,13670.0,2697.0,44306.0,-409.1273911197062,-340.8594071759187,-899.2270051632418
2697.0,11699.0,2697.0,13683.0,2697.0,44321.0,-414.46583526674226,-344.02444115332355,-907.70196513152
2697.0,11689.0,2697.0,13682.0,2697.0,44331.0,-419.8001139351878,-347.17339472920645,-916.1519586569875
2697.0,11680.0,2697.0,13690.0,2697.0,44300.0,-425.12969423252923,-350.30660720380223,-924.5774028833796
2697.0,11676.0,2697.0,13678.0,2697.0,44296.0,-430.45399643178325,-353.4243339623695,-932.9784759726524
2707.0,11663.0,2707.0,13657.0,2707.0,44256.0,-435.7724417253586,-356.5266614875947,-941.3551840578355
2707.0,11648.0,2707.0,13654.0,2707.0,44255.0,-441.08454493824024,-359.6136578212058,-949.7076561457743
2707.0,11664.0,2707.0,13634.0,2707.0,44229.0,-446.39002793546763,-362.6856653802151,-958.0364767397627
2707.0,11649.0,2707.0,13658.0,2707.0,44233.0,-451.68883231779466,-365.743537798893,-966.3429246345602
2707.0,11638.0,2707.0,13667.0,2707.0,44251.0,-456.98103344017363,-368.78863055443173,-974.6290025126887
2707.0,11646.0,2707.0,13653.0,2707.0,44247.0,-462.2668136073621,-371.8225271364137,-982.8971581416142
2718.0,11639.0,2718.0,13642.0,2718.0,44216.0,-467.5464519489843,-374.84680630074087,-991.1498772234532
2718.0,11631.0,2718.0,13652.0,2718.0,44226.0,-472.820237880037,-377.8630547555153,-999.3895060230616
2718.0,11629.0,2718.0,13651.0,2718.0,44216.0,-478.08840123164657,-380.8729127395239,-1007.6182612014062
2718.0,11617.0,2718.0,13665.0,2718.0,44202.0,-483.3511096384542,-383.8779460244047,-1015.8381758417216
2718.0,11613.0,2718.0,13638.0,2718.0,44167.0,-488.60849675058057,-386.87943738063603,-1024.0510868323327
2718.0,11601.0,2718.0,13626.0,2718.0,44170.0,-493.86071721891176,-389.87834435265717,-1032.2588436528972
2728.0,11590.0,2728.0,13622.0,2728.0,44137.0,-499.1080365452443,-392.8755184171652,-1040.4636110100423
2728.0,11595.0,2728.0,13598.0,2728.0,44135.0,-504.3509335320359,-395.87201954714743,-1048.668117529827
2728.0,11579.0,2728.0,13615.0,2728.0,44130.0,-509.5901525886827,-398.8693743720111,-1056.8758322217475
2728.0,11604.0,2728.0,13624.0,2728.0,44129.0,-514.8266573109182,-401.86966659237976,-1065.0909957720926
2728.0,11589.0,2728.0,13607.0,2728.0,44145.0,-520.0614569800697,-404.87539281723394,-1073.318443821187
2728.0,11581.0,2728.0,13615.0,2728.0,44099.0,-525.2953828563341,-407.8892841055292,-1081.563331372212
2738.0,11569.0,2738.0,13620.0,2738.0,44093.0,-530.5290125617556,-410.91422872322426,-1089.8310455474943
2738.0,11549.0,2738.0,13599.0,2738.0,44097.0,-535.7627991927144,-413.9531948440261,-1098.1273814057126
2738.0,11563.0,2738.0,13626.0,2738.0,44091.0,-540.9972695547767,-417.00915310222985,-1106.458638638932
2738.0,11555.0,2738.0,13610.0,2738.0,44104.0,-546.2331073467668,-420.08498676123537,-1114.8314406393117
2738.0,11550.0,2738.0,13609.0,2738.0,44075.0,-551.4710686611127,-423.1833529769204,-1123.2524437036097
2738.0,11547.0,2738.0,13596.0,2738.0,44054.0,-556.7118775116942,-426.30663267723753,-1131.7281992490307
2749.0,11523.0,2749.0,13579.0,2749.0,44041.0,-561.9562207665743,-429.45705396885916,-1140.2653104880467
2749.0,11525.0,2749.0,13574.0,2749.0,44043.0,-567.204856629833,-432.6369343523814,-1148.8706971686352
2749.0,11519.0,2749.0,13590.0,2749.0,44037.0,-572.4587617730537,-435.84889798758667,-1157.5516767500903
2749.0,11515.0,2749.0,13589.0,2749.0,44041.0,-577.7191895978392,-439.0958675841137,-1166.3158253640308
2749.0,11525.0,2749.0,13593.0,2749.0,44025.0,-582.9876132901805,-442.38083892798625,-1175.1707559393344
