c_ts,c_val,d_ts,d_val,e_ts,e_val,c_val_filtered,d_val_filtered,e_val_filtered
276363.0,15760.0,276363.0,11290.0,276363.0,28913.0,336.39100154930213,238.4968976673543,458.084164423162
276363.0,15755.0,276363.0,11272.0,276363.0,28909.0,339.2824822491028,239.50425465526664,461.072917268049
276374.0,15766.0,276374.0,11276.0,276374.0,28909.0,342.104408978041,240.48165690937114,464.0184380126056
276374.0,15777.0,276374.0,11292.0,276374.0,28923.0,344.84498782053726,241.42641163081,466.9127444311899
276374.0,15785.0,276374.0,11304.0,276374.0,28922.0,347.4923108973287,242.3354264202767,469.74749789018756
276374.0,15794.0,276374.0,11290.0,276374.0,28933.0,350.03461606906507,243.205473996791,472.5141589934605
276374.0,15781.0,276374.0,11289.0,276374.0,28925.0,352.4605092262218,244.033367019091,475.20414319735244
276374.0,15789.0,276374.0,11279.0,276374.0,28912.0,354.75904228460473,244.8158974033304,477.8088673869743
276384.0,15771.0,276384.0,11291.0,276384.0,28924.0,356.91964725245373,245.54968797028295,480.31964519077627
276384.0,15788.0,276384.0,11289.0,276384.0,28924.0,358.9320137421536,246.23113866020557,482.7275729699404
276384.0,15800.0,276384.0,11292.0,276384.0,28937.0,360.7860539519267,246.85649170868777,485.0235727068142
276384.0,15799.0,276384.0,11301.0,276384.0,28926.0,362.47206270643443,247.4219410205751,487.1985414851596
276384.0,15790.0,276384.0,11293.0,276384.0,28926.0,363.9809312193136,247.92374943378826,489.2434439311192
276384.0,15795.0,276384.0,11280.0,276384.0,28930.0,365.3042023977399,248.35830518706018,491.1492952894984
276394.0,15787.0,276394.0,11285.0,276394.0,28933.0,366.43400643165404,248.7220286673236,492.90714470564365
276394.0,15801.0,276394.0,11294.0,276394.0,28929.0,367.363020623578,249.0112489522373,494.50812983112854
276394.0,15801.0,276394.0,11306.0,276394.0,28935.0,368.08452454226324,249.22226477684976,495.94354232861167
276394.0,15793.0,276394.0,11283.0,276394.0,28949.0,368.59252240263874,249.35154551935642,497.20491063021245
276394.0,15783.0,276394.0,11281.0,276394.0,28922.0,368.88178515544394,249.3957991211052,498.2841326067418
276394.0,15786.0,276394.0,11277.0,276394.0,28924.0,368.9477436721675,249.35181598590145,499.17350461582174
276405.0,15787.0,276405.0,11288.0,276405.0,28934.0,368.7863728299193,249.2163075262489,499.86559457180977
276405.0,15800.0,276405.0,11302.0,276405.0,28932.0,368.39421639815527,248.98594992663254,500.3531980833619
276405.0,15780.0,276405.0,11296.0,276405.0,28916.0,367.7685265470236,248.6576231095871,500.62942444240326
276405.0,15774.0,276405.0,11287.0,276405.0,28919.0,366.9073278569107,248.2286385890443,500.68769211004803
276405.0,15774.0,276405.0,11262.0,276405.0,28918.0,365.80930675363095,247.69672560453768,500.5216258250474
276405.0,15756.0,276405.0,11270.0,276405.0,28922.0,364.47364785514407,247.05976550346975,500.12503160893203
276415.0,15767.0,276415.0,11268.0,276415.0,28929.0,362.8999103633152,246.31551729208195,499.49200248816624
276415.0,15764.0,276415.0,11291.0,276415.0,28920.0,361.08797690627586,245.46158131837853,498.61709037080703
276415.0,15761.0,276415.0,11270.0,276415.0,28914.0,359.0381153184551,244.49559306371785,497.49543093592257
276415.0,15758.0,276415.0,11276.0,276415.0,28904.0,356.7510764582287,243.4154083190543,496.1227326642454
276415.0,15740.0,276415.0,11242.0,276415.0,28894.0,354.2281147234442,242.2190774474058,494.49515444936605
276415.0,15731.0,276415.0,11268.0,276415.0,28886.0,351.47088469279873,240.90464320371515,492.60913870957387
276425.0,15748.0,276425.0,11268.0,276425.0,28905.0,348.48128872901583,239.47001918717154,490.46129726229054
276425.0,15736.0,276425.0,11274.0,276425.0,28898.0,345.2614717897304,237.91313314666087,488.0484876868857
276425.0,15731.0,276425.0,11270.0,276425.0,28886.0,341.81396135864327,236.2321915199471,485.3680215940074
276425.0,15714.0,276425.0,11264.0,276425.0,28890.0,338.14172374454466,234.42584670779164,482.417780265645
276425.0,15718.0,276425.0,11255.0,276425.0,28872.0,334.24807595209114,232.49322059146368,479.1962073924654
276425.0,15696.0,276425.0,11232.0,276425.0,28866.0,330.1365744496825,230.43378635887098,475.7022578985615
276436.0,15708.0,276436.0,11264.0,276436.0,28867.0,325.8109414376021,228.24717949756206,471.9353190912216
276436.0,15705.0,276436.0,11247.0,276436.0,28865.0,321.27507302169846,225.93316058035728,467.8951911870102
276436.0,15708.0,276436.0,11242.0,276436.0,28856.0,316.5331898806771,223.49175818605445,463.5821758000114
276436.0,15678.0,276436.0,11224.0,276436.0,28831.0,311.5900169687136,220.92330864043228,458.99712871113456
276436.0,15666.0,276436.0,11227.0,276436.0,28824.0,306.450759385601,218.2282974601986,454.14133322164923
276436.0,15667.0,276436.0,11237.0,276436.0,28824.0,301.1208742594396,215.40722914444976,449.0162851288243
276446.0,15658.0,276446.0,11240.0,276446.0,28834.0,295.6058975086654,212.4607175501339,443.6236381976987
276446.0,15661.0,276446.0,11218.0,276446.0,28814.0,289.91145684787506,209.3897017177671,437.965376860449
276446.0,15635.0,276446.0,11219.0,276446.0,28811.0,284.04334943330474,206.19552404085354,432.04400359478745
276446.0,15635.0,276446.0,11199.0,276446.0,28792.0,278.00753420808576,202.8798100343244,425.86257091974414
276446.0,15620.0,276446.0,11201.0,276446.0,28771.0,271.8100347097883,199.44428929423492,419.42457208974383
276446.0,15615.0,276446.0,11190.0,276446.0,28777.0,265.4568513078892,195.89065271111394,412.733761216292
276457.0,15609.0,276457.0,11203.0,276457.0,28762.0,258.95392719655626,192.22050052144442,405.7940382916538
276457.0,15606.0,276457.0,11203.0,276457.0,28777.0,252.30716997023424,188.4354398288544,398.60951231882905
276457.0,15592.0,276457.0,11189.0,276457.0,28754.0,245.5225184681885,184.53728297086394,391.1846978956833
276457.0,15581.0,276457.0,11176.0,276457.0,28731.0,238.6059798161496,180.52814835112534,383.52466095633747
276457.0,15568.0,276457.0,11173.0,276457.0,28710.0,231.56357980589794,176.41036653714337,375.63491519510796
276457.0,15577.0,276457.0,11174.0,276457.0,28714.0,224.40129926989758,172.18635142710252,367.5211459076323
276467.0,15564.0,276467.0,11169.0,276467.0,28698.0,217.1251257713384,167.85859628298363,359.18905046132016
276467.0,15556.0,276467.0,11165.0,276467.0,28701.0,209.74119815177042,163.42975812334845,350.64438222920023
276467.0,15530.0,276467.0,11162.0,276467.0,28681.0,202.25586565169,158.90273527762997,341.89307232888046
276467.0,15524.0,276467.0,11138.0,276467.0,28666.0,194.67557235880474,154.28068539645074,332.94130148145314
276467.0,15521.0,276467.0,11134.0,276467.0,28650.0,187.00669022351514,149.56692513443502,323.795450963799
276467.0,15507.0,276467.0,11130.0,276467.0,28643.0,179.2554643530933,144.76474985329864,314.4619830441126
276477.0,15499.0,276477.0,11134.0,276477.0,28655.0,171.4280460919956,139.8773472772551,304.9474206831769
276477.0,15489.0,276477.0,11130.0,276477.0,28608.0,163.5305044029996,134.9078818941516,295.2584789053039
276477.0,15476.0,276477.0,11100.0,276477.0,28607.0,155.5688072523167,129.85960226543625,285.4021189432658
276477.0,15463.0,276477.0,11099.0,276477.0,28584.0,147.54878291836843,124.7357667447016,275.38539137092306
276477.0,15459.0,276477.0,11109.0,276477.0,28579.0,139.4760610289329,119.53946439952625,265.21526227247585
276477.0,15449.0,276477.0,11103.0,276477.0,28569.0,131.3560477762171,114.2736204215984,254.8985659020076
276488.0,15459.0,276488.0,11104.0,276488.0,28559.0,123.1939978601489,108.94120413628414,244.44205527303671
276488.0,15432.0,276488.0,11077.0,276488.0,28543.0,114.99517488612793,103.54539261973892,233.8524856936142
276488.0,15407.0,276488.0,11070.0,276488.0,28523.0,106.7649300507394,98.08952792646329,223.13664198033496
276488.0,15394.0,276488.0,11047.0,276488.0,28508.0,98.50852287887233,92.57689008381669,212.30126460678622
276488.0,15397.0,276488.0,11064.0,276488.0,28491.0,90.23083764059385,87.01045371429885,201.35291908559685
276488.0,15397.0,276488.0,11075.0,276488.0,28487.0,81.93631097709778,81.39286900191058,190.29789538347302
276498.0,15380.0,276498.0,11054.0,276498.0,28485.0,73.6290968841758,75.72672761571968,179.1422282210122
276498.0,15361.0,276498.0,11042.0,276498.0,28464.0,65.31320784644862,70.01480791917359,167.89185019175073
276498.0,15359.0,276498.0,11022.0,276498.0,28430.0,56.99247615767217,64.26002212788967,156.55269334171095
276498.0,15343.0,276498.0,11016.0,276498.0,28425.0,48.670456717349,58.46516650991194,145.13055890224626
276498.0,15334.0,276498.0,11015.0,276498.0,28427.0,40.350386529413754,52.63270726199033,133.63093104459864
276498.0,15328.0,276498.0,11010.0,276498.0,28418.0,32.03517043034816,46.764723394891035,122.05903599928774
276508.0,15320.0,276508.0,11008.0,276508.0,28389.0,23.72739293935382,40.86298226234925,110.42006743337998
276508.0,15314.0,276508.0,10983.0,276508.0,28375.0,15.429382441757753,34.92901409857839,98.719264235065
276508.0,15291.0,276508.0,10987.0,276508.0,28353.0,7.143270954520574,28.96407420013699,86.96177779727486
276508.0,15293.0,276508.0,10984.0,276508.0,28342.0,-1.1290194112052063,22.969063530778612,75.15249659641262
276508.0,15282.0,276508.0,10985.0,276508.0,28337.0,-9.385808721980652,16.94457365146519,63.29595741537679
276508.0,15270.0,276508.0,10988.0,276508.0,28320.0,-17.62562934480593,10.891072133219012,51.396381500402356
276519.0,15268.0,276519.0,10980.0,276519.0,28311.0,-25.847174452338493,4.809133314469079,39.45777681305833
276519.0,15241.0,276519.0,10954.0,276519.0,28287.0,-34.04928364909341,-1.3004131113364679,27.484001002504158
276519.0,15228.0,276519.0,10950.0,276519.0,28270.0,-42.231016356470946,-7.436543194307376,15.478730323315801
276519.0,15233.0,276519.0,10956.0,276519.0,28261.0,-50.39180085356702,-13.59820430824439,3.445360678741622
276519.0,15235.0,276519.0,10952.0,276519.0,28263.0,-58.531456634158076,-19.78432013974941,-8.613023743820065
276519.0,15242.0,276519.0,10953.0,276519.0,28240.0,-66.64995046522239,-25.99360274322106,-20.693519244513993
276529.0,15210.0,276529.0,10923.0,276529.0,28218.0,-74.74705412694772,-32.22438216677702,-32.793258649741915
276529.0,15195.0,276529.0,10899.0,276529.0,28216.0,-82.82221144639277,-38.47467427940768,-44.90941661447573
276529.0,15181.0,276529.0,10906.0,276529.0,28194.0,-90.8747057037919,-44.742492925464035,-57.03926107598318
276529.0,15183.0,276529.0,10897.0,276529.0,28204.0,-98.90388660877437,-51.026111007139406,-69.18010119939743
276529.0,15175.0,276529.0,10901.0,276529.0,28185.0,-106.90921807179433,-57.32406211564174,-81.32911369516819
276529.0,15159.0,276529.0,10913.0,276529.0,28151.0,-114.89018726780978,-63.634951574972945,-93.48316700057711
276539.0,15153.0,276539.0,10878.0,276539.0,28131.0,-122.84624905224587,-69.95720646793552,-105.63887210200824
276539.0,15145.0,276539.0,10871.0,276539.0,28115.0,-130.77684015241374,-76.28897920822865,-117.79286414998319
276539.0,15131.0,276539.0,10855.0,276539.0,28120.0,-138.68138625375929,-82.6283220879782,-129.94201951513418
276539.0,15129.0,276539.0,10864.0,276539.0,28095.0,-146.5592939069776,-88.97340822872755,-142.08343233242806
276539.0,15114.0,276539.0,10865.0,276539.0,28091.0,-154.40994144327772,-95.32254401081047,-154.21427610858973
276539.0,15121.0,276539.0,10852.0,276539.0,28093.0,-162.23263856434795,-101.67398720809953,-166.33166989145428
276550.0,15092.0,276550.0,10837.0,276550.0,28055.0,-170.02655463045284,-108.02579551897347,-178.43252279059982
276550.0,15067.0,276550.0,10822.0,276550.0,28037.0,-177.79074518983924,-114.37587554557564,-190.51348039495332
276550.0,15073.0,276550.0,10825.0,276550.0,28024.0,-185.52436986893701,-120.7221493136324,-202.57109461426398
276550.0,15068.0,276550.0,10820.0,276550.0,28013.0,-193.22688106942718,-127.06263602970608,-214.6020187313013
276550.0,15068.0,276550.0,10810.0,276550.0,27992.0,-200.89795684413923,-133.3953945038026,-226.60306588083517
276550.0,15053.0,276550.0,10806.0,276550.0,27997.0,-208.53729939550055,-139.71844570303108,-238.57119177770022
276560.0,15042.0,276560.0,10791.0,276560.0,27974.0,-216.14451372533296,-146.0297584742467,-250.5034200146572
276560.0,15036.0,276560.0,10771.0,276560.0,27944.0,-223.71910894802937,-152.32731873905175,-262.3967707446617
276560.0,15017.0,276560.0,10784.0,276560.0,27940.0,-231.26054942914197,-158.60926806192367,-274.248344626655
276560.0,15033.0,276560.0,10770.0,276560.0,27938.0,-238.76827886632566,-164.87396797348833,-286.0554528538304
276560.0,15008.0,276560.0,10780.0,276560.0,27932.0,-246.24165459734672,-171.11989701976051,-297.8155383732343
276560.0,14996.0,276560.0,10762.0,276560.0,27911.0,-253.67985893904768,-177.3454817792143,-309.52594100521264
276570.0,14986.0,276570.0,10740.0,276570.0,27882.0,-261.08194340720047,-183.54902379794527,-321.1837817765779
276570.0,14976.0,276570.0,10736.0,276570.0,27875.0,-268.4469613240834,-189.7288236821933,-332.7860798866809
276570.0,14969.0,276570.0,10742.0,276570.0,27861.0,-275.77404920936567,-195.88336681509463,-344.32993443407486
276570.0,14967.0,276570.0,10741.0,276570.0,27851.0,-283.06243270171046,-202.01131374127135,-355.81258482027863
276570.0,14959.0,276570.0,10746.0,276570.0,27835.0,-290.31136513627223,-208.11127705714244,-367.23137623551054
276570.0,14953.0,276570.0,10706.0,276570.0,27825.0,-297.520027138502,-214.18160948692673,-378.58372745768645
276581.0,14932.0,276581.0,10703.0,276581.0,27809.0,-304.6874682106926,-220.22044603900702,-389.8671192682141
276581.0,14923.0,276581.0,10692.0,276581.0,27799.0,-311.8126611708002,-226.22597601282268,-401.0790894060051
276581.0,14919.0,276581.0,10699.0,276581.0,27770.0,-318.89462900181763,-232.19664742980746,-412.2172564057389
276581.0,14901.0,276581.0,10687.0,276581.0,27766.0,-325.9325328417078,-238.13115419152564,-423.2794128774169
276581.0,14898.0,276581.0,10689.0,276581.0,27757.0,-332.9257170990537,-244.02832136847542,-434.26362354777916
276581.0,14908.0,276581.0,10684.0,276581.0,27747.0,-339.8737137470267,-249.88699389814263,-445.168206714918
276591.0,14883.0,276591.0,10663.0,276591.0,27731.0,-346.7761349895718,-255.70596313698934,-455.9916356092574
276591.0,14865.0,276591.0,10655.0,276591.0,27714.0,-353.63258585979065,-261.48400820755637,-466.7324953084918
276591.0,14870.0,276591.0,10648.0,276591.0,27706.0,-360.4427647342451,-267.2200542046687,-477.38952359202756
276591.0,14874.0,276591.0,10653.0,276591.0,27704.0,-367.20655345372836,-272.9132854033032,-487.96163257468686
276591.0,14854.0,276591.0,10634.0,276591.0,27682.0,-373.92390076194806,-278.5631264836652,-498.44783628657456
276591.0,14845.0,276591.0,10630.0,276591.0,27668.0,-380.59469132190054,-284.1692091767927,-508.8471834004108
276601.0,14835.0,276601.0,10624.0,276601.0,27637.0,-387.2187824493659,-289.7314154182916,-519.158838825667
276601.0,14834.0,276601.0,10637.0,276601.0,27648.0,-393.79609524146815,-295.2498877432076,-529.3822737283533
276601.0,14838.0,276601.0,10627.0,276601.0,27649.0,-400.3265961857986,-300.72488550531614,-539.5173211592418
276601.0,14822.0,276601.0,10618.0,276601.0,27641.0,-406.8101571128951,-306.1565820342765,-549.5639455324823
276601.0,14804.0,276601.0,10628.0,276601.0,27608.0,-413.2464513465694,-311.5449464102489,-559.5219546453884
276601.0,14793.0,276601.0,10604.0,276601.0,27587.0,-419.6350378377746,-316.8896774747401,-569.3909982781342
276612.0,14789.0,276612.0,10590.0,276612.0,27577.0,-425.9755523453173,-322.19020222365657,-579.170847311628
276612.0,14784.0,276612.0,10590.0,276612.0,27583.0,-432.26781747233315,-327.4458235895833,-588.8616295812117
276612.0,14791.0,276612.0,10590.0,276612.0,27583.0,-438.511800741029,-332.6558719244759,-598.4637715336346
276612.0,14781.0,276612.0,10585.0,276612.0,27563.0,-444.70745309348115,-337.81968616608583,-607.9777246117658
276612.0,14768.0,276612.0,10572.0,276612.0,27544.0,-450.85454115165635,-342.936519825759,-617.4037758688717
276612.0,14746.0,276612.0,10546.0,276612.0,27524.0,-456.95263513923317,-348.0055721688282,-626.7421148187412
276622.0,14736.0,276622.0,10543.0,276622.0,27523.0,-463.0012969965395,-353.0262174661725,-635.9930350921959
276622.0,14744.0,276622.0,10549.0,276622.0,27504.0,-469.0003047814894,-357.9982643733948,-645.1570664996151
276622.0,14744.0,276622.0,10572.0,276622.0,27516.0,-474.9496826669108,-362.9219520182465,-654.2349686848161
276622.0,14725.0,276622.0,10549.0,276622.0,27501.0,-480.84953856664856,-367.7976342352671,-663.2275984985506
276622.0,14710.0,276622.0,10526.0,276622.0,27492.0,-486.6999765230354,-372.62551216571313,-672.135717854241
276622.0,14712.0,276622.0,10527.0,276622.0,27473.0,-492.50120325411797,-377.4057228200784,-680.9598897745835
276632.0,14712.0,276632.0,10525.0,276632.0,27461.0,-498.25362446339227,-382.13857920273387,-689.7005273674567
276632.0,14707.0,276632.0,10530.0,276632.0,27458.0,-503.9577690094011,-386.82462403338207,-698.3579985771382
276632.0,14682.0,276632.0,10541.0,276632.0,27451.0,-509.6141744895748,-391.46445860543406,-706.9326531341952
276632.0,14688.0,276632.0,10508.0,276632.0,27423.0,-515.223416358143,-396.05850461679637,-715.4247818129155
276632.0,14674.0,276632.0,10498.0,276632.0,27416.0,-520.7862158035684,-400.6069539455171,-723.8346678610527
276632.0,14663.0,276632.0,10491.0,276632.0,27413.0,-526.3035008972437,-405.10999944919286,-732.1627326178558
276643.0,14661.0,276643.0,10489.0,276643.0,27397.0,-531.7764594412788,-409.56809786407194,-740.4096012732383
276643.0,14661.0,276643.0,10487.0,276643.0,27414.0,-537.2065794387546,-413.9820604006724,-748.5760341158372
276643.0,14656.0,276643.0,10495.0,276643.0,27387.0,-542.5955921534891,-418.3529932817849,-756.6627657513651
276643.0,14654.0,276643.0,10482.0,276643.0,27369.0,-547.945348069305,-422.68215498102495,-764.6703817886714
276643.0,14637.0,276643.0,10471.0,276643.0,27354.0,-553.2577268815062,-426.97084952830073,-772.5994130839334
276643.0,14629.0,276643.0,10451.0,276643.0,27350.0,-558.5346522933872,-431.22049750361344,-780.4505665767783
276653.0,14626.0,276653.0,10463.0,276653.0,27344.0,-563.7781933449089,-435.43284217938947,-788.2248539028947
276653.0,14636.0,276653.0,10465.0,276653.0,27337.0,-568.990606504513,-439.6100539898957,-795.9235651443062
276653.0,14629.0,276653.0,10488.0,276653.0,27330.0,-574.1742051305949,-443.754555184956,-803.5481828013421
276653.0,14612.0,276653.0,10459.0,276653.0,27321.0,-579.3311715842304,-447.86866173950074,-811.1003088015956
276653.0,14599.0,276653.0,10451.0,276653.0,27314.0,-584.463534530166,-451.9543662399925,-818.5816186673019
276653.0,14591.0,276653.0,10428.0,276653.0,27285.0,-589.5733376653552,-456.01346404775535,-825.9938731477173
276663.0,14586.0,276663.0,10438.0,276663.0,27288.0,-594.6628298169497,-460.0478587537685,-833.3390378569189
276663.0,14600.0,276663.0,10449.0,276663.0,27294.0,-599.7345205167484,-464.05971699940216,-840.6193955091613
276663.0,14592.0,276663.0,10454.0,276663.0,27281.0,-604.79104229234,-468.0513066562606,-847.8374604602576
276663.0,14579.0,276663.0,10428.0,276663.0,27260.0,-609.8349369720372,-472.0246984083196,-854.9958148831224
276663.0,14561.0,276663.0,10424.0,276663.0,27229.0,-614.8686006727187,-475.98167267465305,-862.0971741036053
276663.0,14568.0,276663.0,10418.0,276663.0,27243.0,-619.8944197696507,-479.9238763296425,-869.144689108771
276674.0,14560.0,276674.0,10429.0,276674.0,27250.0,-624.914881233523,-483.8529579853061,-876.1421259175671
276674.0,14559.0,276674.0,10409.0,276674.0,27244.0,-629.9325378583409,-487.77053809821155,-883.093680890207
276674.0,14551.0,276674.0,10422.0,276674.0,27248.0,-634.949921391745,-491.6781292001279,-890.003624110889
276674.0,14540.0,276674.0,10406.0,276674.0,27212.0,-639.9695046728145,-495.5770911976931,-896.8760682001265
276674.0,14533.0,276674.0,10385.0,276674.0,27211.0,-644.9937390052315,-499.46864800188644,-903.7149899170589
276674.0,14532.0,276674.0,10390.0,276674.0,27205.0,-650.0251262121833,-503.35404032091077,-910.524411329783
276684.0,14528.0,276684.0,10392.0,276684.0,27224.0,-655.0662382742387,-507.23470327149397,-917.3084510339983
276684.0,14523.0,276684.0,10402.0,276684.0,27186.0,-660.11966423287,-511.1122360405878,-924.0711481528477
276684.0,14511.0,276684.0,10384.0,276684.0,27193.0,-665.1879591552292,-514.9881999788684,-930.816324094165
276684.0,14504.0,276684.0,10362.0,276684.0,27162.0,-670.2736638839818,-518.8640263730813,-937.5476580003316
276684.0,14502.0,276684.0,10349.0,276684.0,27143.0,-675.3793732293925,-522.74122002964,-944.2689110087475
276684.0,14494.0,276684.0,10367.0,276684.0,27173.0,-680.5077735967158,-526.6216866057225,-950.9841676609501
276695.0,14499.0,276695.0,10375.0,276695.0,27170.0,-685.6616155621498,-530.5078092494931,-957.6978191124086
276695.0,14488.0,276695.0,10368.0,276695.0,27164.0,-690.8436354775628,-534.4021955626774,-964.4142050405692
276695.0,14470.0,276695.0,10358.0,276695.0,27132.0,-696.0565008940397,-538.3074044397101,-971.1373127856007
276695.0,14459.0,276695.0,10349.0,276695.0,27139.0,-701.3028991157092,-542.2258955484369,-977.8708128605516
276695.0,14458.0,276695.0,10348.0,276695.0,27118.0,-706.5857364175573,-546.1601325649982,-984.6182424980284
276695.0,14464.0,276695.0,10351.0,276695.0,27116.0,-711.9082454673293,-550.1126559251637,-991.3831205765146
276705.0,14471.0,276705.0,10364.0,276705.0,27111.0,-717.2738693156026,-554.0860035895003,-998.1689917873226
276705.0,14449.0,276705.0,10350.0,276705.0,27108.0,-722.6860149421714,-558.0824898603619,-1004.979408023426
276705.0,14446.0,276705.0,10331.0,276705.0,27093.0,-728.1479130251756,-562.1040425193017,-1011.8178569952316
276705.0,14424.0,276705.0,10306.0,276705.0,27070.0,-733.662691081669,-566.1523309388602,-1018.6877654537532
276705.0,14425.0,276705.0,10326.0,276705.0,27077.0,-739.2335546418024,-570.2291102276603,-1025.5926416675939
276705.0,14429.0,276705.0,10315.0,276705.0,27080.0,-744.8639104092209,-574.3364312489352,-1032.5361728843588
276715.0,14425.0,276715.0,10329.0,276715.0,27060.0,-750.5573159512007,-578.4765626511221,-1039.5221258843983
276715.0,14413.0,276715.0,10312.0,276715.0,27055.0,-756.3173246153642,-582.6517968605282,-1046.554224548382
276715.0,14399.0,276715.0,10307.0,276715.0,27037.0,-762.1474238835442,-586.8643382889824,-1053.6361824052606
276715.0,14396.0,276715.0,10293.0,276715.0,27029.0,-768.0511216890588,-591.116348561337,-1060.7718313528508
276715.0,14393.0,276715.0,10296.0,276715.0,27023.0,-774.0320470189442,-595.410083932491,-1067.9652472678636
276715.0,14397.0,276715.0,10299.0,276715.0,27036.0,-780.0939331454496,-599.7479689967299,-1075.220773218275
276726.0,14387.0,276726.0,10310.0,276726.0,27035.0,-786.2404853934265,-604.1324953116914,-1082.5428369374727
276726.0,14377.0,276726.0,10290.0,276726.0,27009.0,-792.4752527236236,-608.565997476515,-1089.9356636080054
276726.0,14371.0,276726.0,10265.0,276726.0,27007.0,-798.8016021754743,-613.0505575264592,-1097.4031529692202
276726.0,14354.0,276726.0,10274.0,276726.0,26996.0,-805.2227798653937,-617.5881913714937,-1104.9489570409417
276726.0,14354.0,276726.0,10278.0,276726.0,26986.0,-811.7420037906193,-622.1810642456401,-1112.5765660841616
276726.0,14350.0,276726.0,10272.0,276726.0,26999.0,-818.3625255971679,-626.8314558271767,-1120.2893035178304
276736.0,14349.0,276736.0,10286.0,276736.0,26968.0,-825.0875903770946,-631.5415599558079,-1128.0902337265081
276736.0,14334.0,276736.0,10276.0,276736.0,26961.0,-831.9203308169726,-636.313262559109,-1135.9821060986415
276736.0,14328.0,276736.0,10251.0,276736.0,26949.0,-838.8637149926117,-641.1479908110823,-1143.9674586432266
276736.0,14316.0,276736.0,10241.0,276736.0,26936.0,-845.9205841359665,-646.0468014314936,-1152.0487799090065
276736.0,14315.0,276736.0,10255.0,276736.0,26937.0,-853.0937114713468,-651.0106332012627,-1160.2286036516443
276736.0,14324.0,276736.0,10241.0,276736.0,26934.0,-860.3857767952131,-656.0404079576452,-1168.5094997401327
276746.0,14313.0,276746.0,10267.0,276746.0,26936.0,-867.7991939750632,-661.1368930178476,-1176.8939328884992
276746.0,14313.0,276746.0,10235.0,276746.0,26917.0,-875.3358762786531,-666.3004707098112,-1185.3840579375005
276746.0,14286.0,276746.0,10229.0,276746.0,26896.0,-882.9971033788033,-671.5310153354532,-1193.9816296955782
276746.0,14280.0,276746.0,10217.0,276746.0,26903.0,-890.7835688979756,-676.8280070727459,-1202.6880920288068
276746.0,14278.0,276746.0,10222.0,276746.0,26891.0,-898.6955254781631,-682.1907310407132,-1211.5046599605205
276746.0,14282.0,276746.0,10227.0,276746.0,26908.0,-906.7328229567408,-687.6183166726175,-1220.4322125988024
276757.0,14264.0,276757.0,10219.0,276757.0,26884.0,-914.8947748804036,-693.1095911112383,-1229.4710393514924
276757.0,14256.0,276757.0,10198.0,276757.0,26873.0,-923.180031449574,-698.6629368845564,-1238.620633679269
276757.0,14237.0,276757.0,10178.0,276757.0,26838.0,-931.5866005761063,-704.276374485308,-1247.8797286556717
276757.0,14241.0,276757.0,10185.0,276757.0,26843.0,-940.1119523385191,-709.9478435968434,-1257.2465581595802
276757.0,14241.0,276757.0,10199.0,276757.0,26852.0,-948.7530389294371,-715.6753693502931,-1266.7190523229128
276757.0,14229.0,276757.0,10212.0,276757.0,26846.0,-957.5061573227738,-721.4568627373098,-1276.2947102764192
276767.0,14227.0,276767.0,10190.0,276767.0,26829.0,-966.3667701118112,-727.2896928567789,-1285.97028989732
276767.0,14196.0,276767.0,10197.0,276767.0,26825.0,-975.329432370499,-733.1703831938665,-1295.7416262941542
276767.0,14188.0,276767.0,10168.0,276767.0,26811.0,-984.3878874199473,-739.094563561523,-1305.6036094912456
276767.0,14206.0,276767.0,10163.0,276767.0,26802.0,-993.5352163228249,-745.0570968689741,-1315.5501919300345
276767.0,14192.0,276767.0,10179.0,276767.0,26793.0,-1002.763774176004,-751.0522412204159,-1325.5743915484136
276767.0,14201.0,276767.0,10159.0,276767.0,26805.0,-1012.0648931884082,-757.073655255025,-1335.6682440875616
276777.0,14176.0,276777.0,10160.0,276777.0,26769.0,-1021.428597663446,-763.1142752451851,-1345.822660330307
276777.0,14162.0,276777.0,10149.0,276777.0,26768.0,-1030.8434971138022,-769.1662645060161,-1356.0273342365558
276777.0,14159.0,276777.0,10145.0,276777.0,26752.0,-1040.2968578321102,-775.2210393922935,-1366.270809526523
276777.0,14154.0,276777.0,10134.0,276777.0,26749.0,-1049.7746832929038,-781.2693013055632,-1376.5405613598584
276777.0,14149.0,276777.0,10136.0,276777.0,26751.0,-1059.2616560651638,-787.3010689167975,-1386.822957890833
276777.0,14126.0,276777.0,10143.0,276777.0,26736.0,-1068.7410287075031,-793.3056481693715,-1397.1031081750982
276788.0,14120.0,276788.0,10129.0,276788.0,26714.0,-1078.194619967504,-799.2714897924293,-1407.3647263873677
276788.0,14101.0,276788.0,10091.0,276788.0,26688.0,-1087.6029228972236,-805.1861147817413,-1417.5902010369591
276788.0,14100.0,276788.0,10109.0,276788.0,26692.0,-1096.9452222613866,-811.0363105924614,-1427.7608494686808
276788.0,14084.0,276788.0,10104.0,276788.0,26693.0,-1106.199655084286,-816.808373812447,-1437.8570769184623
276788.0,14083.0,276788.0,10116.0,276788.0,26682.0,-1115.343217027236,-822.4880638041093,-1447.8582687094506
276788.0,14076.0,276788.0,10096.0,276788.0,26669.0,-1124.351725421243,-828.0603608483931,-1457.7425882375699
276798.0,14062.0,276798.0,10081.0,276798.0,26656.0,-1133.1997518408966,-833.5093429286375,-1467.4869040225296
276798.0,14048.0,276798.0,10072.0,276798.0,26645.0,-1141.8605978550984,-838.8183111583933,-1477.0668445067604
276798.0,14048.0,276798.0,10070.0,276798.0,26639.0,-1150.3063512032577,-843.9700206823782,-1486.456872068111
276798.0,14047.0,276798.0,10065.0,276798.0,26628.0,-1158.5079058838687,-848.9468172395957,-1495.6303122734837
276798.0,14041.0,276798.0,10069.0,276798.0,26626.0,-1166.4348519429009,-853.7306414929484,-1504.5593351501338
276798.0,14025.0,276798.0,10061.0,276798.0,26608.0,-1174.0553330420237,-858.3029583591627,-1513.2149196915966
276808.0,14006.0,276808.0,10049.0,276808.0,26604.0,-1181.3360407589705,-862.644698942639,-1521.5668490427342
276808.0,14001.0,276808.0,10041.0,276808.0,26577.0,-1188.242379028743,-866.7363128105815,-1529.583779798888
276808.0,13994.0,276808.0,10040.0,276808.0,26574.0,-1194.7386581401702,-870.5579089635974,-1537.2334005595085
276808.0,13985.0,276808.0,10044.0,276808.0,26575.0,-1200.7881959566994,-874.0893464954326,-1544.4825977742457
276808.0,13985.0,276808.0,10031.0,276808.0,26566.0,-1206.3533477502197,-877.310218919027,-1551.2974882628255
276808.0,13973.0,276808.0,10028.0,276808.0,26544.0,-1211.3955144016918,-880.1998400658396,-1557.6433761412904
276819.0,13958.0,276819.0,10028.0,276819.0,26536.0,-1215.87518077758,-882.7373050710235,-1563.4848416671741
276819.0,13946.0,276819.0,10014.0,276819.0,26523.0,-1219.7520664769486,-884.9015724714416,-1568.785973241098
276819.0,13938.0,276819.0,10023.0,276819.0,26527.0,-1222.9853780815658,-886.6715417820694,-1573.5105777611136
276819.0,13938.0,276819.0,10017.0,276819.0,26514.0,-1225.5340448080935,-888.0261130630895,-1577.6222794193577
276819.0,13926.0,276819.0,10023.0,276819.0,26510.0,-1227.3568680471888,-888.9441846364525,-1581.0845627480685
276819.0,13920.0,276819.0,9993.0,276819.0,26499.0,-1228.4126427779424,-889.4046645102283,-1583.8608562027457
276829.0,13890.0,276829.0,9985.0,276829.0,26489.0,-1228.66037563283,-889.3866722539626,-1585.914685791999
276829.0,13898.0,276829.0,9999.0,276829.0,26481.0,-1228.0596535573202,-888.8699036708124,-1587.2098857661695
276829.0,13908.0,276829.0,9995.0,276829.0,26470.0,-1226.5709943915476,-887.8348695449525,-1587.710849325555
276829.0,13905.0,276829.0,9990.0,276829.0,26483.0,-1224.155956042945,-886.2629261438218,-1587.3827618240866
276829.0,13897.0,276829.0,10006.0,276829.0,26462.0,-1220.777106708608,-884.1362842842772,-1586.1917528553126
276829.0,13884.0,276829.0,9993.0,276829.0,26482.0,-1216.39814070804,-881.4380380379716,-1584.1049966736437
276839.0,13885.0,276839.0,9995.0,276839.0,26464.0,-1210.984199820687,-878.1522055544124,-1581.0908106108059
276839.0,13881.0,276839.0,9994.0,276839.0,26478.0,-1204.5022515413525,-874.2638574230649,-1577.1187545685575
276839.0,13904.0,276839.0,10001.0,276839.0,26485.0,-1196.921367523988,-869.7592824949957,-1572.1597143944937
276839.0,13905.0,276839.0,10022.0,276839.0,26487.0,-1188.212820303742,-864.6260540304609,-1566.1859195285233
276839.0,13903.0,276839.0,10028.0,276839.0,26481.0,-1178.3500842893159,-858.852929830658,-1559.170952521856
276839.0,13901.0,276839.0,10007.0,276839.0,26484.0,-1167.3089564648906,-852.429720319511,-1551.0898909588013
276850.0,13897.0,276850.0,10018.0,276850.0,26506.0,-1155.0678786031692,-845.3473839730827,-1541.9195239426215
276850.0,13913.0,276850.0,10034.0,276850.0,26498.0,-1141.6083423659559,-837.5982957824114,-1531.63847597711
276850.0,13928.0,276850.0,10049.0,276850.0,26527.0,-1126.915203941609,-829.1763591718427,-1520.2272470836208
276850.0,13944.0,276850.0,10061.0,276850.0,26526.0,-1110.9768177432368,-820.0768887619489,-1507.6682426938019
276850.0,13964.0,276850.0,10060.0,276850.0,26528.0,-1093.7850483394388,-810.2964726149869,-1493.945832394551
276850.0,13968.0,276850.0,10062.0,276850.0,26556.0,-1075.3352783654636,-799.8329901762456,-1479.0464947528037
276860.0,13980.0,276860.0,10078.0,276860.0,26555.0,-1055.626515883049,-788.6857839949212,-1462.9589799131868
276860.0,14015.0,276860.0,10089.0,276860.0,26600.0,-1034.6615912142377,-776.8558254149269,-1445.674373023925
276860.0,14040.0,276860.0,10132.0,276860.0,26614.0,-1012.4472530460257,-764.3457103313876,-1427.1860224225668
276860.0,14062.0,276860.0,10146.0,276860.0,26621.0,-988.9940807367011,-751.1594181962146,-1407.4893956010283
276860.0,14082.0,276860.0,10138.0,276860.0,26645.0,-964.3163846174432,-737.3019960858921,-1386.5820594617162
276860.0,14114.0,276860.0,10140.0,276860.0,26667.0,-938.4322092951747,-722.7795259001385,-1364.4638092909715
276870.0,14142.0,276870.0,10164.0,276870.0,26687.0,-911.3633565171311,-707.5994251180708,-1341.1367704589663
276870.0,14174.0,276870.0,10187.0,276870.0,26719.0,-883.1353480838361,-691.7707085454946,-1316.605432371627
276870.0,14207.0,276870.0,10211.0,276870.0,26749.0,-853.7773483377986,-675.3039740324831,-1290.876634836692
276870.0,14240.0,276870.0,10234.0,276870.0,26767.0,-823.3220757539916,-658.2112170989114,-1263.9595087169555
276870.0,14276.0,276870.0,10237.0,276870.0,26798.0,-791.8057087558418,-640.5056663763902,-1235.8654576637598
276870.0,14318.0,276870.0,10258.0,276870.0,26839.0,-759.2677745758652,-622.2017710182452,-1206.608190748256
276881.0,14335.0,276881.0,10293.0,276881.0,26858.0,-725.7510361763891,-603.3152829824345,-1176.2037003822293
276881.0,14397.0,276881.0,10328.0,276881.0,26903.0,-691.3014265402874,-583.8631908704306,-1144.6702012688336
276881.0,14438.0,276881.0,10341.0,276881.0,26946.0,-655.9679419242993,-563.8634420749165,-1112.0280602160026
276881.0,14487.0,276881.0,10364.0,276881.0,26974.0,-619.8023630676694,-543.3346914842889,-1078.2996514594527
276881.0,14514.0,276881.0,10367.0,276881.0,27008.0,-582.8589262153446,-522.2962663915459,-1043.5092157564907
276881.0,14554.0,276881.0,10388.0,276881.0,27030.0,-545.1941547684876,-500.7683308109889,-1007.6828763239087
276891.0,14610.0,276891.0,10435.0,276891.0,27095.0,-506.8668234960004,-478.7720745322747,-970.8487521411603
276891.0,14669.0,276891.0,10452.0,276891.0,27134.0,-467.93781467556823,-456.32969150271623,-933.0369370628389
276891.0,14721.0,276891.0,10493.0,276891.0,27175.0,-428.4697306942114,-433.4641468485147,-894.279281089206
276891.0,14759.0,276891.0,10519.0,276891.0,27232.0,-388.52641898724687,-410.198911926043,-854.6091468560458
276891.0,14798.0,276891.0,10530.0,276891.0,27262.0,-348.1726541831888,-386.55776379802825,-814.0612212583382
276891.0,14857.0,276891.0,10549.0,276891.0,27298.0,-307.4740077667151,-362.5647515830741,-772.6714054085045
276901.0,14900.0,276901.0,10581.0,276901.0,27348.0,-266.4967169787435,-338.24433902407463,-730.4768506073937
276901.0,14955.0,276901.0,10626.0,276901.0,27396.0,-225.30744761876701,-313.62148167010406,-687.5160258309371
276901.0,15005.0,276901.0,10660.0,276901.0,27442.0,-183.9730093145804,-288.7214395517513,-643.8286677917612
276901.0,15059.0,276901.0,10660.0,276901.0,27480.0,-142.56005347971836,-263.56947834266856,-599.4556872011665
276901.0,15107.0,276901.0,10681.0,276901.0,27533.0,-101.1347517951184,-238.19081436223667,-554.439145291014
276901.0,15141.0,276901.0,10706.0,276901.0,27577.0,-59.76252186299928,-212.61086533321702,-508.8222668851614
276912.0,15203.0,276912.0,10753.0,276912.0,27641.0,-18.50786062454415,-186.855474182742,-462.6493935376602
276912.0,15246.0,276912.0,10800.0,276912.0,27676.0,22.56580157475969,-160.95081161917983,-415.96585711876617
276912.0,15292.0,276912.0,10820.0,276912.0,27739.0,63.39631740610025,-134.92299711998817,-368.817849309075
276912.0,15340.0,276912.0,10833.0,276912.0,27779.0,103.9230406904095,-108.7977713965073,-321.2523361218175
276912.0,15379.0,276912.0,10853.0,276912.0,27831.0,144.0869895700464,-82.60049876248877,-273.3170038100461
276912.0,15427.0,276912.0,10886.0,276912.0,27873.0,183.83097489842226,-56.35639333646054,-225.0602528453437
276922.0,15481.0,276922.0,10916.0,276922.0,27924.0,223.0997382582134,-30.090674812145267,-176.5312505595018
276922.0,15512.0,276922.0,10952.0,276922.0,27995.0,261.84014598414126,-3.8285376230822976,-127.77995183119674
276922.0,15567.0,276922.0,10973.0,276922.0,28046.0,300.0013883651943,22.40498029925061,-78.85695467794221
276922.0,15595.0,276922.0,10997.0,276922.0,28098.0,337.53512301374633,48.58508833214182,-29.81322758139231
276922.0,15639.0,276922.0,11017.0,276922.0,28134.0,374.3955680968238,74.68721137436921,19.3000704873441
276922.0,15680.0,276922.0,11050.0,276922.0,28206.0,410.53955914057155,100.68688079352557,68.43160007229744
276933.0,15727.0,276933.0,11101.0,276933.0,28259.0,445.9266397002564,126.55971485296993,117.52987518221721
276933.0,15762.0,276933.0,11115.0,276933.0,28305.0,480.51923788952274,152.28160476590938,166.5434382049457
276933.0,15780.0,276933.0,11130.0,276933.0,28350.0,514.2828167535597,177.82892300992626,215.4210054429459
276933.0,15807.0,276933.0,11148.0,276933.0,28398.0,547.1858276904352,203.1784733882988,264.11144732891285
276933.0,15848.0,276933.0,11178.0,276933.0,28452.0,579.1995004237651,228.3072443188703,312.56370212699676
276933.0,15886.0,276933.0,11217.0,276933.0,28497.0,610.2977154245973,253.19225347526492,360.72674013449296
276943.0,15913.0,276943.0,11255.0,276943.0,28565.0,640.4570669772893,277.81064238070155,408.54960432939083
276943.0,15941.0,276943.0,11279.0,276943.0,28632.0,669.6569639373618,302.1399549186742,455.9815898333138
276943.0,15981.0,276943.0,11297.0,276943.0,28674.0,697.8796637098296,326.1583839636389,502.9725941992833
276943.0,15999.0,276943.0,11315.0,276943.0,28724.0,725.1103069010624,349.8448188912288,549.4734499392725
276943.0,16013.0,276943.0,11339.0,276943.0,28778.0,751.3369289384109,373.1787270563815,595.4360790189075
276943.0,16047.0,276943.0,11382.0,276943.0,28819.0,776.5503439106226,396.1400561092619,640.8135619823349
276953.0,16080.0,276953.0,11413.0,276953.0,28881.0,800.7440183976992,418.70933792875155,685.5602244547613
276953.0,16093.0,276953.0,11432.0,276953.0,28899.0,823.9140954668849,440.8679624455481,729.6317142154287
276953.0,16090.0,276953.0,11449.0,276953.0,28966.0,846.0593990593268,462.59838318751963,772.984999495729
276953.0,16122.0,276953.0,11453.0,276953.0,29001.0,867.1812023604973,483.88408920656457,815.5783304193778
276953.0,16136.0,276953.0,11496.0,276953.0,29052.0,887.2829180495348,504.70941883626324,857.3712783125757
276953.0,16155.0,276953.0,11518.0,276953.0,29106.0,906.3699410978038,525.0594627133389,898.3248542420067
276964.0,16177.0,276964.0,11536.0,276964.0,29152.0,924.4496035390855,544.920167878965,938.4016959521425
276964.0,16190.0,276964.0,11570.0,276964.0,29206.0,941.5311540224645,564.2784916667347,977.5663345862577
276964.0,16185.0,276964.0,11556.0,276964.0,29224.0,957.625701204011,583.1224641742426,1015.785441217929
276964.0,16220.0,276964.0,11574.0,276964.0,29256.0,972.7460498533039,601.4410626052329,1053.0278782817477
276964.0,16218.0,276964.0,11613.0,276964.0,29301.0,986.9065325308179,619.2239423969941,1089.2645327034793
276964.0,16233.0,276964.0,11639.0,276964.0,29347.0,1000.1229295187161,636.4613614324098,1124.4681826861406
276974.0,16253.0,276974.0,11650.0,276974.0,29383.0,1012.4124057167285,653.144402908873,1158.6135832600512
276974.0,16258.0,276974.0,11666.0,276974.0,29422.0,1023.7934761394295,669.2651814815902,1191.6776561320362
276974.0,16250.0,276974.0,11677.0,276974.0,29440.0,1034.2859772028844,684.8168528604137,1223.6396085921047
276974.0,16259.0,276974.0,11692.0,276974.0,29483.0,1043.9108894041217,699.7935222327874,1254.4809255652913
276974.0,16264.0,276974.0,11706.0,276974.0,29513.0,1052.6900492081843,714.1901509006195,1284.1853225074015
276974.0,16278.0,276974.0,11746.0,276974.0,29549.0,1060.645945771116,728.0025442986248,1312.7387811729482
276984.0,16278.0,276984.0,11748.0,276984.0,29574.0,1067.8016523915194,741.227502508807,1340.1296505747323
276984.0,16277.0,276984.0,11751.0,276984.0,29593.0,1074.1807806635352,753.862999843225,1366.3487022893773
276984.0,16278.0,276984.0,11741.0,276984.0,29619.0,1079.807351356014,765.9081123041885,1391.3890777561323
276984.0,16274.0,276984.0,11757.0,276984.0,29632.0,1084.705589353837,777.362668707279,1415.2461541825269
276984.0,16282.0,276984.0,11789.0,276984.0,29664.0,1088.8997147437417,788.2269371561852,1437.9173960688731
276984.0,16293.0,276984.0,11801.0,276984.0,29692.0,1092.4138142627262,798.5016322251552,1459.4022775048593
276995.0,16291.0,276995.0,11822.0,276995.0,29697.0,1095.2718429228432,808.188176061065,1479.7023036588857
276995.0,16273.0,276995.0,11821.0,276995.0,29720.0,1097.4976336136203,817.2889462518922,1498.8209999415244
276995.0,16288.0,276995.0,11809.0,276995.0,29722.0,1099.1147560607858,825.807322209979,1516.7637696383981
276995.0,16279.0,276995.0,11816.0,276995.0,29742.0,1100.1463215128815,833.7474652368019,1533.5376806170107
276995.0,16285.0,276995.0,11841.0,276995.0,29758.0,1100.614888224126,841.1140142994584,1549.1512720078672
276995.0,16287.0,276995.0,11836.0,276995.0,29777.0,1100.542442705442,847.9119827340305,1563.6144575398994
277004.0,16294.0,277004.0,11848.0,277004.0,29792.0,1099.9504317321566,854.1468152560101,1576.9385374026274
277004.0,16279.0,277004.0,11854.0,277004.0,29795.0,1098.8598322568355,859.8244088179699,1589.1362312994747
277004.0,16263.0,277004.0,11851.0,277004.0,29791.0,1097.291116875351,864.9510849983203,1600.2216048374344
277004.0,16272.0,277004.0,11859.0,277004.0,29821.0,1095.2640433409179,869.5335339703215,1610.2098726574905
277004.0,16274.0,277004.0,11875.0,277004.0,29822.0,1092.7974678160792,873.5787581819875,1619.1172640390423
277004.0,16274.0,277004.0,11876.0,277004.0,29816.0,1089.9093633620282,877.0941167188428,1626.961007156106
277014.0,16266.0,277014.0,11875.0,277014.0,29840.0,1086.6169358009727,880.0874296505576,1633.7592614735436
277014.0,16256.0,277014.0,11873.0,277014.0,29822.0,1082.9366542370324,882.5669862987388,1639.5309916599244
277014.0,16252.0,277014.0,11875.0,277014.0,29827.0,1078.8841633015675,884.5414409853015,1644.2958310042932
277014.0,16262.0,277014.0,11876.0,277014.0,29831.0,1074.4741919447156,886.019697182292,1648.0738811130204
277014.0,16263.0,277014.0,11879.0,277014.0,29862.0,1069.7206100484082,887.0108404981409,1650.885590941377
277014.0,16263.0,277014.0,11903.0,277014.0,29849.0,1064.6366364328962,887.5241647369544,1652.7518865298284
277025.0,16253.0,277025.0,11887.0,277025.0,29844.0,1059.2350460290404,887.5693271650653,1653.6943585330641
277025.0,16246.0,277025.0,11858.0,277025.0,29832.0,1053.528256388916,887.1564384080978,1653.73521342807
277025.0,16226.0,277025.0,11883.0,277025.0,29836.0,1047.5282749086389,886.2958600117433,1652.8970261572535
277025.0,16236.0,277025.0,11895.0,277025.0,29837.0,1041.246565051931,884.9979886152794,1651.2025363396851
277025.0,16243.0,277025.0,11900.0,277025.0,29831.0,1034.6940052284885,883.2734048404061,1648.6745885117452
277025.0,16234.0,277025.0,11876.0,277025.0,29845.0,1027.8810654284357,881.1331740694948,1645.3361630491236
277035.0,16220.0,277035.0,11883.0,277035.0,29836.0,1020.8180332925276,878.5889081929715,1641.2104727490917
277035.0,16216.0,277035.0,11864.0,277035.0,29815.0,1013.5150707175239,875.652604158154,1636.321055524923
277035.0,16214.0,277035.0,11858.0,277035.0,29816.0,1005.9821674469872,872.3364390575175,1630.6917086612648
277035.0,16209.0,277035.0,11873.0,277035.0,29811.0,998.2291613122313,868.6526023212946,1624.3463225600735
277035.0,16213.0,277035.0,11871.0,277035.0,29823.0,990.265855157139,864.6132860467599,1617.308847962013
277035.0,16186.0,277035.0,11869.0,277035.0,29808.0,982.1021512038126,860.2308573558537,1609.6034505134417
277045.0,16191.0,277045.0,11844.0,277045.0,29789.0,973.7480952850583,855.5179857304867,1601.254663699548
277045.0,16176.0,277045.0,11840.0,277045.0,29774.0,965.2138366952311,850.4875427913654,1592.287336991402
277045.0,16167.0,277045.0,11835.0,277045.0,29773.0,956.5096004742704,845.1523672037,1582.7264330560968
277045.0,16166.0,277045.0,11845.0,277045.0,29781.0,947.6456839406553,839.5251310716314,1572.5969383367365
277045.0,16150.0,277045.0,11848.0,277045.0,29768.0,938.6324690490721,833.6184349026548,1561.924017738751
277045.0,16155.0,277045.0,11857.0,277045.0,29744.0,929.4804664303398,827.4450841865107,1550.733226432956
277056.0,16137.0,277056.0,11828.0,277056.0,29729.0,920.2003826834678,821.0183812337681,1539.0505148782188
277056.0,16127.0,277056.0,11811.0,277056.0,29715.0,910.8031721295292,814.3521890117822,1526.902040404584
277056.0,16134.0,277056.0,11809.0,277056.0,29717.0,901.3000524441989,807.4607038127522,1514.3140132004787
277056.0,16119.0,277056.0,11818.0,277056.0,29688.0,891.7025708346972,800.358229746996,1501.3126871655516
277056.0,16116.0,277056.0,11804.0,277056.0,29695.0,882.0227446825805,793.0592055458897,1487.9244077636417
277056.0,16085.0,277056.0,11801.0,277056.0,29677.0,872.2731325945479,785.5783536950323,1474.1756694819323
277066.0,16081.0,277066.0,11781.0,277066.0,29647.0,862.4667383345296,777.9307308452974,1460.0931779970192
277066.0,16069.0,277066.0,11766.0,277066.0,29633.0,852.6168322286562,770.131626409016,1445.7037846502785
277066.0,16060.0,277066.0,11764.0,277066.0,29636.0,842.7368414038963,762.1963695676457,1431.0343207027113
277066.0,16061.0,277066.0,11764.0,277066.0,29614.0,832.840350931289,754.1401959777593,1416.1115753723484
277066.0,16055.0,277066.0,11771.0,277066.0,29596.0,822.9411992504323,745.9783133177111,1400.9624005981448
277066.0,16027.0,277066.0,11734.0,277066.0,29572.0,813.0536026763692,737.726078162344,1385.6137109605233
277076.0,16025.0,277076.0,11723.0,277076.0,29565.0,803.1921567619097,729.3990003728876,1370.0923576539544
277076.0,16007.0,277076.0,11713.0,277076.0,29548.0,793.371712032383,721.0124895101312,1354.425035516067
277076.0,16006.0,277076.0,11721.0,277076.0,29544.0,783.6072774245248,712.5816220446995,1338.63830724258
277076.0,15995.0,277076.0,11716.0,277076.0,29518.0,773.9140116621327,704.121163619591,1322.7586973793848
277076.0,15973.0,277076.0,11728.0,277076.0,29502.0,764.3072393487704,695.645801355853,1306.8127439279608
277076.0,15970.0,277076.0,11683.0,277076.0,29462.0,754.8023981966959,687.1703894209736,1290.826903496767
277087.0,15945.0,277087.0,11663.0,277087.0,29448.0,745.4149128501205,678.7099220390463,1274.8272868814124
277087.0,15946.0,277087.0,11666.0,277087.0,29451.0,736.1600615877969,670.279174775453,1258.8393861186237
277087.0,15942.0,277087.0,11671.0,277087.0,29438.0,727.0529042142543,661.8924122865441,1242.8880491843665
277087.0,15938.0,277087.0,11657.0,277087.0,29421.0,718.1083414763717,653.5634393085888,1226.9976853225173
277087.0,15911.0,277087.0,11648.0,277087.0,29398.0,709.3412286165409,645.3057677691188,1211.1924209261417
277087.0,15905.0,277087.0,11635.0,277087.0,29384.0,700.7663523505372,637.1326466085426,1195.4960797097142
277097.0,15884.0,277097.0,11623.0,277097.0,29350.0,692.3982525766583,629.0569700642352,1179.9320551981787
277097.0,15870.0,277097.0,11610.0,277097.0,29325.0,684.2509996443403,621.0911429144512,1164.5230889302702
277097.0,15879.0,277097.0,11618.0,277097.0,29342.0,676.3380096873902,613.2469670257029,1149.2910204050359
277097.0,15867.0,277097.0,11591.0,277097.0,29310.0,668.6720028021432,605.5356115390103,1134.2567387421245
277097.0,15851.0,277097.0,11587.0,277097.0,29286.0,661.2650813764985,597.9675914366729,1119.44029082864
277097.0,15834.0,277097.0,11575.0,277097.0,29270.0,654.1287116207134,590.5526549672231,1104.8608275534552
277107.0,15818.0,277107.0,11568.0,277107.0,29243.0,647.2735188657934,583.2996504197836,1090.536371291656
277107.0,15826.0,277107.0,11586.0,277107.0,29244.0,640.7090439920937,576.2164974042824,1076.4836063935559
277107.0,15824.0,277107.0,11585.0,277107.0,29242.0,634.4436609949128,569.3103594894772,1062.7178297102753
277107.0,15827.0,277107.0,11572.0,277107.0,29220.0,628.4847120433452,562.5879612761232,1049.253095019748
277107.0,15814.0,277107.0,11543.0,277107.0,29203.0,622.8387160763375,556.0557521840171,1036.102364675026
277107.0,15798.0,277107.0,11549.0,277107.0,29202.0,617.5114604668531,549.7197568601182,1023.2775142162293
277118.0,15805.0,277118.0,11541.0,277118.0,29190.0,612.5079310201555,543.5853447273945,1010.7893271381996
277118.0,15810.0,277118.0,11536.0,277118.0,29184.0,607.8322582060339,537.6571572801472,998.6475968044563
277118.0,15802.0,277118.0,11544.0,277118.0,29173.0,603.4878332657883,531.9391605739839,986.8612623032292
277118.0,15788.0,277118.0,11548.0,277118.0,29164.0,599.4774523992146,526.4347822852649,975.438513167908
277118.0,15777.0,277118.0,11518.0,277118.0,29148.0,595.8032804779502,521.1470947591172,964.3868505283954
277118.0,15772.0,277118.0,11501.0,277118.0,29137.0,592.4666584796468,516.0788051350564,953.7130862138254
277128.0,15782.0,277128.0,11504.0,277128.0,29121.0,589.4679407566125,511.23196543162015,943.4232815873527
277128.0,15782.0,277128.0,11516.0,277128.0,29111.0,586.8065078046609,506.60773034700713,933.5226542250028
277128.0,15769.0,277128.0,11511.0,277128.0,29127.0,584.4808978567129,502.20642579448844,924.0155392629825
277128.0,15758.0,277128.0,11500.0,277128.0,29089.0,582.4888387588883,498.0277581430167,914.9054821454308
277128.0,15765.0,277128.0,11498.0,277128.0,29082.0,580.8271133935783,494.07089297263377,906.1952987105004
277128.0,15762.0,277128.0,11498.0,277128.0,29069.0,579.491438834561,490.3344114476773,897.8869284601483
277138.0,15759.0,277138.0,11481.0,277138.0,29066.0,578.4764625489715,486.8162677811726,889.9812387732345
277138.0,15760.0,277138.0,11510.0,277138.0,29083.0,577.7757847178852,483.51378021616614,882.4780066566076
277138.0,15766.0,277138.0,11509.0,277138.0,29070.0,577.38196839784,480.42375475159406,875.3761245510683
277138.0,15773.0,277138.0,11479.0,277138.0,29035.0,577.286610583347,477.5427255076715,868.6738177066445
277138.0,15760.0,277138.0,11477.0,277138.0,29050.0,577.4804642911448,474.8669839901423,862.3685898405336
277138.0,15764.0,277138.0,11463.0,277138.0,29021.0,577.9534844426369,472.3923022507764,856.4570023678843
277149.0,15754.0,277149.0,11479.0,277149.0,29017.0,578.694749273863,470.1136576713079,850.9345038254896
277149.0,15782.0,277149.0,11493.0,277149.0,29027.0,579.6923830687311,468.0252124746952,845.7953035305497
277149.0,15780.0,277149.0,11506.0,277149.0,29029.0,580.9336444898705,466.12059264785887,841.0323786661961
277149.0,15784.0,277149.0,11482.0,277149.0,29024.0,582.4051586289885,464.3932721844293,836.6376736676403
277149.0,15784.0,277149.0,11478.0,277149.0,29010.0,584.0930968857872,462.83672488888436,832.60227964349
277149.0,15784.0,277149.0,11481.0,277149.0,29019.0,585.9832241568918,461.4442852630557,828.9164544536845
277159.0,15781.0,277159.0,11488.0,277159.0,29014.0,588.0608724686433,460.2090101014552,825.5696071772247
277159.0,15800.0,277159.0,11481.0,277159.0,29028.0,590.3109082966618,459.12371100404425,822.5503889435158
277159.0,15802.0,277159.0,11500.0,277159.0,29020.0,592.7177932085245,458.181066963626,819.8468803493752
277159.0,15809.0,277159.0,11482.0,277159.0,29010.0,595.2657545074903,457.37374440494045,817.4467503554041
277159.0,15797.0,277159.0,11475.0,277159.0,29009.0,597.9389186466498,456.6944459856294,815.3372656217956
277159.0,15809.0,277159.0,11470.0,277159.0,29015.0,600.7213026887204,456.13578113884876,813.5052134164155
277169.0,15809.0,277169.0,11481.0,277169.0,29007.0,603.5967472966825,455.69006787537273,811.9368923088477
277169.0,15820.0,277169.0,11488.0,277169.0,29035.0,606.548919266407,455.34929071808403,810.6182075039505
277169.0,15830.0,277169.0,11496.0,277169.0,29013.0,609.5614084080588,455.10525751548073,809.534853042357
277169.0,15832.0,277169.0,11491.0,277169.0,29012.0,612.617882876071,454.9498198023553,808.6724619215315
277169.0,15828.0,277169.0,11476.0,277169.0,29007.0,615.7022184801192,454.87497685912126,808.0165667479873
277169.0,15828.0,277169.0,11476.0,277169.0,29016.0,618.7985033414429,454.8727686171419,807.5524725703417
277180.0,15847.0,277180.0,11494.0,277180.0,29024.0,621.8909730555903,454.93509932941737,807.2652548509905
277180.0,15849.0,277180.0,11501.0,277180.0,29042.0,624.9640488916293,455.0537573715584,807.1399437620188
277180.0,15852.0,277180.0,11501.0,277180.0,29016.0,628.0024916789403,455.22064964746954,807.161788027722
277180.0,15850.0,277180.0,11471.0,277180.0,29011.0,630.9915099861485,455.42795944772183,807.3163417823998
277180.0,15854.0,277180.0,11494.0,277180.0,29011.0,633.9167542769717,455.6680296964299,807.5892717091166
277180.0,15874.0,277180.0,11497.0,277180.0,29025.0,636.7643068008463,455.93319040067996,807.9661480101468
277190.0,15868.0,277190.0,11501.0,277190.0,29037.0,639.5207850568441,456.2158118471865,808.4324827563312
277190.0,15870.0,277190.0,11501.0,277190.0,29021.0,642.1734864253067,456.50848260757317,808.9739452506243
277190.0,15868.0,277190.0,11494.0,277190.0,29016.0,644.7104185718897,456.80409808303534,809.5764695275284
277190.0,15865.0,277190.0,11498.0,277190.0,29020.0,647.1202180572653,457.09583351779725,810.2261390978581
277190.0,15862.0,277190.0,11476.0,277190.0,29035.0,649.3920283704629,457.3770381375897,810.9090679541736
277190.0,15861.0,277190.0,11492.0,277190.0,29024.0,651.5153579915319,457.64106480078556,811.6114583972151
277201.0,15891.0,277201.0,11514.0,277201.0,29041.0,653.4800058552286,457.881179062215,812.319732921247
277201.0,15889.0,277201.0,11522.0,277201.0,29030.0,655.2762002619565,458.0907623779219,813.020627273494
277201.0,15876.0,277201.0,11509.0,277201.0,29029.0,656.8948544248599,458.2636882423385,813.7012289342795
277201.0,15879.0,277201.0,11489.0,277201.0,29031.0,658.3276374320724,458.3944707718232,814.3489371601597
277201.0,15876.0,277201.0,11498.0,277201.0,29004.0,659.5668386550701,458.47806045978905,814.9513409594147
277201.0,15877.0,277201.0,11490.0,277201.0,29042.0,660.6052383623772,458.5095584595063,815.4960558816753
277211.0,15876.0,277211.0,11511.0,277211.0,29034.0,661.43604752366,458.4841065718689,815.9706879915348
277211.0,15874.0,277211.0,11498.0,277211.0,29040.0,662.0528684685578,458.39695916848905,816.3630164920934
277211.0,15877.0,277211.0,11498.0,277211.0,29024.0,662.4496604294278,458.24358137990487,816.6611565975574
277211.0,15875.0,277211.0,11488.0,277211.0,29038.0,662.6207223163597,458.01962192203075,816.8535371020344
277211.0,15882.0,277211.0,11495.0,277211.0,29025.0,662.5607091082568,457.72078296762265,816.9288225443242
277211.0,15889.0,277211.0,11513.0,277211.0,29048.0,662.2647063270756,457.3427673140698,816.8759078356524
277221.0,15889.0,277221.0,11506.0,277221.0,29052.0,661.7283769313073,456.88141833737086,816.6840403549577
277221.0,15876.0,277221.0,11487.0,277221.0,29040.0,660.9480957880744,456.33288692419245,816.343039511398
277221.0,15870.0,277221.0,11484.0,277221.0,29030.0,659.9209342485423,455.6935563599943,815.8434016273011
277221.0,15864.0,277221.0,11492.0,277221.0,29022.0,658.6444949424109,454.9597961273713,815.1761548788405
277221.0,15881.0,277221.0,11496.0,277221.0,29028.0,657.1167668782014,454.1278462661049,814.3326204271061
277221.0,15867.0,277221.0,11489.0,277221.0,29039.0,655.336142586627,453.1938890766811,813.3043107334545
277232.0,15869.0,277232.0,11508.0,277232.0,29053.0,653.3015184455376,452.1541605560153,812.0830705717409
277232.0,15861.0,277232.0,11489.0,277232.0,29030.0,651.012322409738,451.005055140678,810.6613517272866
277232.0,15855.0,277232.0,11488.0,277232.0,29005.0,648.4684631078313,449.7431813784946,809.0322958231716
277232.0,15849.0,277232.0,11487.0,277232.0,29015.0,645.6702488923011,448.36529376589067,807.1894636179316
277232.0,15850.0,277232.0,11505.0,277232.0,29021.0,642.6183051768492,446.86823037735763,805.1265287196312
277232.0,15856.0,277232.0,11489.0,277232.0,29034.0,639.3135629035858,445.2490081694244,802.8372941223994
277242.0,15851.0,277242.0,11502.0,277242.0,29013.0,635.7573626393239,443.5049728494544,800.3159346293817
277242.0,15837.0,277242.0,11488.0,277242.0,29006.0,631.9515771292228,441.6338738849042,797.5571233499704
277242.0,15816.0,277242.0,11473.0,277242.0,29007.0,627.8985761980041,439.6338384280069,794.5559311511935
277242.0,15822.0,277242.0,11465.0,277242.0,29001.0,623.601009651984,437.5031936349751,791.3076935099216
277242.0,15819.0,277242.0,11499.0,277242.0,29006.0,619.0616185715929,435.2402629111406,787.8079926548224
277242.0,15811.0,277242.0,11495.0,277242.0,29000.0,614.2832246633521,432.8434518356551,784.0527227670859
277252.0,15824.0,277252.0,11479.0,277252.0,28995.0,609.2688247271078,430.31157120054115,780.038169572809
277252.0,15804.0,277252.0,11458.0,277252.0,28986.0,604.0217172899215,427.64394997041825,775.7610396969569
277252.0,15785.0,277252.0,11459.0,277252.0,28980.0,598.5455682147825,424.840188443785,771.2184176347872
277252.0,15779.0,277252.0,11450.0,277252.0,28975.0,592.8442775620407,421.8998390056841,766.407694966215
277252.0,15797.0,277252.0,11455.0,277252.0,28987.0,586.9217953148657,418.8222411428186,761.3265569008745
277252.0,15790.0,277252.0,11471.0,277252.0,28973.0,580.7821873747785,415.60654311580555,755.9730909937251
277263.0,15780.0,277263.0,11463.0,277263.0,28965.0,574.4298990794524,412.2519022128764,750.3459270343349
277263.0,15754.0,277263.0,11445.0,277263.0,28948.0,567.8698862406683,408.7577017113204,744.4442401986963
277263.0,15741.0,277263.0,11445.0,277263.0,28957.0,561.1074597523747,405.12355386636574,738.2676397651459
277263.0,15741.0,277263.0,11452.0,277263.0,28942.0,554.1479994334085,401.34917394104116,731.8161154341539
277263.0,15749.0,277263.0,11467.0,277263.0,28940.0,546.9968182296662,397.43442075045755,725.0900797122897
277263.0,15732.0,277263.0,11443.0,277263.0,28938.0,539.6592777862538,393.37953813004236,718.0904254083404
277273.0,15724.0,277273.0,11451.0,277273.0,28916.0,532.1409548663589,389.1853403161197,710.8185678680671
277273.0,15705.0,277273.0,11430.0,277273.0,28893.0,524.4476520200965,384.85320766157423,703.2763889425257
277273.0,15697.0,277273.0,11406.0,277273.0,28892.0,516.5852705331478,380.38493515605006,695.4660097879884
277273.0,15698.0,277273.0,11432.0,277273.0,28908.0,508.5596851021474,375.7824903701479,687.389610996425
277273.0,15683.0,277273.0,11422.0,277273.0,28901.0,500.37672730118106,371.0479013510206,679.0495711632692
277273.0,15675.0,277273.0,11419.0,277273.0,28887.0,492.0422351488841,366.1833958276287,670.4487963224694
277283.0,15668.0,277283.0,11397.0,277283.0,28870.0,483.562067398467,361.19152452683545,661.5908981567663
277283.0,15643.0,277283.0,11400.0,277283.0,28857.0,474.9420681926014,356.0750803196987,652.4801277919522
277283.0,15653.0,277283.0,11387.0,277283.0,28839.0,466.18799808076307,350.8369446552638,643.12120064353
277283.0,15647.0,277283.0,11406.0,277283.0,28838.0,457.30552429831766,345.4800372540044,633.5191335990983
277283.0,15636.0,277283.0,11387.0,277283.0,28823.0,448.3003571372609,340.007421582556,623.679165212075
277283.0,15619.0,277283.0,11370.0,277283.0,28806.0,439.1783905607234,334.4224203046635,613.6067405283037
277294.0,15615.0,277294.0,11364.0,277294.0,28797.0,429.9457052117792,328.72853823477993,603.3074612105673
277294.0,15600.0,277294.0,11366.0,277294.0,28794.0,420.60851254709866,322.92927565763705,592.7870169711298
277294.0,15585.0,277294.0,11351.0,277294.0,28779.0,411.1731127497344,317.02804843731315,582.0512013367295
277294.0,15581.0,277294.0,11353.0,277294.0,28780.0,401.64583788562766,311.0281986119207,571.106003462577
277294.0,15563.0,277294.0,11358.0,277294.0,28765.0,392.03299628735647,304.9330326260752,559.9577231858781
277294.0,15563.0,277294.0,11354.0,277294.0,28746.0,382.3408543844695,298.74595387225975,548.6130645972881
277304.0,15545.0,277304.0,11325.0,277304.0,28728.0,372.5756497022366,292.4706145525469,537.0791168540368
277304.0,15527.0,277304.0,11322.0,277304.0,28712.0,362.7435882773598,286.110870209503,525.3632078476894
277304.0,15522.0,277304.0,11330.0,277304.0,28714.0,352.85076962181677,279.6705995411975,513.4727640594961
277304.0,15518.0,277304.0,11330.0,277304.0,28689.0,342.9031118852679,273.15369495529603,501.41529171513207
277304.0,15513.0,277304.0,11320.0,277304.0,28699.0,332.90640653348515,266.5642642084984,489.19845268609595
277304.0,15508.0,277304.0,11300.0,277304.0,28654.0,322.8664841337804,259.906777894523,476.8301397751282
277314.0,15470.0,277314.0,11280.0,277314.0,28646.0,312.78933725246804,253.1859744384947,464.31842970968364
277314.0,15462.0,277314.0,11279.0,277314.0,28622.0,302.6810323029729,246.40658721058412,451.6713690627917
277314.0,15464.0,277314.0,11285.0,277314.0,28638.0,292.5474830019859,239.57314049933424,438.8967911616532
277314.0,15449.0,277314.0,11273.0,277314.0,28612.0,282.3943685560776,232.68997811223468,426.00237013975425
277314.0,15448.0,277314.0,11286.0,277314.0,28590.0,272.22724090676155,225.76143743491832,412.99577830893986
277314.0,15420.0,277314.0,11248.0,277314.0,28580.0,262.0516265695256,218.79200083571098,399.8846855382551
277325.0,15413.0,277325.0,11230.0,277325.0,28565.0,251.87300550727952,211.78624820798163,386.67663883690557
277325.0,15397.0,277325.0,11231.0,277325.0,28551.0,241.69669316438268,204.74855788718853,373.37899997625726
277325.0,15381.0,277325.0,11235.0,277325.0,28550.0,231.5277145253255,197.6828492336529,359.99896518738785
277325.0,15375.0,277325.0,11226.0,277325.0,28532.0,221.3707044274965,190.592613632788,346.5436545486766
277325.0,15370.0,277325.0,11219.0,277325.0,28504.0,211.22986027175898,183.48107593402352,333.02020201839906
277325.0,15355.0,277325.0,11195.0,277325.0,28474.0,201.10898542840374,176.35124336583567,319.4356637423861
277335.0,15338.0,277335.0,11190.0,277335.0,28469.0,191.01154022668453,169.2057811080872,305.79673023667397
277335.0,15323.0,277335.0,11189.0,277335.0,28469.0,180.94058707305084,162.04683382225107,292.1095133928595
277335.0,15317.0,277335.0,11188.0,277335.0,28452.0,170.8986660102152,154.8759772106007,278.3796084349002
277335.0,15324.0,277335.0,11192.0,277335.0,28440.0,160.88775644155334,147.6943481020337,264.61228896453656
277335.0,15312.0,277335.0,11170.0,277335.0,28428.0,150.90942612096092,140.5028336103715,250.81262848853305
277335.0,15303.0,277335.0,11160.0,277335.0,28411.0,140.96506615296397,133.3021432604857,236.98554622648976
277345.0,15284.0,277345.0,11153.0,277345.0,28391.0,131.05602171699667,126.0927094098214,223.13581345625107
277345.0,15268.0,277345.0,11160.0,277345.0,28385.0,121.18355573032557,118.87458593247413,209.26801416149112
277345.0,15271.0,277345.0,11169.0,277345.0,28377.0,111.34873849355824,111.64754549746482,195.38653874740714
277345.0,15260.0,277345.0,11144.0,277345.0,28363.0,101.55242314867513,104.41134305610825,181.49568554824873
277345.0,15246.0,277345.0,11156.0,277345.0,28320.0,91.79533524362682,97.16592293156754,167.59973843756586
277345.0,15233.0,277345.0,11125.0,277345.0,28315.0,82.07812864063834,89.91147035112857,153.7028261202115
277356.0,15225.0,277356.0,11103.0,277356.0,28307.0,72.40134702913338,82.64831146698509,139.808678316086
277356.0,15216.0,277356.0,11116.0,277356.0,28302.0,62.765382085876354,75.37666590592778,125.92057820900197
277356.0,15212.0,277356.0,11131.0,277356.0,28290.0,53.17049504410761,68.09652301501188,112.04153734409408
277356.0,15211.0,277356.0,11115.0,277356.0,28268.0,43.616913797300754,60.807882616190966,98.17448239452563
277356.0,15180.0,277356.0,11098.0,277356.0,28249.0,34.1049549313791,53.51106885042344,84.322299890733
277356.0,15166.0,277356.0,11079.0,277356.0,28228.0,24.635010799968427,46.20674271849987,70.48772869327468
277366.0,15154.0,277366.0,11086.0,277366.0,28207.0,15.207346989085522,38.8956922296141,56.67317701350362
277366.0,15158.0,277366.0,11092.0,277366.0,28213.0,5.821916576041303,31.578736071849164,42.88057317131893
277366.0,15154.0,277366.0,11075.0,277366.0,28204.0,-3.521612527370735,24.256870294961743,29.111393692596835
277366.0,15147.0,277366.0,11077.0,277366.0,28205.0,-12.82365762393124,16.93146167473975,15.366913199969872
277366.0,15128.0,277366.0,11049.0,277366.0,28167.0,-22.084534849035094,9.604299516477568,1.6484918831628192
277366.0,15113.0,277366.0,11027.0,277366.0,28148.0,-31.304432057401527,2.277459304688307,-12.042360559545955
277376.0,15098.0,277376.0,11031.0,277376.0,28134.0,-40.48353692482817,-5.046989480101217,-25.70418098548589
277376.0,15104.0,277376.0,11034.0,277376.0,28139.0,-49.622178601094674,-12.367198716704195,-39.33573572792352
277376.0,15092.0,277376.0,11040.0,277376.0,28122.0,-58.720829107820464,-19.681455605867882,-52.935959719762764
277376.0,15081.0,277376.0,11016.0,277376.0,28107.0,-67.77998673478885,-26.987922797301906,-66.50376114637368
277376.0,15076.0,277376.0,11005.0,277376.0,28087.0,-76.80008915529106,-34.284514370073396,-80.03792439599977
277376.0,15053.0,277376.0,10986.0,277376.0,28080.0,-85.78150684186596,-41.56902510529778,-93.53714372872093
277387.0,15046.0,277387.0,10978.0,277387.0,28077.0,-94.72460665339065,-48.83938157850781,-107.0000339063323
277387.0,15038.0,277387.0,10996.0,277387.0,28047.0,-103.62985725217186,-56.09380467653034,-120.42504295303854
277387.0,15032.0,277387.0,10987.0,277387.0,28044.0,-112.4978792032656,-63.33072170976709,-133.81038649659695
277387.0,15031.0,277387.0,10967.0,277387.0,28014.0,-121.32938915092882,-70.54853139042433,-147.15408874165746
277387.0,15018.0,277387.0,10955.0,277387.0,28007.0,-130.1250805543532,-77.74553743175079,-160.45407954469113
277387.0,15009.0,277387.0,10942.0,277387.0,27979.0,-138.88551988931283,-84.92011962977944,-173.70831325477104
277397.0,14985.0,277397.0,10928.0,277397.0,27976.0,-147.61114329403085,-92.07096237273913,-186.91489320063715
277397.0,14992.0,277397.0,10942.0,277397.0,27985.0,-156.30235162075735,-99.19720504144118,-200.072094636707
277397.0,14990.0,277397.0,10957.0,277397.0,27968.0,-164.9595480557652,-106.29836863674802,-213.17816479184262
277397.0,14971.0,277397.0,10927.0,277397.0,27944.0,-173.58302115986368,-113.37403640509308,-226.23104376760352
277397.0,14949.0,277397.0,10922.0,277397.0,27909.0,-182.17286152622916,-120.42361227787075,-239.22833419211508
277397.0,14947.0,277397.0,10906.0,277397.0,27909.0,-190.72908001833957,-127.44638177576178,-252.16756219924457
277407.0,14946.0,277407.0,10905.0,277407.0,27899.0,-199.2517555718805,-134.4416912419308,-265.04642018471145
277407.0,14969.0,277407.0,10904.0,277407.0,27879.0,-207.7409434088156,-141.40902889063858,-277.86279107344853
277407.0,14924.0,277407.0,10903.0,277407.0,27882.0,-216.19635985560706,-148.34796317230314,-290.6146695284473
277407.0,14929.0,277407.0,10897.0,277407.0,27854.0,-224.61717768336928,-155.2579931151011,-303.3000935029976
277407.0,14893.0,277407.0,10873.0,277407.0,27843.0,-233.00213030885652,-162.13844625020266,-315.9171165626882
277407.0,14888.0,277407.0,10874.0,277407.0,27824.0,-241.34978120182654,-168.98853342111641,-328.46387163849636
277418.0,14887.0,277418.0,10868.0,277418.0,27841.0,-249.65876628704143,-175.80747550499694,-340.9386271161345
277418.0,14873.0,277418.0,10884.0,277418.0,27804.0,-257.92788594100375,-182.59449565427775,-353.3396855719824
277418.0,14867.0,277418.0,10862.0,277418.0,27799.0,-266.1560709139211,-189.34863054132114,-365.6652506874393
277418.0,14861.0,277418.0,10853.0,277418.0,27766.0,-274.34234768926467,-196.06856300720614,-377.9134748925362
277418.0,14848.0,277418.0,10816.0,277418.0,27758.0,-282.4858195091208,-202.75270482951453,-390.0826614925037
277418.0,14840.0,277418.0,10827.0,277418.0,27752.0,-290.58565702938733,-209.39951548706495,-402.17145337129114
277428.0,14842.0,277428.0,10830.0,277428.0,27753.0,-298.64109863732483,-216.00776150965277,-414.178852503233
277428.0,14821.0,277428.0,10823.0,277428.0,27725.0,-306.65141391649115,-222.57647968772903,-426.10407436860976
277428.0,14819.0,277428.0,10808.0,277428.0,27721.0,-314.61586873794795,-229.10480405759125,-437.9464396826139
277428.0,14806.0,277428.0,10797.0,277428.0,27711.0,-322.5337486689633,-235.59194001701837,-449.70537834651657
277428.0,14780.0,277428.0,10791.0,277428.0,27684.0,-330.4044346547706,-242.03729167338076,-461.38044850962615
277428.0,14791.0,277428.0,10788.0,277428.0,27693.0,-338.22753706963124,-248.44058055412108,-472.9713606463806
277439.0,14785.0,277439.0,10806.0,277439.0,27672.0,-346.002974830976,-254.80182213495857,-484.4779803586507
277439.0,14777.0,277439.0,10793.0,277439.0,27668.0,-353.7308761452765,-261.12111162880353,-495.90025527716875
277439.0,14763.0,277439.0,10774.0,277439.0,27648.0,-361.41144255230415,-267.3983849844618,-507.2381470201833
277439.0,14748.0,277439.0,10752.0,277439.0,27637.0,-369.0449523312369,-273.6334363930231,-518.491641069855
277439.0,14754.0,277439.0,10770.0,277439.0,27619.0,-376.6318546963132,-279.82616195061553,-529.660818382267
277439.0,14742.0,277439.0,10765.0,277439.0,27617.0,-384.17279692580723,-285.9766753345716,-540.7459401658427
277449.0,14740.0,277449.0,10758.0,277449.0,27609.0,-391.6685439384064,-292.08516597978644,-551.7474628567134
277449.0,14731.0,277449.0,10742.0,277449.0,27601.0,-399.11988339082177,-298.15175474291595,-562.6659488836565
277449.0,14722.0,277449.0,10740.0,277449.0,27582.0,-406.5275709164945,-304.1765251388497,-573.5019602328482
277449.0,14716.0,277449.0,10721.0,277449.0,27570.0,-413.89231143643667,-310.15964919920305,-584.25604610389
277449.0,14700.0,277449.0,10721.0,277449.0,27560.0,-421.2147744974277,-316.1015209311631,-594.9288185721668
277449.0,14694.0,277449.0,10727.0,277449.0,27555.0,-428.49564968862853,-322.0028366601971,-605.5210089866127
277459.0,14692.0,277459.0,10734.0,277459.0,27546.0,-435.73571176152586,-327.8645048700014,-616.0334362802594
277459.0,14693.0,277459.0,10728.0,277459.0,27537.0,-442.93580234246826,-333.68738349720786,-626.4669195539125
277459.0,14668.0,277459.0,10701.0,277459.0,27521.0,-450.09673226337156,-339.4720672652685,-636.8222118126312
277459.0,14655.0,277459.0,10681.0,277459.0,27502.0,-457.21928257383195,-345.2189699035421,-647.1000216159498
277459.0,14657.0,277459.0,10693.0,277459.0,27497.0,-464.3043628986229,-350.9286445695135,-657.3011266684923
277459.0,14660.0,277459.0,10697.0,277459.0,27490.0,-471.353106532065,-356.6019741437523,-667.4264740976726
277470.0,14644.0,277470.0,10698.0,277470.0,27472.0,-478.36677070039104,-362.24003103216035,-677.4771904949862
277470.0,14632.0,277470.0,10686.0,277470.0,27470.0,-485.34662611693307,-367.8438128691514,-687.454568476197
277470.0,14630.0,277470.0,10669.0,277470.0,27458.0,-492.2939875717684,-373.4141313407507,-697.360068178466
277470.0,14625.0,277470.0,10655.0,277470.0,27431.0,-499.21027421336305,-378.9517350474259,-707.1953316327174
277470.0,14611.0,277470.0,10671.0,277470.0,27434.0,-506.09699829627925,-384.4575206738127,-716.9622747261328
277470.0,14612.0,277470.0,10661.0,277470.0,27441.0,-512.9557450867405,-389.9325855480124,-726.6631615898723
277480.0,14619.0,277480.0,10655.0,277480.0,27436.0,-519.7881337616684,-395.37810537297355,-736.3004508874019
277480.0,14606.0,277480.0,10667.0,277480.0,27407.0,-526.5956681865399,-400.79521113698524,-745.8765292874912
277480.0,14585.0,277480.0,10640.0,277480.0,27400.0,-533.3795908521847,-406.1849015958878,-755.3936497717136
277480.0,14579.0,277480.0,10617.0,277480.0,27388.0,-540.1409362260065,-411.5480661708359,-764.8540848223374
277480.0,14588.0,277480.0,10641.0,277480.0,27379.0,-546.8806802704017,-416.88570120272504,-774.260267764088
277480.0,14575.0,277480.0,10630.0,277480.0,27383.0,-553.5997371794908,-422.1990483567471,-783.614816954941
277490.0,14557.0,277490.0,10645.0,277490.0,27380.0,-560.2988579452569,-427.4894406319429,-792.9204306080828
277490.0,14554.0,277490.0,10627.0,277490.0,27374.0,-566.9786553587068,-432.75804212068397,-802.1796744262731
277490.0,14541.0,277490.0,10610.0,277490.0,27344.0,-573.639737210613,-438.0057263491922,-811.3948177932937
277490.0,14539.0,277490.0,10605.0,277490.0,27341.0,-580.2828019656336,-443.2331842318366,-820.567878318074
277490.0,14541.0,277490.0,10610.0,277490.0,27347.0,-586.9086483222391,-448.44111792820377,-829.7007613333565
277490.0,14542.0,277490.0,10612.0,277490.0,27321.0,-593.5180723299608,-453.63027368739733,-838.7952656061234
277501.0,14529.0,277501.0,10594.0,277501.0,27327.0,-600.1116844214407,-458.8013197292805,-847.8530057940334
277501.0,14500.0,277501.0,10601.0,277501.0,27315.0,-606.6898304958839,-463.9547674652106,-856.8753750399928
277501.0,14502.0,277501.0,10581.0,277501.0,27293.0,-613.2527506021906,-469.0909927033341,-865.8635274193907
277501.0,14486.0,277501.0,10568.0,277501.0,27281.0,-619.8008335510946,-474.21032646781055,-874.8184469806531
277501.0,14504.0,277501.0,10596.0,277501.0,27277.0,-626.3347306734775,-479.3131729222389,-883.7411235807613
277501.0,14482.0,277501.0,10580.0,277501.0,27271.0,-632.8552760963402,-484.3999682057099,-892.6326654931077
277511.0,14488.0,277511.0,10578.0,277511.0,27267.0,-639.3633450596826,-489.47096802850524,-901.4942678087505
277511.0,14475.0,277511.0,10563.0,277511.0,27258.0,-645.8597716739035,-494.5261372184058,-910.32711552314
277511.0,14456.0,277511.0,10541.0,277511.0,27247.0,-652.3453483536873,-499.5652626349022,-919.1323082934366
277511.0,14456.0,277511.0,10534.0,277511.0,27227.0,-658.8209210694101,-504.58822671750727,-927.9108695670288
277511.0,14448.0,277511.0,10557.0,277511.0,27240.0,-665.2875176562063,-509.5952615625615,-936.6638238587186
277511.0,14455.0,277511.0,10542.0,277511.0,27216.0,-671.7463674940726,-514.5869386617791,-945.3922186991745
277521.0,14436.0,277521.0,10544.0,277521.0,27204.0,-678.1988084800414,-519.5639610788573,-954.0970993187402
277521.0,14445.0,277521.0,10536.0,277521.0,27207.0,-684.6461925598237,-524.5270272031173,-962.7795574580409
277521.0,14421.0,277521.0,10516.0,277521.0,27199.0,-691.0898423954305,-529.4768409381118,-971.4407692779107
277521.0,14424.0,277521.0,10515.0,277521.0,27189.0,-697.5310611512926,-534.4142419957442,-980.0819231739245
277521.0,14417.0,277521.0,10526.0,277521.0,27176.0,-703.971171073419,-539.3403510398585,-988.7041588833563
277521.0,14408.0,277521.0,10530.0,277521.0,27173.0,-710.4115201095492,-544.256519186067,-997.3085947504326
277532.0,14398.0,277532.0,10518.0,277532.0,27162.0,-716.8534767662237,-549.1640919421721,-1005.8963662142928
277532.0,14395.0,277532.0,10496.0,277532.0,27143.0,-723.2984698247554,-554.0642728928539,-1014.4686532246019
277532.0,14391.0,277532.0,10493.0,277532.0,27140.0,-729.7480222803022,-558.9582570796407,-1023.0267633321275
277532.0,14375.0,277532.0,10506.0,277532.0,27131.0,-736.2037450560422,-563.8474438082269,-1031.5722400616746
277532.0,14380.0,277532.0,10497.0,277532.0,27155.0,-742.6673430611831,-568.7334475475005,-1040.1068407003613
277532.0,14372.0,277532.0,10504.0,277532.0,27107.0,-749.1406173526718,-573.6179271131003,-1048.6323530983618
277542.0,14360.0,277542.0,10492.0,277542.0,27118.0,-755.6254248965137,-578.5024233152928,-1057.1504922511085
277542.0,14363.0,277542.0,10470.0,277542.0,27111.0,-762.1236525364362,-583.3883223961212,-1065.662975770314
277542.0,14346.0,277542.0,10479.0,277542.0,27100.0,-768.6372213012733,-588.27698365797,-1074.1715535581602
277542.0,14352.0,277542.0,10477.0,277542.0,27089.0,-775.1680825411381,-593.1698814837642,-1082.677957227595
277542.0,14340.0,277542.0,10489.0,277542.0,27085.0,-781.7181936894444,-598.0685512383832,-1091.1839108742097
277542.0,14343.0,277542.0,10467.0,277542.0,27080.0,-788.2894614472316,-602.9743936455521,-1099.6911566001131
277552.0,14324.0,277552.0,10453.0,277552.0,27056.0,-794.883680660582,-607.8885946049642,-1108.2014502141446
277552.0,14306.0,277552.0,10435.0,277552.0,27054.0,-801.502565969508,-612.8123101606847,-1116.7166221678017
277552.0,14320.0,277552.0,10464.0,277552.0,27064.0,-808.147892360595,-617.7469384945038,-1125.2386611731872
277552.0,14312.0,277552.0,10460.0,277552.0,27051.0,-814.8215563625174,-622.6941308264342,-1133.7696362870643
277552.0,14299.0,277552.0,10449.0,277552.0,27045.0,-821.5254728316535,-627.6555290355419,-1142.3115059683853
277552.0,14293.0,277552.0,10439.0,277552.0,27027.0,-828.2615035684843,-632.6325861246223,-1150.8660326070021
277563.0,14281.0,277563.0,10428.0,277563.0,27004.0,-835.0315148428459,-637.6266374466844,-1159.4348813875486
277563.0,14264.0,277563.0,10405.0,277563.0,26998.0,-841.837492938331,-642.6391153895736,-1168.0198609334684
277563.0,14273.0,277563.0,10418.0,277563.0,27011.0,-848.6816731331422,-647.6718062876969,-1176.6231316364606
277563.0,14271.0,277563.0,10435.0,277563.0,27005.0,-855.5665747957652,-652.726959282917,-1185.247156979617
277563.0,14266.0,277563.0,10443.0,277563.0,26993.0,-862.494867646464,-657.8070426817545,-1193.8944625449958
277563.0,14263.0,277563.0,10419.0,277563.0,26978.0,-869.4691905283692,-662.9143217791801,-1202.5674920205547
277573.0,14241.0,277573.0,10402.0,277573.0,26974.0,-876.4920642647558,-668.0506850779608,-1211.2686532186267
277573.0,14252.0,277573.0,10402.0,277573.0,26960.0,-883.5659126853039,-673.2178321610919,-1220.0004184389932
277573.0,14230.0,277573.0,10407.0,277573.0,26962.0,-890.6931026972146,-678.41750543225,-1228.7653758893148
277573.0,14230.0,277573.0,10403.0,277573.0,26958.0,-897.875954753968,-683.6515005609662,-1237.5662017274049
277573.0,14222.0,277573.0,10402.0,277573.0,26947.0,-905.116762096028,-688.9215304534523,-1246.4055587141506
277573.0,14205.0,277573.0,10370.0,277573.0,26935.0,-912.4178247598087,-694.2291612536266,-1255.28601650696
277583.0,14215.0,277583.0,10388.0,277583.0,26904.0,-919.7814861385624,-699.5759235292396,-1264.210118979323
277583.0,14201.0,277583.0,10389.0,277583.0,26912.0,-927.2101274992089,-704.9634225288156,-1273.1806065777569
277583.0,14192.0,277583.0,10371.0,277583.0,26901.0,-934.7061062139915,-710.3932612778017,-1282.200613521263
277583.0,14190.0,277583.0,10394.0,277583.0,26919.0,-942.2717286979747,-715.8668978856947,-1291.2736414291514
277583.0,14181.0,277583.0,10364.0,277583.0,26903.0,-949.9092579769687,-721.3855442712113,-1300.4033193952555
277583.0,14154.0,277583.0,10337.0,277583.0,26881.0,-957.6209355744478,-726.9501770897989,-1309.5931730069506
277594.0,14155.0,277594.0,10349.0,277594.0,26870.0,-965.4091087108785,-732.5617943887652,-1318.8466349214873
277594.0,14152.0,277594.0,10352.0,277594.0,26875.0,-973.2763979825899,-738.2216832048587,-1328.167222008804
277594.0,14141.0,277594.0,10353.0,277594.0,26875.0,-981.2257314032856,-743.931372251641,-1337.558575391472
277594.0,14149.0,277594.0,10355.0,277594.0,26853.0,-989.2602609126327,-749.6923850069452,-1347.024312675133
277594.0,14133.0,277594.0,10334.0,277594.0,26840.0,-997.3832442304841,-755.5060481416563,-1356.5679472405436
277594.0,14125.0,277594.0,10313.0,277594.0,26847.0,-1005.5979445729881,-761.3735070214248,-1366.1929675719998
277604.0,14114.0,277604.0,10322.0,277604.0,26825.0,-1013.9076230038503,-767.2959543092082,-1375.9028903264675
277604.0,14119.0,277604.0,10328.0,277604.0,26812.0,-1022.3155787937119,-773.2748044990792,-1385.7012566739122
277604.0,14120.0,277604.0,10331.0,277604.0,26832.0,-1030.8250859036934,-779.3115795901527,-1395.5916588143823
277604.0,14103.0,277604.0,10332.0,277604.0,26825.0,-1039.4392092975281,-785.4076151366617,-1405.577636683877
277604.0,14096.0,277604.0,10310.0,277604.0,26801.0,-1048.1606689465593,-791.5638274501755,-1415.6624103313184
277604.0,14087.0,277604.0,10297.0,277604.0,26792.0,-1056.9918424969965,-797.7807017869173,-1425.848759506268
277614.0,14075.0,277614.0,10293.0,277614.0,26779.0,-1065.934819491838,-804.0584893482792,-1436.139145468882
277614.0,14065.0,277614.0,10305.0,277614.0,26779.0,-1074.9914524293602,-810.3973783258216,-1446.5358462511263
277614.0,14066.0,277614.0,10294.0,277614.0,26775.0,-1084.1633985181923,-816.7974447040559,-1457.040953509189
277614.0,14067.0,277614.0,10293.0,277614.0,26777.0,-1093.4520731435578,-823.2584819768678,-1467.6562308928212
277614.0,14051.0,277614.0,10281.0,277614.0,26754.0,-1102.8584907068328,-829.7799020293223,-1478.3829229084154
277614.0,14035.0,277614.0,10261.0,277614.0,26731.0,-1112.3831465961728,-836.3607719512651,-1489.2216963545006
277625.0,14034.0,277625.0,10262.0,277625.0,26746.0,-1122.0260495366906,-842.9999706111126,-1500.1727648819806
277625.0,14035.0,277625.0,10279.0,277625.0,26741.0,-1131.7867626437755,-849.6963071681477,-1511.2359335733754
277625.0,14036.0,277625.0,10269.0,277625.0,26738.0,-1141.664277115753,-856.4483951394614,-1522.4103874701354
277625.0,14030.0,277625.0,10263.0,277625.0,26718.0,-1151.656750960639,-863.2543872941293,-1533.6944304746762
277625.0,13996.0,277625.0,10249.0,277625.0,26710.0,-1161.7613111160213,-870.1118486706067,-1545.0853952401649
277625.0,13996.0,277625.0,10227.0,277625.0,26707.0,-1171.974091038866,-877.0178467029432,-1556.5796735108297
277635.0,13985.0,277635.0,10246.0,277635.0,26695.0,-1182.2904087427319,-883.9691411577289,-1568.1727091484836
277635.0,13979.0,277635.0,10241.0,277635.0,26679.0,-1192.7048486304982,-890.9622432707831,-1579.8589458661927
277635.0,13979.0,277635.0,10246.0,277635.0,26665.0,-1203.2112027503654,-897.9932308593271,-1591.6318451670377
277635.0,13970.0,277635.0,10238.0,277635.0,26656.0,-1213.8023384326602,-905.0574834448021,-1603.4839868084741
277635.0,13955.0,277635.0,10230.0,277635.0,26645.0,-1224.4700572679112,-912.1495115552091,-1615.4071568866866
277635.0,13947.0,277635.0,10216.0,277635.0,26642.0,-1235.2050367249647,-919.262922856223,-1627.3923650908614
277645.0,13941.0,277645.0,10224.0,277645.0,26643.0,-1245.9968425320535,-926.3904767195198,-1639.4297671067968
277645.0,13946.0,277645.0,10209.0,277645.0,26634.0,-1256.8338826042154,-933.5241060112596,-1651.5084823420339
277645.0,13923.0,277645.0,10225.0,277645.0,26615.0,-1267.7032583327928,-940.6548435989471,-1663.6164024063833
277645.0,13916.0,277645.0,10191.0,277645.0,26612.0,-1278.590645154103,-947.7727125253891,-1675.7401202182743
277645.0,13899.0,277645.0,10180.0,277645.0,26602.0,-1289.4803100716483,-954.866740013327,-1687.8649376303952
277645.0,13887.0,277645.0,10177.0,277645.0,26586.0,-1300.3552099301764,-961.9251725230623,-1699.9748487977251
277656.0,13896.0,277656.0,10186.0,277656.0,26574.0,-1311.1970555967428,-968.9356655589738,-1712.0525402358207
277656.0,13893.0,277656.0,10173.0,277656.0,26568.0,-1321.98621915202,-975.8852401596398,-1724.0794445122428
277656.0,13891.0,277656.0,10174.0,277656.0,26564.0,-1332.7014624230883,-982.7601339640156,-1736.03575706174
277656.0,13861.0,277656.0,10164.0,277656.0,26549.0,-1343.319681771382,-989.5457172660297,-1747.900368154807
277656.0,13842.0,277656.0,10145.0,277656.0,26536.0,-1353.815902551611,-996.2265028350027,-1759.650801726146
277656.0,13836.0,277656.0,10145.0,277656.0,26520.0,-1364.1635179168386,-1002.78625806881,-1771.2632528115812
277666.0,13837.0,277666.0,10137.0,277666.0,26539.0,-1374.3345036199657,-1009.2081531956894,-1782.712643369769
277666.0,13832.0,277666.0,10151.0,277666.0,26516.0,-1384.2994032498723,-1015.4747983160114,-1793.9725272647265
277666.0,13818.0,277666.0,10155.0,277666.0,26501.0,-1394.027173850741,-1021.5680888786367,-1805.0149200969095
277666.0,13798.0,277666.0,10136.0,277666.0,26486.0,-1403.4851134622568,-1027.4689431275658,-1815.8103036544467
277666.0,13790.0,277666.0,10103.0,277666.0,26456.0,-1412.6389646751945,-1033.1572194735681,-1826.3278402905153
277666.0,13776.0,277666.0,10118.0,277666.0,26469.0,-1421.4531001431437,-1038.6119722570465,-1836.535650445679
277677.0,13775.0,277677.0,10115.0,277677.0,26451.0,-1429.8906616372756,-1043.811738945467,-1846.40098026756
277677.0,13769.0,277677.0,10117.0,277677.0,26472.0,-1437.9136032004192,-1048.7345477867623,-1855.890151074027
277677.0,13762.0,277677.0,10093.0,277677.0,26446.0,-1445.4826557802894,-1053.357804460465,-1864.9683585001194
277677.0,13731.0,277677.0,10076.0,277677.0,26432.0,-1452.5573299229234,-1057.658372111884,-1873.5995308603833
277677.0,13738.0,277677.0,10071.0,277677.0,26407.0,-1459.0960771935097,-1061.6128920428228,-1881.7464441515708
277677.0,13721.0,277677.0,10092.0,277677.0,26403.0,-1465.056518540067,-1065.1980806955448,-1889.3710543839584
277687.0,13722.0,277687.0,10093.0,277687.0,26409.0,-1470.3955830897955,-1068.3907183373121,-1896.4347873798883
277687.0,13718.0,277687.0,10077.0,277687.0,26402.0,-1475.06956279272,-1071.1674192402882,-1902.8986010819367
277687.0,13703.0,277687.0,10074.0,277687.0,26392.0,-1479.0341490618084,-1073.5045342108695,-1908.7229086341295
277687.0,13689.0,277687.0,10054.0,277687.0,26376.0,-1482.2445418642042,-1075.3783116945458,-1913.8675921760089
277687.0,13681.0,277687.0,10055.0,277687.0,26360.0,-1484.6556994755797,-1076.765188700103,-1918.2922077884132
277687.0,13678.0,277687.0,10055.0,277687.0,26363.0,-1486.22264129806,-1077.642064574747,-1921.956297886944
277697.0,13675.0,277697.0,10080.0,277697.0,26381.0,-1486.9006776986944,-1077.9864045848701,-1924.8195978506508
277697.0,13677.0,277697.0,10059.0,277697.0,26350.0,-1486.6455460571242,-1077.776127500978,-1926.8420268845562
277697.0,13667.0,277697.0,10042.0,277697.0,26351.0,-1485.4135070801979,-1076.9895369498556,-1927.9837011885802
277697.0,13658.0,277697.0,10051.0,277697.0,26346.0,-1483.161495902038,-1075.6055441391718,-1928.2051629777848
277697.0,13654.0,277697.0,10050.0,277697.0,26340.0,-1479.8473921146187,-1073.6039924227166,-1927.4676667641752
277697.0,13659.0,277697.0,10060.0,277697.0,26350.0,-1475.4303392856668,-1070.9658051100591,-1925.7333845329103
277708.0,13662.0,277708.0,10068.0,277708.0,26346.0,-1469.8709858018701,-1067.6729713340458,-1922.9655371301396
277708.0,13651.0,277708.0,10078.0,277708.0,26347.0,-1463.1316544236893,-1063.7084596342056,-1919.1284874833289
277708.0,13652.0,277708.0,10059.0,277708.0,26344.0,-1455.176579431241,-1059.0561509043937,-1914.187877786319
277708.0,13649.0,277708.0,10058.0,277708.0,26339.0,-1445.97226114226,-1053.700961245347,-1908.1108583408663
277708.0,13657.0,277708.0,10070.0,277708.0,26348.0,-1435.4878418128203,-1047.629155239159,-1900.8663767788762
277708.0,13664.0,277708.0,10082.0,277708.0,26368.0,-1423.6954149522917,-1040.8285890681655,-1892.4254153914508
277718.0,13683.0,277718.0,10098.0,277718.0,26358.0,-1410.5702346396522,-1033.2887240434445,-1882.761092565378
277718.0,13684.0,277718.0,10089.0,277718.0,26382.0,-1396.090837879313,-1025.0005404497426,-1871.8487344919572
277718.0,13690.0,277718.0,10100.0,277718.0,26377.0,-1380.2391860239788,-1015.956562511398,-1859.6660171731182
277718.0,13714.0,277718.0,10123.0,277718.0,26404.0,-1363.0008967825017,-1006.1509927439422,-1846.1931268994542
277718.0,13725.0,277718.0,10123.0,277718.0,26414.0,-1344.3654621559656,-995.579771770938,-1831.4128751559272
277718.0,13751.0,277718.0,10140.0,277718.0,26442.0,-1324.3263637166842,-984.2405577183414,-1815.3107341860416
277728.0,13763.0,277728.0,10165.0,277728.0,26466.0,-1302.8811422276149,-972.1327184050435,-1797.8747836457949
277728.0,13795.0,277728.0,10178.0,277728.0,26470.0,-1280.0314723999631,-959.2572635487929,-1779.0956274999483
277728.0,13819.0,277728.0,10187.0,277728.0,26505.0,-1255.78321250712,-945.6167190291934,-1758.966390821523
277728.0,13829.0,277728.0,10191.0,277728.0,26522.0,-1230.1464328424743,-931.2151151883369,-1737.4827846503435
277728.0,13859.0,277728.0,10221.0,277728.0,26566.0,-1203.1355260349037,-916.0581174156956,-1714.643099490042
277728.0,13894.0,277728.0,10240.0,277728.0,26585.0,-1174.7693847231976,-900.1531106765153,-1690.4480830545665
277739.0,13935.0,277739.0,10273.0,277739.0,26593.0,-1145.0714579110684,-883.5091022070985,-1664.9008419503061
277739.0,13981.0,277739.0,10273.0,277739.0,26632.0,-1114.069598365737,-866.136535225943,-1638.0069352318926
277739.0,14003.0,277739.0,10292.0,277739.0,26664.0,-1081.7958075543934,-848.0472218097572,-1609.7745565138491
277739.0,14028.0,277739.0,10315.0,277739.0,26702.0,-1048.2860917281355,-829.254447209652,-1580.2145676748892
277739.0,14100.0,277739.0,10352.0,277739.0,26753.0,-1013.5804787067779,-809.7730448728266,-1549.3403575738814
277739.0,14141.0,277739.0,10369.0,277739.0,26776.0,-977.7229048034446,-789.6192859092209,-1517.1676164875994
277749.0,14176.0,277749.0,10409.0,277749.0,26825.0,-940.7608572619329,-768.810665492446,-1483.7141351131845
277749.0,14229.0,277749.0,10427.0,277749.0,26847.0,-902.7450561266337,-747.3656909001016,-1448.9997126187789
277749.0,14264.0,277749.0,10426.0,277749.0,26888.0,-863.729291381816,-725.3037616929782,-1413.0461711367016
277749.0,14326.0,277749.0,10476.0,277749.0,26941.0,-823.7702781269193,-702.6452426168441,-1375.8774072445283
277749.0,14373.0,277749.0,10488.0,277749.0,26970.0,-782.9274410235913,-679.4115828866713,-1337.5193704391536
277749.0,14426.0,277749.0,10534.0,277749.0,27032.0,-741.262620104779,-655.6252727462964,-1297.9999637754095
277759.0,14476.0,277759.0,10545.0,277759.0,27080.0,-698.8397628029363,-631.3097013639244,-1257.348900225926
277759.0,14512.0,277759.0,10588.0,277759.0,27098.0,-655.724689237175,-606.4890428266195,-1215.5975401614974
277759.0,14577.0,277759.0,10618.0,277759.0,27153.0,-611.9849549948583,-581.1881532842727,-1172.7788850468783
277759.0,14620.0,277759.0,10636.0,277759.0,27209.0,-567.6897283246382,-555.4324400072902,-1128.9277162102485
277759.0,14681.0,277759.0,10680.0,277759.0,27251.0,-522.9095965778026,-529.2477602382355,-1084.0806104788192
277759.0,14745.0,277759.0,10712.0,277759.0,27308.0,-477.71629965544025,-502.6603348460708,-1038.2758214276096
277770.0,14801.0,277770.0,10732.0,277770.0,27367.0,-432.18237198459406,-475.6966051130558,-991.553154567819
277770.0,14856.0,277770.0,10750.0,277770.0,27405.0,-386.38072712694077,-448.38316334382273,-943.953829159109
277770.0,14908.0,277770.0,10792.0,277770.0,27461.0,-340.3843040942502,-420.7468535748317,-895.5203860619845
277770.0,14957.0,277770.0,10825.0,277770.0,27520.0,-294.2658236019952,-392.81485331262223,-846.2966807629298
277770.0,15022.0,277770.0,10869.0,277770.0,27578.0,-248.09760332835572,-364.6145654346112,-796.3278286460301
277770.0,15075.0,277770.0,10888.0,277770.0,27631.0,-201.95133470678775,-336.1734003178201,-745.6600545383809
277780.0,15133.0,277780.0,10903.0,277780.0,27671.0,-155.89778450512267,-307.5186678907643,-694.3405846980559
277780.0,15181.0,277780.0,10929.0,277780.0,27732.0,-110.0064977929701,-278.67772037730253,-642.4176869976109
277780.0,15233.0,277780.0,10969.0,277780.0,27785.0,-64.34557488172504,-249.67821330056574,-589.9407788401811
277780.0,15279.0,277780.0,11026.0,277780.0,27878.0,-18.981528077632674,-220.5481742257142,-536.9603988649873
277780.0,15345.0,277780.0,11061.0,277780.0,27920.0,26.02083860096559,-191.31573263367738,-483.52792953014955
277780.0,15393.0,277780.0,11083.0,277780.0,27980.0,70.59862401411601,-162.00871643575306,-429.6952490420315
277790.0,15441.0,277790.0,11109.0,277790.0,28031.0,114.69109280496582,-132.65445015482499,-375.51458214058357
277790.0,15499.0,277790.0,11132.0,277790.0,28087.0,158.23990342477282,-103.27983077140345,-321.03853995994837
277790.0,15546.0,277790.0,11163.0,277790.0,28151.0,201.1893052709172,-73.91151440010435,-266.32018132021585
277790.0,15591.0,277790.0,11211.0,277790.0,28225.0,243.48634528031948,-44.57603483202581,-211.4129743387839
277790.0,15644.0,277790.0,11244.0,277790.0,28284.0,285.08104126477656,-15.299733674713252,-156.37059592401783
277790.0,15681.0,277790.0,11269.0,277790.0,28328.0,325.92651561126627,13.891438061930558,-101.24669288414952
277801.0,15711.0,277801.0,11296.0,277801.0,28387.0,365.97906668521273,42.972031252011334,-46.09482349209384
277801.0,15754.0,277801.0,11315.0,277801.0,28445.0,405.1981005349696,71.91702854145922,9.0314343807363
277801.0,15801.0,277801.0,11350.0,277801.0,28522.0,443.5460032442992,100.70167461536835,64.07843493755718
277801.0,15843.0,277801.0,11420.0,277801.0,28581.0,480.9881313174815,129.30141408012275,118.99261326860437
277801.0,15886.0,277801.0,11434.0,277801.0,28643.0,517.4929314397095,157.69213811428642,173.7207500744364
277801.0,15912.0,277801.0,11446.0,277801.0,28695.0,553.032061221571,185.8505180767114,228.21017797673494
277811.0,15952.0,277811.0,11482.0,277811.0,28741.0,587.5804107681486,213.7540140163909,282.4088299601624
277811.0,15979.0,277811.0,11496.0,277811.0,28807.0,621.1160340908755,241.38063372100817,336.2651539192293
277811.0,16004.0,277811.0,11547.0,277811.0,28873.0,653.6200377273985,268.7087587404013,389.72805083141907
277811.0,16062.0,277811.0,11582.0,277811.0,28937.0,685.0764738329276,295.7171696452657,442.74699406061654
277811.0,16084.0,277811.0,11617.0,277811.0,28996.0,715.472359784611,322.38527122536505,495.2722849070469
277811.0,16113.0,277811.0,11610.0,277811.0,29048.0,744.7978126786109,348.69330380287045,547.2552841480076
277821.0,16119.0,277821.0,11641.0,277821.0,29092.0,773.0460542757537,374.6222478919152,598.6485098798721
277821.0,16146.0,277821.0,11674.0,277821.0,29143.0,800.2131673229371,400.15350986966394,649.4055728877975
277821.0,16183.0,277821.0,11711.0,277821.0,29222.0,826.2977815653005,425.2687656932336,699.4810806072135
277821.0,16214.0,277821.0,11763.0,277821.0,29256.0,851.3009465970943,449.9501271917152,748.830703441135
277821.0,16228.0,277821.0,11758.0,277821.0,29316.0,875.2262017217811,474.18046963220456,797.4113320572844
277821.0,16243.0,277821.0,11791.0,277821.0,29374.0,898.0795959000584,497.94360746434836,845.1811591389326
277832.0,16260.0,277832.0,11809.0,277832.0,29427.0,919.8695200645643,521.224199401142,892.0997679406371
277832.0,16274.0,277832.0,11851.0,277832.0,29472.0,940.6064467276904,544.0076262104728,938.128285673369
277832.0,16300.0,277832.0,11879.0,277832.0,29548.0,960.3027020900461,566.2800602806599,983.2295382749303
277832.0,16327.0,277832.0,11898.0,277832.0,29574.0,978.9723532914131,588.0286667256066,1027.3682422333372
277832.0,16333.0,277832.0,11919.0,277832.0,29625.0,996.6312205307581,609.2417462503561,1070.5111739608697
277832.0,16344.0,277832.0,11929.0,277832.0,29660.0,1013.2968658745735,629.908714962226,1112.627168112725
277842.0,16354.0,277842.0,11947.0,277842.0,29712.0,1028.9884307534064,650.0199518665966,1153.6870147402428
277842.0,16363.0,277842.0,11965.0,277842.0,29750.0,1043.7263883679784,669.5665933213313,1193.6634060516126
277842.0,16381.0,277842.0,12009.0,277842.0,29821.0,1057.5323237216148,688.5404103571493,1232.530998493382
277842.0,16403.0,277842.0,12034.0,277842.0,29855.0,1070.4288155017773,706.9339189112484,1270.2666375892068
277842.0,16401.0,277842.0,12025.0,277842.0,29886.0,1082.4394312609056,724.7406180106157,1306.849635057038
277842.0,16416.0,277842.0,12051.0,277842.0,29910.0,1093.5887117246953,741.9550222366165,1342.2618338528941
277852.0,16404.0,277852.0,12064.0,277852.0,29938.0,1103.902026095049,758.5724563058445,1376.4873930118501
277852.0,16430.0,277852.0,12080.0,277852.0,30003.0,1113.405333986979,774.5888811048449,1409.5125337062318
277852.0,16444.0,277852.0,12129.0,277852.0,30039.0,1122.1250191303604,790.000886925161,1441.3255506011906
277852.0,16443.0,277852.0,12135.0,277852.0,30066.0,1130.087899236001,804.8058884366653,1471.917076819072
277852.0,16439.0,277852.0,12135.0,277852.0,30085.0,1137.3212411851848,819.0023778275242,1501.2802548179498
277852.0,16435.0,277852.0,12140.0,277852.0,30110.0,1143.8525742610157,832.5899103781769,1529.4106252878555
277863.0,16449.0,277863.0,12163.0,277863.0,30144.0,1149.709381494444,845.5688326409013,1556.3058941686277
277863.0,16453.0,277863.0,12183.0,277863.0,30179.0,1154.9188847793264,857.9400952535213,1581.9658045995811
277863.0,16465.0,277863.0,12196.0,277863.0,30195.0,1159.5079997753592,869.7052940659007,1606.3921604298635
277863.0,16460.0,277863.0,12204.0,277863.0,30209.0,1163.5033666322129,880.8667837264663,1629.5888292898067
277863.0,16447.0,277863.0,12204.0,277863.0,30242.0,1166.9312998420799,891.4276815457422,1651.5616037496675
277863.0,16451.0,277863.0,12219.0,277863.0,30255.0,1169.8175652965087,901.3917332325052,1672.3180398484342
277873.0,16453.0,277873.0,12233.0,277873.0,30287.0,1172.1870909595787,910.7631658770956,1691.867388165636
277873.0,16477.0,277873.0,12248.0,277873.0,30298.0,1174.0638309156745,919.546661631091,1710.22058279662
277873.0,16468.0,277873.0,12257.0,277873.0,30319.0,1175.4708548443914,927.7474398082643,1727.3902272275245
277873.0,16462.0,277873.0,12273.0,277873.0,30333.0,1176.430477992482,935.3713582145626,1743.3905443836888
277873.0,16468.0,277873.0,12268.0,277873.0,30341.0,1176.9642285275079,942.4249809236435,1758.23728640322
277873.0,16450.0,277873.0,12264.0,277873.0,30342.0,1177.0926920291915,948.9155354100178,1771.9475733278337
277883.0,16466.0,277883.0,12292.0,277883.0,30360.0,1176.835347778839,954.8507507365241,1784.5396379490176
277883.0,16471.0,277883.0,12285.0,277883.0,30393.0,1176.2104832060636,960.2387587014309,1796.0326280434892
277883.0,16472.0,277883.0,12316.0,277883.0,30376.0,1175.2352668154012,965.0881609087128,1806.4466030288722
277883.0,16460.0,277883.0,12305.0,277883.0,30384.0,1173.925867699424,969.4081724574307,1815.8025180079344
277883.0,16466.0,277883.0,12294.0,277883.0,30399.0,1172.2974490695763,973.2086861474891,1824.1220083776411
277883.0,16471.0,277883.0,12296.0,277883.0,30396.0,1170.3641040905952,976.5001071514598,1831.4271584908465
277894.0,16472.0,277894.0,12307.0,277894.0,30420.0,1168.1388913811516,979.2930650942553,1837.740399386395
277894.0,16480.0,277894.0,12322.0,277894.0,30430.0,1165.633969727262,981.5982966484894,1843.0845186903375
277894.0,16477.0,277894.0,12305.0,277894.0,30421.0,1162.8607567097736,983.4267266380832,1847.482747564543
277894.0,16470.0,277894.0,12308.0,277894.0,30409.0,1159.8300501420604,984.7894943412691,1850.9587317172509
277894.0,16464.0,277894.0,12303.0,277894.0,30418.0,1156.5520431436048,985.6978032195557,1853.5362622833318
277894.0,16457.0,277894.0,12310.0,277894.0,30430.0,1153.0362304791336,986.1627374002458,1855.238994497021
277904.0,16468.0,277904.0,12333.0,277904.0,30434.0,1149.2913090469272,986.1952226413953,1856.0903962408584
277904.0,16468.0,277904.0,12332.0,277904.0,30446.0,1145.3251976830998,985.8062042771382,1856.1138771422056
277904.0,16470.0,277904.0,12336.0,277904.0,30438.0,1141.1451921928012,985.0069304857195,1855.3329396116114
277904.0,16462.0,277904.0,12315.0,277904.0,30437.0,1136.7581339300698,983.8091017269701,1853.7712478587282
277904.0,16445.0,277904.0,12315.0,277904.0,30419.0,1132.1704581261,982.2247726578714,1851.4525513937951
277904.0,16450.0,277904.0,12318.0,277904.0,30448.0,1127.3880934145363,980.2661316211033,1848.4005310605476
277915.0,16467.0,277915.0,12307.0,277915.0,30440.0,1122.4163843648485,977.9453515979098,1844.6387853986062
277915.0,16466.0,277915.0,12319.0,277915.0,30439.0,1117.2602553956742,975.2745425910673,1840.19100311878
277915.0,16455.0,277915.0,12323.0,277915.0,30424.0,1111.9245207812091,972.2657827862881,1835.0810841556022
277915.0,16445.0,277915.0,12296.0,277915.0,30417.0,1106.41404512817,968.9312058410933,1829.333066873306
277915.0,16437.0,277915.0,12302.0,277915.0,30413.0,1100.7336792904237,965.2829759436304,1822.9709598184827
277915.0,16442.0,277915.0,12313.0,277915.0,30410.0,1094.8881395347717,961.3331563223358,1816.0186189072397
277925.0,16439.0,277925.0,12320.0,277925.0,30397.0,1088.8819937252915,957.0937541354574,1808.4997057023888
277925.0,16438.0,277925.0,12307.0,277925.0,30408.0,1082.7197685420704,952.576967659402,1800.4376855388873
277925.0,16443.0,277925.0,12305.0,277925.0,30395.0,1076.406102710144,947.7953621853503,1791.8558829487506
277925.0,16420.0,277925.0,12290.0,277925.0,30384.0,1069.9458833571318,942.7618528062112,1782.7775774390784
277925.0,16419.0,277925.0,12273.0,277925.0,30372.0,1063.3442783301368,937.4895503530652,1773.2260134006078
277925.0,16420.0,277925.0,12292.0,277925.0,30381.0,1056.6066683628867,931.9915631577944,1763.2243395861665
277935.0,16417.0,277935.0,12276.0,277935.0,30364.0,1049.7386448727054,926.2809201661737,1752.7956372837298
277935.0,16420.0,277935.0,12285.0,277935.0,30343.0,1042.7461379737508,920.370663549041,1741.962995963386
277935.0,16395.0,277935.0,12254.0,277935.0,30348.0,1035.6355531033164,914.2739323041226,1730.7494757806437
277935.0,16388.0,277935.0,12251.0,277935.0,30334.0,1028.4137663149024,908.0038785778453,1719.1780391642908
277935.0,16394.0,277935.0,12244.0,277935.0,30310.0,1021.0879962460745,901.5734547351558,1707.2715519315868
277935.0,16399.0,277935.0,12269.0,277935.0,30313.0,1013.665787292015,894.9953055062293,1695.0527418869265
277946.0,16380.0,277946.0,12248.0,277946.0,30305.0,1006.1551867250223,888.2819287141323,1682.5441424990865
277946.0,16378.0,277946.0,12243.0,277946.0,30293.0,998.5648949309573,881.4459139448167,1669.768158537044
277946.0,16376.0,277946.0,12222.0,277946.0,30285.0,990.9042832687986,874.4999754341206,1656.747182106854
277946.0,16355.0,277946.0,12216.0,277946.0,30249.0,983.1833865293571,867.4567767413824,1643.5036106349403
277946.0,16334.0,277946.0,12212.0,277946.0,30245.0,975.4128332647357,860.3287269119365,1630.0597053639763
277946.0,16346.0,277946.0,12217.0,277946.0,30235.0,967.6036489079496,853.1278995009163,1616.4373888027362
277956.0,16337.0,277956.0,12229.0,277956.0,30226.0,959.7671316898176,845.8661550074676,1602.6581726666839
277956.0,16323.0,277956.0,12199.0,277956.0,30219.0,951.9149123034173,838.555393474426,1588.7432338165197
277956.0,16311.0,277956.0,12195.0,277956.0,30202.0,944.058990532987,831.2076839038044,1574.7135201246233
277956.0,16303.0,277956.0,12178.0,277956.0,30185.0,936.2116331203896,823.8351446322804,1560.589800588735
277956.0,16283.0,277956.0,12164.0,277956.0,30177.0,928.3852215265758,816.4497159383675,1546.3926347316367
277956.0,16290.0,277956.0,12174.0,277956.0,30170.0,920.5921119294316,809.0629742477405,1532.1423435889087
277966.0,16278.0,277966.0,12156.0,277966.0,30154.0,912.8445657480016,801.6860685024026,1517.85906256976
277966.0,16269.0,277966.0,12158.0,277966.0,30142.0,905.1547705323974,794.3297601076639,1503.562816846733
277966.0,16258.0,277966.0,12151.0,277966.0,30114.0,897.5348435669412,787.0044669349174,1489.2735154141676
277966.0,16244.0,277966.0,12130.0,277966.0,30102.0,889.9967489870328,779.7202705579323,1475.0108267423714
277966.0,16251.0,277966.0,12135.0,277966.0,30085.0,882.5521927783252,772.4868580544644,1460.7939940741198
277966.0,16241.0,277966.0,12133.0,277966.0,30082.0,875.2126045535466,765.3134567359502,1446.6417111534283
277977.0,16238.0,277977.0,12145.0,277977.0,30075.0,867.9892198951026,758.2089233898763,1432.5721387154526
277977.0,16227.0,277977.0,12109.0,277977.0,30051.0,860.8931576604393,751.1819452377257,1418.603014588294
277977.0,16213.0,277977.0,12101.0,277977.0,30034.0,853.9354129615664,744.2410730482054,1404.7516928984253
277977.0,16199.0,277977.0,12086.0,277977.0,30019.0,847.1267472463481,737.3944808921593,1391.0350308581387
277977.0,16201.0,277977.0,12095.0,277977.0,30008.0,840.4775196496356,730.6496951113668,1377.4692359036242
277977.0,16202.0,277977.0,12112.0,277977.0,29994.0,833.9976009284718,724.0135755600597,1364.069781921643
277987.0,16197.0,277987.0,12082.0,277987.0,29990.0,827.6964505962393,717.4925549476282,1350.8513960662615
277987.0,16179.0,277987.0,12074.0,277987.0,29971.0,821.5832314659397,711.0928163119685,1337.8280913816056
277987.0,16169.0,277987.0,12072.0,277987.0,29958.0,815.6667811855066,704.8201999715228,1325.0131901142481
277987.0,16169.0,277987.0,12065.0,277987.0,29940.0,809.9554546354586,698.6800481993124,1312.4192725037624
277987.0,16161.0,277987.0,12074.0,277987.0,29951.0,804.4570048732079,692.6771938506388,1300.05810930914
277987.0,16160.0,277987.0,12074.0,277987.0,29948.0,799.1785671144219,686.8160887247363,1287.9407517042823
277997.0,16158.0,277997.0,12066.0,277997.0,29913.0,794.1266908611979,681.10100472012,1276.0777599474363
277997.0,16135.0,277997.0,12041.0,277997.0,29903.0,789.3073551873631,675.5361416929015,1264.4792709556932
277997.0,16141.0,277997.0,12023.0,277997.0,29893.0,784.7258941157203,670.1254698637038,1253.1548174230422
277997.0,16141.0,277997.0,12037.0,277997.0,29885.0,780.3868885588271,664.8723997303734,1242.113159214937
277997.0,16123.0,277997.0,12037.0,277997.0,29866.0,776.29414607492,659.7796092272965,1231.3622380377728
277997.0,16136.0,277997.0,12034.0,277997.0,29874.0,772.4507096038452,654.8491575409696,1220.9091640341837
278007.0,16131.0,278007.0,12031.0,278007.0,29861.0,768.8588647042332,650.0826730046946,1210.7602522610123
278007.0,16116.0,278007.0,12027.0,278007.0,29841.0,765.520191738687,645.481449059213,1200.9211088195075
278007.0,16114.0,278007.0,12018.0,278007.0,29831.0,762.4355516285771,641.0464644148512,1191.396612630735
278007.0,16113.0,278007.0,12006.0,278007.0,29835.0,759.6049666772969,636.7783334442413,1182.1907967226873
278007.0,16120.0,278007.0,12029.0,278007.0,29831.0,757.0275583323487,632.6772292725773,1173.3068393383357
278007.0,16117.0,278007.0,12011.0,278007.0,29810.0,754.7016187873585,628.7429232298668,1164.747182947634
278017.0,16107.0,278017.0,11995.0,278017.0,29802.0,752.6247112187107,624.9748819715383,1156.5135685699038
278017.0,16103.0,278017.0,11998.0,278017.0,29791.0,750.7936631223413,621.3721935948404,1148.6069165210924
278017.0,16094.0,278017.0,11992.0,278017.0,29790.0,749.2044406874472,617.9333875279749,1141.0271972142818
278017.0,16121.0,278017.0,12015.0,278017.0,29795.0,747.8520439472475,614.6563991636077,1133.7734194789962
278017.0,16120.0,278017.0,12001.0,278017.0,29800.0,746.730602948589,611.5387379722711,1126.8437809218103
278017.0,16103.0,278017.0,11996.0,278017.0,29781.0,745.8336164131824,608.5776871449264,1120.2359075043337
278027.0,16108.0,278027.0,11992.0,278027.0,29767.0,745.1540396394428,605.7703405664346,1113.946967880243
278027.0,16098.0,278027.0,11974.0,278027.0,29763.0,744.6841651901217,603.1134832782986,1107.9735593572213
278027.0,16114.0,278027.0,11996.0,278027.0,29740.0,744.415509084299,600.6034450434981,1102.3114930702225
278027.0,16114.0,278027.0,12001.0,278027.0,29771.0,744.3388322618273,598.2360950870868,1096.9556383518877
278027.0,16117.0,278027.0,11986.0,278027.0,29764.0,744.4442712861198,596.0070287238055,1091.8999782154838
278027.0,16124.0,278027.0,11982.0,278027.0,29758.0,744.7214814441344,593.9116991113333,1087.137872067649
278038.0,16111.0,278038.0,11968.0,278038.0,29741.0,745.1597257779939,591.9453141598299,1082.6622324039606
278038.0,16111.0,278038.0,11977.0,278038.0,29739.0,745.7478638361017,590.1026323106827,1078.465447731446
278038.0,16120.0,278038.0,11980.0,278038.0,29754.0,746.4742546569987,588.3778556655445,1074.5392502710142
278038.0,16121.0,278038.0,11997.0,278038.0,29744.0,747.3267160069688,586.7647197981448,1070.8747573660135
278038.0,16121.0,278038.0,12001.0,278038.0,29754.0,748.2925867935714,585.2567601977312,1067.4626484129433
278038.0,16131.0,278038.0,11988.0,278038.0,29730.0,749.3587999575673,583.8476037644386,1064.293291417361
278048.0,16139.0,278048.0,11972.0,278048.0,29733.0,750.5119702987602,582.5310568822426,1061.3567162649815
278048.0,16125.0,278048.0,11977.0,278048.0,29733.0,751.7385158701268,581.3009255154134,1058.6424916830128
278048.0,16138.0,278048.0,11992.0,278048.0,29728.0,753.0247081382931,580.1508225180248,1056.139653945866
278048.0,16142.0,278048.0,11991.0,278048.0,29740.0,754.3566574197678,579.0742173462043,1053.8367362318832
278048.0,16155.0,278048.0,11990.0,278048.0,29731.0,755.7203878382393,578.0646393356302,1051.7218564867926
278048.0,16150.0,278048.0,11977.0,278048.0,29720.0,757.1020123692088,577.1157838125721,1049.782785238075
278058.0,16144.0,278058.0,11967.0,278058.0,29710.0,758.487850571905,576.2214160130734,1048.0068662493356
278058.0,16156.0,278058.0,11965.0,278058.0,29721.0,759.8644105308665,575.3751357500711,1046.3808227899822
278058.0,16157.0,278058.0,11980.0,278058.0,29730.0,761.2183548479966,574.570179095607,1044.8906786101263
278058.0,16161.0,278058.0,11990.0,278058.0,29729.0,762.536558377794,573.7994434685719,1043.52189725951
278058.0,16168.0,278058.0,12000.0,278058.0,29733.0,763.8062075430676,573.0557484879834,1042.259594492583
278058.0,16172.0,278058.0,11975.0,278058.0,29734.0,765.0149032030638,572.3321183042654,1041.0886866135938
278069.0,16163.0,278069.0,11982.0,278069.0,29718.0,766.1507533202248,571.6218387437476,1039.9939529790745
278069.0,16163.0,278069.0,11969.0,278069.0,29745.0,767.2023748762518,570.9182975853622,1038.9600293330002
278069.0,16163.0,278069.0,11986.0,278069.0,29745.0,768.1587953028273,570.2148287722339,1037.9714721015248
278069.0,16174.0,278069.0,11989.0,278069.0,29736.0,769.0093772418094,569.5047165990686,1037.0129629478993
278069.0,16167.0,278069.0,11987.0,278069.0,29739.0,769.743845914592,568.7813439005251,1036.06944968851
278069.0,16165.0,278069.0,11973.0,278069.0,29739.0,770.3523364714727,568.0383083924498,1035.1261370427137
278079.0,16156.0,278079.0,11964.0,278079.0,29731.0,770.8253422530901,567.2693394099834,1034.1684551954281
278079.0,16173.0,278079.0,11969.0,278079.0,29740.0,771.1536007095035,566.4680698901639,1033.182041053124
278079.0,16169.0,278079.0,12013.0,278079.0,29740.0,771.328071086587,565.6279552179384,1032.1527427817282
278079.0,16183.0,278079.0,11984.0,278079.0,29746.0,771.3400527474148,564.7425475834203,1031.0667007058291
278079.0,16179.0,278079.0,11976.0,278079.0,29744.0,771.1813594224745,563.8058204775801,1029.9104746683258
278079.0,16170.0,278079.0,11975.0,278079.0,29726.0,770.8444444334207,562.812136764318,1028.6711110389747
278089.0,16170.0,278089.0,11974.0,278089.0,29735.0,770.3223941800629,561.7560183722939,1027.33607087917
278089.0,16171.0,278089.0,11984.0,278089.0,29732.0,769.6088326311501,560.6320476552091,1025.8931087243643
278089.0,16174.0,278089.0,11989.0,278089.0,29754.0,768.6978766782443,559.4349491671294,1024.3302905941619
278089.0,16177.0,278089.0,11983.0,278089.0,29749.0,767.5841891033506,558.1597589353471,1022.6362042402626
278089.0,16167.0,278089.0,11983.0,278089.0,29731.0,766.2630625659524,556.8019478331637,1020.8001899981048
278089.0,16151.0,278089.0,11956.0,278089.0,29724.0,764.73041133326,555.3573899299806,1018.8123436899549
278100.0,16156.0,278100.0,11971.0,278100.0,29727.0,762.9826101933016,553.8221739408815,1016.6633081118057
278100.0,16159.0,278100.0,11978.0,278100.0,29720.0,761.016328414233,552.1924400441919,1014.3441043647023
278100.0,16170.0,278100.0,11985.0,278100.0,29724.0,758.8285511198679,550.4644587312315,1011.846094400291
278100.0,16162.0,278100.0,11990.0,278100.0,29738.0,756.4167679499424,548.6348971704718,1009.1610406663433
278100.0,16147.0,278100.0,11958.0,278100.0,29718.0,753.7791247036967,546.7010182145053,1006.2812570570966
278100.0,16144.0,278100.0,11955.0,278100.0,29707.0,750.9143801947059,544.6606016878902,1003.1996996522803
278110.0,16137.0,278110.0,11951.0,278110.0,29717.0,747.8217371815671,542.511636613083,999.9098699960037
278110.0,16139.0,278110.0,11967.0,278110.0,29696.0,744.50071740636,540.2520981238714,996.405686967524
278110.0,16144.0,278110.0,11955.0,278110.0,29708.0,740.9511576672863,537.8799811481687,992.6814407808248
278110.0,16128.0,278110.0,11962.0,278110.0,29701.0,737.1732965833763,535.3934431932898,988.7317949047149
278110.0,16129.0,278110.0,11942.0,278110.0,29697.0,733.1678346780608,532.7908701139637,984.5518401327088
278110.0,16122.0,278110.0,11941.0,278110.0,29684.0,728.9359111070509,530.0708102800438,980.1371362130437
278120.0,16115.0,278120.0,11942.0,278120.0,29679.0,724.4790658117948,527.2318399303541,975.4836541747023
278120.0,16122.0,278120.0,11957.0,278120.0,29675.0,719.7992356288282,524.2725277275081,970.5876700836211
278120.0,16105.0,278120.0,11944.0,278120.0,29684.0,714.8987923976492,521.1915835542136,965.4457317802029
278120.0,16092.0,278120.0,11939.0,278120.0,29681.0,709.7805562192043,517.9880256495155,960.0547735930045
278120.0,16088.0,278120.0,11929.0,278120.0,29658.0,704.4476886714821,514.6611839889665,954.4122840211817
278120.0,16074.0,278120.0,11929.0,278120.0,29652.0,698.9035286249168,511.21058648385224,948.5163160136666
278131.0,16074.0,278131.0,11941.0,278131.0,29649.0,693.1514757880437,507.6359020595975,942.3653358754657
278131.0,16076.0,278131.0,11935.0,278131.0,29646.0,687.194958301207,503.9370458602859,935.958125375656
278131.0,16073.0,278131.0,11923.0,278131.0,29639.0,681.0375206929017,500.11434742495203,929.2938180528249
278131.0,16059.0,278131.0,11926.0,278131.0,29650.0,674.6829733962948,496.16860374783147,922.372007018645
278131.0,16053.0,278131.0,11903.0,278131.0,29630.0,668.1354600231552,492.10101113801625,915.1929020213595
278131.0,16036.0,278131.0,11888.0,278131.0,29611.0,661.3994038176714,487.9130041836319,907.7574325673761
278141.0,16038.0,278141.0,11906.0,278141.0,29602.0,654.4794080311672,483.60602404320383,900.067149358457
278141.0,16023.0,278141.0,11903.0,278141.0,29603.0,647.3801910214985,479.1814325556694,892.1240332921496
278141.0,16018.0,278141.0,11913.0,278141.0,29592.0,640.1065680685133,474.6406996150706,883.9304366057627
278141.0,16017.0,278141.0,11865.0,278141.0,29574.0,632.6634534421937,469.9856107977945,875.489125741094
278141.0,15998.0,278141.0,11876.0,278141.0,29566.0,625.0558866120434,465.21818353896157,866.8032518108295
278141.0,15987.0,278141.0,11866.0,278141.0,29560.0,617.289029819017,460.34038084238546,857.8762526209591
278152.0,15989.0,278152.0,11873.0,278152.0,29543.0,609.3680963698444,455.35396649076074,848.7117974483793
278152.0,15979.0,278152.0,11876.0,278152.0,29552.0,601.2983248359453,450.2605988304871,839.3137946963635
278152.0,15979.0,278152.0,11878.0,278152.0,29526.0,593.0850677914433,445.0620497428992,829.686450162588
278152.0,15962.0,278152.0,11859.0,278152.0,29508.0,584.7339078969582,439.760423272861,819.8342968637423
278152.0,15939.0,278152.0,11843.0,278152.0,29500.0,576.2506797287685,434.35820386044065,809.7620809247952
278152.0,15944.0,278152.0,11835.0,278152.0,29498.0,567.6413546713753,428.8580774408583,799.4746146873853
278162.0,15930.0,278162.0,11851.0,278162.0,29488.0,558.9119283188027,423.262733774259,788.9767850863429
278162.0,15922.0,278162.0,11840.0,278162.0,29488.0,550.0684275648184,417.5748907399416,778.2736948732258
278162.0,15908.0,278162.0,11824.0,278162.0,29461.0,541.1169420705594,411.7974555097022,767.3708090288017
278162.0,15898.0,278162.0,11806.0,278162.0,29440.0,532.0635949151751,405.9335270466063,756.2739706043374
278162.0,15879.0,278162.0,11817.0,278162.0,29423.0,522.9144684192449,399.98621352451164,744.9892170041945
278162.0,15891.0,278162.0,11798.0,278162.0,29418.0,513.6755355331597,393.9585074129673,733.5225341308798
278172.0,15865.0,278172.0,11798.0,278172.0,29416.0,504.3526795632711,387.8532849086303,721.8797627090885
278172.0,15865.0,278172.0,11798.0,278172.0,29406.0,494.95177370687304,381.6733284287368,710.0667092082217
278172.0,15843.0,278172.0,11779.0,278172.0,29373.0,485.4787008024583,375.4213599284203,698.0892932004977
278172.0,15823.0,278172.0,11762.0,278172.0,29364.0,475.93927262731086,369.10002019030264,685.9535144234549
278172.0,15814.0,278172.0,11759.0,278172.0,29350.0,466.33905664470075,362.7117029293738,673.6652717302615
278172.0,15816.0,278172.0,11761.0,278172.0,29334.0,456.68321524444764,356.2583852870591,661.2302320547691
278183.0,15817.0,278183.0,11769.0,278183.0,29329.0,446.9765394290967,349.7416610549235,648.6537977666417
278183.0,15788.0,278183.0,11758.0,278183.0,29323.0,437.2236423715435,343.16296441867337,635.9411499680484
278183.0,15789.0,278183.0,11746.0,278183.0,29297.0,427.4290718617256,336.5237817943135,623.0973554093417
278183.0,15773.0,278183.0,11743.0,278183.0,29284.0,417.5972828002541,329.8257039736788,610.1274154272405
278183.0,15766.0,278183.0,11730.0,278183.0,29270.0,407.7326112479068,323.07037923884667,597.0361940009384
278183.0,15744.0,278183.0,11733.0,278183.0,29275.0,397.83926809692696,316.2594827431363,583.8283745146358
278193.0,15735.0,278193.0,11728.0,278193.0,29248.0,387.9212712721554,309.39475067206683,570.5085624395177
278193.0,15740.0,278193.0,11709.0,278193.0,29248.0,377.9823689394278,302.4780548423831,557.0814366392063
278193.0,15719.0,278193.0,11714.0,278193.0,29220.0,368.02607905838596,295.5114266123912,543.5518297436529
278193.0,15710.0,278193.0,11683.0,278193.0,29204.0,358.0557884903876,288.4970017080557,529.9247171966497
278193.0,15696.0,278193.0,11691.0,278193.0,29199.0,348.07476381201053,281.4369162528686,516.2051431474083
278193.0,15698.0,278193.0,11700.0,278193.0,29190.0,338.08611824210647,274.3332510689924,502.3982044436028
278203.0,15676.0,278203.0,11675.0,278203.0,29171.0,328.09284385349355,267.1881476246212,488.50915933978
278203.0,15672.0,278203.0,11670.0,278203.0,29152.0,318.0978644427726,260.00394580149015,474.54352313747324
278203.0,15654.0,278203.0,11654.0,278203.0,29126.0,308.1040340797801,252.78313699045594,460.5070210631378
278203.0,15641.0,278203.0,11643.0,278203.0,29108.0,298.1140893331294,245.5282093380984,446.4054143904333
278203.0,15637.0,278203.0,11647.0,278203.0,29099.0,288.1305874556952,238.2415246989147,432.24430687544884
278203.0,15624.0,278203.0,11638.0,278203.0,29079.0,278.1558830549372,230.92530411243024,418.0290446436593
278214.0,15626.0,278214.0,11645.0,278214.0,29083.0,268.19218363595223,223.58174196320573,403.76473767530297
278214.0,15613.0,278214.0,11624.0,278214.0,29064.0,258.24166977036293,216.2131677990459,389.4563865209807
278214.0,15597.0,278214.0,11597.0,278214.0,29047.0,248.30661505532396,208.82208978715562,375.10904931609434
278214.0,15572.0,278214.0,11594.0,278214.0,29017.0,238.38938436406795,201.41100235452285,360.72789309904806
278214.0,15566.0,278214.0,11582.0,278214.0,29007.0,228.49226983649226,193.98210363815843,346.31806855230366
278214.0,15574.0,278214.0,11602.0,278214.0,29005.0,218.61734464160827,186.53719181868718,331.88457596286935
278224.0,15559.0,278224.0,11589.0,278224.0,28988.0,208.76653478279525,179.07782728412576,317.43230841313846
278224.0,15531.0,278224.0,11576.0,278224.0,28958.0,198.9417834040387,171.60559259274652,302.9661809673461
278224.0,15519.0,278224.0,11561.0,278224.0,28952.0,189.14501409129036,164.1221891196305,288.49112712780857
278224.0,15512.0,278224.0,11546.0,278224.0,28936.0,179.37791738717215,156.62931569121275,274.01200691791075
278224.0,15520.0,278224.0,11551.0,278224.0,28929.0,169.64184984585359,149.1284971191535,259.53360856145264
278224.0,15502.0,278224.0,11563.0,278224.0,28905.0,159.93796496955417,141.62107304349536,245.0607355007637
278234.0,15493.0,278234.0,11537.0,278234.0,28895.0,150.26740598566448,134.10840572035568,230.59826121679066
278234.0,15481.0,278234.0,11517.0,278234.0,28872.0,140.63138031043445,126.59203957566456,216.15111728647548
278234.0,15465.0,278234.0,11520.0,278234.0,28850.0,131.0311298230223,119.07359189159695,201.7242286800241
278234.0,15459.0,278234.0,11504.0,278234.0,28830.0,121.46787178432783,111.55457087372605,187.32238196829667
278234.0,15449.0,278234.0,11529.0,278234.0,28836.0,111.94275690261202,104.03637400945018,172.95009710685667
278234.0,15437.0,278234.0,11520.0,278234.0,28818.0,102.45687283499217,96.52051725842847,158.61166655836053
278245.0,15431.0,278245.0,11498.0,278245.0,28813.0,93.01126677541504,89.00895336389385,144.31135957705328
278245.0,15416.0,278245.0,11472.0,278245.0,28775.0,83.60696078140973,81.50415745876978,130.0535871134449
278245.0,15400.0,278245.0,11465.0,278245.0,28754.0,74.24493956440256,74.00886859530192,115.84284910691429
278245.0,15393.0,278245.0,11471.0,278245.0,28746.0,64.9260823749022,66.5257886510318,101.68350044533167
278245.0,15396.0,278245.0,11464.0,278245.0,28737.0,55.6511138247721,59.0575319612733,87.57958435970602
278245.0,15382.0,278245.0,11464.0,278245.0,28731.0,46.4206828949043,51.6067871380518,73.53489095893246
278255.0,15382.0,278255.0,11437.0,278255.0,28717.0,37.23552355440029,44.1764663541386,59.553149700437416
278255.0,15343.0,278255.0,11417.0,278255.0,28676.0,28.09654113841134,36.76965581900356,45.638155318793224
278255.0,15351.0,278255.0,11400.0,278255.0,28660.0,19.004729341506163,29.389330923495095,31.793648997964283
278255.0,15337.0,278255.0,11418.0,278255.0,28658.0,9.961027074455956,22.03804642006901,18.023041679927246
278255.0,15332.0,278255.0,11406.0,278255.0,28647.0,0.966297283968288,14.717886886358087,4.329299132536789
278255.0,15322.0,278255.0,11416.0,278255.0,28635.0,-7.978598606927903,7.430681434560256,-9.2849324131289
278265.0,15298.0,278265.0,11384.0,278265.0,28613.0,-16.872770306506027,0.17823570081202433,-22.817176695756416
278265.0,15294.0,278265.0,11391.0,278265.0,28586.0,-25.715375077175963,-7.037603108418466,-36.26512805944799
278265.0,15282.0,278265.0,11373.0,278265.0,28575.0,-34.50574231775033,-14.215009725154914,-49.626810472462466
278265.0,15280.0,278265.0,11357.0,278265.0,28579.0,-43.24342491222683,-21.352265689461092,-62.90072299201029
278265.0,15276.0,278265.0,11361.0,278265.0,28548.0,-51.928138919606,-28.447861593069547,-76.08580377491216
278265.0,15259.0,278265.0,11350.0,278265.0,28543.0,-60.55965031165317,-35.5005681852449,-89.18132601632465
278276.0,15247.0,278276.0,11337.0,278276.0,28527.0,-69.13771805356714,-42.509425799022665,-102.18687965953916
278276.0,15234.0,278276.0,11330.0,278276.0,28528.0,-77.6621542512114,-49.473755349721614,-115.10234783971157
278276.0,15224.0,278276.0,11327.0,278276.0,28507.0,-86.13293661719365,-56.39321927149831,-127.92778701399777
278276.0,15229.0,278276.0,11331.0,278276.0,28498.0,-94.55026600784583,-63.26781099372511,-140.66329376136423
278276.0,15228.0,278276.0,11337.0,278276.0,28489.0,-102.91447796817556,-70.09769202325356,-153.30892908741862
278276.0,15214.0,278276.0,11316.0,278276.0,28463.0,-111.22582649710807,-76.8829393731553,-165.86467797731484
278286.0,15195.0,278286.0,11300.0,278286.0,28455.0,-119.48433025771362,-83.62341380503392,-178.33046039049214
278286.0,15171.0,278286.0,11282.0,278286.0,28438.0,-127.68984717436524,-90.31889054674957,-190.70619977429135
278286.0,15182.0,278286.0,11293.0,278286.0,28427.0,-135.8422984945597,-96.96930273690543,-202.99187422633997
278286.0,15176.0,278286.0,11294.0,278286.0,28415.0,-143.9417731678102,-103.5748102365925,-215.18752198117488
278286.0,15161.0,278286.0,11288.0,278286.0,28405.0,-151.98841540870887,-110.13561893541066,-227.29321741674858
278286.0,15159.0,278286.0,11277.0,278286.0,28384.0,-159.98229376992686,-116.65175899396718,-239.30903782252017
