c_ts,c_val,d_ts,d_val,e_ts,e_val,c_val_filtered,d_val_filtered,e_val_filtered
34867.0,7201.0,34867.0,12264.0,34867.0,29686.0,-1186.9835242594986,-396.3375342707409,-760.8019396546596
34867.0,7237.0,34867.0,12228.0,34867.0,29711.0,-1145.4253567662279,-375.82529191357037,-723.7985997314433
34867.0,7261.0,34867.0,12224.0,34867.0,29725.0,-1102.4394181601392,-354.7354246785859,-685.6365608327693
34867.0,7331.0,34867.0,12306.0,34867.0,29774.0,-1058.0812238177004,-333.09153047175914,-646.3601754218826
34878.0,7396.0,34878.0,12332.0,34878.0,29839.0,-1012.410720506616,-310.92018467112956,-606.0174502514393
34878.0,7474.0,34878.0,12379.0,34878.0,29911.0,-965.4921697335296,-288.2505056777705,-564.6600023404726
34878.0,7538.0,34878.0,12397.0,34878.0,29961.0,-917.3937092905161,-265.1135450005769,-522.3425814724303
34878.0,7594.0,34878.0,12406.0,34878.0,30002.0,-868.1868742357767,-241.5419704364416,-479.1225359744543
34878.0,7687.0,34878.0,12459.0,34878.0,30065.0,-817.9462208072455,-217.57004336461944,-435.0595154657251
34878.0,7780.0,34878.0,12567.0,34878.0,30185.0,-766.7488708398217,-193.23344387848152,-390.21518205929976
34888.0,7856.0,34888.0,12623.0,34888.0,30251.0,-714.6737678522584,-168.56836588803327,-344.65244644047675
34888.0,7900.0,34888.0,12611.0,34888.0,30268.0,-661.8008831296604,-143.6101765085332,-298.434413009334
34888.0,7959.0,34888.0,12581.0,34888.0,30318.0,-608.210810416035,-118.3927698304762,-251.62382737412736
34888.0,8020.0,34888.0,12578.0,34888.0,30356.0,-553.9847870983683,-92.94915628397672,-204.28321842780144
34888.0,8082.0,34888.0,12626.0,34888.0,30413.0,-499.2048316597302,-67.31261259267262,-156.47522299155435
34888.0,8140.0,34888.0,12663.0,34888.0,30451.0,-443.95382072051325,-41.51740365771741,-108.26278945485728
34898.0,8257.0,34898.0,12723.0,34898.0,30495.0,-388.3154382425712,-15.598751485459616,-59.70933729606759
34898.0,8300.0,34898.0,12762.0,34898.0,30572.0,-332.3738484971366,10.40766866010972,-10.878914955231721
34898.0,8398.0,34898.0,12741.0,34898.0,30619.0,-276.2131831726706,36.46623044696173,38.16379575980227
34898.0,8457.0,34898.0,12801.0,34898.0,30678.0,-219.91710095366943,62.54144329918108,87.35365914870818
34898.0,8535.0,34898.0,12867.0,34898.0,30795.0,-163.56844315165722,88.59785369108272,136.62538834108182
34898.0,8666.0,34898.0,12997.0,34898.0,30915.0,-107.24881066044895,114.60057964288501,185.9142890766318
34909.0,8720.0,34909.0,12992.0,34909.0,30915.0,-51.03784301404471,140.51669812196496,235.15752355481231
34909.0,8771.0,34909.0,12915.0,34909.0,30961.0,4.987592628177481,166.31638556679206,284.2950262447125
34909.0,8796.0,34909.0,12946.0,34909.0,30972.0,60.75367172525171,191.97258824533571,333.2694078854811
34909.0,8855.0,34909.0,12920.0,34909.0,31023.0,116.18919456786512,217.45961804580975,382.025254373394
34909.0,8923.0,34909.0,12989.0,34909.0,31093.0,171.22497462798833,242.75193941772602,430.50849833088716
34909.0,8987.0,34909.0,12986.0,34909.0,31182.0,225.79349879822053,267.82362186593184,478.6662861011898
34919.0,9107.0,34919.0,13073.0,34919.0,31190.0,279.82901355418016,292.64830908393856,526.4473277643438
34919.0,9170.0,34919.0,13085.0,34919.0,31230.0,333.26805744787634,317.1995517699106,573.8021328728944
34919.0,9195.0,34919.0,13099.0,34919.0,31310.0,386.05013850682394,341.45124796759876,620.6828077568387
34919.0,9265.0,34919.0,13157.0,34919.0,31367.0,438.11796767135,365.3778700173905,667.0429158670829
34919.0,9384.0,34919.0,13241.0,34919.0,31433.0,489.4173676096268,388.9547096657154,712.8377669857068
34919.0,9438.0,34919.0,13301.0,34919.0,31512.0,539.8975933810352,412.1586946310325,758.0249324167519
34929.0,9470.0,34929.0,13330.0,34929.0,31569.0,589.5119898060022,434.96963575862196,802.564843921899
34929.0,9519.0,34929.0,13254.0,34929.0,31558.0,638.2182303194891,457.3710312557215,846.4212814746702
34929.0,9549.0,34929.0,13243.0,34929.0,31583.0,685.9779890706504,479.349647502841,889.5612613787785
34929.0,9601.0,34929.0,13269.0,34929.0,31651.0,732.756430134142,500.894140068257,931.954348194658
34929.0,9647.0,34929.0,13290.0,34929.0,31669.0,778.5217559126768,521.9938547260199,973.5720796208441
34929.0,9730.0,34929.0,13346.0,34929.0,31741.0,823.2449615824173,542.6384362166494,1014.3877967467645
34940.0,9832.0,34940.0,13422.0,34940.0,31765.0,866.9000273265351,562.8181459448534,1054.376653955074
34940.0,9815.0,34940.0,13348.0,34940.0,31829.0,909.4645027574034,582.5245125400097,1093.5156858989014
34940.0,9841.0,34940.0,13379.0,34940.0,31876.0,950.9197679790095,601.7505121783944,1131.7839445080647
34940.0,9915.0,34940.0,13460.0,34940.0,31977.0,991.2505591862982,620.4901271651322,1169.16284236199
34940.0,9998.0,34940.0,13476.0,34940.0,32005.0,1030.4445344998303,638.7382948664558,1205.636834651038
34940.0,10065.0,34940.0,13545.0,34940.0,32045.0,1068.4926070558977,656.4916074113983,1241.194163077821
34950.0,10074.0,34950.0,13523.0,34950.0,32005.0,1105.3896531571881,673.7491005688496,1275.8270813951044
34950.0,10082.0,34950.0,13453.0,34950.0,32053.0,1141.134762010293,690.5124438426376,1309.5313059550422
34950.0,10094.0,34950.0,13466.0,34950.0,32066.0,1175.7307074760188,706.7851189814821,1342.3051165151678
34950.0,10121.0,34950.0,13494.0,34950.0,32056.0,1209.1830061462833,722.5711049353208,1374.1486032695532
34950.0,10150.0,34950.0,13525.0,34950.0,32144.0,1241.4990615368456,737.8741417333958,1405.0630824417285
34950.0,10222.0,34950.0,13520.0,34950.0,32139.0,1272.6876613689888,752.6977188779335,1435.0507634253577
34960.0,10255.0,34960.0,13536.0,34960.0,32172.0,1302.7589349738105,767.0451567411337,1464.1147038699078
34960.0,10287.0,34960.0,13577.0,34960.0,32202.0,1331.7245985294048,780.9195420581716,1492.2587146896312
34960.0,10329.0,34960.0,13604.0,34960.0,32287.0,1359.5981275886347,794.3238229929609,1519.4872897830355
34960.0,10395.0,34960.0,13652.0,34960.0,32320.0,1386.3948545004246,807.2612498597857,1545.8059893730233
34960.0,10439.0,34960.0,13726.0,34960.0,32382.0,1412.1322857560476,819.7361290229323,1571.222212065115
34960.0,10439.0,34960.0,13667.0,34960.0,32362.0,1436.830557819345,831.7547259406947,1595.7458737969514
34971.0,10456.0,34971.0,13632.0,34971.0,32319.0,1460.5125532812272,843.3256129548338,1619.389449059695
34971.0,10452.0,34971.0,13613.0,34971.0,32314.0,1483.203482417547,854.4588970075094,1642.1670664738745
34971.0,10462.0,34971.0,13634.0,34971.0,32383.0,1504.930162150501,865.1649402064554,1664.0932067610056
34971.0,10473.0,34971.0,13642.0,34971.0,32401.0,1525.7202364853774,875.4535119339275,1685.1820347703438
34971.0,10516.0,34971.0,13656.0,34971.0,32418.0,1545.6015358981667,885.3335259826729,1705.4475047451756
34971.0,10528.0,34971.0,13722.0,34971.0,32435.0,1564.60174681229,894.8131438505538,1724.9035422211336
34981.0,10565.0,34981.0,13669.0,34981.0,32477.0,1582.748335636747,903.9001204611557,1743.564028908625
34981.0,10562.0,34981.0,13698.0,34981.0,32492.0,1600.0685079185791,912.6020196826571,1761.4428511731353
34981.0,10630.0,34981.0,13766.0,34981.0,32544.0,1616.5891329229848,920.9261739242327,1778.5541330918404
34981.0,10692.0,34981.0,13834.0,34981.0,32595.0,1632.336912040379,928.8801100312353,1794.9126678056437
34981.0,10699.0,34981.0,13816.0,34981.0,32593.0,1647.3390026442662,936.4727103908028,1810.5345406375686
34981.0,10690.0,34981.0,13781.0,34981.0,32577.0,1661.623610844234,943.7151376110883,1825.4375529200402
34991.0,10663.0,34991.0,13716.0,34991.0,32577.0,1675.2198702647156,950.6206077609638,1839.6410129370447
34991.0,10684.0,34991.0,13695.0,34991.0,32583.0,1688.157044396139,957.2031190719329,1853.1650917372785
34991.0,10691.0,34991.0,13719.0,34991.0,32552.0,1700.463652635397,963.4759633927711,1866.0301499738648
34991.0,10693.0,34991.0,13710.0,34991.0,32559.0,1712.1668995458567,969.4508031440369,1878.256039181868
34991.0,10756.0,34991.0,13759.0,34991.0,32610.0,1723.292390240401,975.1374509719597,1889.861453752084
34991.0,10739.0,34991.0,13766.0,34991.0,32615.0,1733.8641208999416,980.5440967440813,1900.8637417628238
35001.0,10770.0,35001.0,13766.0,35001.0,32624.0,1743.9046100412152,985.677718486812,1911.2791396700352
35001.0,10796.0,35001.0,13785.0,35001.0,32616.0,1753.4349390596158,990.5443774879407,1921.1229000855799
35001.0,10862.0,35001.0,13849.0,35001.0,32679.0,1762.4749097656854,995.1494600711162,1930.4092109362484
35001.0,10871.0,35001.0,13870.0,35001.0,32704.0,1771.043593460679,999.4982948700153,1939.1513648969344
35001.0,10875.0,35001.0,13878.0,35001.0,32721.0,1779.1599673523856,1003.5970907807227,1947.3623567270342
35001.0,10842.0,35001.0,13743.0,35001.0,32647.0,1786.8430730769396,1007.453369736336,1955.0553292960622
35011.0,10832.0,35011.0,13786.0,35011.0,32679.0,1794.1114963695286,1011.0751959208395,1962.2432546934706
35011.0,10853.0,35011.0,13758.0,35011.0,32661.0,1800.982505240886,1014.4697819967109,1968.9381434442823
35011.0,10865.0,35011.0,13758.0,35011.0,32699.0,1807.4714046202785,1017.6425628863612,1975.1505140088414
35011.0,10910.0,35011.0,13808.0,35011.0,32699.0,1813.5913861936929,1020.5968947403228,1980.8893225377703
35011.0,10905.0,35011.0,13806.0,35011.0,32666.0,1819.3537454571087,1023.3341866717315,1986.1620247074713
35011.0,10914.0,35011.0,13798.0,35011.0,32704.0,1824.768125578159,1025.8542971814145,1990.9744212729022
35021.0,10924.0,35021.0,13807.0,35021.0,32694.0,1829.842530692331,1028.1557540566464,1995.3304024541967
35021.0,10924.0,35021.0,13870.0,35021.0,32760.0,1834.583171061999,1030.235836197287,1999.2319916712343
35021.0,11015.0,35021.0,13960.0,35021.0,32829.0,1838.9944474504923,1032.0912075008168,2002.679951585175
35021.0,11028.0,35021.0,13920.0,35021.0,32793.0,1843.079440806438,1033.7192951381678,2005.6748957121956
35021.0,11010.0,35021.0,13897.0,35021.0,32783.0,1846.840745217487,1035.11945712035,2008.2181729902632
35021.0,10996.0,35021.0,13808.0,35021.0,32748.0,1850.2808385918493,1036.2929111811136,2010.3118311385253
35032.0,10977.0,35032.0,13808.0,35032.0,32746.0,1853.4016631433083,1037.2415261848798,2011.9579319701295
35032.0,10991.0,35032.0,13788.0,35032.0,32717.0,1856.2038830871506,1037.9663745663918,2013.157789291423
35032.0,11028.0,35032.0,13808.0,35032.0,32801.0,1858.6863760199453,1038.4667925135564,2013.9114834848776
35032.0,11029.0,35032.0,13861.0,35032.0,32753.0,1860.8462170091957,1038.7401826254277,2014.2179279683226
35032.0,11049.0,35032.0,13874.0,35032.0,32751.0,1862.6789571117297,1038.7825145505308,2014.0751961171327
35032.0,11052.0,35032.0,13856.0,35032.0,32754.0,1864.1788483391133,1038.5891310848856,2013.4805035952988
35042.0,11073.0,35042.0,13859.0,35042.0,32775.0,1865.3389646229862,1038.1552163112997,2012.4300019865316
35042.0,11126.0,35042.0,13943.0,35042.0,32872.0,1866.151419315946,1037.4759724701385,2010.919053668002
35042.0,11147.0,35042.0,13963.0,35042.0,32846.0,1866.6079081320513,1036.5472544864942,2008.9432410128074
35042.0,11134.0,35042.0,13939.0,35042.0,32827.0,1866.7004361190134,1035.3666967034746,2006.4994887811602
35042.0,11139.0,35042.0,13891.0,35042.0,32805.0,1866.4217250216664,1033.9343646089646,2003.5864114222763
35042.0,11113.0,35042.0,13866.0,35042.0,32792.0,1865.7651090417462,1032.2523791524497,2000.203913715666
35052.0,11142.0,35052.0,13839.0,35052.0,32778.0,1864.7241823172137,1030.3239548246672,1996.3526498930414
35052.0,11138.0,35052.0,13843.0,35052.0,32756.0,1863.2925383291124,1028.1524889149096,1992.0335739812617
35052.0,11156.0,35052.0,13856.0,35052.0,32798.0,1861.4637532296522,1025.7410418402335,1987.2476258763324
35052.0,11167.0,35052.0,13810.0,35052.0,32780.0,1859.2315283078249,1023.0921861854904,1981.995743353212
35052.0,11164.0,35052.0,13840.0,35052.0,32763.0,1856.589872403808,1020.2078965189302,1976.2791170112266
35052.0,11173.0,35052.0,13867.0,35052.0,32779.0,1853.5332354341826,1017.0894758555951,1970.0993096903226
35063.0,11189.0,35063.0,13881.0,35063.0,32796.0,1850.0565851288434,1013.7379032106268,1963.4583172204696
35063.0,11258.0,35063.0,13955.0,35063.0,32816.0,1846.1556801248018,1010.1546649305194,1956.3589468634557
35063.0,11245.0,35063.0,13911.0,35063.0,32820.0,1841.8277743286017,1006.3428127479411,1948.8054850464084
35063.0,11212.0,35063.0,13888.0,35063.0,32770.0,1837.0723560310846,1002.3077344751974,1940.804253593792
35063.0,11178.0,35063.0,13811.0,35063.0,32771.0,1831.891185226921,998.0570199965442,1932.3636799267908
35063.0,11194.0,35063.0,13787.0,35063.0,32738.0,1826.2876392767773,993.5994264353218,1923.493947807985
35073.0,11198.0,35073.0,13798.0,35073.0,32684.0,1820.2661136155646,988.9436262795019,1914.2064954944292
35073.0,11174.0,35073.0,13807.0,35073.0,32704.0,1813.8318416769148,984.0974910207846,1904.513399429251
35073.0,11185.0,35073.0,13805.0,35073.0,32713.0,1806.9908303421,979.0680881246703,1894.4269223838646
35073.0,11189.0,35073.0,13770.0,35073.0,32670.0,1799.7497427806197,973.8618952700649,1883.9595413658337
35073.0,11207.0,35073.0,13773.0,35073.0,32683.0,1792.1159409816453,968.4847520090789,1873.124104795408
35073.0,11180.0,35073.0,13843.0,35073.0,32678.0,1784.0977059760264,962.9417671985966,1861.9338493926577
35083.0,11215.0,35083.0,13856.0,35083.0,32710.0,1775.7044169497376,957.2378316253714,1850.4025961048505
35083.0,11226.0,35083.0,13866.0,35083.0,32714.0,1766.9467496914453,951.3787235091796,1838.5453310609787
35083.0,11210.0,35083.0,13857.0,35083.0,32668.0,1757.837055966146,945.3720842461773,1826.3788877787101
35083.0,11185.0,35083.0,13814.0,35083.0,32645.0,1748.3896381233233,939.2278149278145,1813.9222059888757
35083.0,11152.0,35083.0,13729.0,35083.0,32570.0,1738.6205502236403,932.9577476751597,1801.1959236845264
35083.0,11143.0,35083.0,13724.0,35083.0,32561.0,1728.5470183169252,926.5745712366911,1788.2215102296454
35094.0,11144.0,35094.0,13702.0,35094.0,32530.0,1718.186861843087,920.0905508128026,1775.0203527092096
35094.0,11142.0,35094.0,13756.0,35094.0,32532.0,1707.5582090466928,913.5168309614199,1761.613167201818
35094.0,11139.0,35094.0,13724.0,35094.0,32541.0,1696.6794957163079,906.863539758989,1748.0198617853848
35094.0,11130.0,35094.0,13711.0,35094.0,32499.0,1685.5695463169518,900.1401859048691,1734.2597170430777
35094.0,11110.0,35094.0,13709.0,35094.0,32488.0,1674.2475770466565,893.355771679381,1720.3515312973982
35094.0,11124.0,35094.0,13770.0,35094.0,32506.0,1662.7330999723074,886.5188136976304,1706.3135862628974
35104.0,11137.0,35104.0,13802.0,35104.0,32529.0,1651.045923925006,879.6379308945436,1692.1638412971556
35104.0,11130.0,35104.0,13763.0,35104.0,32542.0,1639.2064255631697,872.7229488631675,1677.9206531390578
35104.0,11108.0,35104.0,13737.0,35104.0,32463.0,1627.235875446585,865.7856379145348,1663.6035915157308
35104.0,11035.0,35104.0,13641.0,35104.0,32404.0,1615.1563631244605,858.8394470622884,1649.2335324339956
35104.0,11048.0,35104.0,13632.0,35104.0,32384.0,1602.99014246546,851.8983731905649,1634.8318079368746
35104.0,11028.0,35104.0,13612.0,35104.0,32354.0,1590.7588295987603,844.9756247150252,1620.4191321008109
35115.0,11038.0,35115.0,13648.0,35115.0,32382.0,1578.4829991596712,838.082826051661,1606.0150149430403
35115.0,11022.0,35115.0,13600.0,35115.0,32357.0,1566.1821660052228,831.2299344930032,1591.6377748808516
35115.0,11027.0,35115.0,13640.0,35115.0,32320.0,1553.8748724638326,824.4254218779114,1577.3048010328635
35115.0,11002.0,35115.0,13572.0,35115.0,32311.0,1541.5787469222287,817.6763605099319,1563.0325810989916
35115.0,11016.0,35115.0,13602.0,35115.0,32301.0,1529.3105048172933,810.9883341236796,1548.8364962781804
35115.0,11030.0,35115.0,13662.0,35115.0,32338.0,1517.086018956094,804.365432705167,1534.730838025523
35125.0,11051.0,35125.0,13747.0,35125.0,32332.0,1504.920677182377,797.8110332098931,1520.729307206987
35125.0,11024.0,35125.0,13654.0,35125.0,32307.0,1492.8299540170628,791.3293599619265,1506.8457442404651
35125.0,11021.0,35125.0,13636.0,35125.0,32207.0,1480.8298051910404,784.926499073079,1493.0944077782433
35125.0,10969.0,35125.0,13549.0,35125.0,32222.0,1468.9366295766654,778.609980346264,1479.4893926888585
35125.0,10930.0,35125.0,13512.0,35125.0,32197.0,1457.1667757415855,772.3874202556485,1466.0437434028593
35125.0,10944.0,35125.0,13541.0,35125.0,32182.0,1445.5357605695733,766.2651101393445,1452.7690109491853
35135.0,10938.0,35135.0,13570.0,35135.0,32220.0,1434.0576830969671,760.2473366006643,1439.6752876682133
35135.0,10942.0,35135.0,13600.0,35135.0,32157.0,1422.7451426986022,754.3367678355136,1426.7714925704006
35135.0,10920.0,35135.0,13491.0,35135.0,32148.0,1411.6093940392184,748.5351994674643,1414.0655872622096
35135.0,10935.0,35135.0,13527.0,35135.0,32123.0,1400.660428753335,742.8436115129249,1401.5644145422286
35135.0,10923.0,35135.0,13568.0,35135.0,32164.0,1389.9070219381463,737.2617266444436,1389.2734811792143
35135.0,10970.0,35135.0,13620.0,35135.0,32195.0,1379.3569333631413,731.7882657352694,1377.1972877155579
35146.0,10957.0,35146.0,13584.0,35146.0,32152.0,1369.0173784599551,726.4220646090054,1365.3402030867794
35146.0,10918.0,35146.0,13562.0,35146.0,32161.0,1358.8955280126247,721.1629713590299,1353.7072201202916
35146.0,10897.0,35146.0,13524.0,35146.0,32088.0,1348.9985222855448,716.0118523903083,1342.3041141635147
35146.0,10866.0,35146.0,13510.0,35146.0,32027.0,1339.3329224555762,710.9699945531627,1331.1369682482132
35146.0,10847.0,35146.0,13468.0,35146.0,32030.0,1329.9039856528711,706.0383829671367,1320.211194126354
35146.0,10867.0,35146.0,13507.0,35146.0,32027.0,1320.715081130565,701.2171034193009,1309.5306399153365
35156.0,10910.0,35156.0,13462.0,35156.0,32006.0,1311.7675630996935,696.5050494231476,1299.0973143994854
35156.0,10882.0,35156.0,13488.0,35156.0,31993.0,1303.0612296386298,691.8998954883984,1288.9114445468153
35156.0,10866.0,35156.0,13460.0,35156.0,31990.0,1294.5948434858647,687.3981120056408,1278.9714735738182
35156.0,10872.0,35156.0,13507.0,35156.0,32015.0,1286.3661905743181,682.9950380090988,1269.2741290654267
35156.0,10871.0,35156.0,13524.0,35156.0,32041.0,1278.3719131186601,678.6852466789464,1259.814862728452
35156.0,10920.0,35156.0,13585.0,35156.0,32054.0,1270.607600994263,674.4633716940295,1250.588702348564
35166.0,10908.0,35166.0,13586.0,35166.0,32006.0,1263.068275078399,670.3252994819477,1241.591127530404
35166.0,10859.0,35166.0,13436.0,35166.0,31955.0,1255.748890326226,666.2690111284624,1232.818346064041
35166.0,10870.0,35166.0,13427.0,35166.0,31923.0,1248.6443042388023,662.2940520941045,1224.2667342834588
35166.0,10850.0,35166.0,13408.0,35166.0,31911.0,1241.7488201657713,658.3998908681916,1215.9319090212
35166.0,10872.0,35166.0,13456.0,35166.0,31909.0,1235.0558641575494,654.5846985433002,1207.8080586365159
35166.0,10861.0,35166.0,13434.0,35166.0,31926.0,1228.5579635226873,650.8452414521252,1199.8877781346348
35177.0,10863.0,35177.0,13416.0,35177.0,31886.0,1222.246859334917,647.1772312461612,1192.1622588106695
35177.0,10863.0,35177.0,13454.0,35177.0,31903.0,1216.1135912323462,643.5754909996172,1184.62147850356
35177.0,10847.0,35177.0,13430.0,35177.0,31916.0,1210.1485041807,640.0340649663385,1177.2543219090771
35177.0,10891.0,35177.0,13462.0,35177.0,31947.0,1204.3412564135733,636.5465089271299,1170.0489692295967
35177.0,10925.0,35177.0,13503.0,35177.0,31969.0,1198.6811040842,633.1063592901534,1162.99370528838
35177.0,10890.0,35177.0,13517.0,35177.0,31929.0,1193.157556047656,629.7079106606794,1156.0778277057675
35187.0,10882.0,35187.0,13491.0,35187.0,31887.0,1187.7608527091593,626.3471300602777,1149.2920736952851
35187.0,10862.0,35187.0,13392.0,35187.0,31846.0,1182.4818382198107,623.0219571695945,1142.6282399995087
35187.0,10845.0,35187.0,13353.0,35187.0,31822.0,1177.3114873937238,619.7314483660336,1136.0782977997662
35187.0,10830.0,35187.0,13381.0,35187.0,31824.0,1172.2403912042182,616.474276631948,1129.6335654653678
35187.0,10851.0,35187.0,13382.0,35187.0,31834.0,1167.2583225798774,613.2477753000289,1123.2843158206938
35187.0,10855.0,35187.0,13366.0,35187.0,31820.0,1162.3540811330506,610.047879840455,1117.019852616657
35197.0,10866.0,35197.0,13422.0,35197.0,31829.0,1157.515671792323,606.8694132802929,1110.8287792689466
35197.0,10879.0,35197.0,13375.0,35197.0,31791.0,1152.7306315159083,603.7064563461549,1104.6991829536591
35197.0,10878.0,35197.0,13402.0,35197.0,31786.0,1147.9863628075552,600.5527154703171,1098.6186049052537
35197.0,10899.0,35197.0,13446.0,35197.0,31819.0,1143.270444075372,597.4018220617475,1092.5739207448712
35197.0,10922.0,35197.0,13500.0,35197.0,31871.0,1138.5709819925662,594.2480003587153,1086.5516331185825
35197.0,10897.0,35197.0,13443.0,35197.0,31862.0,1133.877040657186,591.0871890517665,1080.5388280006418
35208.0,10880.0,35208.0,13331.0,35208.0,31795.0,1129.1788727029154,587.9175624942599,1074.524125233402
35208.0,10849.0,35208.0,13340.0,35208.0,31750.0,1124.4676653429149,584.7386198792593,1068.4976948223657
35208.0,10847.0,35208.0,13324.0,35208.0,31750.0,1119.7349453467689,581.5496580067841,1062.4503838716444
35208.0,10849.0,35208.0,13293.0,35208.0,31729.0,1114.9720257228787,578.3488115465098,1056.372840869934
35208.0,10887.0,35208.0,13355.0,35208.0,31778.0,1110.169814132026,575.1327255903627,1050.2552204594344
35208.0,10863.0,35208.0,13363.0,35208.0,31753.0,1105.3190440248593,571.8967330650852,1044.0874608960844
35218.0,10840.0,35218.0,13317.0,35218.0,31725.0,1100.410536192724,568.6354440177311,1037.859729769932
35218.0,10852.0,35218.0,13321.0,35218.0,31707.0,1095.4350883078598,565.3430669490017,1031.5624939235317
35218.0,10873.0,35218.0,13346.0,35218.0,31712.0,1090.3832517830715,562.0132741568485,1025.1862260229427
35218.0,10895.0,35218.0,13449.0,35218.0,31785.0,1085.2454940805092,558.6394571855772,1018.7213855565861
35218.0,10916.0,35218.0,13421.0,35218.0,31802.0,1080.0127649831866,555.2159007652494,1012.1591946576939
35218.0,10902.0,35218.0,13387.0,35218.0,31713.0,1074.6771433331187,551.7391044028758,1005.4927820403395
35228.0,10827.0,35228.0,13281.0,35228.0,31673.0,1069.2320950163803,548.2079950667687,998.7174891827015
35228.0,10869.0,35228.0,13278.0,35228.0,31645.0,1063.6720469834788,544.6227922743277,991.8299989879417
35228.0,10843.0,35228.0,13276.0,35228.0,31640.0,1057.9917490431912,540.9835233195234,984.827236199379
35228.0,10846.0,35228.0,13271.0,35228.0,31606.0,1052.186004420164,537.2891984823043,977.7057277492896
35228.0,10844.0,35228.0,13315.0,35228.0,31636.0,1046.2496275880785,533.5377636044998,970.4613381504755
35228.0,10836.0,35228.0,13280.0,35228.0,31606.0,1040.1773927706433,529.72647186686,963.0892646911258
35239.0,10851.0,35239.0,13280.0,35239.0,31592.0,1033.9640218445384,525.8522619894829,955.5841731631308
35239.0,10834.0,35239.0,13282.0,35239.0,31619.0,1027.604244189517,521.9118575935815,947.9402820201537
35239.0,10871.0,35239.0,13334.0,35239.0,31644.0,1021.0929326994036,517.9018711377375,940.151617738684
35239.0,10902.0,35239.0,13394.0,35239.0,31695.0,1014.4254557543619,513.8194791671915,932.2128179687313
35239.0,10851.0,35239.0,13315.0,35239.0,31661.0,1007.5982635244136,509.66357790541974,924.1203187289966
35239.0,10835.0,35239.0,13208.0,35239.0,31577.0,1000.6091866255279,505.4352657469637,915.8731405986927
35249.0,10803.0,35249.0,13187.0,35249.0,31556.0,993.4570566598326,501.13675415231256,907.4725778490982
35249.0,10802.0,35249.0,13220.0,35249.0,31503.0,986.1410150028721,496.7696378274412,898.9210961252688
35249.0,10806.0,35249.0,13215.0,35249.0,31528.0,978.6600117614021,492.334064179759,890.221323006501
35249.0,10854.0,35249.0,13288.0,35249.0,31512.0,971.0127580152164,487.8290509247359,881.3756130177799
35249.0,10802.0,35249.0,13208.0,35249.0,31494.0,963.1981172077893,483.2532779371523,872.3860979654821
35249.0,10796.0,35249.0,13235.0,35249.0,31511.0,955.2154237202319,478.60560864009375,863.2548663427219
35259.0,10781.0,35259.0,13173.0,35259.0,31440.0,947.0643137969101,473.8849969333774,853.9840551902951
35259.0,10808.0,35259.0,13223.0,35259.0,31493.0,938.7444128724699,469.090121702552,844.5758118405411
35259.0,10813.0,35259.0,13341.0,35259.0,31510.0,930.2553852387574,464.21954426051326,835.0324027168928
35259.0,10807.0,35259.0,13309.0,35259.0,31505.0,921.597319750579,459.27297158545935,825.3568556392686
35259.0,10806.0,35259.0,13234.0,35259.0,31455.0,912.7710974225798,454.25277339902505,815.5537267574314
35259.0,10772.0,35259.0,13133.0,35259.0,31390.0,903.7785122256241,449.1640572030304,805.629170372229
35270.0,10743.0,35270.0,13134.0,35270.0,31370.0,894.6220681470978,444.01314334482,795.5901860204519
35270.0,10747.0,35270.0,13106.0,35270.0,31329.0,885.3045070958933,438.8058423936944,785.4436011721107
35270.0,10728.0,35270.0,13079.0,35270.0,31334.0,875.8283670822955,433.5464432911929,775.1953154867044
35270.0,10749.0,35270.0,13142.0,35270.0,31355.0,866.1958154546995,428.23731496247905,764.8500330681712
35270.0,10736.0,35270.0,13138.0,35270.0,31310.0,856.4087409195156,422.8790868501238,754.4114744308044
35270.0,10712.0,35270.0,13088.0,35270.0,31273.0,846.4689201109892,417.4712382963004,743.8825985148491
35280.0,10723.0,35280.0,13113.0,35280.0,31296.0,836.3780360351002,412.0123864202719,733.2654359519335
35280.0,10741.0,35280.0,13197.0,35280.0,31366.0,826.1376717708891,406.50038380369983,722.5611021413622
35280.0,10749.0,35280.0,13179.0,35280.0,31344.0,815.7496132811763,400.9330921686485,711.7706680056433
35280.0,10727.0,35280.0,13174.0,35280.0,31319.0,805.2163621102717,395.30958925745097,700.8963561345215
35280.0,10702.0,35280.0,13121.0,35280.0,31251.0,794.5414106592466,389.63077687211614,689.942013978751
35280.0,10665.0,35280.0,13057.0,35280.0,31205.0,783.7290431752625,383.899031894317,678.9126009259653
35290.0,10649.0,35290.0,13037.0,35290.0,31205.0,772.7837878097366,378.1171754826397,667.8132173224619
35290.0,10663.0,35290.0,13042.0,35290.0,31146.0,761.7098737586323,372.2873553521065,656.6483026374267
35290.0,10655.0,35290.0,13050.0,35290.0,31187.0,750.5110434427738,366.41048662060143,645.4212110521887
35290.0,10657.0,35290.0,13107.0,35290.0,31205.0,739.1907216129456,360.486455552219,634.1342533740747
35290.0,10648.0,35290.0,13062.0,35290.0,31147.0,727.7522660271374,354.514843316661,622.7892314668575
35290.0,10633.0,35290.0,13022.0,35290.0,31141.0,716.1991255414367,348.4955059784668,611.3878762100392
35301.0,10633.0,35301.0,13046.0,35301.0,31157.0,704.5348872848151,342.4284906248723,599.9318469088907
35301.0,10644.0,35301.0,13088.0,35301.0,31197.0,692.7633301749552,336.31384212948626,588.4229295589553
35301.0,10640.0,35301.0,13130.0,35301.0,31161.0,680.8886526203389,330.15216871848816,576.8638123338162
35301.0,10632.0,35301.0,13115.0,35301.0,31083.0,668.9158176135392,323.94584085550093,565.2587380174816
35301.0,10568.0,35301.0,12959.0,35301.0,31048.0,656.8506933001239,317.69972048411285,553.6132217719548
35301.0,10551.0,35301.0,12966.0,35301.0,31001.0,644.6996913704814,311.4204248738091,541.933018257196
35311.0,10536.0,35311.0,12938.0,35311.0,31015.0,632.4690508154146,305.11466727258596,530.223145392348
35311.0,10531.0,35311.0,12956.0,35311.0,31013.0,620.1642707461914,298.78813124156625,518.4874887198566
35311.0,10577.0,35311.0,12957.0,35311.0,31000.0,607.7900219444897,292.44529332791694,506.7289862094228
35311.0,10521.0,35311.0,12916.0,35311.0,30990.0,595.3505005334652,286.0896292779562,494.9500068386019
35311.0,10536.0,35311.0,12942.0,35311.0,31000.0,582.84980672463,279.72371187856254,483.15265571294094
35311.0,10511.0,35311.0,12934.0,35311.0,30956.0,570.292014581959,273.3492286407934,471.339048134691
35321.0,10548.0,35321.0,12949.0,35321.0,30968.0,557.681185626751,266.9672106516633,459.51150599516745
35321.0,10525.0,35321.0,13041.0,35321.0,30962.0,545.0216479142998,260.5786485941496,447.67268450686083
35321.0,10501.0,35321.0,12928.0,35321.0,30929.0,532.3183623549057,254.18545743788945,435.82578299227157
35321.0,10485.0,35321.0,12875.0,35321.0,30896.0,519.5769916238445,247.79095598331696,423.9746635708227
35321.0,10448.0,35321.0,12835.0,35321.0,30866.0,506.80362090035794,241.39903956209707,412.12361657326596
35321.0,10423.0,35321.0,12832.0,35321.0,30849.0,494.0043022658866,235.01275813953146,400.2769223093087
35332.0,10403.0,35332.0,12875.0,35332.0,30805.0,481.1845156565237,228.63351595763322,388.43844582255633
35332.0,10431.0,35332.0,12878.0,35332.0,30839.0,468.3487606892885,222.26123868254092,376.6113535364934
35332.0,10447.0,35332.0,12897.0,35332.0,30765.0,455.5006292862621,215.89513361902584,364.7980265406193
35332.0,10410.0,35332.0,12826.0,35332.0,30795.0,442.64332251726944,209.5343589666727,353.0000651757566
35332.0,10391.0,35332.0,12844.0,35332.0,30765.0,429.78002870408943,203.1781083450121,341.21827960152245
35332.0,10404.0,35332.0,12814.0,35332.0,30794.0,416.91386923359767,196.8252745295905,329.4528605623509
35342.0,10436.0,35342.0,12933.0,35342.0,30801.0,404.0479077789031,190.47441084127217,317.7038780461603
35342.0,10413.0,35342.0,12882.0,35342.0,30776.0,391.1856295857799,184.1245103130882,305.9719782969696
35342.0,10377.0,35342.0,12857.0,35342.0,30730.0,378.3314758523353,177.77606233612983,294.258868348762
35342.0,10339.0,35342.0,12805.0,35342.0,30669.0,365.49081989238334,171.43131018590134,282.5671529482038
35342.0,10314.0,35342.0,12752.0,35342.0,30650.0,352.6693889805597,165.09352929553552,270.899576422423
35342.0,10304.0,35342.0,12733.0,35342.0,30632.0,339.8725809707455,158.76590499012775,259.25818950413645
35353.0,10288.0,35353.0,12758.0,35353.0,30664.0,327.10500537101825,152.45059646426898,247.64397124150992
35353.0,10284.0,35353.0,12765.0,35353.0,30622.0,314.3702831047865,146.14847057589895,236.05702734719216
35353.0,10294.0,35353.0,12771.0,35353.0,30623.0,301.6710461186401,139.85949526835645,224.4969763931524
35353.0,10286.0,35353.0,12722.0,35353.0,30603.0,289.0091407610628,133.58321987418208,212.9631494489588
35353.0,10269.0,35353.0,12724.0,35353.0,30591.0,276.3859215100456,127.31884445886453,201.4546598288091
35353.0,10298.0,35353.0,12772.0,35353.0,30621.0,263.80248320123496,121.06508260808675,189.97056556778125
35363.0,10304.0,35363.0,12789.0,35363.0,30606.0,251.25999157551496,114.8205057416385,178.510294636779
35363.0,10283.0,35363.0,12828.0,35363.0,30591.0,238.76022137906352,108.58454100086192,167.0742377983256
35363.0,10258.0,35363.0,12701.0,35363.0,30554.0,226.30594174413204,102.35841039212767,155.66410638750062
35363.0,10198.0,35363.0,12686.0,35363.0,30482.0,213.90077641931885,96.14506206879855,144.2827615551205
35363.0,10191.0,35363.0,12642.0,35363.0,30477.0,201.54857315874779,89.9480491876916,132.93353717363857
35363.0,10192.0,35363.0,12683.0,35363.0,30439.0,189.25270511086273,83.77040656071415,121.61943474900431
35373.0,10163.0,35373.0,12661.0,35373.0,30435.0,177.01572704138766,77.61430615019287,110.34260509517685
35373.0,10189.0,35373.0,12661.0,35373.0,30432.0,164.83935390137094,71.48127072752959,99.10417738597903
35373.0,10168.0,35373.0,12615.0,35373.0,30447.0,152.72459570809224,65.37233648258939,87.9044132490917
35373.0,10156.0,35373.0,12657.0,35373.0,30427.0,140.67196975046545,59.28795001527817,76.74315549992934
35373.0,10162.0,35373.0,12657.0,35373.0,30382.0,128.68163425147895,53.22798417698425,65.62023758104579
35373.0,10173.0,35373.0,12709.0,35373.0,30457.0,116.753516315875,47.19225927039622,54.53565537499139
35384.0,10162.0,35384.0,12711.0,35384.0,30426.0,104.88763044881648,41.18149269861681,43.489944576552034
35384.0,10130.0,35384.0,12661.0,35384.0,30347.0,93.08439943219832,35.19820755069202,32.484785871587746
35384.0,10114.0,35384.0,12582.0,35384.0,30308.0,81.34464565930648,29.246889761745933,21.522935316017538
35384.0,10090.0,35384.0,12525.0,35384.0,30263.0,69.66927112139751,23.333023421628013,10.607267365101734
35384.0,10096.0,35384.0,12528.0,35384.0,30260.0,58.05891136066907,17.461550498262227,-0.2602640944221548
35384.0,10068.0,35384.0,12533.0,35384.0,30264.0,46.51375156417839,11.63574643355662,-11.079157895511344
35394.0,10071.0,35394.0,12554.0,35394.0,30285.0,35.03346025339488,5.85699108368965,-21.850265518051174
35394.0,10079.0,35394.0,12513.0,35394.0,30264.0,23.61719603670622,0.12509693881236217,-32.575226785056884
35394.0,10042.0,35394.0,12528.0,35394.0,30235.0,12.263723855972103,-5.561420637670153,-43.25591486350709
35394.0,10045.0,35394.0,12522.0,35394.0,30243.0,0.9714889684014452,-11.205282930441854,-53.89423051557446
35394.0,10085.0,35394.0,12593.0,35394.0,30262.0,-10.261355351060956,-16.810192370540335,-64.4919784217318
35394.0,10085.0,35394.0,12596.0,35394.0,30269.0,-21.43657172106964,-22.380019687795766,-75.0503803090453
35404.0,10031.0,35404.0,12609.0,35404.0,30218.0,-32.55521531667364,-27.917644079939464,-85.5693867380362
35404.0,10031.0,35404.0,12480.0,35404.0,30151.0,-43.6174452308519,-33.42424565875217,-96.04747356278426
35404.0,9971.0,35404.0,12485.0,35404.0,30131.0,-54.62292633507059,-38.899750296876164,-106.48225294030385
35404.0,9971.0,35404.0,12455.0,35404.0,30103.0,-65.57145939060774,-44.34404233038231,-116.87140920028037
35404.0,9970.0,35404.0,12435.0,35404.0,30096.0,-76.46352979093626,-49.75794337078696,-127.21333432043843
35404.0,9979.0,35404.0,12547.0,35404.0,30065.0,-87.30049364419892,-55.14347152974142,-137.5073922503616
35415.0,9972.0,35415.0,12491.0,35415.0,30075.0,-98.0843647567001,-60.503263654851594,-147.7540104620373
35415.0,9958.0,35415.0,12453.0,35415.0,30057.0,-108.8175121097263,-65.83970894835807,-157.95463518051702
35415.0,9918.0,35415.0,12436.0,35415.0,30073.0,-119.50258347343083,-71.15484622709346,-168.11149969658277
35415.0,9967.0,35415.0,12496.0,35415.0,30051.0,-130.1426550884853,-76.45081023956448,-178.22725227113665
35415.0,10013.0,35415.0,12458.0,35415.0,30126.0,-140.74107307593613,-81.72979285861254,-188.30442738293732
35415.0,9974.0,35415.0,12490.0,35415.0,30078.0,-151.3006363837851,-86.99351503778973,-198.34462466197124
35425.0,9943.0,35425.0,12467.0,35425.0,30000.0,-161.82282138270216,-92.24276801525048,-208.34780625901612
35425.0,9901.0,35425.0,12379.0,35425.0,29972.0,-172.3078413307619,-97.47731918158706,-218.31252209986815
35425.0,9879.0,35425.0,12371.0,35425.0,29934.0,-182.7553524601949,-102.69648209966488,-228.23691529898838
35425.0,9884.0,35425.0,12344.0,35425.0,29915.0,-193.16518539711865,-107.90017056925183,-238.11965579175853
35425.0,9889.0,35425.0,12362.0,35425.0,29921.0,-203.53768908428265,-113.08968190429289,-247.96044808969987
35425.0,9875.0,35425.0,12418.0,35425.0,29923.0,-213.87364673881007,-118.2677540837609,-257.76009498780854
35435.0,9877.0,35435.0,12393.0,35435.0,29922.0,-224.17405525452068,-123.43792506904038,-267.5201637851303
35435.0,9855.0,35435.0,12376.0,35435.0,29869.0,-234.44000075904773,-128.60374466090423,-277.24259094029253
35435.0,9855.0,35435.0,12330.0,35435.0,29901.0,-244.67264446754984,-133.76856530778753,-286.92955498873357
35435.0,9888.0,35435.0,12467.0,35435.0,29895.0,-254.87316500283987,-138.9356790319589,-296.5834031558934
35435.0,9904.0,35435.0,12428.0,35435.0,29891.0,-265.0423637143342,-144.10778042037316,-306.2062774564072
35435.0,9843.0,35435.0,12410.0,35435.0,29900.0,-275.180034155421,-149.28580820259663,-315.7995778286297
35446.0,9817.0,35446.0,12345.0,35446.0,29824.0,-285.28477972126734,-154.46842611847842,-325.36360425705675
35446.0,9777.0,35446.0,12274.0,35446.0,29811.0,-295.3545830183318,-159.65269552857615,-334.8976631927285
35446.0,9787.0,35446.0,12268.0,35446.0,29757.0,-305.3876210818469,-164.83542173567696,-344.40067064681034
35446.0,9781.0,35446.0,12268.0,35446.0,29783.0,-315.38275176772777,-170.01437270822805,-353.8718229523465
35446.0,9790.0,35446.0,12330.0,35446.0,29765.0,-325.3395357879774,-175.18867818685953,-363.31086977398604
35446.0,9766.0,35446.0,12294.0,35446.0,29759.0,-335.2580231107561,-180.35833841414978,-372.7179529679845
35456.0,9752.0,35456.0,12227.0,35456.0,29722.0,-345.1386336124335,-185.5236560564707,-382.0933816483109
35456.0,9757.0,35456.0,12246.0,35456.0,29674.0,-354.98223114946904,-190.68542104941264,-391.4377299923917
35456.0,9766.0,35456.0,12286.0,35456.0,29734.0,-364.79015224424916,-195.84540111950287,-400.7521748105323
35456.0,9778.0,35456.0,12353.0,35456.0,29762.0,-374.5639525891995,-201.00601277359522,-410.03838480295803
35456.0,9795.0,35456.0,12366.0,35456.0,29741.0,-384.30489764407366,-206.16899462206368,-419.2976093511511
35456.0,9764.0,35456.0,12323.0,35456.0,29709.0,-394.0134037079704,-211.3339592464513,-428.52972367642224
35466.0,9695.0,35466.0,12238.0,35466.0,29670.0,-403.6888523940736,-216.49787793210567,-437.7330135211107
35466.0,9691.0,35466.0,12161.0,35466.0,29622.0,-413.330118484703,-221.6559516000491,-446.90463056127624
35466.0,9682.0,35466.0,12148.0,35466.0,29588.0,-422.9364226329899,-226.8033600764943,-456.0413664817156
35466.0,9664.0,35466.0,12168.0,35466.0,29583.0,-432.50785933092243,-231.93678286519344,-465.1404442684682
35466.0,9702.0,35466.0,12207.0,35466.0,29595.0,-442.04549695743106,-237.05485779219282,-474.1999585029557
35466.0,9691.0,35466.0,12182.0,35466.0,29560.0,-451.55114299798163,-242.15768083582407,-483.21882713586206
35477.0,9676.0,35477.0,12204.0,35477.0,29563.0,-461.02691809366127,-247.2461020393007,-492.1965786027788
35477.0,9669.0,35477.0,12165.0,35477.0,29549.0,-470.4750071878742,-252.32132142017542,-501.13324145611455
35477.0,9673.0,35477.0,12224.0,35477.0,29573.0,-479.8976565177003,-257.3846897454248,-510.0291807120909
35477.0,9740.0,35477.0,12283.0,35477.0,29566.0,-489.2969893835433,-262.43720619082455,-518.8846846224098
35477.0,9670.0,35477.0,12214.0,35477.0,29539.0,-498.67439981232644,-267.47848417431067,-527.6994435316806
35477.0,9635.0,35477.0,12162.0,35477.0,29529.0,-508.03011498239584,-272.5060494728208,-536.4722608087518
35487.0,9615.0,35487.0,12092.0,35487.0,29462.0,-517.3635759864317,-277.51589345897025,-545.2011597937094
35487.0,9606.0,35487.0,12088.0,35487.0,29464.0,-526.6742321838976,-282.50386869701083,-553.8838321643066
35487.0,9608.0,35487.0,12067.0,35487.0,29413.0,-535.9620368102687,-287.4669252758632,-562.5182314863705
35487.0,9612.0,35487.0,12117.0,35487.0,29432.0,-545.2275244599482,-292.4036517158821,-571.1030448912666
35487.0,9607.0,35487.0,12115.0,35487.0,29391.0,-554.4716384160938,-297.3140557845387,-579.6379215236711
35487.0,9590.0,35487.0,12058.0,35487.0,29407.0,-563.6955203071809,-302.199020370202,-588.1235124453515
35497.0,9586.0,35497.0,12085.0,35497.0,29376.0,-572.9004421783013,-307.0601265327813,-596.5614151026691
35497.0,9579.0,35497.0,12108.0,35497.0,29397.0,-582.0878546386607,-311.8997506188315,-604.9540466289
35497.0,9614.0,35497.0,12148.0,35497.0,29445.0,-591.259332488806,-316.72069066918266,-613.3042739235611
35497.0,9623.0,35497.0,12117.0,35497.0,29368.0,-600.4161891084154,-321.52527955409164,-621.614713423977
35497.0,9574.0,35497.0,12109.0,35497.0,29391.0,-609.558907295688,-326.3146829408727,-629.8871882066828
35497.0,9552.0,35497.0,12060.0,35497.0,29303.0,-618.6869673331937,-331.0888272482672,-638.1227956589321
35508.0,9536.0,35508.0,12011.0,35508.0,29302.0,-627.7992746430252,-335.8469211277966,-646.3224419838159
35508.0,9519.0,35508.0,11980.0,35508.0,29276.0,-636.8947357606035,-340.58839643123315,-654.4875156614539
35508.0,9518.0,35508.0,12028.0,35508.0,29265.0,-645.9726366053046,-345.31382953445006,-662.620374016285
35508.0,9531.0,35508.0,12016.0,35508.0,29286.0,-655.0327724898118,-350.0252096055557,-670.7244688056605
35508.0,9488.0,35508.0,12015.0,35508.0,29249.0,-664.0753804870346,-354.72556594006596,-678.8041755163176
35508.0,9500.0,35508.0,12010.0,35508.0,29281.0,-673.1011170118738,-359.4185674903621,-686.8644942335568
35518.0,9517.0,35518.0,12014.0,35518.0,29242.0,-682.1111150186596,-364.1083292508341,-694.9107514696768
35518.0,9510.0,35518.0,12072.0,35518.0,29299.0,-691.1068071231371,-368.79911778370285,-702.9482501846683
35518.0,9544.0,35518.0,12096.0,35518.0,29260.0,-700.089468075121,-373.4945894701291,-710.9817585587402
35518.0,9482.0,35518.0,12057.0,35518.0,29257.0,-709.0597598663353,-378.1967111183012,-719.0149729476084
35518.0,9482.0,35518.0,11961.0,35518.0,29223.0,-718.017615379275,-382.9052633789819,-727.0502847447863
35518.0,9468.0,35518.0,11954.0,35518.0,29172.0,-726.9625313921699,-387.6185562879542,-735.0889785344414
35528.0,9436.0,35528.0,11916.0,35528.0,29154.0,-735.8939532209522,-392.3347579181458,-743.131780512352
35528.0,9427.0,35528.0,11914.0,35528.0,29095.0,-744.8116214962436,-397.0529093218345,-751.1796073764187
35528.0,9410.0,35528.0,11917.0,35528.0,29143.0,-753.7159559695724,-401.7734092729586,-759.2342303151979
35528.0,9409.0,35528.0,11976.0,35528.0,29113.0,-762.608367075846,-406.49797895454435,-767.298495864535
35528.0,9397.0,35528.0,11905.0,35528.0,29114.0,-771.4914082190533,-411.22914705628637,-775.3760813167028
35528.0,9404.0,35528.0,11913.0,35528.0,29139.0,-780.368803140733,-415.96983401732564,-783.471114463493
35539.0,9432.0,35539.0,11938.0,35539.0,29101.0,-789.2452977002072,-420.72337734820564,-791.5877648225135
35539.0,9429.0,35539.0,12012.0,35539.0,29142.0,-798.1262307205745,-425.4932997625857,-799.729800154555
35539.0,9457.0,35539.0,12040.0,35539.0,29102.0,-807.0169067301624,-430.2821906459552,-807.9001749322431
35539.0,9422.0,35539.0,11988.0,35539.0,29130.0,-815.9220132857422,-435.0902289551001,-816.1006385082587
35539.0,9387.0,35539.0,11893.0,35539.0,29046.0,-824.8453802041397,-439.91456778469774,-824.3314903929577
35539.0,9372.0,35539.0,11823.0,35539.0,29009.0,-833.7902748343627,-444.7502605726645,-832.5918165054752
35549.0,9366.0,35549.0,11848.0,35549.0,28998.0,-842.7599640934304,-449.5920551313883,-840.8802650779503
35549.0,9377.0,35549.0,11837.0,35549.0,28973.0,-851.7580534192225,-454.43569773416607,-849.1958380964065
35549.0,9361.0,35549.0,11811.0,35549.0,29000.0,-860.788470992776,-459.2782900519438,-857.5382207209627
35549.0,9387.0,35549.0,11832.0,35549.0,28971.0,-869.8552650852714,-464.1182899967712,-865.9076669312069
35549.0,9337.0,35549.0,11801.0,35549.0,28934.0,-878.9623864248924,-468.955518811733,-874.3047834202696
35549.0,9337.0,35549.0,11840.0,35549.0,28940.0,-888.1136578305916,-473.79107125133703,-882.7305780286761
35560.0,9383.0,35560.0,11879.0,35560.0,28968.0,-897.3128824206779,-478.6269406581998,-891.1865602141361
35560.0,9397.0,35560.0,11947.0,35560.0,28992.0,-906.5635661357326,-483.4650614252329,-899.6743268915632
35560.0,9344.0,35560.0,11846.0,35560.0,28969.0,-915.8682241057709,-488.30599747574195,-908.1946761042759
35560.0,9318.0,35560.0,11838.0,35560.0,28891.0,-925.2280883395963,-493.14831690641563,-916.7469952408715
35560.0,9284.0,35560.0,11758.0,35560.0,28887.0,-934.6435910488287,-497.9891769271861,-925.3295025663479
35560.0,9273.0,35560.0,11766.0,35560.0,28845.0,-944.1151439451523,-502.8254938134032,-933.9400223434411
35570.0,9281.0,35570.0,11750.0,35570.0,28825.0,-953.6437055386475,-507.65491274935755,-942.5766642228491
35570.0,9293.0,35570.0,11742.0,35570.0,28839.0,-963.2309158349515,-512.4762821895577,-951.2382288810666
35570.0,9292.0,35570.0,11723.0,35570.0,28834.0,-972.8788226862746,-517.2898108948913,-959.9242671122317
35570.0,9260.0,35570.0,11776.0,35570.0,28806.0,-982.589525567734,-522.0970877909403,-968.634824796218
35570.0,9268.0,35570.0,11722.0,35570.0,28789.0,-992.3650746805943,-526.9008533403355,-977.3702623176885
35570.0,9259.0,35570.0,11743.0,35570.0,28796.0,-1002.207552466557,-531.7046842804318,-986.1313002202583
35580.0,9274.0,35580.0,11824.0,35580.0,28818.0,-1012.119033913496,-536.5126887831524,-994.9189308691243
35580.0,9277.0,35580.0,11826.0,35580.0,28799.0,-1022.1013203569476,-541.3286857659135,-1003.7339573080512
35580.0,9252.0,35580.0,11767.0,35580.0,28779.0,-1032.1555904009622,-546.155028109099,-1012.576466893916
35580.0,9210.0,35580.0,11700.0,35580.0,28720.0,-1042.2822957491007,-550.9922575919903,-1021.4457193136247
35580.0,9205.0,35580.0,11677.0,35580.0,28690.0,-1052.4815063066185,-555.8399941960342,-1030.3406048124257
35580.0,9200.0,35580.0,11662.0,35580.0,28688.0,-1062.7534111000527,-560.6982037196581,-1039.260375170316
35591.0,9177.0,35591.0,11621.0,35591.0,28663.0,-1073.0985985983837,-565.5681070708631,-1048.20515974289
35591.0,9184.0,35591.0,11656.0,35591.0,28691.0,-1083.5181548787962,-570.4527089658694,-1057.1760642166084
35591.0,9194.0,35591.0,11681.0,35591.0,28665.0,-1094.0136544966997,-575.3568933718122,-1066.1749431440164
35591.0,9184.0,35591.0,11660.0,35591.0,28625.0,-1104.586946890402,-580.2869641749958,-1075.2041234784633
35591.0,9158.0,35591.0,11669.0,35591.0,28636.0,-1115.2398920775356,-585.2500559040486,-1084.2664109446403
35591.0,9172.0,35591.0,11747.0,35591.0,28671.0,-1125.9743005773607,-590.2536470417359,-1093.365134305608
35601.0,9196.0,35601.0,11784.0,35601.0,28657.0,-1136.7918771560715,-595.3046252573339,-1102.503697228908
35601.0,9167.0,35601.0,11719.0,35601.0,28621.0,-1147.693872879716,-600.4079023111645,-1111.6848946657249
35601.0,9131.0,35601.0,11655.0,35601.0,28616.0,-1158.6807651732133,-605.5657299202346,-1120.9106412331978
35601.0,9098.0,35601.0,11627.0,35601.0,28548.0,-1169.7524677314434,-610.7783640242841,-1130.1821904424148
35601.0,9092.0,35601.0,11580.0,35601.0,28528.0,-1180.9089528915697,-616.0453710984276,-1139.5006666246707
35601.0,9098.0,35601.0,11592.0,35601.0,28556.0,-1192.1507562517836,-621.3667285534643,-1148.867668690158
35611.0,9081.0,35611.0,11621.0,35611.0,28555.0,-1203.4790903319993,-626.7433488845905,-1158.2854073718008
35611.0,9097.0,35611.0,11616.0,35611.0,28514.0,-1214.8957048717464,-632.1768980458712,-1167.7563131693337
35611.0,9062.0,35611.0,11562.0,35611.0,28473.0,-1226.4027082434084,-637.6693410985425,-1177.2828333469097
35611.0,9055.0,35611.0,11590.0,35611.0,28498.0,-1238.002503731017,-643.2228727922071,-1186.8677174207826
35611.0,9062.0,35611.0,11599.0,35611.0,28485.0,-1249.6978669179512,-648.8400569562986,-1196.5142264435901
35611.0,9075.0,35611.0,11650.0,35611.0,28507.0,-1261.4919010254605,-654.5235027610502,-1206.2258572086025
35622.0,9073.0,35622.0,11660.0,35622.0,28535.0,-1273.3876778633767,-660.2749482551494,-1216.0056966273469
35622.0,9053.0,35622.0,11591.0,35622.0,28446.0,-1285.387790955385,-666.0943116782321,-1225.8557117606927
35622.0,9023.0,35622.0,11564.0,35622.0,28408.0,-1297.4941769206237,-671.9794916587314,-1235.776602766471
35622.0,8994.0,35622.0,11505.0,35622.0,28384.0,-1309.7083406207885,-677.9270964144253,-1245.7685141663594
35622.0,9001.0,35622.0,11504.0,35622.0,28360.0,-1322.0317937803864,-683.9335252583886,-1255.8319466977641
35622.0,8986.0,35622.0,11460.0,35622.0,28363.0,-1334.4663488307863,-689.9958743179153,-1265.9682666708877
35632.0,9004.0,35632.0,11502.0,35632.0,28377.0,-1347.0140959116025,-696.1124844368551,-1276.1797561461249
35632.0,8974.0,35632.0,11513.0,35632.0,28375.0,-1359.677180347742,-702.282971475752,-1286.4692484114544
35632.0,8956.0,35632.0,11476.0,35632.0,28335.0,-1372.4576456449777,-708.5077896573039,-1296.8396158236685
35632.0,8960.0,35632.0,11486.0,35632.0,28329.0,-1385.3574916929572,-714.7878541412559,-1307.2935450294208
35632.0,8971.0,35632.0,11550.0,35632.0,28356.0,-1398.3787133606143,-721.1243321017189,-1317.8335367447796
35632.0,9006.0,35632.0,11562.0,35632.0,28343.0,-1411.5229632484504,-727.5179810054234,-1328.4616443205691
35642.0,8975.0,35642.0,11486.0,35642.0,28338.0,-1424.7908628245273,-733.9681453691095,-1339.1789186402723
35642.0,8921.0,35642.0,11500.0,35642.0,28298.0,-1438.181498184671,-740.4723813431531,-1349.9850065342664
35642.0,8896.0,35642.0,11382.0,35642.0,28263.0,-1451.6926326603127,-747.0269985399061,-1360.8781799329986
35642.0,8868.0,35642.0,11384.0,35642.0,28220.0,-1465.3214521444488,-753.6281508645304,-1371.8557795830247
35642.0,8866.0,35642.0,11389.0,35642.0,28202.0,-1479.0652462048674,-760.2730008813772,-1382.9148770781499
35642.0,8830.0,35642.0,11404.0,35642.0,28218.0,-1492.9217923400597,-766.960267740141,-1394.0527910169487
35653.0,8860.0,35653.0,11430.0,35653.0,28208.0,-1506.8895284559878,-773.6899300677608,-1405.267129535724
35653.0,8855.0,35653.0,11377.0,35653.0,28167.0,-1520.9674670888026,-780.4626100364783,-1416.555505011966
35653.0,8837.0,35653.0,11410.0,35653.0,28159.0,-1535.1548372604757,-787.2792012095673,-1427.9154208775985
35653.0,8849.0,35653.0,11400.0,35653.0,28171.0,-1549.4507272060227,-794.1407361044855,-1439.3443670498734
35653.0,8850.0,35653.0,11458.0,35653.0,28161.0,-1563.853810975661,-801.0480360908847,-1450.8396990838987
35653.0,8861.0,35653.0,11455.0,35653.0,28168.0,-1578.3619525288932,-808.0009189658595,-1462.3982120890623
35663.0,8823.0,35663.0,11353.0,35663.0,28115.0,-1592.971742010522,-814.997447858896,-1474.015735320233
35663.0,8771.0,35663.0,11359.0,35663.0,28103.0,-1607.6783609316606,-822.0340390618004,-1485.6870592062999
35663.0,8758.0,35663.0,11304.0,35663.0,28047.0,-1622.4760151659118,-829.1063762293716,-1497.4062536416716
35663.0,8751.0,35663.0,11316.0,35663.0,28063.0,-1637.3585837857038,-836.2102952636131,-1509.1671490275041
35663.0,8737.0,35663.0,11324.0,35663.0,28038.0,-1652.319969895661,-843.3422008642552,-1520.9636402666163
35663.0,8758.0,35663.0,11363.0,35663.0,28024.0,-1667.3540747313368,-850.4989136894964,-1532.7896985573798
35673.0,8766.0,35673.0,11302.0,35673.0,28013.0,-1682.4544700983815,-857.6770980007552,-1544.639291532472
35673.0,8722.0,35673.0,11325.0,35673.0,28002.0,-1697.6138988720252,-864.8728486836786,-1556.506331338881
35673.0,8712.0,35673.0,11282.0,35673.0,27999.0,-1712.8240145849154,-872.0817028660431,-1568.3845638376474
35673.0,8732.0,35673.0,11339.0,35673.0,28022.0,-1728.0754493853979,-879.2987099692452,-1580.2672938909814
35673.0,8743.0,35673.0,11413.0,35673.0,28041.0,-1743.357690543508,-886.5179815584074,-1592.1468052858377
35673.0,8711.0,35673.0,11332.0,35673.0,28007.0,-1758.6585816527547,-893.7315673578395,-1604.0135402798176
35684.0,8681.0,35684.0,11281.0,35684.0,27936.0,-1773.9639649202372,-900.9286431849272,-1615.8556056706102
35684.0,8660.0,35684.0,11218.0,35684.0,27934.0,-1789.2578231395719,-908.096022925271,-1627.659063064451
35684.0,8638.0,35684.0,11204.0,35684.0,27898.0,-1804.5226931238053,-915.2195253926367,-1639.4086171976753
35684.0,8625.0,35684.0,11208.0,35684.0,27883.0,-1819.740031364573,-922.285125940028,-1651.0881077836364
35684.0,8609.0,35684.0,11182.0,35684.0,27870.0,-1834.8904495045344,-929.2794662615214,-1662.6807588279826
35684.0,8629.0,35684.0,11218.0,35684.0,27887.0,-1849.9537837923087,-936.1898928221809,-1674.1692345011188
35694.0,8605.0,35694.0,11168.0,35694.0,27851.0,-1864.9089303398046,-943.0042894535093,-1685.5354373523146
35694.0,8612.0,35694.0,11187.0,35694.0,27810.0,-1879.7335459980793,-949.7109230871479,-1696.76032667796
35694.0,8593.0,35694.0,11166.0,35694.0,27835.0,-1894.4038037432822,-956.2984183730147,-1707.824044999368
35694.0,8597.0,35694.0,11283.0,35694.0,27878.0,-1908.8942235360137,-962.7555134854623,-1718.7059080501303
35694.0,8612.0,35694.0,11258.0,35694.0,27870.0,-1923.177453957571,-969.0700915641223,-1729.3837044219867
35694.0,8574.0,35694.0,11238.0,35694.0,27821.0,-1937.2239467629474,-975.2278645786932,-1739.8327548125167
35704.0,8530.0,35704.0,11118.0,35704.0,27742.0,-1951.0018126059595,-981.2119121112329,-1750.0257110817342
35704.0,8512.0,35704.0,11119.0,35704.0,27721.0,-1964.4771887577754,-987.0035996651995,-1759.9333630488366
35704.0,8511.0,35704.0,11123.0,35704.0,27723.0,-1977.6148506913173,-992.5839785100754,-1769.5257375106005
35704.0,8507.0,35704.0,11143.0,35704.0,27709.0,-1990.3785424536081,-997.934465562354,-1778.772674856892
35704.0,8508.0,35704.0,11136.0,35704.0,27676.0,-2002.7309277979928,-1003.0366420092143,-1787.6438963865937
35704.0,8482.0,35704.0,11081.0,35704.0,27665.0,-2014.6334141883592,-1007.8719119550102,-1796.1090833908108
35715.0,8468.0,35715.0,11082.0,35715.0,27665.0,-2026.0461139665988,-1012.4216368981834,-1804.138082309585
35715.0,8486.0,35715.0,11084.0,35715.0,27657.0,-2036.9279520262983,-1016.6675928368019,-1811.7009698111742
35715.0,8480.0,35715.0,11121.0,35715.0,27682.0,-2047.2366420092483,-1020.5921212268513,-1818.7678573465462
35715.0,8489.0,35715.0,11215.0,35715.0,27688.0,-2056.9284129543953,-1024.1775230946946,-1825.3084462689321
35715.0,8474.0,35715.0,11138.0,35715.0,27655.0,-2065.957690140841,-1027.4048021174988,-1831.2914741283378
35715.0,8464.0,35715.0,11090.0,35715.0,27627.0,-2074.2769278441215,-1030.2527670925547,-1836.6844639419892
35725.0,8429.0,35725.0,11051.0,35725.0,27600.0,-2081.8366926193285,-1032.6984374703247,-1841.4540101819255
35725.0,8413.0,35725.0,11028.0,35725.0,27561.0,-2088.586037096953,-1034.7182730126415,-1845.5663940843917
35725.0,8403.0,35725.0,11016.0,35725.0,27576.0,-2094.473044461078,-1036.2892670405354,-1848.9882338909356
35725.0,8380.0,35725.0,11039.0,35725.0,27613.0,-2099.445338830128,-1037.3895680808346,-1851.6868027871865
35725.0,8388.0,35725.0,10982.0,35725.0,27586.0,-2103.4504903566935,-1037.998713617562,-1853.6297606273984
35725.0,8390.0,35725.0,10986.0,35725.0,27573.0,-2106.436282329717,-1038.0978571073179,-1854.7847194137983
35735.0,8399.0,35735.0,10970.0,35735.0,27533.0,-2108.3507610210863,-1037.6702236663732,-1855.1192648605263
35735.0,8373.0,35735.0,11021.0,35735.0,27538.0,-2109.142181266958,-1036.701444930753,-1854.6014350888968
35735.0,8415.0,35735.0,11076.0,35735.0,27587.0,-2108.7590336205412,-1035.1792717477315,-1853.200117165479
35735.0,8409.0,35735.0,11132.0,35735.0,27602.0,-2107.150035349394,-1033.0924951765976,-1850.8848282519534
35735.0,8385.0,35735.0,11075.0,35735.0,27531.0,-2104.264028254229,-1030.42955582939,-1847.6251312915126
35735.0,8360.0,35735.0,11051.0,35735.0,27511.0,-2100.0501674476095,-1027.177839621787,-1843.3906393905136
35746.0,8338.0,35746.0,10987.0,35746.0,27482.0,-2094.458623325774,-1023.3241621970483,-1838.1518871262742
35746.0,8340.0,35746.0,10998.0,35746.0,27488.0,-2087.441508975099,-1018.8559567336578,-1831.8813816895765
35746.0,8359.0,35746.0,10976.0,35746.0,27474.0,-2078.9536318906203,-1013.7623884410561,-1824.5543147048877
35746.0,8377.0,35746.0,11028.0,35746.0,27548.0,-2068.9528428623917,-1008.034952939991,-1816.148836443363
35746.0,8382.0,35746.0,11033.0,35746.0,27483.0,-2057.400060383841,-1001.6674657769097,-1806.6459114383233
35746.0,8387.0,35746.0,10995.0,35746.0,27494.0,-2044.2592754975892,-994.6557570206078,-1796.0292034489826
35756.0,8389.0,35756.0,11040.0,35756.0,27491.0,-2029.497744757419,-986.9976054024862,-1784.2854254842898
35756.0,8410.0,35756.0,11057.0,35756.0,27554.0,-2013.0863279431137,-978.6928311869156,-1771.40473042976
35756.0,8469.0,35756.0,11134.0,35756.0,27576.0,-1994.9997105205675,-969.742950848065,-1757.3805234453228
35756.0,8456.0,35756.0,11119.0,35756.0,27564.0,-1975.2163114356365,-960.1503085674855,-1742.2088704915204
35756.0,8471.0,35756.0,11114.0,35756.0,27573.0,-1953.718162400185,-949.9172835318939,-1725.8881690027079
35756.0,8462.0,35756.0,11061.0,35756.0,27569.0,-1930.491192438591,-939.0462225751762,-1708.4193236813146
35766.0,8478.0,35766.0,11021.0,35766.0,27572.0,-1905.525877792688,-927.5402579594243,-1689.806154259019
35766.0,8504.0,35766.0,11057.0,35766.0,27578.0,-1878.817935856209,-915.4045751077763,-1670.055834839213
35766.0,8564.0,35766.0,11086.0,35766.0,27605.0,-1850.3687598750687,-902.6473105654327,-1649.1792817146463
35766.0,8590.0,35766.0,11127.0,35766.0,27647.0,-1820.1854285960053,-889.2795720549541,-1627.1913113324802
35766.0,8614.0,35766.0,11130.0,35766.0,27669.0,-1788.2805073490413,-875.3149021288954,-1604.1104607908965
35766.0,8663.0,35766.0,11180.0,35766.0,27706.0,-1754.6719884091171,-860.7687314667602,-1579.958618117178
35777.0,8706.0,35777.0,11153.0,35777.0,27734.0,-1719.3833277275012,-845.6580055414823,-1554.7606640996173
35777.0,8784.0,35777.0,11242.0,35777.0,27784.0,-1682.443296149223,-830.0009315435233,-1528.5441269903058
35777.0,8831.0,35777.0,11269.0,35777.0,27856.0,-1643.885539120926,-813.8165616973307,-1501.338677260145
35777.0,8887.0,35777.0,11259.0,35777.0,27819.0,-1603.7479957364435,-797.1240909630003,-1473.1754736611203
35777.0,8900.0,35777.0,11215.0,35777.0,27819.0,-1562.072489707944,-779.9425100293056,-1444.0869222312558
35777.0,8916.0,35777.0,11224.0,35777.0,27884.0,-1518.9047844715976,-762.2911593798134,-1414.1071366226854
35787.0,8983.0,35787.0,11227.0,35787.0,27898.0,-1474.2950727345278,-744.1907203778151,-1383.2723944432034
35787.0,9027.0,35787.0,11269.0,35787.0,27918.0,-1428.2984416099762,-725.6638980026065,-1351.6211554224926
35787.0,9138.0,35787.0,11328.0,35787.0,27965.0,-1380.9748786289572,-706.7354808800264,-1319.194022703775
35787.0,9212.0,35787.0,11342.0,35787.0,28027.0,-1332.388715652921,-687.4318365560202,-1286.0336905331656
35787.0,9243.0,35787.0,11324.0,35787.0,28034.0,-1282.6077718288439,-667.78033904729,-1252.18463418405
35787.0,9301.0,35787.0,11380.0,35787.0,28078.0,-1231.7027844322693,-647.8092479137858,-1217.6927815552542
35798.0,9401.0,35798.0,11444.0,35798.0,28178.0,-1179.747260992869,-627.5477020312986,-1182.6052864257283
35798.0,9479.0,35798.0,11480.0,35798.0,28249.0,-1126.8171675811345,-607.0251674193652,-1146.969893928163
35798.0,9545.0,35798.0,11556.0,35798.0,28228.0,-1072.9902120771344,-586.2704090168941,-1110.833878506904
35798.0,9580.0,35798.0,11496.0,35798.0,28245.0,-1018.3451914891521,-565.3105480549439,-1074.2434918248123
35798.0,9632.0,35798.0,11444.0,35798.0,28282.0,-962.9618237635042,-544.170936688394,-1037.2443177621435
35798.0,9677.0,35798.0,11481.0,35798.0,28309.0,-906.9210008187055,-522.876178871302,-999.8818429161884
35808.0,9776.0,35808.0,11473.0,35808.0,28358.0,-850.3050817789558,-501.4514507277872,-962.2017129249685
35808.0,9833.0,35808.0,11551.0,35808.0,28377.0,-793.1978655802598,-479.92314619632054,-924.2497662233245
35808.0,9908.0,35808.0,11549.0,35808.0,28431.0,-735.6842524178547,-458.3188025975184,-886.0720238573394
35808.0,9987.0,35808.0,11609.0,35808.0,28441.0,-677.8498544011362,-436.6666917965118,-847.7147006501455
35808.0,10071.0,35808.0,11615.0,35808.0,28532.0,-619.7805890927092,-414.9953877222933,-809.224189678363
35808.0,10144.0,35808.0,11658.0,35808.0,28574.0,-561.5621560208948,-393.33341861273607,-770.6468080927383
35818.0,10258.0,35818.0,11747.0,35818.0,28672.0,-503.27939743216916,-371.7088431902204,-732.0281327884034
35818.0,10310.0,35818.0,11794.0,35818.0,28697.0,-445.015542535216,-350.148401771093,-693.4120620424588
35818.0,10378.0,35818.0,11765.0,35818.0,28715.0,-386.851504508963,-328.6764114023024,-654.840036749005
35818.0,10407.0,35818.0,11750.0,35818.0,28671.0,-328.8655695893938,-307.31430876970177,-616.3509763559235
35818.0,10457.0,35818.0,11717.0,35818.0,28736.0,-271.1335808452927,-286.08128328600486,-577.9820576741782
35818.0,10514.0,35818.0,11753.0,35818.0,28803.0,-213.72940160861162,-264.9954431327172,-539.7695622266874
35829.0,10599.0,35829.0,11797.0,35829.0,28793.0,-156.7252857509684,-244.07466163365007,-501.7490522620735
35829.0,10692.0,35829.0,11830.0,35829.0,28844.0,-100.19181848993571,-223.33665611855952,-463.95526077747695
35829.0,10750.0,35829.0,11842.0,35829.0,28888.0,-44.197411213044234,-202.79857391746685,-426.42219424992084
35829.0,10800.0,35829.0,11844.0,35829.0,28916.0,11.192257343353504,-182.47669202669482,-389.183196005054
35829.0,10882.0,35829.0,11840.0,35829.0,28994.0,65.91451376813438,-162.38653142489244,-352.2707768637854
35829.0,10947.0,35829.0,11937.0,35829.0,29076.0,119.90984255226795,-142.5431224257328,-315.7161512731658
35839.0,11045.0,35839.0,11985.0,35839.0,29095.0,173.12224237174382,-122.96074059299644,-279.54839489886945
35839.0,11081.0,35839.0,12025.0,35839.0,29130.0,225.49978395810354,-103.65189012514145,-243.79364765416562
35839.0,11132.0,35839.0,11987.0,35839.0,29108.0,276.9950495996284,-84.62629112561126,-208.47492179705978
35839.0,11129.0,35839.0,11928.0,35839.0,29156.0,327.5650916885147,-65.89082150775766,-173.61252436507766
35839.0,11186.0,35839.0,11949.0,35839.0,29170.0,377.1708511465331,-47.45056904266903,-139.22465809382197
35839.0,11252.0,35839.0,11943.0,35839.0,29183.0,425.776449972268,-29.310183825751892,-105.32786421161609
35849.0,11298.0,35849.0,12020.0,35849.0,29208.0,473.3488691668856,-11.474628400584947,-71.93739555080447
35849.0,11356.0,35849.0,12000.0,35849.0,29262.0,519.8580071417568,6.050834498268955,-39.06756394992999
35849.0,11393.0,35849.0,12034.0,35849.0,29308.0,565.2767776777771,23.26093915318745,-6.731784194116699
35849.0,11457.0,35849.0,12021.0,35849.0,29342.0,609.581129018472,40.150505407211085,25.057756805788358
35849.0,11487.0,35849.0,12068.0,35849.0,29368.0,652.7500497395383,56.71431669206879,56.290496403432144
35849.0,11596.0,35849.0,12175.0,35849.0,29401.0,694.7656775320386,72.94728554434892,86.95770763128144
35860.0,11615.0,35860.0,12211.0,35860.0,29499.0,735.6136653866813,88.84542889459385,117.05270609298827
35860.0,11631.0,35860.0,12185.0,35860.0,29442.0,775.2835892227006,104.40727282519254,146.57128332085995
35860.0,11691.0,35860.0,12114.0,35860.0,29472.0,813.768936022235,119.63442006810033,175.51190945676217
35860.0,11661.0,35860.0,12116.0,35860.0,29458.0,851.0666991234086,134.53070555231852,203.87522780103745
35860.0,11720.0,35860.0,12139.0,35860.0,29494.0,887.1767913618339,149.10080408729686,231.66324603364433
35860.0,11754.0,35860.0,12121.0,35860.0,29509.0,922.1014239050085,163.34933229095725,258.8787644342217
35870.0,11770.0,35870.0,12172.0,35870.0,29530.0,955.8447260232267,177.28052355297757,285.52509164356957
35870.0,11826.0,35870.0,12157.0,35870.0,29591.0,988.4125733594215,190.89815817078977,311.6059689618087
35870.0,11870.0,35870.0,12181.0,35870.0,29521.0,1019.8125132704126,204.20559674768867,337.1255755895693
35870.0,11882.0,35870.0,12171.0,35870.0,29600.0,1050.0538558633789,217.20574471834777,362.08828483311527
35870.0,11934.0,35870.0,12259.0,35870.0,29690.0,1079.147766568722,229.901028844723,386.49841196824286
35870.0,12022.0,35870.0,12360.0,35870.0,29722.0,1107.1073882851128,242.29397246563042,410.36078132577745
35880.0,12016.0,35880.0,12320.0,35880.0,29703.0,1133.948304390361,254.38859404621041,433.6818129472822
35880.0,12033.0,35880.0,12274.0,35880.0,29732.0,1159.689020422993,266.19154422099336,456.4699973925401
35880.0,11995.0,35880.0,12199.0,35880.0,29707.0,1184.3507880120092,277.7117366074957,478.7356006400976
35880.0,12024.0,35880.0,12244.0,35880.0,29705.0,1207.9567461807096,288.9588081187443,500.49004807818596
35880.0,12048.0,35880.0,12232.0,35880.0,29726.0,1230.5309581361162,299.94175832409155,521.7451876159555
35880.0,12070.0,35880.0,12264.0,35880.0,29723.0,1252.0978527901343,310.668435393432,542.51264607489
35891.0,12111.0,35891.0,12280.0,35891.0,29767.0,1272.682092509599,321.1455749076255,562.8034586023396
35891.0,12139.0,35891.0,12274.0,35891.0,29786.0,1292.3086720372212,331.3789885664197,582.6279849080399
35891.0,12130.0,35891.0,12287.0,35891.0,29813.0,1311.003073751191,341.3736678260402,601.9960775701081
35891.0,12152.0,35891.0,12321.0,35891.0,29816.0,1328.79120930535,351.1337840661853,620.9173098259625
35891.0,12213.0,35891.0,12404.0,35891.0,29877.0,1345.6992055194232,360.662985820911,639.4011309900604
35891.0,12248.0,35891.0,12427.0,35891.0,29895.0,1361.7535335446491,369.96534303712974,657.4571414431457
35901.0,12236.0,35901.0,12415.0,35901.0,29875.0,1376.9815108183848,379.04654563168606,675.0954828404847
35901.0,12233.0,35901.0,12311.0,35901.0,29888.0,1391.4115314108585,387.9143504181317,692.3269000361322
35901.0,12225.0,35901.0,12306.0,35901.0,29871.0,1405.0726838995838,396.5776792220573,709.162330716197
35901.0,12232.0,35901.0,12302.0,35901.0,29898.0,1417.994061443384,405.0450054177892,725.612360363458
35901.0,12215.0,35901.0,12330.0,35901.0,29903.0,1430.2040869236425,413.32320642179013,741.6868275553616
35901.0,12276.0,35901.0,12361.0,35901.0,29928.0,1441.7299857918692,421.4173149622362,757.3946622359911
35911.0,12282.0,35911.0,12350.0,35911.0,29931.0,1452.597622253772,429.33081273708206,772.7438817741543
35911.0,12305.0,35911.0,12354.0,35911.0,29941.0,1462.8317302957535,437.0659178720315,787.7415886984045
35911.0,12298.0,35911.0,12368.0,35911.0,29938.0,1472.456158262009,444.623598934902,802.3938605744906
35911.0,12299.0,35911.0,12464.0,35911.0,29991.0,1481.4938266747322,452.0036898221098,816.7056066790881
35911.0,12367.0,35911.0,12505.0,35911.0,30033.0,1489.9665685224336,459.20572069255854,830.680721143857
35911.0,12377.0,35911.0,12487.0,35911.0,30034.0,1497.8953025679416,466.2302969761208,844.3226639541444
35922.0,12349.0,35922.0,12441.0,35922.0,30027.0,1505.3004964738516,473.07996603166305,857.6349981487056
35922.0,12305.0,35922.0,12391.0,35922.0,29998.0,1512.2021622007182,479.75885908006194,870.6213549181066
35922.0,12329.0,35922.0,12395.0,35922.0,29992.0,1518.6190814886718,486.271486770583,883.2848264917388
35922.0,12351.0,35922.0,12348.0,35922.0,29988.0,1524.5679751593048,492.6214795369193,895.6271449059113
35922.0,12361.0,35922.0,12396.0,35922.0,30043.0,1530.0632672805732,498.8106793841213,907.6480917857389
35922.0,12391.0,35922.0,12455.0,35922.0,30048.0,1535.117302002769,504.83883799266687,919.345460867653
35932.0,12403.0,35932.0,12476.0,35932.0,30071.0,1539.7406766650947,510.70418214516144,930.7154417342363
35932.0,12387.0,35932.0,12441.0,35932.0,30068.0,1543.942528876177,516.4043628118931,941.7529816401384
35932.0,12428.0,35932.0,12430.0,35932.0,30137.0,1547.7306456847566,521.9368246569479,952.4520263896061
35932.0,12457.0,35932.0,12538.0,35932.0,30160.0,1551.111578704452,527.2986506774054,962.8059905305902
35932.0,12485.0,35932.0,12550.0,35932.0,30162.0,1554.091102901574,532.4869424837293,972.808523840492
35932.0,12453.0,35932.0,12475.0,35932.0,30155.0,1556.6748184842465,537.4997788098135,982.4540724302929
35942.0,12427.0,35942.0,12488.0,35942.0,30182.0,1558.8682987079671,542.3364996610118,991.7379655154884
35942.0,12421.0,35942.0,12458.0,35942.0,30123.0,1560.676579024154,546.9970287941468,1000.6562425490572
35942.0,12443.0,35942.0,12451.0,35942.0,30130.0,1562.103462973945,551.481070353628,1009.2052269459148
35942.0,12412.0,35942.0,12425.0,35942.0,30149.0,1563.1511303683867,555.7874731183505,1017.3808829648251
35942.0,12465.0,35942.0,12448.0,35942.0,30187.0,1563.8200132392742,559.913655125221,1025.1784941864405
35942.0,12451.0,35942.0,12497.0,35942.0,30180.0,1564.1088524768224,563.8553517994934,1032.5929227615707
35953.0,12480.0,35953.0,12473.0,35953.0,30187.0,1564.0149594275674,567.606920407669,1039.6190063910904
35953.0,12503.0,35953.0,12472.0,35953.0,30166.0,1563.5345853551337,571.1617800379954,1046.2516560816678
35953.0,12503.0,35953.0,12552.0,35953.0,30232.0,1562.6633583745875,574.5126311144053,1052.4857600792343
35953.0,12548.0,35953.0,12642.0,35953.0,30265.0,1561.3967778598385,577.6520981932608,1058.3164203134602
35953.0,12555.0,35953.0,12580.0,35953.0,30245.0,1559.7307684849611,580.5741747033649,1063.7396854386068
35953.0,12518.0,35953.0,12549.0,35953.0,30228.0,1557.6621989255925,583.2753305017853,1068.7531208940763
35963.0,12531.0,35963.0,12547.0,35963.0,30175.0,1555.1890152467952,585.754335330855,1073.3556089960746
35963.0,12491.0,35963.0,12499.0,35963.0,30212.0,1552.3099344399122,588.011397311702,1077.5465936587248
35963.0,12490.0,35963.0,12491.0,35963.0,30190.0,1549.0239754305387,590.0473126839235,1081.3254275002578
35963.0,12509.0,35963.0,12492.0,35963.0,30207.0,1545.3300320039612,591.8627037011273,1084.6911411114725
35963.0,12536.0,35963.0,12538.0,35963.0,30251.0,1541.2267831505358,593.4575996573304,1087.6425353533557
35963.0,12515.0,35963.0,12516.0,35963.0,30241.0,1536.7130359853786,594.8315917348871,1090.1785744563529
35973.0,12525.0,35973.0,12550.0,35973.0,30254.0,1531.7880945181494,595.9842581168504,1092.298926155811
35973.0,12518.0,35973.0,12510.0,35973.0,30249.0,1526.451881108548,596.9154566548871,1094.0043068858467
35973.0,12576.0,35973.0,12538.0,35973.0,30274.0,1520.7050696649,597.6253839183247,1095.2966522771023
35973.0,12566.0,35973.0,12606.0,35973.0,30301.0,1514.549568547341,598.1146900192368,1096.1794063727625
35973.0,12578.0,35973.0,12578.0,35973.0,30245.0,1507.9892256553437,598.3850701373292,1096.6579375933704
35973.0,12518.0,35973.0,12514.0,35973.0,30206.0,1501.030245655637,598.4398996431901,1096.7395612436142
35984.0,12497.0,35984.0,12484.0,35984.0,30219.0,1493.680965073661,598.2839494735675,1096.4328870952318
35984.0,12491.0,35984.0,12482.0,35984.0,30217.0,1485.9511530209936,597.9223071251818,1095.7471090522054
35984.0,12480.0,35984.0,12493.0,35984.0,30191.0,1477.8513715601944,597.3594846277861,1094.6917385123973
35984.0,12486.0,35984.0,12531.0,35984.0,30210.0,1469.3926949113957,596.5992354631385,1093.2765200773877
35984.0,12452.0,35984.0,12514.0,35984.0,30182.0,1460.5866374113634,595.6449386290469,1091.5113208652906
35984.0,12488.0,35984.0,12472.0,35984.0,30196.0,1451.4451077363733,594.4999830852839,1089.406057874204
35994.0,12463.0,35994.0,12468.0,35994.0,30188.0,1441.9804598484814,593.167610114722,1086.9706772465272
35994.0,12457.0,35994.0,12543.0,35994.0,30226.0,1432.2056605177274,591.650535262715,1084.2152802301898
35994.0,12526.0,35994.0,12636.0,35994.0,30277.0,1422.1345183794306,589.9514000593546,1081.1506363359501
35994.0,12465.0,35994.0,12630.0,35994.0,30231.0,1411.7821461196088,588.074391389135,1077.7890813343424
35994.0,12459.0,35994.0,12511.0,35994.0,30189.0,1401.1654327282363,586.0267716778778,1074.145133933043
35994.0,12418.0,35994.0,12490.0,35994.0,30170.0,1390.30296678296,583.8188019603916,1070.2352215931135
36003.0,12394.0,36003.0,12448.0,36003.0,30128.0,1379.2144871198668,581.4622842509757,1066.0768448843678
36003.0,12369.0,36003.0,12419.0,36003.0,30096.0,1367.9202346850186,578.9690403402478,1061.6876999557048
36003.0,12377.0,36003.0,12441.0,36003.0,30127.0,1356.4404052861153,576.3499135358983,1057.084932608637
36003.0,12365.0,36003.0,12472.0,36003.0,30142.0,1344.794890803521,573.614392143411,1052.2848593501012
36003.0,12353.0,36003.0,12445.0,36003.0,30102.0,1333.0032920225945,570.7708745799197,1047.3032540375723
36003.0,12333.0,36003.0,12459.0,36003.0,30089.0,1321.0849434102327,567.8271002405114,1042.1555864034744
36014.0,12328.0,36014.0,12476.0,36014.0,30094.0,1309.0588136135582,564.7903937148006,1036.856851727278
36014.0,12386.0,36014.0,12511.0,36014.0,30150.0,1296.943521878143,561.6680195846321,1031.421505179649
36014.0,12355.0,36014.0,12543.0,36014.0,30157.0,1284.7578057070357,558.4679308795378,1025.8640406850789
36014.0,12333.0,36014.0,12470.0,36014.0,30119.0,1272.5211598800638,555.1996094117954,1020.199906224479
36014.0,12285.0,36014.0,12426.0,36014.0,30073.0,1260.2539581581113,551.8742327611089,1014.4458970453422
36014.0,12273.0,36014.0,12403.0,36014.0,30035.0,1247.9769558548069,548.5038579734933,1008.6196640317792
36024.0,12255.0,36024.0,12381.0,36024.0,30039.0,1235.710650218729,545.100275282796,1002.7388142943648
36024.0,12237.0,36024.0,12397.0,36024.0,30030.0,1223.4748379473003,541.6742256140902,996.8202692228754
36024.0,12256.0,36024.0,12396.0,36024.0,29994.0,1211.2884136979064,538.2351332784489,990.8800231268108
36024.0,12232.0,36024.0,12404.0,36024.0,30012.0,1199.1694049116772,534.7912320943143,984.9329922946977
36024.0,12212.0,36024.0,12405.0,36024.0,29977.0,1187.1351027025435,531.3498539268553,978.9928467020159
36024.0,12194.0,36024.0,12399.0,36024.0,29989.0,1175.2020049076898,527.9176952178424,973.0719190030793
36035.0,12203.0,36035.0,12437.0,36035.0,30013.0,1163.3856031200976,524.5010693598457,967.1812571492942
36035.0,12250.0,36035.0,12507.0,36035.0,30036.0,1151.700432079345,521.1064563449576,961.3310226055105
36035.0,12213.0,36035.0,12442.0,36035.0,30034.0,1140.1606055495677,517.7415012530828,955.5312479674219
36035.0,12181.0,36035.0,12387.0,36035.0,29988.0,1128.7803626352195,514.4156700865348,949.7924821172662
36035.0,12146.0,36035.0,12371.0,36035.0,29941.0,1117.5739866023905,511.13977344914144,944.1257883261085
36035.0,12140.0,36035.0,12281.0,36035.0,29917.0,1106.5552110971391,507.92474834638597,938.5420403223683
36045.0,12098.0,36045.0,12293.0,36045.0,29913.0,1095.7366172100726,504.78032714864446,933.051023930519
36045.0,12102.0,36045.0,12277.0,36045.0,29877.0,1085.1291646352238,501.71391110683214,927.6608154663267
36045.0,12120.0,36045.0,12337.0,36045.0,29928.0,1074.741909139591,498.7300872678082,922.3775013414945
36045.0,12096.0,36045.0,12325.0,36045.0,29889.0,1064.5820678892355,495.83094843075645,917.205236598029
36045.0,12092.0,36045.0,12298.0,36045.0,29898.0,1054.6552481804256,493.0166999469536,912.1465065871881
36045.0,12097.0,36045.0,12341.0,36045.0,29922.0,1044.9655459012247,490.285968435624,907.2023508344704
36055.0,12123.0,36055.0,12407.0,36055.0,29929.0,1035.5156835311832,487.6361098890148,902.3727007851667
36055.0,12127.0,36055.0,12421.0,36055.0,29953.0,1026.3074526490295,485.0641789575957,897.6569993596488
36055.0,12122.0,36055.0,12380.0,36055.0,29929.0,1017.3423212171662,482.568179029497,893.054869585447
36055.0,12089.0,36055.0,12318.0,36055.0,29903.0,1008.6218251184175,480.1475185932447,888.5664862608136
36055.0,12070.0,36055.0,12336.0,36055.0,29854.0,1000.1475091410863,477.80241490734153,884.192401741255
36055.0,12047.0,36055.0,12288.0,36055.0,29831.0,991.9205084296768,475.5330038946267,879.9328562023122
36066.0,12056.0,36066.0,12282.0,36066.0,29866.0,983.941079984012,473.3386885030146,875.787019610993
36066.0,12045.0,36066.0,12346.0,36066.0,29860.0,976.2083533294649,471.21777006055123,871.7527421663707
36066.0,12035.0,36066.0,12300.0,36066.0,29854.0,968.7202983296512,469.1675589495408,867.8268375252123
36066.0,12055.0,36066.0,12335.0,36066.0,29833.0,961.4737624391428,467.1848128754338,864.0053565256889
36066.0,12016.0,36066.0,12283.0,36066.0,29833.0,954.4645390102365,465.26596855304365,860.2835641424866
36066.0,12061.0,36066.0,12332.0,36066.0,29877.0,947.6874525879272,463.4071062003554,856.6559071678416
36076.0,12082.0,36076.0,12414.0,36076.0,29911.0,941.1365969151886,461.60417311895765,853.1164483430049
36076.0,12040.0,36076.0,12415.0,36076.0,29863.0,934.8058472334978,459.8539946710638,849.6597246154187
36076.0,12029.0,36076.0,12288.0,36076.0,29846.0,928.6891876799665,458.15541101712466,846.2812789063667
36076.0,11993.0,36076.0,12232.0,36076.0,29779.0,922.7804431612544,456.5090077551339,842.9773515369465
36076.0,11995.0,36076.0,12261.0,36076.0,29795.0,917.0726971970803,454.91544859838433,839.7440248988568
36076.0,11989.0,36076.0,12256.0,36076.0,29791.0,911.5578148481623,453.3740877498188,836.5764751618797
36086.0,11997.0,36086.0,12263.0,36086.0,29814.0,906.2262449975742,451.88267752638757,833.4687804193225
36086.0,12008.0,36086.0,12330.0,36086.0,29762.0,901.067096179793,450.43771187840895,830.4141215107153
36086.0,12037.0,36086.0,12283.0,36086.0,29773.0,896.0684498375481,449.0350658889819,827.4048353816331
36086.0,11995.0,36086.0,12237.0,36086.0,29793.0,891.2178040964673,447.6704699521969,824.432262513064
36086.0,12017.0,36086.0,12243.0,36086.0,29793.0,886.5023388083189,446.33922176350717,821.4868379330065
36086.0,12048.0,36086.0,12304.0,36086.0,29857.0,881.90900226192,445.03564016718644,818.5586163172828
36097.0,12038.0,36097.0,12330.0,36097.0,29829.0,877.4248226909926,443.75330120539917,815.6380857739533
36097.0,12026.0,36097.0,12329.0,36097.0,29818.0,873.0373640468556,442.48602619327517,812.7169043296878
36097.0,11983.0,36097.0,12282.0,36097.0,29757.0,868.7348043316524,441.22868301356226,809.7880332511421
36097.0,11986.0,36097.0,12242.0,36097.0,29754.0,864.5055154697056,439.97712894823013,806.8451743785937
36097.0,11974.0,36097.0,12238.0,36097.0,29741.0,860.3375073478946,438.7274348494851,803.8820014448
36097.0,11972.0,36097.0,12267.0,36097.0,29770.0,856.218072343635,437.47512540093027,800.8917299713125
36107.0,12000.0,36107.0,12218.0,36107.0,29758.0,852.1336975149328,436.214929391823,797.867191897234
36107.0,12005.0,36107.0,12237.0,36107.0,29736.0,848.0702651007284,434.940742668636,794.8011055319956
36107.0,11997.0,36107.0,12258.0,36107.0,29710.0,844.0134547447316,433.6455388298503,791.6860796549404
36107.0,11999.0,36107.0,12246.0,36107.0,29757.0,839.9490443360799,432.32149094417514,788.5143661628703
36107.0,12009.0,36107.0,12274.0,36107.0,29756.0,835.8630249281719,430.9603247544105,785.2778957660341
36107.0,12052.0,36107.0,12320.0,36107.0,29818.0,831.7418175583002,429.5537862395592,781.9688883955087
36117.0,12030.0,36117.0,12344.0,36117.0,29778.0,827.5727785969168,428.09443426027894,778.5807694202168
36117.0,12000.0,36117.0,12288.0,36117.0,29727.0,823.3446500264,426.57657033731005,775.1087645619464
36117.0,11978.0,36117.0,12248.0,36117.0,29704.0,819.0474572184588,424.9965145203523,771.5496394532975
36117.0,11970.0,36117.0,12193.0,36117.0,29685.0,814.6719456408131,423.3518693314924,767.900845054251
36117.0,11944.0,36117.0,12218.0,36117.0,29670.0,810.2089979905065,421.640328432249,764.159751033187
36117.0,11932.0,36117.0,12187.0,36117.0,29672.0,805.649155506592,419.85880721265147,760.3232019560346
36128.0,11975.0,36128.0,12229.0,36128.0,29680.0,800.9822781659584,418.0031524010053,756.3873639958487
36128.0,11983.0,36128.0,12231.0,36128.0,29680.0,796.1976354850259,416.0683012812968,752.347854171607
36128.0,11951.0,36128.0,12212.0,36128.0,29670.0,791.284381706713,414.0486720896945,748.2000065308007
36128.0,11970.0,36128.0,12232.0,36128.0,29683.0,786.2318632390873,411.9384579072005,743.9390932791063
36128.0,12019.0,36128.0,12239.0,36128.0,29684.0,781.0297465472825,409.73178172611983,739.5605374302534
36128.0,11988.0,36128.0,12331.0,36128.0,29701.0,775.6684565753617,407.4231439239767,735.0602466417095
36138.0,12006.0,36138.0,12265.0,36138.0,29695.0,770.1397681742858,405.00835660290034,730.4350542119272
36138.0,11964.0,36138.0,12174.0,36138.0,29662.0,764.437053002938,402.48515749908654,725.6830670167633
36138.0,11935.0,36138.0,12207.0,36138.0,29608.0,758.5550809768081,399.85261922899315,720.8035825223641
36138.0,11933.0,36138.0,12182.0,36138.0,29620.0,752.4894938544022,397.1100379661157,715.7964919640889
36138.0,11937.0,36138.0,12200.0,36138.0,29587.0,746.2362870713374,394.25642677468954,710.6616108899259
36138.0,11907.0,36138.0,12177.0,36138.0,29571.0,739.7915893585626,391.2905266112631,705.3982608740275
36148.0,11941.0,36148.0,12230.0,36148.0,29620.0,733.1516208767146,388.2109464741992,700.0050700325444
36148.0,11911.0,36148.0,12185.0,36148.0,29558.0,726.3127368995425,385.0164570232291,694.4800551003311
36148.0,11914.0,36148.0,12168.0,36148.0,29590.0,719.2715409756942,381.706229267077,688.8208353562542
36148.0,11914.0,36148.0,12199.0,36148.0,29644.0,712.0249381651838,378.27974313067455,683.0248691763605
36148.0,11964.0,36148.0,12283.0,36148.0,29615.0,704.5702842819718,374.7368961396591,677.0900795770553
36148.0,11929.0,36148.0,12206.0,36148.0,29601.0,696.9058761056541,371.07883030446203,671.0156462115845
36159.0,11904.0,36159.0,12207.0,36159.0,29559.0,689.031430512638,367.308706162049,664.802227244629
36159.0,11879.0,36159.0,12173.0,36159.0,29532.0,680.9480183135361,363.4316124198921,658.4515443443455
36159.0,11859.0,36159.0,12102.0,36159.0,29535.0,672.6575499417926,359.4538721580851,651.9657678954118
36159.0,11844.0,36159.0,12075.0,36159.0,29521.0,664.1622278233236,355.3820226824768,645.347101055292
36159.0,11827.0,36159.0,12116.0,36159.0,29501.0,655.464123219944,351.2217177551536,638.597647583988
36159.0,11835.0,36159.0,12111.0,36159.0,29495.0,646.5648956923565,346.9772542324204,631.7193306505058
36169.0,11833.0,36169.0,12131.0,36169.0,29485.0,637.4657279703387,342.65188685385925,624.7137714808429
36169.0,11838.0,36169.0,12093.0,36169.0,29475.0,628.1674984350002,338.2483117839763,617.5822269468374
36169.0,11817.0,36169.0,12097.0,36169.0,29454.0,618.6710414147656,333.7688371508412,610.325561758217
36169.0,11866.0,36169.0,12158.0,36169.0,29487.0,608.9774001451243,329.2154165527646,602.9442410497323
36169.0,11867.0,36169.0,12153.0,36169.0,29486.0,599.0882767518167,324.59010399880134,595.4385537988542
36169.0,11824.0,36169.0,12188.0,36169.0,29487.0,589.0066650471035,319.89597270912594,587.8091358593517
36179.0,11790.0,36179.0,12091.0,36179.0,29482.0,578.7370832439346,315.1378379655254,580.0575032013783
36179.0,11755.0,36179.0,12042.0,36179.0,29418.0,568.2851029283895,310.32207762722055,572.1862796291944
36179.0,11748.0,36179.0,12016.0,36179.0,29403.0,557.6565890075134,305.45547730456354,564.1989246462305
36179.0,11750.0,36179.0,12001.0,36179.0,29385.0,546.8571624579392,300.543881151079,556.0990949493442
36179.0,11751.0,36179.0,12040.0,36179.0,29362.0,535.8920900846683,295.5914433902632,547.8900806158194
36179.0,11723.0,36179.0,12024.0,36179.0,29379.0,524.7664473048321,290.60062408171007,539.5745263369633
36190.0,11723.0,36190.0,12055.0,36190.0,29388.0,513.4852259398293,285.5726274591888,531.1544780681253
36190.0,11724.0,36190.0,12025.0,36190.0,29362.0,502.053334229858,280.50789015423004,522.6317367933764
36190.0,11720.0,36190.0,12064.0,36190.0,29385.0,490.4757034182762,275.4064512897414,514.0082481544168
36190.0,11739.0,36190.0,12141.0,36190.0,29387.0,478.7575857369742,270.2684877407155,505.2864408576632
36190.0,11724.0,36190.0,12100.0,36190.0,29389.0,466.90497886621415,265.0953585804528,496.4696938983964
36190.0,11696.0,36190.0,12030.0,36190.0,29323.0,454.9249945549859,259.8905333640351,487.56274026171485
36200.0,11649.0,36200.0,11982.0,36200.0,29319.0,442.82585145293734,254.65934579190778,478.5715779569423
36200.0,11609.0,36200.0,11961.0,36200.0,29261.0,430.6163462133642,249.40775072984053,469.502908468498
36200.0,11614.0,36200.0,11931.0,36200.0,29266.0,418.30507175852415,244.1410760459118,460.3634707495941
36200.0,11617.0,36200.0,11949.0,36200.0,29253.0,405.89990454677854,238.8632466846822,451.1595599399828
36200.0,11603.0,36200.0,11958.0,36200.0,29219.0,393.40800948340643,233.5765334334203,441.89681356668103
36200.0,11592.0,36200.0,11980.0,36200.0,29243.0,380.8360708028241,228.28182018500638,432.58012943675226
36210.0,11560.0,36210.0,11949.0,36210.0,29217.0,368.19037632131653,222.9791305841981,423.21368063561414
36210.0,11571.0,36210.0,11944.0,36210.0,29229.0,355.47671638825796,217.66796070924792,413.8011023466435
36210.0,11594.0,36210.0,12004.0,36210.0,29232.0,342.7003927907009,212.34739754426982,404.3457896402033
36210.0,11586.0,36210.0,12014.0,36210.0,29248.0,329.8666227619409,207.0165757263767,394.85132432062767
36210.0,11562.0,36210.0,12004.0,36210.0,29192.0,316.98111328096275,201.6755818683505,385.32195988201437
36210.0,11540.0,36210.0,11952.0,36210.0,29155.0,304.0503197917815,196.32608400667584,375.76272530293977
36221.0,11511.0,36221.0,11878.0,36221.0,29132.0,291.0812879646078,190.9710608362372,366.1789249307232
36221.0,11479.0,36221.0,11869.0,36221.0,29112.0,278.0812664928669,185.6137116287423,356.57543296756387
36221.0,11460.0,36221.0,11853.0,36221.0,29127.0,265.0572222409131,180.25623076629967,346.95626201315184
36221.0,11463.0,36221.0,11866.0,36221.0,29102.0,252.0154173841995,174.89911057967242,337.324522885281
36221.0,11452.0,36221.0,11932.0,36221.0,29098.0,238.96125676059376,169.541182895053,327.6825813108823
36221.0,11435.0,36221.0,11915.0,36221.0,29111.0,225.89937689670035,164.1803486787818,318.0322231772791
36231.0,11450.0,36231.0,11898.0,36231.0,29050.0,212.83378630058724,158.81449999710946,308.37481004830613
36231.0,11444.0,36231.0,11902.0,36231.0,29104.0,199.76808114897187,153.44196449683824,298.7113641712224
36231.0,11452.0,36231.0,11980.0,36231.0,29129.0,186.7058313455526,148.06170519225347,289.042807557288
36231.0,11460.0,36231.0,11911.0,36231.0,29070.0,173.6510720652492,142.67390902687086,279.3706282963185
36231.0,11414.0,36231.0,11899.0,36231.0,29033.0,160.60875090270747,137.2805696104072,269.69734064266527
36231.0,11366.0,36231.0,11816.0,36231.0,29007.0,147.58480466682374,131.88524451410947,260.0261236084632
36241.0,11349.0,36241.0,11821.0,36241.0,28977.0,134.58565519068316,126.49206801039796,250.36006903462658
36241.0,11336.0,36241.0,11784.0,36241.0,28984.0,121.61750240118636,121.10469304930052,240.7016137777893
36241.0,11320.0,36241.0,11811.0,36241.0,28995.0,108.68589406551973,115.72563185254307,231.05236436097601
36241.0,11318.0,36241.0,11800.0,36241.0,28966.0,95.79559427728202,110.35609620126112,221.4133119853413
36241.0,11293.0,36241.0,11825.0,36241.0,28958.0,82.95057646215525,104.99621793859001,211.7851059574083
36241.0,11292.0,36241.0,11779.0,36241.0,28920.0,70.15403146489598,99.64538858492907,202.16805765248603
36252.0,11273.0,36252.0,11818.0,36252.0,28933.0,57.40836022915505,94.30245497320811,192.56194379627487
36252.0,11298.0,36252.0,11849.0,36252.0,28964.0,44.71524202948615,88.96593888640777,182.9659834400327
36252.0,11308.0,36252.0,11861.0,36252.0,28970.0,32.075956258392694,83.63468344654103,173.37932861614166
36252.0,11299.0,36252.0,11843.0,36252.0,28930.0,19.491979965482642,78.30873201535931,163.80182989169816
36252.0,11243.0,36252.0,11778.0,36252.0,28892.0,6.965472542440921,72.98974549820508,154.23437865451035
36252.0,11224.0,36252.0,11725.0,36252.0,28844.0,-5.500809862953929,67.68052901612415,144.67852054887277
36262.0,11192.0,36262.0,11732.0,36262.0,28841.0,-17.90408325718613,62.3839249088671,135.13568001764514
36262.0,11190.0,36262.0,11698.0,36262.0,28812.0,-30.24212064445794,57.10181266965097,125.60649778876211
36262.0,11196.0,36262.0,11746.0,36262.0,28865.0,-42.51353314294067,51.83467309116884,116.09059291810883
36262.0,11191.0,36262.0,11726.0,36262.0,28814.0,-54.71767661590343,46.581690259311785,106.58680603266362
36262.0,11190.0,36262.0,11701.0,36262.0,28803.0,-66.85432755128227,41.34107770173051,97.09355748910724
36262.0,11164.0,36262.0,11739.0,36262.0,28808.0,-78.92338725395496,36.11024623082088,87.6089096649277
36273.0,11172.0,36273.0,11751.0,36273.0,28798.0,-90.92474590761117,30.885983525754,78.13053782322288
36273.0,11184.0,36273.0,11785.0,36273.0,28855.0,-102.85815878539688,25.665054320888373,68.6560224470125
36273.0,11180.0,36273.0,11772.0,36273.0,28821.0,-114.72290594055005,20.44506749181039,59.18352786913118
36273.0,11136.0,36273.0,11774.0,36273.0,28818.0,-126.51739121975004,15.225177055563137,49.71253132733045
36273.0,11106.0,36273.0,11706.0,36273.0,28764.0,-138.2391319189452,10.006317641449215,40.244106682073266
36273.0,11077.0,36273.0,11663.0,36273.0,28706.0,-149.88524234649037,4.79077006029911,30.780562459609598
36283.0,11055.0,36283.0,11625.0,36283.0,28714.0,-161.45308353032965,-0.41888436525664474,21.324628464116017
36283.0,11037.0,36283.0,11626.0,36283.0,28708.0,-172.94080595633295,-5.6209229370505795,11.878749436387409
36283.0,11065.0,36283.0,11662.0,36283.0,28694.0,-184.34764780668024,-10.815132973724701,2.444914704331211
36283.0,11028.0,36283.0,11671.0,36283.0,28712.0,-195.67388757231925,-16.002670163867094,-6.975156363813824
36283.0,11016.0,36283.0,11652.0,36283.0,28671.0,-206.92066962894012,-21.18544161214686,-16.379766610749073
36283.0,11039.0,36283.0,11629.0,36283.0,28650.0,-218.08996787951264,-26.365689469598863,-25.767135502721658
36293.0,11041.0,36293.0,11722.0,36293.0,28690.0,-229.1844405391496,-31.54586009018169,-35.13548230814399
36293.0,11078.0,36293.0,11755.0,36293.0,28693.0,-240.20689066263947,-36.727985590100445,-44.48286098166983
36293.0,11039.0,36293.0,11688.0,36293.0,28651.0,-251.15952054574097,-41.91243405941924,-53.80660313405616
36293.0,11011.0,36293.0,11610.0,36293.0,28625.0,-262.04345549586753,-47.097289149140636,-63.1030086530734
36293.0,10966.0,36293.0,11620.0,36293.0,28558.0,-272.8588971317912,-52.27910578006066,-72.36771309491985
36293.0,10932.0,36293.0,11550.0,36293.0,28588.0,-283.6058049922317,-57.45417992724492,-81.59643650229441
36304.0,10951.0,36304.0,11546.0,36304.0,28552.0,-294.2846551540018,-62.619555470640535,-90.78554107328506
36304.0,10937.0,36304.0,11588.0,36304.0,28533.0,-304.89682051940247,-67.77368524528217,-99.93221163279117
36304.0,10949.0,36304.0,11591.0,36304.0,28567.0,-315.44446954644854,-72.91646710665111,-109.03449175031903
36304.0,10921.0,36304.0,11581.0,36304.0,28479.0,-325.9302869385426,-78.04869148900852,-118.09127071157695
36304.0,10921.0,36304.0,11561.0,36304.0,28524.0,-336.35730764510174,-83.1715824585531,-127.10234283271984
36304.0,10928.0,36304.0,11591.0,36304.0,28505.0,-346.7288539743445,-88.28669937369159,-136.06853915506707
36314.0,10952.0,36314.0,11663.0,36314.0,28571.0,-357.04831466711926,-93.39565473984132,-144.9914721471702
36314.0,10955.0,36314.0,11644.0,36314.0,28521.0,-367.31859988801796,-98.49917669149204,-153.87277601956737
36314.0,10910.0,36314.0,11595.0,36314.0,28520.0,-377.54154523667955,-103.59607460827482,-162.7134052047506
36314.0,10876.0,36314.0,11544.0,36314.0,28449.0,-387.7177868140301,-108.68311566400487,-171.51352926880418
36314.0,10867.0,36314.0,11507.0,36314.0,28443.0,-397.84721656984743,-113.75590544123264,-180.27303637057446
36314.0,10815.0,36314.0,11500.0,36314.0,28415.0,-407.92962126164434,-118.81004619377791,-188.99224456445575
36324.0,10836.0,36324.0,11466.0,36324.0,28412.0,-417.965227774499,-123.84201434028301,-197.67242024846416
36324.0,10828.0,36324.0,11478.0,36324.0,28442.0,-427.95501516814716,-128.8496905363694,-206.315911490006
36324.0,10821.0,36324.0,11487.0,36324.0,28402.0,-437.90067202050875,-133.8325808827887,-214.92590023645175
36324.0,10806.0,36324.0,11484.0,36324.0,28404.0,-447.80441152921503,-138.79168683844705,-223.5060789205598
36324.0,10794.0,36324.0,11483.0,36324.0,28378.0,-457.66892157055236,-143.7291877779137,-232.06057718199867
36324.0,10828.0,36324.0,11547.0,36324.0,28409.0,-467.4973464397606,-148.64805354246886,-240.59399085916544
36335.0,10839.0,36335.0,11567.0,36335.0,28470.0,-477.29297032601926,-153.55129955605855,-249.1110314784862
36335.0,10839.0,36335.0,11541.0,36335.0,28436.0,-487.05854374167006,-158.44091073175292,-257.6155755172392
36335.0,10799.0,36335.0,11492.0,36335.0,28375.0,-496.79568183898516,-163.31718893132472,-266.10976898544516
36335.0,10740.0,36335.0,11470.0,36335.0,28342.0,-506.50485260678556,-168.17901568567385,-274.5940897901737
36335.0,10749.0,36335.0,11422.0,36335.0,28315.0,-516.1860034673039,-173.02469018143876,-283.0682079421265
36335.0,10706.0,36335.0,11395.0,36335.0,28312.0,-525.8393203256967,-177.85288720469907,-291.53181993049793
36345.0,10720.0,36345.0,11452.0,36345.0,28294.0,-535.4657021822873,-182.66341938509635,-299.9850747861924
36345.0,10714.0,36345.0,11410.0,36345.0,28299.0,-545.0669351077042,-187.4574212925545,-308.42867885827377
36345.0,10708.0,36345.0,11438.0,36345.0,28283.0,-554.6456201924839,-192.23705657627033,-316.86383310133897
36345.0,10697.0,36345.0,11413.0,36345.0,28272.0,-564.2049991008298,-197.005245946522,-325.2921242768617
36345.0,10680.0,36345.0,11443.0,36345.0,28240.0,-573.7488795209147,-201.7654948594851,-333.7155177643921
36345.0,10759.0,36345.0,11498.0,36345.0,28299.0,-583.28151672842,-206.52150309332677,-342.13639931778494
36355.0,10722.0,36355.0,11480.0,36355.0,28281.0,-592.807066641685,-211.27633957357875,-350.5572933433756
36355.0,10703.0,36355.0,11453.0,36355.0,28271.0,-602.3288348739363,-216.0315850597292,-358.98024346417753
36355.0,10667.0,36355.0,11435.0,36355.0,28216.0,-611.8490582915138,-220.78710233624014,-367.40646038822297
36355.0,10650.0,36355.0,11367.0,36355.0,28198.0,-621.3693120682233,-225.54148445453023,-375.8366012899006
36355.0,10626.0,36355.0,11344.0,36355.0,28173.0,-630.891072660889,-230.2929280616013,-384.271401392018
36355.0,10629.0,36355.0,11367.0,36355.0,28173.0,-640.4161533307436,-235.04020198444744,-392.71221048130667
36366.0,10647.0,36366.0,11385.0,36366.0,28192.0,-649.9468563338476,-239.7830938848697,-401.16116517478997
36366.0,10610.0,36366.0,11326.0,36366.0,28155.0,-659.4858052958557,-244.52223180980997,-409.62099891691184
36366.0,10607.0,36366.0,11338.0,36366.0,28164.0,-669.0357673290446,-249.25898287337043,-418.094793199205
36366.0,10602.0,36366.0,11353.0,36366.0,28123.0,-678.599695514768,-253.99565368424328,-426.5859330020552
36366.0,10624.0,36366.0,11413.0,36366.0,28182.0,-688.1807346538642,-258.7353469110161,-435.0981206552309
36366.0,10634.0,36366.0,11422.0,36366.0,28181.0,-697.7818927078922,-263.48110155288407,-443.6350493404036
36376.0,10612.0,36376.0,11431.0,36376.0,28162.0,-707.4054931887729,-268.2347316897249,-452.1996956492894
36376.0,10594.0,36376.0,11357.0,36376.0,28109.0,-717.052809104579,-272.9960820478923,-460.7938462976223
36376.0,10541.0,36376.0,11332.0,36376.0,28080.0,-726.7241657609045,-277.7631779302926,-469.4183526921646
36376.0,10526.0,36376.0,11302.0,36376.0,28068.0,-736.4194840459986,-282.533099523562,-478.0738360438676
36376.0,10524.0,36376.0,11210.0,36376.0,28093.0,-746.1389464618017,-287.3030989919669,-486.7611994528221
36376.0,10508.0,36376.0,11302.0,36376.0,28065.0,-755.8833993680869,-292.071679140995,-495.48161505164103
36386.0,10516.0,36386.0,11275.0,36386.0,28004.0,-765.6544246479559,-296.83911767902475,-504.2363706841603
36386.0,10525.0,36386.0,11298.0,36386.0,28006.0,-775.4542021910074,-301.60713153906516,-513.0271649839431
36386.0,10495.0,36386.0,11266.0,36386.0,28040.0,-785.2852380249219,-306.37832884329816,-521.8565816557647
36386.0,10506.0,36386.0,11311.0,36386.0,28051.0,-795.1501462363851,-311.1559341536455,-530.7279597265227
36386.0,10527.0,36386.0,11359.0,36386.0,28064.0,-805.0514947248794,-315.94338825998716,-539.6446131410531
36386.0,10533.0,36386.0,11351.0,36386.0,28071.0,-814.991415201689,-320.74344600043366,-548.6089379145137
36397.0,10503.0,36397.0,11291.0,36397.0,28006.0,-824.9710319998428,-325.55728401493394,-557.6218094677278
36397.0,10462.0,36397.0,11288.0,36397.0,27970.0,-834.9902216346666,-330.3844136739393,-566.682606014478
36397.0,10412.0,36397.0,11215.0,36397.0,27943.0,-845.0480167589067,-335.2233526014167,-575.7898964244959
36397.0,10394.0,36397.0,11196.0,36397.0,27896.0,-855.1434723790546,-340.07259541756525,-584.9423372399557
36397.0,10393.0,36397.0,11193.0,36397.0,27938.0,-865.2765086637385,-344.9316085109585,-594.1393518779571
36397.0,10403.0,36397.0,11239.0,36397.0,27905.0,-875.448299314698,-349.8013915168591,-603.3813512328701
36407.0,10395.0,36407.0,11197.0,36407.0,27930.0,-885.6611589537736,-354.68433028726884,-612.669505814055
36407.0,10398.0,36407.0,11232.0,36407.0,27893.0,-895.9182168578504,-359.5837723725896,-622.0054033224163
36407.0,10384.0,36407.0,11205.0,36407.0,27904.0,-906.223129937259,-364.50374385206834,-631.3908324559953
36407.0,10432.0,36407.0,11294.0,36407.0,27892.0,-916.5797964127182,-369.4486111109799,-640.8276584957395
36407.0,10414.0,36407.0,11324.0,36407.0,27928.0,-926.9918535429717,-374.42223008374197,-650.317588246921
36407.0,10402.0,36407.0,11254.0,36407.0,27887.0,-937.4620584485276,-379.4267123531956,-659.861717025348
36417.0,10348.0,36417.0,11236.0,36417.0,27862.0,-947.992037614626,-384.46179759315913,-669.4601713160887
36417.0,10308.0,36417.0,11134.0,36417.0,27823.0,-958.5826822375288,-389.5254313130035,-679.112241699045
36417.0,10315.0,36417.0,11126.0,36417.0,27790.0,-969.2349282993116,-394.6151289977481,-688.8169473494664
36417.0,10281.0,36417.0,11143.0,36417.0,27786.0,-979.9503951686856,-399.7293293498146,-698.5736880993242
36417.0,10298.0,36417.0,11129.0,36417.0,27816.0,-990.731651986925,-404.86804053791786,-708.38259957886
36417.0,10294.0,36417.0,11129.0,36417.0,27796.0,-1001.582200826836,-410.0328138970219,-718.2443605143377
36428.0,10279.0,36428.0,11136.0,36428.0,27760.0,-1012.5062676103219,-415.2265732668509,-728.1597759749376
36428.0,10290.0,36428.0,11143.0,36428.0,27748.0,-1023.5085524539504,-420.4534172970836,-738.1297133105421
36428.0,10279.0,36428.0,11168.0,36428.0,27773.0,-1034.5940121646804,-425.71824892193393,-748.1552976665499
36428.0,10322.0,36428.0,11215.0,36428.0,27777.0,-1045.767524984728,-431.02612866923886,-758.2377882668413
36428.0,10299.0,36428.0,11240.0,36428.0,27772.0,-1057.0333281519304,-436.38126058987433,-768.378030199319
36428.0,10272.0,36428.0,11158.0,36428.0,27755.0,-1068.3944649016928,-441.7859587377364,-778.5759086749724
36438.0,10246.0,36438.0,11104.0,36438.0,27700.0,-1079.8526677850073,-447.2404743925108,-788.8301801284204
36438.0,10183.0,36438.0,11100.0,36438.0,27671.0,-1091.4087793925164,-452.7439267981825,-799.1388177795645
36438.0,10181.0,36438.0,11061.0,36438.0,27644.0,-1103.0634999578679,-458.29546922598985,-809.499717890863
36438.0,10176.0,36438.0,11129.0,36438.0,27642.0,-1114.818093488314,-463.894903151517,-819.9113539402397
36438.0,10188.0,36438.0,11076.0,36438.0,27623.0,-1126.6746375304394,-469.54263330773824,-830.3731035447026
36438.0,10179.0,36438.0,11062.0,36438.0,27645.0,-1138.6357922428717,-475.23940478903614,-840.8852562748297
36448.0,10140.0,36448.0,11025.0,36448.0,27563.0,-1150.7044914304336,-480.98644347486857,-851.448898680508
36448.0,10145.0,36448.0,11041.0,36448.0,27624.0,-1162.8839075841283,-486.7859633204997,-862.0659396029671
36448.0,10202.0,36448.0,11144.0,36448.0,27635.0,-1175.1774520365068,-492.64127550761896,-872.7390430126618
36448.0,10183.0,36448.0,11181.0,36448.0,27655.0,-1187.5882556359338,-498.555789061945,-883.4709684585968
36448.0,10152.0,36448.0,11112.0,36448.0,27651.0,-1200.1183585170847,-504.53131973017855,-894.2635457092854
36448.0,10118.0,36448.0,11059.0,36448.0,27592.0,-1212.7684122904743,-510.56721266896767,-905.1169594303893
36459.0,10097.0,36459.0,11034.0,36459.0,27548.0,-1225.538032202348,-516.6609224393546,-916.0297668062823
36459.0,10053.0,36459.0,10995.0,36459.0,27514.0,-1238.4263742611938,-522.8091902450201,-926.9996157208345
36459.0,10085.0,36459.0,11009.0,36459.0,27526.0,-1251.4326317554403,-529.0089705463656,-938.0240989201153
36459.0,10058.0,36459.0,11009.0,36459.0,27506.0,-1264.556212385231,-535.2578663205595,-949.1011674646329
36459.0,10053.0,36459.0,11038.0,36459.0,27515.0,-1277.7965818661496,-541.5540305617272,-960.229073187572
36459.0,10080.0,36459.0,10986.0,36459.0,27493.0,-1291.1530087766585,-547.8957648028788,-971.4061336638855
36469.0,10050.0,36469.0,10980.0,36469.0,27488.0,-1304.6242187659166,-554.2813327942671,-982.6305261690844
36469.0,10031.0,36469.0,11021.0,36469.0,27495.0,-1318.2080370760439,-560.7090824866982,-993.9001248518899
36469.0,10066.0,36469.0,11043.0,36469.0,27510.0,-1331.9012177490454,-567.1772631922028,-1005.2122091683391
36469.0,10052.0,36469.0,11051.0,36469.0,27493.0,-1345.699194486729,-573.6832445416878,-1016.562950560873
36469.0,10022.0,36469.0,11016.0,36469.0,27460.0,-1359.5956278032604,-580.2226918037622,-1027.9469607976962
36469.0,9991.0,36469.0,10927.0,36469.0,27404.0,-1373.5822161010947,-586.7894261965821,-1039.357314939626
36479.0,9956.0,36479.0,10917.0,36479.0,27378.0,-1387.6490015808536,-593.3762354405383,-1050.7861361280357
36479.0,9935.0,36479.0,10904.0,36479.0,27374.0,-1401.784918286004,-599.9760822678347,-1062.225366000092
36479.0,9894.0,36479.0,10902.0,36479.0,27391.0,-1415.978353917348,-606.5828793608661,-1073.6671685031497
36479.0,9907.0,36479.0,10920.0,36479.0,27355.0,-1430.217626604853,-613.1916407066476,-1085.1038074902394
36479.0,9893.0,36479.0,10915.0,36479.0,27359.0,-1444.491215108671,-619.7982483588878,-1096.5273788087334
36479.0,9893.0,36479.0,10917.0,36479.0,27325.0,-1458.7876558042333,-626.3990654750855,-1107.929724977015
36490.0,9897.0,36490.0,10907.0,36490.0,27317.0,-1473.09524848506,-632.9906123044004,-1119.302506398349
36490.0,9893.0,36490.0,10967.0,36490.0,27372.0,-1487.4016846861257,-639.5692587040172,-1130.6371804593414
36490.0,9908.0,36490.0,11009.0,36490.0,27383.0,-1501.693594864688,-646.1305224897455,-1141.9244719004585
36490.0,9870.0,36490.0,10948.0,36490.0,27344.0,-1515.956085673531,-652.667955536245,-1153.1534035494349
36490.0,9838.0,36490.0,10921.0,36490.0,27279.0,-1530.1725207291802,-659.1724717926384,-1164.3107579259474
36490.0,9829.0,36490.0,10886.0,36490.0,27283.0,-1544.3247133275452,-665.6326719276317,-1175.3814476752684
36500.0,9806.0,36500.0,10815.0,36500.0,27246.0,-1558.3932807025221,-672.0357641995788,-1186.3492225446494
36500.0,9791.0,36500.0,10817.0,36500.0,27236.0,-1572.3578770912945,-678.368660975104,-1197.197130552534
36500.0,9784.0,36500.0,10805.0,36500.0,27238.0,-1586.19732039515,-684.6189477368712,-1207.9077318451382
36500.0,9780.0,36500.0,10844.0,36500.0,27221.0,-1599.889621186319,-690.7752858446621,-1218.4631224491218
36500.0,9751.0,36500.0,10818.0,36500.0,27192.0,-1613.411908673947,-696.8271887336384,-1228.8448595506998
36500.0,9768.0,36500.0,10819.0,36500.0,27192.0,-1626.740353502725,-702.7646191586172,-1239.0340094651506
36511.0,9765.0,36511.0,10844.0,36511.0,27190.0,-1639.850027413527,-708.5777275750713,-1249.011246039214
36511.0,9789.0,36511.0,10914.0,36511.0,27238.0,-1652.7145143579137,-714.2564041456401,-1258.7566540437929
36511.0,9782.0,36511.0,10948.0,36511.0,27211.0,-1665.3052941154704,-719.7891650801166,-1268.2491005732809
36511.0,9747.0,36511.0,10845.0,36511.0,27171.0,-1677.5911825963199,-725.1618168447203,-1277.465598059757
36511.0,9712.0,36511.0,10810.0,36511.0,27164.0,-1689.5382061684725,-730.3571209503605,-1286.3812242088527
36511.0,9679.0,36511.0,10767.0,36511.0,27118.0,-1701.1100182764492,-735.3557936952545,-1294.9695267486713
36521.0,9658.0,36521.0,10759.0,36521.0,27080.0,-1712.2685761241767,-740.1378619308573,-1303.20309404601
36521.0,9629.0,36521.0,10752.0,36521.0,27097.0,-1722.9747811019192,-744.6835639477696,-1311.0541932745928
36521.0,9641.0,36521.0,10770.0,36521.0,27106.0,-1733.1889526359773,-748.9737009990151,-1318.4951431003415
36521.0,9644.0,36521.0,10732.0,36521.0,27065.0,-1742.8709991056915,-752.9896282984514,-1325.4982113092626
36521.0,9634.0,36521.0,10741.0,36521.0,27068.0,-1751.9802466336391,-756.7132301448955,-1332.0354774182656
36521.0,9609.0,36521.0,10756.0,36521.0,27050.0,-1760.4752144135975,-760.1269870314457,-1338.0789566283438
36531.0,9662.0,36531.0,10806.0,36531.0,27103.0,-1768.3135200279914,-763.2137649869328,-1343.6006521097743
36531.0,9661.0,36531.0,10824.0,36531.0,27097.0,-1775.4515882571502,-765.9560565430072,-1348.5721682090834
36531.0,9629.0,36531.0,10821.0,36531.0,27076.0,-1781.8440817831479,-768.3349653062004,-1352.9640676222973
36531.0,9584.0,36531.0,10729.0,36531.0,27037.0,-1787.4436866012784,-770.3296450372007,-1356.745588668527
36531.0,9551.0,36531.0,10672.0,36531.0,26980.0,-1792.2016583486813,-771.9178434659433,-1359.8850797917116
36531.0,9527.0,36531.0,10649.0,36531.0,26987.0,-1796.0687971595419,-773.0774219906393,-1362.3509296704028
36542.0,9539.0,36542.0,10672.0,36542.0,26963.0,-1798.996326443722,-773.7878583171871,-1364.11245766217
36542.0,9556.0,36542.0,10670.0,36542.0,26986.0,-1800.9363189693067,-774.0309252727468,-1365.1403871574178
36542.0,9545.0,36542.0,10684.0,36542.0,26993.0,-1801.841635391886,-773.7906496545761,-1365.406888660431
36542.0,9506.0,36542.0,10659.0,36542.0,26969.0,-1801.6658078291805,-773.0530981037253,-1364.8853898420934
36542.0,9537.0,36542.0,10687.0,36542.0,26944.0,-1800.3632686756114,-771.8063021732196,-1363.5505399937413
36542.0,9532.0,36542.0,10690.0,36542.0,26963.0,-1797.8896772389928,-770.040215785544,-1361.3785300875443
36552.0,9571.0,36552.0,10763.0,36552.0,27015.0,-1794.2019186647428,-767.746389768515,-1358.3473118998495
36552.0,9576.0,36552.0,10773.0,36552.0,27001.0,-1789.2577806273512,-764.9171776180672,-1354.4362474634386
36552.0,9554.0,36552.0,10755.0,36552.0,26992.0,-1783.0156147660289,-761.5447702572383,-1349.6255558561556
36552.0,9541.0,36552.0,10717.0,36552.0,26943.0,-1775.4343687368942,-757.6207643018934,-1343.8962743916377
36552.0,9499.0,36552.0,10661.0,36552.0,26909.0,-1766.4741602170247,-753.1366546662409,-1337.2309493632965
36552.0,9511.0,36552.0,10652.0,36552.0,26940.0,-1756.0971978773705,-748.0849927366316,-1329.6146825566325
36562.0,9514.0,36562.0,10712.0,36562.0,26986.0,-1744.2686620460327,-742.4604798118337,-1321.0357832815048
36562.0,9538.0,36562.0,10656.0,36562.0,26939.0,-1730.957222474803,-736.2603707072664,-1311.4856884350515
36562.0,9556.0,36562.0,10721.0,36562.0,26964.0,-1716.1351761106425,-729.4844082702209,-1300.9587823675988
36562.0,9539.0,36562.0,10678.0,36562.0,26990.0,-1699.7784608667203,-722.1347705356649,-1289.4525397829734
36562.0,9560.0,36562.0,10724.0,36562.0,27002.0,-1681.8668457936758,-714.2160608856045,-1276.967568895731
36562.0,9618.0,36562.0,10792.0,36562.0,27034.0,-1662.3842194983415,-705.7351185324736,-1263.507352553007
36573.0,9647.0,36573.0,10841.0,36573.0,27076.0,-1641.3185221226272,-696.7002565802666,-1249.0778552698157
36573.0,9663.0,36573.0,10816.0,36573.0,27078.0,-1618.6613031874786,-687.1200529220336,-1233.687030471139
36573.0,9651.0,36573.0,10788.0,36573.0,27093.0,-1594.4074682844634,-677.0026367679561,-1217.3444017909296
36573.0,9639.0,36573.0,10776.0,36573.0,27050.0,-1568.5556216523503,-666.3559926512794,-1200.0610520850419
36573.0,9656.0,36573.0,10758.0,36573.0,27092.0,-1541.1089056318046,-655.1888384509741,-1181.8500866287125
36573.0,9700.0,36573.0,10747.0,36573.0,27082.0,-1512.0758553835744,-643.5115348038414,-1162.7272240755765
36583.0,9758.0,36583.0,10809.0,36583.0,27140.0,-1481.4707628237024,-631.3367564544635,-1142.7111120238283
36583.0,9797.0,36583.0,10822.0,36583.0,27143.0,-1449.3134543744718,-618.6796196153584,-1121.823293818647
36583.0,9816.0,36583.0,10811.0,36583.0,27163.0,-1415.6288665703382,-605.5573397997593,-1100.0880384727577
36583.0,9851.0,36583.0,10856.0,36583.0,27206.0,-1380.4468640932635,-591.9889761593439,-1077.5322374007715
36583.0,9918.0,36583.0,10891.0,36583.0,27247.0,-1343.802281214341,-577.9952981980786,-1054.1852477808775
36583.0,10013.0,36583.0,10977.0,36583.0,27319.0,-1305.7347020035236,-563.5982582006309,-1030.0784104956251
36593.0,10036.0,36593.0,10977.0,36593.0,27333.0,-1266.2877292621276,-548.8199553817259,-1005.2442639659661
36593.0,10055.0,36593.0,10992.0,36593.0,27389.0,-1225.5082589707713,-533.6816273414865,-979.7157604754375
36593.0,10095.0,36593.0,10976.0,36593.0,27349.0,-1183.446372029081,-518.2032469043265,-953.5258178506645
36593.0,10130.0,36593.0,10909.0,36593.0,27340.0,-1140.1556839159482,-502.40389567272996,-926.7075049425313
36593.0,10192.0,36593.0,10922.0,36593.0,27365.0,-1095.6936447114879,-486.30282864515885,-899.2948719773493
36593.0,10241.0,36593.0,10958.0,36593.0,27395.0,-1050.1215853636197,-469.92069500299,-871.3238317445408
36604.0,10302.0,36604.0,11026.0,36604.0,27478.0,-1003.504552853941,-453.2800219676012,-842.8324429149077
36604.0,10351.0,36604.0,11039.0,36604.0,27489.0,-955.9110577432973,-436.40473641765,-813.8605295592641
36604.0,10428.0,36604.0,11023.0,36604.0,27504.0,-907.4128007949197,-419.31946219410594,-784.4491395391872
36604.0,10500.0,36604.0,11062.0,36604.0,27566.0,-858.0842894358373,-402.0493107417853,-754.6403261735676
36604.0,10580.0,36604.0,11120.0,36604.0,27665.0,-808.0022405498936,-384.61992751767445,-724.476915916352
36604.0,10655.0,36604.0,11206.0,36604.0,27674.0,-757.2448137385018,-367.0570122001504,-694.0017142832648
36614.0,10703.0,36614.0,11157.0,36614.0,27707.0,-705.8908506571879,-349.3852734235244,-663.2565655320603
36614.0,10759.0,36614.0,11145.0,36614.0,27703.0,-654.0193445579318,-331.62780073988785,-632.2820013490609
36614.0,10772.0,36614.0,11148.0,36614.0,27727.0,-601.7093034304468,-313.8064844111964,-601.1175034964233
36614.0,10846.0,36614.0,11172.0,36614.0,27746.0,-549.0399859671377,-295.942860997612,-569.8019945952551
36614.0,10912.0,36614.0,11182.0,36614.0,27789.0,-496.0911860144802,-278.05861096226363,-538.3742380322974
36614.0,10992.0,36614.0,11200.0,36614.0,27817.0,-442.9431561690751,-260.1757035370083,-506.872987869884
36624.0,11062.0,36624.0,11241.0,36624.0,27879.0,-389.6761375739392,-242.31640063093317,-475.3368874969425
36624.0,11117.0,36624.0,11249.0,36624.0,27887.0,-336.36977865977224,-224.50311502012562,-443.80420278253837
36624.0,11186.0,36624.0,11269.0,36624.0,27946.0,-283.1026749855504,-206.75819495078093,-412.31255037642654
36624.0,11247.0,36624.0,11308.0,36624.0,27979.0,-229.9520478374145,-189.10377001874792,-380.898676581067
36624.0,11343.0,36624.0,11400.0,36624.0,28096.0,-176.99338702484636,-171.56140868619707,-349.598024518176
36624.0,11413.0,36624.0,11418.0,36624.0,28076.0,-124.29987323967441,-154.15123257356896,-318.44390829259135
36635.0,11470.0,36635.0,11412.0,36635.0,28084.0,-71.94164229489854,-136.8908531302485,-287.46682322473794
36635.0,11474.0,36635.0,11353.0,36635.0,28079.0,-19.985301714544676,-119.79503666604154,-256.6945872332243
36635.0,11508.0,36635.0,11339.0,36635.0,28080.0,31.505897854474824,-102.876485726802,-226.15316869021012
36635.0,11581.0,36635.0,11356.0,36635.0,28122.0,82.47142475527721,-86.14717575491898,-195.86758462461353
36635.0,11616.0,36635.0,11370.0,36635.0,28185.0,132.85299137169045,-69.61937235902212,-165.86239284285045
36635.0,11691.0,36635.0,11464.0,36635.0,28205.0,182.59447884051133,-53.305871429023114,-136.16157275003604
36645.0,11749.0,36645.0,11445.0,36645.0,28219.0,231.64208523457853,-37.219508237740285,-106.78815834026602
36645.0,11796.0,36645.0,11435.0,36645.0,28237.0,279.94459178167324,-21.37254627841719,-77.76417100412687
36645.0,11842.0,36645.0,11472.0,36645.0,28277.0,327.4536011332011,-5.77662134644504,-49.11084330904362
36645.0,11923.0,36645.0,11575.0,36645.0,28364.0,374.1236724430912,9.557192606125113,-20.848645318347735
36645.0,12017.0,36645.0,11618.0,36645.0,28395.0,419.9126563601135,24.619153435638566,7.003255557640614
36645.0,12065.0,36645.0,11633.0,36645.0,28435.0,464.7824641319455,39.4022869492909,34.427869111705945
36655.0,12071.0,36655.0,11567.0,36655.0,28458.0,508.69984720212165,53.90334208016378,61.411053597243836
36655.0,12092.0,36655.0,11533.0,36655.0,28415.0,551.6365146337569,68.12247201635495,87.94168068182125
36655.0,12093.0,36655.0,11499.0,36655.0,28441.0,593.5685064694028,82.06185186253606,114.01117313476232
36655.0,12135.0,36655.0,11551.0,36655.0,28421.0,634.4752691742872,95.72415566288521,139.6126018021281
36655.0,12184.0,36655.0,11538.0,36655.0,28494.0,674.338903459321,109.1117022237076,164.73988249510853
36655.0,12235.0,36655.0,11581.0,36655.0,28537.0,713.143872533755,122.22630609245596,189.38754658063658
36666.0,12268.0,36666.0,11581.0,36666.0,28556.0,750.8771005484914,135.06941066923747,213.55113202498706
36666.0,12305.0,36666.0,11573.0,36666.0,28532.0,787.5281318741631,147.6421937660989,237.2276041445573
36666.0,12360.0,36666.0,11608.0,36666.0,28596.0,823.0892059343871,159.94550390914003,260.41527599614926
36666.0,12409.0,36666.0,11745.0,36666.0,28650.0,857.5554078103416,171.98002804241145,283.11365955983433
36666.0,12463.0,36666.0,11735.0,36666.0,28688.0,890.9250304597203,183.7473665230375,305.3238913140108
36666.0,12470.0,36666.0,11681.0,36666.0,28697.0,923.1999989554733,195.25140825967543,327.04948937191705
36676.0,12478.0,36676.0,11671.0,36676.0,28656.0,954.3860006270268,206.4985751647405,348.2966933651246
36676.0,12474.0,36676.0,11633.0,36676.0,28641.0,984.49209236704,217.4968568688239,369.0739660290957
36676.0,12514.0,36676.0,11662.0,36676.0,28671.0,1013.529977183784,228.25464331192865,389.3909375963385
36676.0,12503.0,36676.0,11646.0,36676.0,28686.0,1041.513336250755,238.7799438720973,409.257551633729
36676.0,12546.0,36676.0,11696.0,36676.0,28704.0,1068.4573314424358,249.08005955735905,428.68376617875083
36676.0,12590.0,36676.0,11679.0,36676.0,28710.0,1094.3782941166837,259.16160075329105,447.67950428312736
36686.0,12585.0,36686.0,11679.0,36686.0,28748.0,1119.293688706561,269.03057709228665,466.25459258903356
36686.0,12616.0,36686.0,11713.0,36686.0,28762.0,1143.2221320391686,278.69233055322354,484.41877261789136
36686.0,12681.0,36686.0,11771.0,36686.0,28832.0,1166.183328185794,288.15159694279,502.1819423068355
36686.0,12707.0,36686.0,11876.0,36686.0,28833.0,1188.1982744190248,297.41327841375494,519.5546679521381
36686.0,12715.0,36686.0,11840.0,36686.0,28806.0,1209.289751806927,306.48391876207904,536.5486444666772
36686.0,12719.0,36686.0,11758.0,36686.0,28814.0,1229.4825675280124,315.3727844757426,553.176579467236
36697.0,12701.0,36697.0,11715.0,36697.0,28811.0,1248.8032850893946,324.09137553678295,569.4515655778432
36697.0,12692.0,36697.0,11702.0,36697.0,28807.0,1267.2795509346101,332.65171376406306,585.3864323123198
36697.0,12698.0,36697.0,11704.0,36697.0,28823.0,1284.9392169438308,341.0647257854231,600.9932349758903
36697.0,12734.0,36697.0,11763.0,36697.0,28868.0,1301.8095959091465,349.3394548830597,616.2829449417468
36697.0,12733.0,36697.0,11674.0,36697.0,28838.0,1317.9171223003086,357.482943524726,631.2654461541397
36697.0,12780.0,36697.0,11768.0,36697.0,28868.0,1333.2873405463797,365.50016703911547,645.9495683547593
36707.0,12764.0,36707.0,11754.0,36707.0,28885.0,1347.9450034463955,373.393929168073,660.3429543458333
36707.0,12812.0,36707.0,11794.0,36707.0,28926.0,1361.914158463034,381.1651362215257,674.4520605186035
36707.0,12858.0,36707.0,11875.0,36707.0,28953.0,1375.2183202628833,388.81346593206626,688.282508964001
36707.0,12864.0,36707.0,11901.0,36707.0,29009.0,1387.880933120641,396.3384127580638,701.8397019120835
36707.0,12849.0,36707.0,11891.0,36707.0,28976.0,1399.9258552944177,403.74053559283766,715.1294979659019
36707.0,12832.0,36707.0,11805.0,36707.0,28942.0,1411.37731820992,411.02203768598315,728.1584622355504
36717.0,12814.0,36717.0,11812.0,36717.0,28938.0,1422.2593050463588,418.18612425709796,740.9333036556159
36717.0,12863.0,36717.0,11794.0,36717.0,28925.0,1432.5948012636388,425.2357408068938,753.4598716480737
36717.0,12845.0,36717.0,11869.0,36717.0,28979.0,1442.4053999759906,432.1727423467222,765.7423999927912
36717.0,12858.0,36717.0,11814.0,36717.0,29012.0,1451.7112472726826,438.99785166239724,777.7833903311687
36717.0,12871.0,36717.0,11870.0,36717.0,28994.0,1460.5309827623303,445.7109087242154,789.5840319626827
36717.0,12875.0,36717.0,11838.0,36717.0,29042.0,1468.8816483855792,452.31096802700404,801.1446195455978
36728.0,12863.0,36728.0,11848.0,36728.0,29034.0,1476.778623585732,458.79625600828524,812.4647460531521
36728.0,12933.0,36728.0,11906.0,36728.0,29095.0,1484.2355660536634,465.1641363084442,823.5435360814938
36728.0,12952.0,36728.0,11953.0,36728.0,29109.0,1491.2646611095747,471.4114674367672,834.3801016561681
36728.0,12945.0,36728.0,11931.0,36728.0,29098.0,1497.8772683222737,477.53548041839724,844.9740930684447
36728.0,12958.0,36728.0,11905.0,36728.0,29063.0,1504.0844246361169,483.5344338128134,855.3258813372081
36728.0,12914.0,36728.0,11860.0,36728.0,29085.0,1509.8968454380044,489.4073722918324,865.4361254166874
36738.0,12911.0,36738.0,11871.0,36738.0,29038.0,1515.3244899930555,495.15321954174453,875.305080320519
36738.0,12931.0,36738.0,11847.0,36738.0,29059.0,1520.375935780842,500.7698551460451,884.9319395926702
36738.0,12941.0,36738.0,11906.0,36738.0,29103.0,1525.0580086618731,506.2535984546771,894.3143578379102
36738.0,12934.0,36738.0,11939.0,36738.0,29118.0,1529.3758062180266,511.599305936546,903.448491307664
36738.0,12954.0,36738.0,11910.0,36738.0,29110.0,1533.3327983512356,516.8009748787069,912.3294554349866
36738.0,12930.0,36738.0,11901.0,36738.0,29106.0,1536.930828915021,521.8521756503808,920.9515842333385
36749.0,12983.0,36749.0,11942.0,36749.0,29123.0,1540.1700992179246,526.7459565493632,929.3083055359707
36749.0,12994.0,36749.0,12026.0,36749.0,29195.0,1543.0493519026413,531.4749337861269,937.3921098586841
36749.0,13027.0,36749.0,12026.0,36749.0,29214.0,1545.566404948582,536.0322083450687,945.1951068863889
36749.0,13014.0,36749.0,12046.0,36749.0,29193.0,1547.7188071545738,540.412616165514,952.7099269764017
36749.0,12988.0,36749.0,11953.0,36749.0,29190.0,1549.5041901870657,544.6133465409956,959.9301887970032
36749.0,12982.0,36749.0,11925.0,36749.0,29165.0,1550.9201027579315,548.6334330885417,966.8502743014358
36759.0,12995.0,36759.0,11932.0,36759.0,29176.0,1551.9635718822128,552.4724674897487,973.464795754461
36759.0,12993.0,36759.0,11897.0,36759.0,29197.0,1552.6308446145915,556.1294325580957,979.7681820065511
36759.0,13016.0,36759.0,11977.0,36759.0,29211.0,1552.9174378611385,559.6021565448202,985.7546371628348
36759.0,13017.0,36759.0,11946.0,36759.0,29211.0,1552.8183709199893,562.8873846794332,991.4183929065462
36759.0,13024.0,36759.0,11929.0,36759.0,29200.0,1552.328465543937,565.9811138677014,996.7539045627491
36759.0,13004.0,36759.0,11968.0,36759.0,29198.0,1551.4425578585822,568.8786584147567,1001.7557806238758
36769.0,13034.0,36769.0,12042.0,36769.0,29264.0,1550.1555514731544,571.5747504590707,1006.4186725753266
36769.0,13085.0,36769.0,12112.0,36769.0,29296.0,1548.462607413341,574.0644908214265,1010.7376493395091
36769.0,13069.0,36769.0,12058.0,36769.0,29251.0,1546.3597826906057,576.3449298420383,1014.7090281763897
36769.0,13047.0,36769.0,12016.0,36769.0,29264.0,1543.8447331529455,578.4160236443388,1018.3308668741022
36769.0,13002.0,36769.0,11994.0,36769.0,29232.0,1540.9167926762964,580.2802677294308,1021.6027733140504
36769.0,12987.0,36769.0,11968.0,36769.0,29219.0,1537.5763680621606,581.941625139495,1024.5254129352368
36780.0,12991.0,36780.0,11942.0,36780.0,29232.0,1533.8241657190904,583.4045181355136,1027.100001487068
36780.0,13014.0,36780.0,11958.0,36780.0,29212.0,1529.6607904580242,584.673049222394,1029.3279368611652
36780.0,13011.0,36780.0,11997.0,36780.0,29227.0,1525.0868863779415,585.7506234071109,1031.2106246113165
36780.0,13012.0,36780.0,11983.0,36780.0,29216.0,1520.1035344795225,586.6401577452748,1032.7493939127025
36780.0,12985.0,36780.0,11943.0,36780.0,29235.0,1514.7125164064078,587.3444348727705,1033.9454857051544
36780.0,13004.0,36780.0,12004.0,36780.0,29255.0,1508.9163349963344,587.8660843793126,1034.8001979756357
36790.0,13030.0,36790.0,12036.0,36790.0,29304.0,1502.718274904082,588.2076310790216,1035.3153338461966
36790.0,13038.0,36790.0,12066.0,36790.0,29321.0,1496.1228371266377,588.372219228083,1035.4940333685352
36790.0,13008.0,36790.0,12054.0,36790.0,29283.0,1489.1363651851918,588.3646544017362,1035.3416671865998
36790.0,12974.0,36790.0,11971.0,36790.0,29250.0,1481.7673002198255,588.1919129577894,1034.8661544866782
36790.0,12936.0,36790.0,11959.0,36790.0,29205.0,1474.0258158730085,587.8626413299587,1034.0774399528884
36790.0,12942.0,36790.0,11956.0,36790.0,29211.0,1465.9231301799293,587.3860476513765,1032.9865382701037
36800.0,12914.0,36800.0,11905.0,36800.0,29163.0,1457.4709596002117,586.7709767153767,1031.604676080094
36800.0,12929.0,36800.0,11962.0,36800.0,29216.0,1448.6812908996667,586.0253602432512,1029.9427435387347
36800.0,12934.0,36800.0,11908.0,36800.0,29207.0,1439.5664280095336,585.1559551633048,1028.0111805912302
36800.0,12894.0,36800.0,11950.0,36800.0,29206.0,1430.1392143136118,584.1683231045067,1025.8202794029246
36800.0,12898.0,36800.0,11948.0,36800.0,29201.0,1420.4131486672475,583.0669314887343,1023.3805079823926
36800.0,12891.0,36800.0,12000.0,36800.0,29224.0,1410.4023056881192,581.8554974631329,1020.7026664556179
36811.0,12922.0,36811.0,12072.0,36811.0,29255.0,1400.1214039131266,580.5378315335488,1017.7981852779626
36811.0,12921.0,36811.0,12008.0,36811.0,29225.0,1389.5862581383572,579.1190654149343,1014.679696571731
36811.0,12849.0,36811.0,11994.0,36811.0,29181.0,1378.8142997608657,577.6064747119956,1011.3614066886132
36811.0,12802.0,36811.0,11921.0,36811.0,29150.0,1367.8244785667512,576.0092102160654,1007.8587697286973
36811.0,12805.0,36811.0,11910.0,36811.0,29136.0,1356.6364320755251,574.337226977353,1004.187659885681
36811.0,12786.0,36811.0,11910.0,36811.0,29106.0,1345.2696868007117,572.6001535735389,1000.3635763903769
36821.0,12775.0,36821.0,11897.0,36821.0,29136.0,1333.7433704215616,570.8066031498331,996.4011294681387
36821.0,12791.0,36821.0,11896.0,36821.0,29140.0,1322.0762379390876,568.9639218832484,992.3139343112808
36821.0,12750.0,36821.0,11875.0,36821.0,29120.0,1310.2868270396782,567.0780528281055,988.1148842645201
36821.0,12747.0,36821.0,11903.0,36821.0,29110.0,1298.393582183818,565.153401580446,983.8163919675206
36821.0,12736.0,36821.0,11924.0,36821.0,29120.0,1286.41481730054,563.1929140368594,979.4303754269424
36821.0,12753.0,36821.0,12026.0,36821.0,29183.0,1274.36872897958,561.1987202525299,974.9683913343118
36831.0,12768.0,36831.0,12010.0,36831.0,29159.0,1262.273730744035,559.1734677391962,970.4422997463265
36831.0,12735.0,36831.0,11942.0,36831.0,29124.0,1250.1490288840946,557.1216216509506,965.8650307184671
36831.0,12675.0,36831.0,11889.0,36831.0,29083.0,1238.0149434386153,555.0495843118576,961.2506652758454
36831.0,12640.0,36831.0,11869.0,36831.0,29074.0,1225.8925203874226,552.9645813231372,956.6138039939801
36831.0,12628.0,36831.0,11871.0,36831.0,29038.0,1213.802673199099,550.8733825764132,951.968803547566
36831.0,12630.0,36831.0,11864.0,36831.0,29007.0,1201.7655269593188,548.7816006594071,947.3291236118731
36842.0,12617.0,36842.0,11935.0,36842.0,29044.0,1189.8002720154036,546.693639299896,942.7067715210761
36842.0,12566.0,36842.0,11886.0,36842.0,29035.0,1177.925224955286,544.613166197902,938.1121113861495
36842.0,12591.0,36842.0,11850.0,36842.0,29018.0,1166.1577117941606,542.5435596488991,933.5540959746863
36842.0,12548.0,36842.0,11865.0,36842.0,29032.0,1154.5138719381628,540.4877196976718,929.0404980598694
36842.0,12606.0,36842.0,11924.0,36842.0,29069.0,1143.008698064123,538.4477253582613,924.578106542565
36842.0,12587.0,36842.0,11954.0,36842.0,29072.0,1131.6564469792927,536.4252707391391,920.1732574298308
36852.0,12551.0,36852.0,11952.0,36852.0,29031.0,1120.4712185975527,534.4227747668726,915.8325132612374
36852.0,12533.0,36852.0,11909.0,36852.0,29014.0,1109.4671743735273,532.4442557929899,911.5628694902424
