c_ts,c_val,d_ts,d_val,e_ts,e_val,c_val_filtered,d_val_filtered,e_val_filtered
241625.0,10492.0,241625.0,12057.0,241625.0,25752.0,416.0635345091589,215.38346416906802,372.1929673786669
241625.0,10524.0,241625.0,12029.0,241625.0,25705.0,405.42423304891327,208.12222654829372,365.02669404938047
241625.0,10544.0,241625.0,11994.0,241625.0,25710.0,394.5290697051741,200.7980053310378,357.63536868148606
241625.0,10484.0,241625.0,12023.0,241625.0,25738.0,383.39590099749546,193.42600759451247,350.0301950266022
241636.0,10440.0,241636.0,12092.0,241636.0,25738.0,372.04425367909766,186.0203176326621,342.22226101956136
241636.0,10410.0,241636.0,12026.0,241636.0,25735.0,360.494861980873,178.5946201202985,334.22314669093623
241636.0,10400.0,241636.0,11987.0,241636.0,25697.0,348.76888826069785,171.16287584595116,326.04539508203857
241636.0,10315.0,241636.0,11954.0,241636.0,25647.0,336.8872979196852,163.7390429388079,317.70246532148354
241636.0,10292.0,241636.0,11929.0,241636.0,25630.0,324.87014708707216,156.33617907542643,309.208155313544
241636.0,10272.0,241636.0,11875.0,241636.0,25611.0,312.73566300534617,148.9655677649232,300.5758578763591
241646.0,10258.0,241646.0,11857.0,241646.0,25604.0,300.499551574791,141.63588246836082,291.8180627285171
241646.0,10297.0,241646.0,11974.0,241646.0,25616.0,288.1748512210133,134.3526391381932,282.9462172236781
241646.0,10344.0,241646.0,11948.0,241646.0,25585.0,275.7724580462777,127.11866948482177,273.9708543621733
241646.0,10360.0,241646.0,11933.0,241646.0,25558.0,263.3023542106529,119.93532944028328,264.90170843365695
241646.0,10321.0,241646.0,11945.0,241646.0,25598.0,250.77501502848241,112.80327907685117,255.7476580730673
241646.0,10284.0,241646.0,11999.0,241646.0,25604.0,238.2021728080224,105.7228136854485,246.51688496436242
241656.0,10241.0,241656.0,11963.0,241656.0,25605.0,225.59668411716734,98.69447856611242,237.21750895761403
241656.0,10217.0,241656.0,11992.0,241656.0,25585.0,212.9719048355032,91.71983596878775,227.85828041520858
241656.0,10180.0,241656.0,11901.0,241656.0,25519.0,200.34102589342996,84.80181549208496,218.44881144289013
241656.0,10115.0,241656.0,11849.0,241656.0,25501.0,187.7164340324406,77.94431599488607,208.99916965397938
241656.0,10105.0,241656.0,11831.0,241656.0,25468.0,175.10894134198793,71.15107714408285,199.51909319386868
241656.0,10108.0,241656.0,11826.0,241656.0,25481.0,162.52707948082934,64.42448426356509,190.01734680094273
241667.0,10103.0,241667.0,11879.0,241667.0,25482.0,149.97689738511707,57.76507943578861,180.5015403656094
241667.0,10142.0,241667.0,11866.0,241667.0,25468.0,137.46232896973652,51.17191842055058,170.97835506412326
241667.0,10186.0,241667.0,11876.0,241667.0,25451.0,124.98604562285374,44.64331600901991,161.45383885645515
241667.0,10174.0,241667.0,11848.0,241667.0,25411.0,112.55073061492095,38.17739295605401,151.93344530849157
241667.0,10138.0,241667.0,11847.0,241667.0,25473.0,100.16025117316315,31.77223025929368,142.42191065375027
241667.0,10074.0,241667.0,11927.0,241667.0,25465.0,87.82002791157788,25.425995108464576,132.9234809146248
241677.0,10081.0,241677.0,11896.0,241677.0,25441.0,75.5365852928972,19.137562702443006,123.44258606152619
241677.0,10017.0,241677.0,11856.0,241677.0,25418.0,63.316883991393354,12.907344592224376,113.98431549775876
241677.0,9972.0,241677.0,11810.0,241677.0,25388.0,51.16770208216235,6.737392667667507,104.5543324737277
241677.0,9944.0,241677.0,11745.0,241677.0,25357.0,39.09485842099974,0.6305703299052539,95.15847010905321
241677.0,9914.0,241677.0,11735.0,241677.0,25347.0,27.102367048201984,-5.410691137147921,85.80225168779305
241677.0,9916.0,241677.0,11735.0,241677.0,25320.0,15.191854326072303,-11.385470267545884,76.49047872616177
241687.0,9954.0,241687.0,11757.0,241687.0,25350.0,3.362457246855911,-17.294807868581074,67.22702829740416
241687.0,9987.0,241687.0,11775.0,241687.0,25318.0,-8.388592748701967,-23.14146342508684,58.014946478429636
241687.0,10009.0,241687.0,11780.0,241687.0,25305.0,-20.06475911378982,-28.929272909039128,48.85667386883165
241687.0,10000.0,241687.0,11784.0,241687.0,25297.0,-31.66884832053097,-34.662466112573156,39.75410761687124
241687.0,9951.0,241687.0,11828.0,241687.0,25336.0,-43.20209343546014,-40.34505874399326,30.70864152916556
241687.0,9922.0,241687.0,11800.0,241687.0,25284.0,-54.66399888843523,-45.9801936916686,21.721489778861212
241698.0,9891.0,241698.0,11814.0,241698.0,25277.0,-66.05278855150323,-51.56953049951642,12.794012864606941
241698.0,9831.0,241698.0,11735.0,241698.0,25272.0,-77.36607465932912,-57.113037111875144,3.927695672804134
241698.0,9795.0,241698.0,11693.0,241698.0,25203.0,-88.60165857770738,-62.609452991595845,-4.876084791354003
241698.0,9779.0,241698.0,11689.0,241698.0,25220.0,-99.75842706059575,-68.05731230276717,-13.616433244783764
241698.0,9758.0,241698.0,11677.0,241698.0,25213.0,-110.83704657072224,-73.4558957885472,-22.293334205530357
241698.0,9780.0,241698.0,11687.0,241698.0,25224.0,-121.84023510767832,-78.80563176005643,-30.907679712783988
241708.0,9830.0,241708.0,11675.0,241708.0,25218.0,-132.77248200324948,-84.10807977915618,-39.46091252445609
241708.0,9839.0,241708.0,11683.0,241708.0,25159.0,-143.63910429955354,-89.36577427047251,-47.95471784407448
241708.0,9855.0,241708.0,11672.0,241708.0,25140.0,-154.4449451618533,-94.5820514621692,-56.391174349566995
241708.0,9802.0,241708.0,11690.0,241708.0,25187.0,-165.19334152570832,-99.76086362522517,-64.77319447820435
241708.0,9747.0,241708.0,11793.0,241708.0,25234.0,-175.8858465298287,-104.90630123673216,-73.10441001144926
241708.0,9741.0,241708.0,11746.0,241708.0,25196.0,-186.52273496570916,-110.02149308488487,-81.38821348008969
241718.0,9711.0,241718.0,11702.0,241718.0,25190.0,-197.10373112238943,-115.10748726622003,-89.62680929279247
241718.0,9683.0,241718.0,11632.0,241718.0,25127.0,-207.62848950923376,-120.16323614879184,-97.82102124255061
241718.0,9633.0,241718.0,11578.0,241718.0,25105.0,-218.09700452275524,-125.18676621729838,-105.97077942442206
241718.0,9615.0,241718.0,11569.0,241718.0,25101.0,-228.51020607502954,-130.1767233353778,-114.07584536509779
241718.0,9590.0,241718.0,11555.0,241718.0,25078.0,-238.8706116598912,-135.1335750508635,-122.13633014249916
241718.0,9651.0,241718.0,11647.0,241718.0,25070.0,-249.18264829159784,-140.06001666035155,-130.15290228831492
241729.0,9684.0,241729.0,11656.0,241729.0,25035.0,-259.4522071119468,-144.96035233448333,-138.12693236063427
241729.0,9724.0,241729.0,11640.0,241729.0,25010.0,-269.68535970274604,-149.83926203994906,-146.06077248806372
241729.0,9687.0,241729.0,11609.0,241729.0,25079.0,-279.88683292875453,-154.70096194462877,-153.95801096621216
241729.0,9640.0,241729.0,11662.0,241729.0,25090.0,-290.059096144603,-159.54907791454065,-161.8231513813506
241729.0,9592.0,241729.0,11669.0,241729.0,25095.0,-300.20246739437835,-164.38648522311763,-169.66060687267992
241729.0,9558.0,241729.0,11681.0,241729.0,25082.0,-310.3159309218712,-169.2146630737011,-177.47370353615491
241739.0,9521.0,241739.0,11581.0,241739.0,25029.0,-320.3980973099084,-174.03314465689323,-185.2642635298975
241739.0,9494.0,241739.0,11538.0,241739.0,24975.0,-330.4480269976168,-178.839900518511,-193.03289932325356
241739.0,9484.0,241739.0,11540.0,241739.0,24982.0,-340.4658645935358,-183.63258239514641,-200.77983689474416
241739.0,9467.0,241739.0,11484.0,241739.0,24970.0,-350.45322531985255,-188.409724992755,-208.50565668977458
241739.0,9471.0,241739.0,11545.0,241739.0,24965.0,-360.41331536604184,-193.17139984048538,-216.21152329588227
241739.0,9511.0,241739.0,11529.0,241739.0,24944.0,-370.35073753120946,-197.9193030447297,-223.89913047020303
241749.0,9560.0,241749.0,11545.0,241749.0,24912.0,-380.27075540225997,-202.65635991295437,-231.57074396448496
241749.0,9553.0,241749.0,11522.0,241749.0,24912.0,-390.17800581464235,-207.3862551882993,-239.2294453032947
241749.0,9502.0,241749.0,11553.0,241749.0,24950.0,-400.0753110810001,-212.11316808030415,-246.879289074575
241749.0,9454.0,241749.0,11596.0,241749.0,24982.0,-409.96337605614667,-216.8414165174907,-254.52489806204755
241749.0,9447.0,241749.0,11622.0,241749.0,24978.0,-419.84134769352556,-221.57463408481584,-262.17048193127107
241749.0,9400.0,241749.0,11538.0,241749.0,24929.0,-429.7075570993468,-226.3148033134264,-269.81893906490154
241760.0,9354.0,241760.0,11501.0,241760.0,24887.0,-439.56015066541295,-231.06208422046382,-277.47171734462427
241760.0,9333.0,241760.0,11449.0,241760.0,24851.0,-449.3978106734136,-235.815741594337,-285.1294560510595
241760.0,9316.0,241760.0,11448.0,241760.0,24847.0,-459.22049459174673,-240.5754444971579,-292.7928664741255
241760.0,9303.0,241760.0,11450.0,241760.0,24852.0,-469.0299037083158,-245.34217100493464,-300.4632967063511
241760.0,9343.0,241760.0,11492.0,241760.0,24861.0,-478.829559673154,-250.11841462739767,-308.14276405290093
241760.0,9374.0,241760.0,11502.0,241760.0,24822.0,-488.62433914277005,-254.90771261083927,-315.8336715525578
241770.0,9403.0,241770.0,11456.0,241770.0,24822.0,-498.41940166344136,-259.7139331720866,-323.5386476946675
241770.0,9369.0,241770.0,11456.0,241770.0,24825.0,-508.2189336091053,-264.54098128919844,-331.26059627827965
241770.0,9326.0,241770.0,11564.0,241770.0,24830.0,-518.0254102543462,-269.39277115192544,-339.002624442248
241770.0,9305.0,241770.0,11534.0,241770.0,24839.0,-527.8396854876336,-274.2725625755709,-346.7676909267193
241770.0,9286.0,241770.0,11503.0,241770.0,24850.0,-537.66152255803,-279.1818454204724,-354.5580898242754
241770.0,9234.0,241770.0,11451.0,241770.0,24794.0,-547.4901084642547,-284.1199821055173,-362.37498222418253
241780.0,9189.0,241780.0,11390.0,241780.0,24768.0,-557.3246369830971,-289.08494815654467,-370.21834804647744
241780.0,9173.0,241780.0,11385.0,241780.0,24729.0,-567.1651161812662,-294.0745738071227,-378.08750980893046
241780.0,9143.0,241780.0,11398.0,241780.0,24730.0,-577.0131474628214,-299.08757637844974,-385.98185393588335
241780.0,9154.0,241780.0,11404.0,241780.0,24716.0,-586.8723928228584,-304.12389578065904,-393.90130845395583
241780.0,9214.0,241780.0,11405.0,241780.0,24711.0,-596.7485319270812,-309.1844424527749,-401.8464819746314
241780.0,9243.0,241780.0,11431.0,241780.0,24705.0,-606.6484417724793,-314.2706604654868,-409.8186157435433
241791.0,9258.0,241791.0,11401.0,241791.0,24689.0,-616.5787566092656,-319.38408182766636,-417.8194944460913
241791.0,9222.0,241791.0,11402.0,241791.0,24702.0,-626.5445405071839,-324.52602171228403,-425.8513481118413
241791.0,9159.0,241791.0,11447.0,241791.0,24743.0,-636.5487482916164,-329.69742062927213,-433.9165730485938
241791.0,9146.0,241791.0,11465.0,241791.0,24728.0,-646.5925981419784,-334.8984105524059,-442.0170693699962
241791.0,9110.0,241791.0,11395.0,241791.0,24671.0,-656.6763538740638,-340.12760497791174,-450.1535613419745
241791.0,9058.0,241791.0,11333.0,241791.0,24664.0,-666.8000392619975,-345.3819932339968,-458.32555010809006
241801.0,9038.0,241801.0,11304.0,241801.0,24615.0,-676.9641450925386,-350.65790049331207,-466.53185222774016
241801.0,9017.0,241801.0,11258.0,241801.0,24593.0,-687.1703572730592,-355.95238419967495,-474.77126870319614
241801.0,9023.0,241801.0,11299.0,241801.0,24598.0,-697.4220246724126,-361.2643040702093,-483.04317001221364
241801.0,9035.0,241801.0,11346.0,241801.0,24616.0,-707.7241804534425,-366.5945982765145,-491.3477462380438
241801.0,9069.0,241801.0,11343.0,241801.0,24572.0,-718.0830844107728,-371.94562620269875,-499.68581505871975
241801.0,9111.0,241801.0,11313.0,241801.0,24574.0,-728.5052800886384,-377.32022737029973,-508.05860650075056
241812.0,9089.0,241812.0,11325.0,241812.0,24576.0,-738.9963445788431,-382.7212958327099,-516.4677672804078
241812.0,9045.0,241812.0,11374.0,241812.0,24624.0,-749.559911611521,-388.151659489805,-524.9151880484079
241812.0,9004.0,241812.0,11395.0,241812.0,24566.0,-760.1975323885703,-393.61352558024896,-533.4024248107238
241812.0,8978.0,241812.0,11364.0,241812.0,24593.0,-770.9092485762112,-399.10752262532486,-541.930153618782
241812.0,8934.0,241812.0,11293.0,241812.0,24544.0,-781.69434921196,-404.6321988431315,-550.4980045424072
241812.0,8897.0,241812.0,11258.0,241812.0,24483.0,-792.5520949775002,-410.18455377717737,-559.1047668130034
241822.0,8874.0,241822.0,11209.0,241822.0,24473.0,-803.482446276727,-415.76126926760844,-567.7490359767979
241822.0,8855.0,241822.0,11217.0,241822.0,24480.0,-814.4866979946178,-421.3599295232335,-576.4300015565409
241822.0,8849.0,241822.0,11239.0,241822.0,24501.0,-825.5678630802994,-426.979710291088,-585.1476993389686
241822.0,8915.0,241822.0,11299.0,241822.0,24490.0,-836.7306268214741,-432.62122554106423,-593.9026190316582
241822.0,8946.0,241822.0,11244.0,241822.0,24444.0,-847.9805681590514,-438.2856956155403,-602.6952298853599
241822.0,8938.0,241822.0,11229.0,241822.0,24445.0,-859.3227531365343,-443.97427465143653,-611.5259342482661
241832.0,8906.0,241832.0,11258.0,241832.0,24440.0,-870.7605057612591,-449.6880249593566,-620.3953073799042
241832.0,8858.0,241832.0,11323.0,241832.0,24487.0,-882.2950138379593,-455.42783002731994,-629.3040568721083
241832.0,8838.0,241832.0,11313.0,241832.0,24483.0,-893.9256826551582,-461.1935418680837,-638.2524264367479
241832.0,8827.0,241832.0,11281.0,241832.0,24424.0,-905.6507082945218,-466.9829050483121,-647.239444741498
241832.0,8756.0,241832.0,11175.0,241832.0,24400.0,-917.4675346393462,-472.7913380800705,-656.2627579507962
241832.0,8729.0,241832.0,11140.0,241832.0,24362.0,-929.3734005517264,-478.61297092129877,-665.3191815955252
241843.0,8710.0,241843.0,11111.0,241843.0,24342.0,-941.3661108575917,-484.44232351164175,-674.4054517480993
241843.0,8694.0,241843.0,11123.0,241843.0,24368.0,-953.4446669506586,-490.2756338924611,-683.5187344276703
241843.0,8712.0,241843.0,11194.0,241843.0,24338.0,-965.6094697110063,-496.11123705129575,-692.656699058555
241843.0,8752.0,241843.0,11172.0,241843.0,24339.0,-977.8620097724908,-501.9489642514668,-701.8173058275453
241843.0,8821.0,241843.0,11186.0,241843.0,24325.0,-990.2038650220233,-507.78916192706845,-710.9986429547234
241843.0,8778.0,241843.0,11187.0,241843.0,24309.0,-1002.6351388636474,-513.6320141768982,-720.1988726349642
241853.0,8725.0,241853.0,11207.0,241853.0,24357.0,-1015.1532235805348,-519.4771283834543,-729.4161076278727
241853.0,8691.0,241853.0,11210.0,241853.0,24353.0,-1027.752684127364,-525.3230561181889,-738.6479575009723
241853.0,8670.0,241853.0,11218.0,241853.0,24323.0,-1040.4259285288322,-531.1667432827944,-747.8908174486708
241853.0,8623.0,241853.0,11160.0,241853.0,24304.0,-1053.1639000899404,-537.0031523870405,-757.1394623664446
241853.0,8588.0,241853.0,11089.0,241853.0,24248.0,-1065.9566621359797,-542.8254840699294,-766.3872336700963
241853.0,8555.0,241853.0,11084.0,241853.0,24233.0,-1078.7940516284857,-548.6261659913773,-775.6266247516184
241863.0,8557.0,241863.0,11034.0,241863.0,24234.0,-1091.666282570031,-554.3980811122565,-784.8499151777678
241863.0,8553.0,241863.0,11056.0,241863.0,24253.0,-1104.5642081040864,-560.1354527618528,-794.0494187687519
241863.0,8579.0,241863.0,11152.0,241863.0,24206.0,-1117.4791040108348,-565.8340366083955,-803.2172689028336
241863.0,8609.0,241863.0,11127.0,241863.0,24206.0,-1130.4019860409426,-571.4903161612872,-812.3452128227783
241863.0,8625.0,241863.0,11095.0,241863.0,24190.0,-1143.322536257801,-577.1003029955768,-821.4246823316311
241863.0,8595.0,241863.0,11120.0,241863.0,24226.0,-1156.2279564179648,-582.6590042763007,-830.4468173518553
241874.0,8541.0,241874.0,11122.0,241874.0,24223.0,-1169.1023194266152,-588.1603917769282,-839.4020965722402
241874.0,8544.0,241874.0,11150.0,241874.0,24226.0,-1181.9266641609308,-593.5971156891158,-848.2796766609587
241874.0,8498.0,241874.0,11102.0,241874.0,24209.0,-1194.6794213398312,-598.9599958029272,-857.0668107020455
241874.0,8416.0,241874.0,11040.0,241874.0,24166.0,-1207.3369059417928,-604.2379136043439,-865.7486214397248
241874.0,8403.0,241874.0,11003.0,241874.0,24111.0,-1219.8741460133344,-609.4185285431131,-874.30838557261
241874.0,8391.0,241874.0,10997.0,241874.0,24102.0,-1232.265872559169,-614.4894646712082,-882.7282911247969
241884.0,8377.0,241884.0,10989.0,241884.0,24082.0,-1244.4870621713685,-619.4392172383137,-890.9902454693664
241884.0,8389.0,241884.0,11046.0,241884.0,24088.0,-1256.5129502346917,-624.2573971503666,-899.0763156615893
241884.0,8424.0,241884.0,11053.0,241884.0,24109.0,-1268.3186693189523,-628.9342772329323,-906.9687186889148
241884.0,8467.0,241884.0,11033.0,241884.0,24068.0,-1279.878390119649,-633.4599664592633,-914.6495018542564
241884.0,8437.0,241884.0,11015.0,241884.0,24060.0,-1291.164066950453,-637.8238883880687,-922.1002943297834
241884.0,8403.0,241884.0,11061.0,241884.0,24103.0,-1302.1444544418296,-642.0147199646747,-929.3022741496019
241894.0,8347.0,241894.0,11094.0,241894.0,24098.0,-1312.7849852666905,-646.020139396307,-936.2358979271821
241894.0,8337.0,241894.0,11069.0,241894.0,24085.0,-1323.0483662229576,-649.826063726834,-942.8802826075395
241894.0,8283.0,241894.0,11013.0,241894.0,24034.0,-1332.8953494055543,-653.416060533669,-949.2128409369045
241894.0,8248.0,241894.0,10962.0,241894.0,24007.0,-1342.2854611019072,-656.7716870296832,-955.2095679775584
241894.0,8232.0,241894.0,10923.0,241894.0,23983.0,-1351.1777584748875,-659.8736437689706,-960.8457608345435
241894.0,8200.0,241894.0,10930.0,241894.0,23996.0,-1359.5315121214198,-662.7030534516939,-966.0966826233958
241905.0,8196.0,241905.0,10939.0,241905.0,23976.0,-1367.3066822558676,-665.2422482023222,-970.9378517225751
241905.0,8240.0,241905.0,10972.0,241905.0,23980.0,-1374.4640906665263,-667.4748352171082,-975.3450400785221
241905.0,8274.0,241905.0,10943.0,241905.0,23974.0,-1380.9649942769306,-669.3852821719893,-979.2942059866303
241905.0,8303.0,241905.0,10952.0,241905.0,23959.0,-1386.7699927801455,-670.9585369485695,-982.7614410578744
241905.0,8251.0,241905.0,10952.0,241905.0,23950.0,-1391.8378382536653,-672.1799230073664,-985.7229867898302
241905.0,8223.0,241905.0,11023.0,241905.0,23985.0,-1396.1249190793897,-673.0349668672621,-988.1552709229095
241915.0,8195.0,241915.0,11009.0,241915.0,23996.0,-1399.5856178339643,-673.5087615226734,-990.0346729366913
241915.0,8171.0,241915.0,10992.0,241915.0,23955.0,-1402.1730608890366,-673.585169832224,-991.3370417134752
241915.0,8102.0,241915.0,10893.0,241915.0,23921.0,-1403.8399232261972,-673.2467061869866,-992.0375611098827
241915.0,8085.0,241915.0,10889.0,241915.0,23892.0,-1404.5394235339263,-672.4754835093023,-992.1113042020052
241915.0,8067.0,241915.0,10863.0,241915.0,23860.0,-1404.2264443187323,-671.254641282003,-991.5341572529395
241915.0,8065.0,241915.0,10891.0,241915.0,23877.0,-1402.8583839030082,-669.5693728286684,-990.2836770740054
241925.0,8106.0,241925.0,10915.0,241925.0,23874.0,-1400.3955070050897,-667.4072022727079,-988.3395951799067
241925.0,8131.0,241925.0,10921.0,241925.0,23859.0,-1396.8007224198739,-664.7576755692999,-985.683949218416
241925.0,8175.0,241925.0,10933.0,241925.0,23852.0,-1392.0388376569053,-661.6118565930187,-982.3011701676846
241925.0,8144.0,241925.0,10896.0,241925.0,23854.0,-1386.075662084476,-657.9620313437815,-978.1783181322012
241925.0,8133.0,241925.0,10953.0,241925.0,23924.0,-1378.877526368377,-653.8017156783715,-973.3051717759503
241925.0,8121.0,241925.0,10969.0,241925.0,23918.0,-1370.4114702570077,-649.1255843362159,-967.6737954003152
241936.0,8108.0,241936.0,11014.0,241936.0,23955.0,-1360.6458063605373,-643.9289329184526,-961.2777438761858
241936.0,8079.0,241936.0,10941.0,241936.0,23918.0,-1349.5507675427548,-638.2069967928679,-954.1114480512432
241936.0,8059.0,241936.0,10904.0,241936.0,23897.0,-1337.0992875074216,-631.954958829011,-946.1701471401531
241936.0,8055.0,241936.0,10863.0,241936.0,23882.0,-1323.2679236224824,-625.1689719327219,-937.4504087518108
241936.0,8022.0,241936.0,10873.0,241936.0,23855.0,-1308.0377751104966,-617.8475873835746,-927.9509675454291
241936.0,8060.0,241936.0,10904.0,241936.0,23912.0,-1291.3953022326482,-609.9927411438618,-917.6734637050301
241946.0,8151.0,241946.0,10955.0,241946.0,23924.0,-1273.3327131511041,-601.609887356936,-906.6226825903212
241946.0,8171.0,241946.0,10990.0,241946.0,23906.0,-1253.8474514234733,-592.7073599170042,-894.8063096714206
241946.0,8226.0,241946.0,10951.0,241946.0,23936.0,-1232.9410737764847,-583.2955144137251,-882.234746994611
241946.0,8239.0,241946.0,10987.0,241946.0,23992.0,-1210.6182650032736,-573.3863240875133,-868.9210718799202
241946.0,8229.0,241946.0,11062.0,241946.0,24018.0,-1186.886327905068,-562.9932938773146,-854.8806214682354
241946.0,8227.0,241946.0,11103.0,241946.0,24055.0,-1161.7552594342878,-552.1308644784037,-840.1301784151374
241956.0,8233.0,241956.0,11053.0,241956.0,24042.0,-1135.238339944771,-540.8133606211895,-824.6872490061128
241956.0,8242.0,241956.0,11031.0,241956.0,24007.0,-1107.3528709458924,-529.0545799661329,-808.5698702795319
241956.0,8261.0,241956.0,10988.0,241956.0,24012.0,-1078.1207978337598,-516.8685139160052,-791.7971155829068
241956.0,8267.0,241956.0,11022.0,241956.0,24042.0,-1047.5692048834924,-504.27056241899027,-774.389897274982
241956.0,8321.0,241956.0,11025.0,241956.0,24057.0,-1015.7306999937301,-491.2784145937021,-756.3714122850325
241956.0,8376.0,241956.0,11068.0,241956.0,24092.0,-982.6435223529104,-477.9122911061205,-737.7671063970532
241967.0,8437.0,241967.0,11137.0,241967.0,24114.0,-948.3511736430717,-464.1946185497614,-718.6044216114738
241967.0,8514.0,241967.0,11120.0,241967.0,24116.0,-912.901634280114,-450.14928897940604,-698.9125362275738
241967.0,8584.0,241967.0,11146.0,241967.0,24145.0,-876.3463251870669,-435.8009632631901,-678.7222566327433
241967.0,8598.0,241967.0,11207.0,241967.0,24230.0,-838.739032119691,-421.1747190208257,-658.0659020044745
241967.0,8627.0,241967.0,11243.0,241967.0,24235.0,-800.1352320602671,-406.29559713864904,-636.9767741629629
241967.0,8657.0,241967.0,11273.0,241967.0,24289.0,-760.592034457506,-391.18777285518564,-615.488332956341
241977.0,8680.0,241977.0,11236.0,241977.0,24229.0,-720.1684461236358,-375.87385249645257,-593.6336832223202
241977.0,8702.0,241977.0,11181.0,241977.0,24309.0,-678.9257049682516,-360.3749608862125,-571.4456535436224
241977.0,8725.0,241977.0,11153.0,241977.0,24281.0,-636.927694814698,-344.71183927960016,-548.957121692047
241977.0,8796.0,241977.0,11205.0,241977.0,24327.0,-594.2413482386878,-328.9063419581621,-526.2011991632969
241977.0,8852.0,241977.0,11251.0,241977.0,24311.0,-550.9367257232985,-312.98225620211906,-503.21136075182227
241977.0,8924.0,241977.0,11320.0,241977.0,24373.0,-507.0866171798598,-296.9649754179461,-480.02161927418217
241987.0,9037.0,241987.0,11333.0,241987.0,24388.0,-462.76574249284016,-280.8804739165771,-456.6665440051278
241987.0,9120.0,241987.0,11343.0,241987.0,24419.0,-418.0495285034803,-264.7543515419479,-433.18103875048746
241987.0,9145.0,241987.0,11356.0,241987.0,24468.0,-373.01266442225426,-248.61140467934814,-409.6000241451859
241987.0,9168.0,241987.0,11439.0,241987.0,24516.0,-327.7281435668544,-232.4754759278542,-385.9580088829955
241987.0,9200.0,241987.0,11444.0,241987.0,24557.0,-282.2671775694246,-216.36899678418956,-362.28843340053027
241987.0,9264.0,241987.0,11452.0,241987.0,24576.0,-236.69953547187208,-200.31228732996348,-338.62295084988995
241998.0,9247.0,241998.0,11374.0,241998.0,24572.0,-191.09381768105368,-184.32337918884065,-314.9909903394246
241998.0,9283.0,241998.0,11385.0,241998.0,24539.0,-145.51782441219052,-168.41880631133526,-291.41989081177064
241998.0,9333.0,241998.0,11432.0,241998.0,24595.0,-100.03917423771838,-152.61477813829728,-267.93556007999
241998.0,9398.0,241998.0,11415.0,241998.0,24575.0,-54.72572531705441,-136.92779761213652,-244.56314815001383
241998.0,9489.0,241998.0,11446.0,241998.0,24626.0,-9.64538427109153,-121.37471338035391,-221.32738994743698
241998.0,9540.0,241998.0,11507.0,241998.0,24648.0,35.13462259640835,-105.9726245608008,-198.25268947935115
242007.0,9628.0,242007.0,11485.0,242007.0,24653.0,79.5487022243019,-90.73856871666067,-175.36304176410152
242007.0,9714.0,242007.0,11525.0,242007.0,24700.0,123.53390808845688,-75.68912807868622,-152.6819333964915
242007.0,9740.0,242007.0,11631.0,242007.0,24741.0,167.03100585856816,-60.840062747295065,-130.23220680455978
242007.0,9730.0,242007.0,11594.0,242007.0,24802.0,209.98518870200814,-46.20555143493425,-108.03561221318091
242007.0,9781.0,242007.0,11648.0,242007.0,24799.0,252.3459705990373,-31.79726387971664,-86.11208705356472
242007.0,9792.0,242007.0,11576.0,242007.0,24822.0,294.06658324267266,-17.624021349230077,-64.47921340904304
242018.0,9792.0,242018.0,11543.0,242018.0,24771.0,335.10337397940543,-3.692309965249592,-43.15223331398556
242018.0,9828.0,242018.0,11522.0,242018.0,24792.0,375.41514358446943,9.992470821436939,-22.144669902295163
242018.0,9858.0,242018.0,11568.0,242018.0,24806.0,414.9624516083229,23.424638020463988,-1.469187609029973
242018.0,9879.0,242018.0,11589.0,242018.0,24845.0,453.70714563064485,36.59756104929761,18.861879713915243
242018.0,9988.0,242018.0,11618.0,242018.0,24883.0,491.61221689598847,49.50380926800466,38.836559844003546
242018.0,10062.0,242018.0,11635.0,242018.0,24873.0,528.642238559763,62.135611461004146,58.443571740161815
242028.0,10129.0,242028.0,11673.0,242028.0,24885.0,564.7645172570731,74.48529966110254,77.67249865249528
242028.0,10139.0,242028.0,11696.0,242028.0,24943.0,599.950370229498,86.54576994152347,96.51370396977717
242028.0,10160.0,242028.0,11741.0,242028.0,24989.0,634.1758025425002,98.31104946175799,114.95848392953064
242028.0,10164.0,242028.0,11752.0,242028.0,25007.0,667.4214497273194,109.77694570567843,132.999718560951
242028.0,10186.0,242028.0,11752.0,242028.0,25026.0,699.6721083982536,120.94159596353785,150.63258199083714
242028.0,10177.0,242028.0,11686.0,242028.0,24990.0,730.916148921028,131.80553875421327,167.85481855083833
242038.0,10180.0,242038.0,11675.0,242038.0,24971.0,761.1448369463606,142.37100774077072,184.66638247012577
242038.0,10191.0,242038.0,11698.0,242038.0,25011.0,790.3515358684281,152.64079014124673,201.06863146315436
242038.0,10220.0,242038.0,11694.0,242038.0,24991.0,818.5309746650314,162.61742668485238,217.06365300895135
242038.0,10267.0,242038.0,11729.0,242038.0,25008.0,845.6788626449704,172.30300600120609,232.65393578033496
242038.0,10331.0,242038.0,11767.0,242038.0,25015.0,871.7920253219293,181.69934897163938,247.8421170109949
242038.0,10373.0,242038.0,11761.0,242038.0,25053.0,896.8690473896529,190.80846155171537,262.63080775021285
242049.0,10412.0,242049.0,11734.0,242049.0,25041.0,920.9111537420838,199.63289578146845,277.0226375846521
242049.0,10412.0,242049.0,11809.0,242049.0,25100.0,943.922927880606,208.17572547755304,291.0204216066975
242049.0,10384.0,242049.0,11860.0,242049.0,25148.0,965.912511489101,216.4407031639276,304.6275163264896
242049.0,10394.0,242049.0,11850.0,242049.0,25156.0,986.8911453933583,224.43308787718496,317.8485384716565
242049.0,10404.0,242049.0,11826.0,242049.0,25120.0,1006.872389610812,232.16045160697934,330.6900236031729
242049.0,10368.0,242049.0,11748.0,242049.0,25098.0,1025.8714390257446,239.63254340513282,343.1603383542771
242059.0,10389.0,242059.0,11738.0,242059.0,25085.0,1043.9044654596141,246.86015021129964,355.2688562033461
242059.0,10368.0,242059.0,11737.0,242059.0,25100.0,1060.9878864972627,253.85364215888853,367.0250076841272
242059.0,10403.0,242059.0,11749.0,242059.0,25115.0,1077.137758883567,260.6219852106901,378.43770257870483
242059.0,10481.0,242059.0,11787.0,242059.0,25117.0,1092.3696015513808,267.1724697216879,389.5151784397042
242059.0,10537.0,242059.0,11823.0,242059.0,25158.0,1106.6990079862987,273.51102108063776,400.26507885899196
242059.0,10560.0,242059.0,11782.0,242059.0,25125.0,1120.142934091736,279.64278458824185,410.69460741585135
242069.0,10551.0,242069.0,11812.0,242069.0,25150.0,1132.7208778586623,285.57245011477323,420.81057897123424
242069.0,10527.0,242069.0,11935.0,242069.0,25206.0,1144.4553067373986,291.30444790780393,430.61940450312204
242069.0,10504.0,242069.0,11872.0,242069.0,25209.0,1155.3712936260351,296.8437621433535,440.12741400563175
242069.0,10496.0,242069.0,11880.0,242069.0,25209.0,1165.4957108575936,302.1969370879441,449.3414504592315
242069.0,10469.0,242069.0,11808.0,242069.0,25180.0,1174.8563598227047,307.37214039809714,458.26911540670255
242069.0,10460.0,242069.0,11752.0,242069.0,25175.0,1183.4811689391445,312.3781619239187,466.91843520940824
242080.0,10444.0,242080.0,11781.0,242080.0,25147.0,1191.3974408706183,317.2229467864661,475.2972007084238
242080.0,10461.0,242080.0,11786.0,242080.0,25173.0,1198.6312290536016,321.9124638562322,483.4122896702314
242080.0,10483.0,242080.0,11796.0,242080.0,25222.0,1205.2070369366481,326.4503950843522,491.26933806828276
242080.0,10497.0,242080.0,11860.0,242080.0,25191.0,1211.1479443286628,330.8384087267041,498.8729623556154
242080.0,10552.0,242080.0,11884.0,242080.0,25200.0,1216.476087210127,335.07683218193563,506.2270934010521
242080.0,10559.0,242080.0,11854.0,242080.0,25220.0,1221.2134032354645,339.1655442706003,513.334988863861
242090.0,10542.0,242090.0,11920.0,242090.0,25245.0,1225.3824034033826,343.10459112471483,520.1992375555435
242090.0,10530.0,242090.0,11983.0,242090.0,25311.0,1229.0065118178172,346.89470781660543,526.822190781576
242090.0,10510.0,242090.0,11963.0,242090.0,25289.0,1232.1098513853801,350.53830021346744,533.2067861715418
242090.0,10482.0,242090.0,11890.0,242090.0,25246.0,1234.7167357544015,354.0402839559682,539.3571851310893
242090.0,10443.0,242090.0,11820.0,242090.0,25230.0,1236.850986123452,357.40766743413326,545.2785762273452
242090.0,10414.0,242090.0,11796.0,242090.0,25211.0,1238.5350438136209,360.64793527343704,550.9763143693324
242100.0,10425.0,242100.0,11825.0,242100.0,25219.0,1239.7890458170655,363.76735528717063,556.4550776194196
242100.0,10427.0,242100.0,11839.0,242100.0,25245.0,1240.6302369974562,366.7701638696591,561.7184259816594
242100.0,10454.0,242100.0,11857.0,242100.0,25255.0,1241.0729186484598,369.65866404504357,566.7688389253685
242100.0,10518.0,242100.0,11903.0,242100.0,25225.0,1241.1289227362106,372.43375641669513,571.6079805909275
242100.0,10541.0,242100.0,11855.0,242100.0,25249.0,1240.8086275465855,375.0955447400704,576.2367635698997
242100.0,10537.0,242100.0,11869.0,242100.0,25261.0,1240.1222330448632,377.6436518149153,580.6552537043104
242111.0,10498.0,242111.0,11976.0,242111.0,25313.0,1239.0806115811379,380.07732259054,584.8628651410729
242111.0,10502.0,242111.0,11920.0,242111.0,25308.0,1237.6953895697015,382.3960025552468,588.8589812262451
242111.0,10469.0,242111.0,11945.0,242111.0,25302.0,1235.9785876306212,384.6002052457121,592.6436167461667
242111.0,10425.0,242111.0,11866.0,242111.0,25256.0,1233.942134522222,386.6917278595811,596.217605482233
242111.0,10400.0,242111.0,11869.0,242111.0,25235.0,1231.5971694891923,388.67304698514215,599.5821289205129
242111.0,10414.0,242111.0,11836.0,242111.0,25258.0,1228.9532419328132,390.54637199505726,602.7379341755284
242121.0,10385.0,242121.0,11838.0,242121.0,25251.0,1226.0178168451052,392.3127992315657,605.6848320256876
242121.0,10385.0,242121.0,11873.0,242121.0,25301.0,1222.7961059441313,393.9718360792276,608.4217300325827
242121.0,10434.0,242121.0,11889.0,242121.0,25264.0,1219.2910745187291,395.5214567949405,610.947000404728
242121.0,10488.0,242121.0,11898.0,242121.0,25296.0,1215.5039476076288,396.9586051160328,613.2588284887423
242121.0,10494.0,242121.0,11906.0,242121.0,25273.0,1211.4354117091727,398.27974908298484,615.3553598032222
242121.0,10478.0,242121.0,11952.0,242121.0,25299.0,1207.0869089000685,399.48133639027424,617.2347569770426
242131.0,10444.0,242131.0,11963.0,242131.0,25331.0,1202.4612826456587,400.560383099397,618.8953872362447
242131.0,10415.0,242131.0,12000.0,242131.0,25341.0,1197.5626517997264,401.5152747452281,620.3363104886649
242131.0,10388.0,242131.0,11945.0,242131.0,25306.0,1192.3958445920684,402.3464763650277,621.5578636585943
242131.0,10334.0,242131.0,11875.0,242131.0,25271.0,1186.96567377531,403.0565808077148,622.5617685858875
242131.0,10333.0,242131.0,11818.0,242131.0,25255.0,1181.2761377827385,403.6492885443097,623.3505732500714
242131.0,10306.0,242131.0,11848.0,242131.0,25263.0,1175.3297056038796,404.1277985309536,623.9268937497227
242142.0,10317.0,242142.0,11876.0,242142.0,25237.0,1169.1269058443359,404.49375342414027,624.2929284908677
242142.0,10362.0,242142.0,11882.0,242142.0,25278.0,1162.666359532738,404.74725915452103,624.4502849831088
242142.0,10399.0,242142.0,11896.0,242142.0,25261.0,1155.945438791122,404.88745264394953,624.4000584651359
242142.0,10420.0,242142.0,11907.0,242142.0,25250.0,1148.961504858038,404.91302470912376,624.1430469565212
242142.0,10404.0,242142.0,11893.0,242142.0,25270.0,1141.713205438186,404.82258686862247,623.6798537824645
242142.0,10367.0,242142.0,11926.0,242142.0,25329.0,1134.2012486169351,404.61491851744967,623.0110657496687
242152.0,10326.0,242152.0,11953.0,242152.0,25290.0,1126.4284125506092,404.28927462062654,622.1378631237292
242152.0,10329.0,242152.0,11955.0,242152.0,25302.0,1118.3990337541777,403.84596037903736,621.0626829478751
242152.0,10269.0,242152.0,11898.0,242152.0,25278.0,1110.1184393567041,403.2868450433662,619.7894175869754
242152.0,10234.0,242152.0,11865.0,242152.0,25232.0,1101.592387952039,402.615193581906,618.323188889983
242152.0,10219.0,242152.0,11835.0,242152.0,25233.0,1092.826344842893,401.8347716238928,616.6698233188766
242152.0,10235.0,242152.0,11844.0,242152.0,25223.0,1083.8248727985213,400.94882058040423,614.8352363292506
242162.0,10235.0,242162.0,11904.0,242162.0,25250.0,1074.5915671839293,399.9595666131007,612.8251285418071
242162.0,10264.0,242162.0,11905.0,242162.0,25244.0,1065.1295171006063,398.86857298120225,610.645123035953
242162.0,10266.0,242162.0,11861.0,242162.0,25255.0,1055.4420515941047,397.677468214229,608.3011310908267
242162.0,10313.0,242162.0,11895.0,242162.0,25211.0,1045.5336514177293,396.3882466387133,605.7996264413498
242162.0,10254.0,242162.0,11916.0,242162.0,25240.0,1035.410892665152,395.003256553148,603.1476416737727
242162.0,10206.0,242162.0,11935.0,242162.0,25269.0,1025.0829485647978,393.5255458332797,600.3527637990773
242173.0,10182.0,242173.0,11957.0,242173.0,25244.0,1014.5612586398529,391.95958310023053,597.4235011389628
242173.0,10153.0,242173.0,11894.0,242173.0,25219.0,1003.8587555166298,390.31186258182476,594.3696974808224
242173.0,10100.0,242173.0,11852.0,242173.0,25164.0,992.9891751858437,388.5908602794181,591.2023820619692
242173.0,10073.0,242173.0,11774.0,242173.0,25156.0,981.9663875739486,386.806078149835,587.9330388776712
242173.0,10039.0,242173.0,11775.0,242173.0,25143.0,970.8036458048709,384.9665322158663,584.5727766098901
242173.0,10050.0,242173.0,11801.0,242173.0,25131.0,959.5129864405485,383.07949380413055,581.1317914172091
242183.0,10068.0,242183.0,11835.0,242183.0,25153.0,948.1050899068299,381.1501615798818,577.6191687807913
242183.0,10098.0,242183.0,11830.0,242183.0,25153.0,936.5897686839018,379.18219129593393,574.0429856295888
242183.0,10106.0,242183.0,11827.0,242183.0,25151.0,924.9769473187635,377.17837478320257,570.4106436434753
242183.0,10092.0,242183.0,11839.0,242183.0,25137.0,913.2777170424246,375.1410086733779,566.7291744340412
242183.0,10057.0,242183.0,11882.0,242183.0,25162.0,901.5050174142035,373.07217334156644,563.0053949364652
242183.0,10021.0,242183.0,11910.0,242183.0,25170.0,889.6737280858276,370.97435303932707,559.2461394376452
242193.0,9990.0,242193.0,11919.0,242193.0,25185.0,877.8002876387511,368.85139916491414,555.4587420548919
242193.0,9929.0,242193.0,11818.0,242193.0,25109.0,865.902067696568,366.70921732191965,551.6514780231964
242193.0,9900.0,242193.0,11774.0,242193.0,25084.0,853.9965807138235,364.5553908103779,547.8333989336263
242193.0,9867.0,242193.0,11768.0,242193.0,25059.0,842.1006139808289,362.3978233374832,544.013498922948
242193.0,9856.0,242193.0,11687.0,242193.0,25042.0,830.2295321348056,360.24330127268706,540.199794361878
242193.0,9869.0,242193.0,11767.0,242193.0,25064.0,818.3969560852984,358.0964750696987,536.3987761464272
242204.0,9854.0,242204.0,11819.0,242204.0,25105.0,806.6148785715823,355.95959963463497,532.6154164752367
242204.0,9897.0,242204.0,11773.0,242204.0,25110.0,794.8941309122773,353.8332743150096,528.8537946612754
242204.0,9915.0,242204.0,11798.0,242204.0,25045.0,783.245166147166,351.7173446117339,525.1178520707825
242204.0,9877.0,242204.0,11813.0,242204.0,25080.0,771.6790509501892,349.61126740281765,521.4115778676794
242204.0,9837.0,242204.0,11876.0,242204.0,25111.0,760.2081074156538,347.5145042913959,517.7388925617047
242204.0,9795.0,242204.0,11867.0,242204.0,25115.0,748.8457672276378,345.4274125887467,514.1040184774669
242214.0,9777.0,242214.0,11866.0,242214.0,25062.0,737.6059272040926,343.35221502902186,510.5121346411622
242214.0,9729.0,242214.0,11732.0,242214.0,25020.0,726.5022813600192,341.293258944353,506.9694336030521
242214.0,9683.0,242214.0,11696.0,242214.0,24994.0,715.5476816652864,339.2560083060272,503.4823796804663
242214.0,9674.0,242214.0,11715.0,242214.0,24984.0,704.7534117114378,337.24524407776687,500.0567451883025
242214.0,9651.0,242214.0,11745.0,242214.0,24992.0,694.1285570385303,335.2638609939893,496.69697895794826
242214.0,9702.0,242214.0,11758.0,242214.0,25025.0,683.6798117473527,333.3129102366751,493.4061154092949
242224.0,9725.0,242224.0,11777.0,242224.0,24986.0,673.4119558539489,331.39229294782103,490.18611880072285
242224.0,9745.0,242224.0,11779.0,242224.0,24975.0,663.3289545913682,329.50146099470214,487.0381809115553
242224.0,9742.0,242224.0,11766.0,242224.0,24994.0,653.4352120089236,327.6399064199792,483.96266853314853
242224.0,9687.0,242224.0,11835.0,242224.0,25036.0,643.736414105271,325.8075023214278,480.9591659452689
242224.0,9642.0,242224.0,11788.0,242224.0,25030.0,634.2396051655218,324.0049643248118,478.02704948500485
242224.0,9652.0,242224.0,11774.0,242224.0,25005.0,624.9526266322281,322.23427884519367,475.16621173227605
242235.0,9575.0,242235.0,11782.0,242235.0,24970.0,615.8834727840882,320.4986670578804,472.3772735691228
242235.0,9557.0,242235.0,11687.0,242235.0,24941.0,607.0396985651369,318.8021452263489,469.6611525719207
242235.0,9507.0,242235.0,11697.0,242235.0,24949.0,598.4276425399778,317.1487622381951,467.0183803215252
242235.0,9526.0,242235.0,11682.0,242235.0,24956.0,590.0516468743333,315.54162958247616,464.4486684671635
242235.0,9506.0,242235.0,11685.0,242235.0,24934.0,581.9136626973756,313.9822698159211,461.9508834060215
242235.0,9536.0,242235.0,11744.0,242235.0,24972.0,574.0133317762687,312.4705606751513,459.52320495695506
242245.0,9581.0,242245.0,11753.0,242245.0,24943.0,566.3485161045618,311.00525859685166,457.1633476398848
242245.0,9586.0,242245.0,11718.0,242245.0,24933.0,558.9162915949972,309.58480213324503,454.8687677150315
242245.0,9567.0,242245.0,11746.0,242245.0,24952.0,551.7140699930695,308.2077679420569,452.6366941560516
242245.0,9530.0,242245.0,11762.0,242245.0,24973.0,544.7402197139759,306.8729854651606,450.4642062458368
242245.0,9506.0,242245.0,11782.0,242245.0,24988.0,537.9939752094615,305.57986888219045,448.3486836991723
242245.0,9502.0,242245.0,11737.0,242245.0,24932.0,531.4749910884453,304.3289238737258,446.288360246606
242256.0,9457.0,242256.0,11671.0,242256.0,24943.0,525.1829315959806,303.12176340637063,444.28243840231386
242256.0,9418.0,242256.0,11654.0,242256.0,24866.0,519.1170448735566,301.9602702800023,442.3306602382661
242256.0,9406.0,242256.0,11652.0,242256.0,24881.0,513.2755236933342,300.8454123242266,440.4325770412695
242256.0,9377.0,242256.0,11636.0,242256.0,24873.0,507.6548247135135,299.77644278269656,438.5868457124616
242256.0,9421.0,242256.0,11681.0,242256.0,24888.0,502.24928428050396,298.75064573923754,436.79092429592276
242256.0,9415.0,242256.0,11699.0,242256.0,24899.0,497.0512413616833,297.76356995023343,435.0412314427856
242266.0,9473.0,242266.0,11680.0,242266.0,24870.0,492.05168195367315,296.80962569759504,433.3334703817578
242266.0,9475.0,242266.0,11728.0,242266.0,24861.0,487.2412311629404,295.88265422179927,431.66275931069913
242266.0,9471.0,242266.0,11748.0,242266.0,24891.0,482.6111937240054,294.97643752731744,430.0235298951785
242266.0,9404.0,242266.0,11752.0,242266.0,24944.0,478.15414945594557,294.0854077853238,428.40969793516837
242266.0,9421.0,242266.0,11758.0,242266.0,24871.0,473.8638064422736,293.2053582004019,426.81531886550636
242266.0,9358.0,242266.0,11688.0,242266.0,24897.0,469.73444001426367,292.3337305319925,425.2350584300069
242276.0,9323.0,242276.0,11640.0,242276.0,24855.0,465.7602334457747,291.46916977526433,423.66406183039896
242276.0,9315.0,242276.0,11632.0,242276.0,24838.0,461.93447603159836,290.61039870742,422.0975513878413
242276.0,9315.0,242276.0,11634.0,242276.0,24848.0,458.24885349766646,289.7550923255121,420.5304017953047
242276.0,9333.0,242276.0,11680.0,242276.0,24869.0,454.693227615212,288.8994321993123,418.95690965796075
242276.0,9348.0,242276.0,11682.0,242276.0,24845.0,451.25592350234933,288.03841772210257,417.3709537895067
242276.0,9391.0,242276.0,11697.0,242276.0,24837.0,447.9243832748921,287.1665438028475,415.7662267005476
242287.0,9418.0,242287.0,11666.0,242287.0,24847.0,444.68613581859165,286.27833315344674,414.1362298697784
242287.0,9375.0,242287.0,11717.0,242287.0,24852.0,441.52984427408285,285.3685533491097,412.47425763221946
242287.0,9357.0,242287.0,11735.0,242287.0,24877.0,438.44586093437147,284.4324891730805,410.77363904701133
242287.0,9344.0,242287.0,11753.0,242287.0,24904.0,435.4260693265747,283.46659825019896,409.02826426500536
242287.0,9316.0,242287.0,11711.0,242287.0,24889.0,432.463438767866,282.4692161998605,407.2332822753403
242287.0,9263.0,242287.0,11627.0,242287.0,24820.0,429.55152641240807,281.4405909728099,405.3855270255147
242297.0,9247.0,242297.0,11586.0,242297.0,24797.0,426.68375905487267,280.3818700158793,403.4831479249122
242297.0,9215.0,242297.0,11590.0,242297.0,24793.0,423.8525657376238,279.29353203234484,401.5246613754839
242297.0,9224.0,242297.0,11639.0,242297.0,24788.0,421.04867910697396,278.1743358884798,399.50819241110435
242297.0,9263.0,242297.0,11650.0,242297.0,24792.0,418.2608830195395,277.0213674701002,397.4312222025107
242297.0,9282.0,242297.0,11659.0,242297.0,24800.0,415.4764050228911,275.8307737162336,395.290653287091
242297.0,9340.0,242297.0,11653.0,242297.0,24809.0,412.6818893059208,274.598445260119,393.08305094368586
242307.0,9336.0,242307.0,11643.0,242307.0,24780.0,409.86464291095353,273.3203300692967,390.80493736173526
242307.0,9312.0,242307.0,11701.0,242307.0,24821.0,407.013712425913,271.99257855880904,388.45298490859875
242307.0,9270.0,242307.0,11723.0,242307.0,24826.0,404.12028562134594,270.61199385234534,386.0242603810932
242307.0,9260.0,242307.0,11687.0,242307.0,24811.0,401.1773475478926,269.1768379006717,383.5166842638035
242307.0,9212.0,242307.0,11657.0,242307.0,24781.0,398.17901433606295,267.6872872747563,380.9293529560789
242307.0,9186.0,242307.0,11614.0,242307.0,24756.0,395.11980801474283,266.1450550167503,378.26235976202895
242318.0,9173.0,242318.0,11618.0,242318.0,24742.0,391.99389885570787,264.5525347203586,375.5162644284191
242318.0,9153.0,242318.0,11565.0,242318.0,24743.0,388.79446518483843,262.9119848663974,372.69158359616034
242318.0,9181.0,242318.0,11591.0,242318.0,24747.0,385.51335501304226,261.2248909603547,369.7885551171097
242318.0,9214.0,242318.0,11613.0,242318.0,24756.0,382.14121363016994,259.49162278330965,366.80722074343504
242318.0,9236.0,242318.0,11581.0,242318.0,24706.0,378.66818467691706,257.7115445617416,363.7476126665909
242318.0,9253.0,242318.0,11601.0,242318.0,24698.0,375.0849502336178,255.88327043892332,360.60966546764575
242328.0,9229.0,242328.0,11632.0,242328.0,24735.0,371.38365489177806,254.0048365850995,357.3928919283327
242328.0,9199.0,242328.0,11672.0,242328.0,24767.0,367.55834982536476,252.0741684203414,354.09645815160115
242328.0,9177.0,242328.0,11702.0,242328.0,24765.0,363.60484782585456,250.09004739939158,350.7199190625636
242328.0,9169.0,242328.0,11604.0,242328.0,24724.0,359.5202606690123,248.05304315154365,347.2639910028701
242328.0,9125.0,242328.0,11572.0,242328.0,24704.0,355.3025467931886,245.9655185460346,343.7306915731414
242328.0,9086.0,242328.0,11526.0,242328.0,24670.0,350.9500046282222,243.83052553031024,340.12286490983286
242338.0,9091.0,242338.0,11521.0,242338.0,24646.0,346.46059224748893,241.65041735264978,336.443486959623
242338.0,9063.0,242338.0,11498.0,242338.0,24629.0,341.83133851104407,239.4258631274597,332.6949894658577
242338.0,9088.0,242338.0,11605.0,242338.0,24668.0,337.0581007588049,237.15549943168048,328.87880697420803
242338.0,9118.0,242338.0,11586.0,242338.0,24642.0,332.135731885416,234.83646580728157,324.9953855815083
242338.0,9156.0,242338.0,11558.0,242338.0,24634.0,327.05877429963493,232.46541946379912,321.04446112789475
242338.0,9157.0,242338.0,11552.0,242338.0,24636.0,321.8225716403577,230.03900930976695,317.02518385763824
242349.0,9137.0,242349.0,11632.0,242349.0,24678.0,316.42428843139544,227.55383774459304,312.9362129995592
242349.0,9073.0,242349.0,11627.0,242349.0,24702.0,310.86330152445333,225.0068877678289,308.77623662463964
242349.0,9083.0,242349.0,11625.0,242349.0,24664.0,305.14085210876834,222.39647419538576,304.54482574752143
242349.0,9049.0,242349.0,11577.0,242349.0,24631.0,299.2594338799783,219.72283672946858,300.2429245213204
242349.0,8981.0,242349.0,11519.0,242349.0,24601.0,293.2222613641373,216.98786495304728,295.8725717892903
242349.0,8962.0,242349.0,11513.0,242349.0,24571.0,287.0325430975459,214.1941434489807,291.4361716871225
242359.0,8960.0,242359.0,11474.0,242359.0,24564.0,280.6925717088964,211.3438654207707,286.93576452574223
242359.0,8965.0,242359.0,11501.0,242359.0,24557.0,274.2032014953467,208.4380721047881,282.3725204942452
242359.0,8976.0,242359.0,11545.0,242359.0,24598.0,267.56393400692554,205.47646278242368,277.74661801965
242359.0,9036.0,242359.0,11562.0,242359.0,24583.0,260.77347804229225,202.45792916199338,273.0575856702241
242359.0,9025.0,242359.0,11497.0,242359.0,24556.0,253.83073144306593,199.3813810579699,268.304797962722
242359.0,9020.0,242359.0,11519.0,242359.0,24561.0,246.73586294030838,196.24602962332807,263.4876495087195
242369.0,8982.0,242369.0,11590.0,242369.0,24617.0,239.49092743080803,193.0512961320341,258.60559167271043
242369.0,8949.0,242369.0,11583.0,242369.0,24609.0,232.09982645977163,189.797299501986,253.6586327990759
242369.0,8904.0,242369.0,11559.0,242369.0,24552.0,224.5677939500457,186.48581328820285,248.6480773846848
242369.0,8885.0,242369.0,11455.0,242369.0,24535.0,216.90064787690568,183.1205507572392,243.5766522040184
242369.0,8841.0,242369.0,11442.0,242369.0,24495.0,209.10403438225006,179.70624979313612,238.44790196587437
242369.0,8835.0,242369.0,11450.0,242369.0,24474.0,201.18277949950857,176.24727189572653,233.26539879749922
242380.0,8809.0,242380.0,11415.0,242380.0,24489.0,193.14039485843432,172.74670877777618,228.032125671503
242380.0,8869.0,242380.0,11460.0,242380.0,24477.0,184.97891125639438,169.206134044991,222.75022389611647
242380.0,8875.0,242380.0,11490.0,242380.0,24489.0,176.6993172287997,165.62580558613476,217.42111671657858
242380.0,8912.0,242380.0,11460.0,242380.0,24444.0,168.30258635256752,162.00529230983364,212.04571551751138
242380.0,8874.0,242380.0,11473.0,242380.0,24460.0,159.790807541452,158.3440820174085,206.62443537496875
242380.0,8859.0,242380.0,11516.0,242380.0,24487.0,151.16787187986318,154.64191138073568,201.1571757516289
242390.0,8824.0,242390.0,11491.0,242390.0,24493.0,142.4395398505394,150.89920860997302,195.64367713184186
242390.0,8785.0,242390.0,11520.0,242390.0,24483.0,133.61307702967463,147.1176872617754,190.08418883360036
242390.0,8767.0,242390.0,11435.0,242390.0,24444.0,124.69669483843995,143.30065201970052,184.47990766427128
242390.0,8725.0,242390.0,11389.0,242390.0,24421.0,115.69895194614253,139.4526278342689,178.8328737289139
242390.0,8687.0,242390.0,11365.0,242390.0,24386.0,106.62815451544247,135.5782657752901,173.14544882184342
242390.0,8663.0,242390.0,11371.0,242390.0,24402.0,97.4916902599565,131.68114876708768,167.41972946609815
242400.0,8639.0,242400.0,11386.0,242400.0,24397.0,88.29537497677563,127.76321144152098,161.6572567748422
242400.0,8697.0,242400.0,11416.0,242400.0,24412.0,79.04312094811507,123.82488530461018,155.85915258648575
242400.0,8739.0,242400.0,11419.0,242400.0,24377.0,69.73736009786671,119.86570809291055,150.02645111719227
242400.0,8728.0,242400.0,11414.0,242400.0,24359.0,60.38025616877974,115.88501481464638,144.1602375361682
242400.0,8707.0,242400.0,11402.0,242400.0,24366.0,50.97493883451409,111.88236240125849,138.26148819321466
242400.0,8666.0,242400.0,11476.0,242400.0,24400.0,41.526010882599735,107.857787144247,132.33101113366453
242411.0,8650.0,242411.0,11469.0,242411.0,24401.0,32.03936275788283,103.81239073359711,126.36987946637981
242411.0,8613.0,242411.0,11412.0,242411.0,24361.0,22.521717270665476,99.74914155855657,120.38008030226825
242411.0,8559.0,242411.0,11336.0,242411.0,24328.0,12.980092486806484,95.67293198547387,114.36471544129881
242411.0,8529.0,242411.0,11308.0,242411.0,24289.0,3.421083425542065,91.5894908212193,108.32753720212628
242411.0,8517.0,242411.0,11320.0,242411.0,24283.0,-6.149950635131631,87.50396637256483,102.2721896370249
242411.0,8496.0,242411.0,11273.0,242411.0,24277.0,-15.729459538613128,83.42004203531752,96.20161844894369
242421.0,8522.0,242421.0,11330.0,242421.0,24299.0,-25.315874587211965,79.33962068626158,90.11790448670797
242421.0,8557.0,242421.0,11374.0,242421.0,24269.0,-34.90929698108539,75.26302919360296,84.02247417846871
242421.0,8595.0,242421.0,11312.0,242421.0,24272.0,-44.51057290123174,71.18976928790431,77.91636303801909
242421.0,8583.0,242421.0,11311.0,242421.0,24267.0,-54.11997381196045,67.11909837852585,71.80032577362249
242421.0,8537.0,242421.0,11384.0,242421.0,24287.0,-63.736145755278585,63.050072007028206,65.67496902416849
242421.0,8483.0,242421.0,11376.0,242421.0,24306.0,-73.35591452313179,58.98187767804845,59.54114953839013
242431.0,8479.0,242431.0,11352.0,242431.0,24267.0,-82.97486581017267,54.914658414414276,53.400552773378195
242431.0,8425.0,242431.0,11329.0,242431.0,24218.0,-92.58809535688886,50.84994776101371,47.25595606582692
242431.0,8388.0,242431.0,11250.0,242431.0,24206.0,-102.19085601772179,46.79029934158467,41.11082419078832
242431.0,8366.0,242431.0,11262.0,242431.0,24183.0,-111.77925570773539,42.738365910088135,34.96858934671684
242431.0,8358.0,242431.0,11218.0,242431.0,24151.0,-121.35090316509945,38.69589732680413,28.83207484482881
242431.0,8361.0,242431.0,11273.0,242431.0,24166.0,-130.90520011698266,34.66313902955869,22.703086683305514
242442.0,8382.0,242442.0,11303.0,242442.0,24212.0,-140.44318278748926,30.63892438886768,16.58232469716245
242442.0,8421.0,242442.0,11289.0,242442.0,24183.0,-149.96690467854626,26.621408319996135,10.46986821119998
242442.0,8424.0,242442.0,11274.0,242442.0,24154.0,-159.4784111964916,22.60882697069752,4.365792972375402
242442.0,8404.0,242442.0,11258.0,242442.0,24166.0,-168.97866629737393,18.59971082280768,-1.7296938351388462
242442.0,8386.0,242442.0,11319.0,242442.0,24194.0,-178.46691679465914,14.592826483674429,-7.816298967272644
242442.0,8322.0,242442.0,11323.0,242442.0,24167.0,-187.9406683505888,10.587517060491223,-13.893324521599766
242452.0,8311.0,242452.0,11280.0,242452.0,24169.0,-197.39616187603553,6.5844107950902355,-19.959210010952972
242452.0,8255.0,242452.0,11232.0,242452.0,24118.0,-206.8291015000542,2.5856682493327696,-26.011402616778298
242452.0,8226.0,242452.0,11174.0,242452.0,24083.0,-216.23541768655457,-1.405707554755736,-32.04668519391771
242452.0,8202.0,242452.0,11171.0,242452.0,24068.0,-225.6120130121991,-5.387087288503125,-38.061854850071654
242452.0,8206.0,242452.0,11195.0,242452.0,24057.0,-234.95734097486718,-9.357188835281107,-44.05440816569177
242452.0,8227.0,242452.0,11220.0,242452.0,24068.0,-244.27153663252767,-13.316253750402836,-50.02288507206339
242462.0,8242.0,242462.0,11234.0,242462.0,24061.0,-253.55598782042307,-17.265485389498224,-55.96682896741197
242462.0,8255.0,242462.0,11185.0,242462.0,24053.0,-262.81251694387913,-21.20636189010338,-61.886555372957844
242462.0,8248.0,242462.0,11200.0,242462.0,24051.0,-272.0424991348773,-25.140400735333884,-67.78294973316434
242462.0,8233.0,242462.0,11247.0,242462.0,24070.0,-281.2461980260606,-29.069192723575213,-73.65728828422141
242462.0,8195.0,242462.0,11245.0,242462.0,24071.0,-290.4224850556503,-32.994031402631265,-79.51089781020585
242462.0,8163.0,242462.0,11235.0,242462.0,24086.0,-299.56899694287074,-36.915176374423936,-85.34463199239599
242473.0,8112.0,242473.0,11167.0,242473.0,24030.0,-308.6826686366477,-40.83150528296025,-91.15841525857292
242473.0,8089.0,242473.0,11124.0,242473.0,23983.0,-317.760494078692,-44.74101386468382,-96.95127706821785
242473.0,8054.0,242473.0,11119.0,242473.0,23979.0,-326.8003145248199,-48.64190505677294,-102.72201222560165
242473.0,8032.0,242473.0,11156.0,242473.0,23949.0,-335.8014807111716,-52.53346784909087,-108.46998357863947
242473.0,8045.0,242473.0,11115.0,242473.0,23965.0,-344.76529786137075,-56.41622785700565,-114.19559156124524
242473.0,8106.0,242473.0,11155.0,242473.0,23973.0,-353.6949742808745,-60.29169747687081,-119.90033774103574
242483.0,8109.0,242483.0,11129.0,242483.0,23926.0,-362.5947942295361,-64.16213440055503,-125.58663009076776
242483.0,8087.0,242483.0,11136.0,242483.0,23955.0,-371.46891972598485,-68.03033070595748,-131.25765778017552
242483.0,8099.0,242483.0,11146.0,242483.0,23970.0,-380.32057196188646,-71.89943245508573,-136.91731922447389
242483.0,8072.0,242483.0,11202.0,242483.0,23997.0,-389.15169339316026,-75.77261162760894,-142.56977831205677
242483.0,8023.0,242483.0,11168.0,242483.0,23981.0,-397.9628779238832,-79.65237780572454,-148.21867702603572
242483.0,8017.0,242483.0,11143.0,242483.0,23961.0,-406.75364197782847,-83.5399504503223,-153.86651836035145
242494.0,7981.0,242494.0,11117.0,242494.0,23911.0,-415.52292310999144,-87.4352745251824,-159.51459583331314
242494.0,7925.0,242494.0,11051.0,242494.0,23876.0,-424.269597727637,-91.33765109882754,-165.16350797109504
242494.0,7915.0,242494.0,11077.0,242494.0,23889.0,-432.9931292538671,-95.24662674515622,-170.81393796784806
242494.0,7903.0,242494.0,11040.0,242494.0,23855.0,-441.6942476014884,-99.16274105898486,-176.46720875627858
242494.0,7909.0,242494.0,11076.0,242494.0,23900.0,-450.3752734394676,-103.08784492451281,-182.12541513663558
242494.0,7941.0,242494.0,11114.0,242494.0,23848.0,-459.0399374723712,-107.02492475681859,-187.79126446188485
242504.0,7971.0,242504.0,11063.0,242504.0,23836.0,-467.6926987111858,-110.97752777453934,-193.46794556092215
242504.0,7970.0,242504.0,11093.0,242504.0,23853.0,-476.3376850748964,-114.94925569309788,-199.159248423593
242504.0,7928.0,242504.0,11132.0,242504.0,23900.0,-484.9777459349957,-118.9435007714626,-204.86952778004115
242504.0,7894.0,242504.0,11135.0,242504.0,23896.0,-493.61416086397526,-122.96291412811729,-210.603047026029
242504.0,7873.0,242504.0,11157.0,242504.0,23894.0,-502.24701057449647,-127.00854146766324,-216.36305044287718
242504.0,7845.0,242504.0,11083.0,242504.0,23847.0,-510.8757546717263,-131.0791988554933,-222.1512273655664
242514.0,7804.0,242514.0,11014.0,242514.0,23835.0,-519.4997531285098,-135.1716571785861,-227.9677968830747
242514.0,7777.0,242514.0,10969.0,242514.0,23780.0,-528.1188286333107,-139.28182150966768,-233.81202885975932
242514.0,7744.0,242514.0,10986.0,242514.0,23742.0,-536.7339163707624,-143.4062679948733,-239.68301305982078
242514.0,7751.0,242514.0,10964.0,242514.0,23783.0,-545.3476312420056,-147.54321961248047,-245.58045985159117
242514.0,7797.0,242514.0,11025.0,242514.0,23772.0,-553.9644185773092,-151.69271198347485,-251.50503670290254
242514.0,7821.0,242514.0,11043.0,242514.0,23738.0,-562.5899685117269,-155.85609702029245,-257.4581615487207
242525.0,7835.0,242525.0,10994.0,242525.0,23754.0,-571.2300436463187,-160.03521226173018,-263.44183786508586
242525.0,7832.0,242525.0,11040.0,242525.0,23770.0,-579.8892925406276,-164.23182904695892,-269.4586244981993
242525.0,7778.0,242525.0,11092.0,242525.0,23806.0,-588.5705244422111,-168.44731269697843,-275.5112484262466
242525.0,7751.0,242525.0,11043.0,242525.0,23790.0,-597.2746737957702,-172.68191384999602,-281.60180169186043
242525.0,7706.0,242525.0,11036.0,242525.0,23729.0,-606.0013593302969,-176.93408554121817,-287.73110525821244
242525.0,7678.0,242525.0,10958.0,242525.0,23733.0,-614.7496734211156,-181.2005889672846,-293.8987739908071
242535.0,7646.0,242535.0,10945.0,242535.0,23675.0,-623.518944718872,-185.47733739227823,-300.10380667697154
242535.0,7628.0,242535.0,10915.0,242535.0,23668.0,-632.309389069711,-189.7604743854527,-306.34525384925087
242535.0,7620.0,242535.0,10893.0,242535.0,23633.0,-641.1225738635455,-194.04727367122166,-312.62284606131686
242535.0,7644.0,242535.0,10946.0,242535.0,23652.0,-649.9615642578946,-198.3366461902097,-318.9374895483645
242535.0,7678.0,242535.0,10925.0,242535.0,23674.0,-658.8305630223981,-202.62909862739082,-325.29137024039903
242535.0,7672.0,242535.0,10958.0,242535.0,23646.0,-667.7340520080526,-206.9262405820616,-331.6876013405839
242545.0,7671.0,242545.0,10938.0,242545.0,23632.0,-676.6758459333257,-211.23023701810973,-338.1298292644615
242545.0,7662.0,242545.0,10965.0,242545.0,23688.0,-685.6584610768846,-215.54338606199576,-344.62205688131553
242545.0,7618.0,242545.0,10987.0,242545.0,23699.0,-694.6828615009265,-219.86768245068265,-351.1682184924125
242545.0,7601.0,242545.0,10984.0,242545.0,23704.0,-703.7485705880686,-224.2042208565257,-357.77126762800447
242545.0,7544.0,242545.0,10946.0,242545.0,23603.0,-712.8541235767615,-228.55265961889558,-364.432477753433
242545.0,7527.0,242545.0,10877.0,242545.0,23598.0,-721.9977336124527,-232.91127911445778,-371.1517005245124
242556.0,7477.0,242556.0,10848.0,242556.0,23576.0,-731.1780377891301,-237.27784726603494,-377.92830632469384
242556.0,7463.0,242556.0,10808.0,242556.0,23551.0,-740.3948200205062,-241.6508935631703,-384.76197128566355
242556.0,7470.0,242556.0,10845.0,242556.0,23541.0,-749.6495569741428,-246.0307521567816,-391.65310033551066
242556.0,7524.0,242556.0,10889.0,242556.0,23592.0,-758.9454470868047,-250.41983980189246,-398.60298341734017
242556.0,7512.0,242556.0,10904.0,242556.0,23537.0,-768.2867121498441,-254.82200876153138,-405.6135472524651
242556.0,7558.0,242556.0,10869.0,242556.0,23528.0,-777.677501238229,-259.2415493366834,-412.68701426215057
242566.0,7531.0,242566.0,10858.0,242566.0,23548.0,-787.1208501759392,-263.6826878225838,-419.82589154658956
242566.0,7480.0,242566.0,10912.0,242566.0,23581.0,-796.6180141438014,-268.1495858326436,-427.0328729679037
242566.0,7461.0,242566.0,10880.0,242566.0,23570.0,-806.1684789235542,-272.64615886597886,-434.3102130916402
242566.0,7445.0,242566.0,10879.0,242566.0,23543.0,-815.7704706297642,-277.175645181741,-441.6590019362793
242566.0,7390.0,242566.0,10822.0,242566.0,23500.0,-825.4214721801134,-281.740505664148,-449.0789698425642
242566.0,7340.0,242566.0,10779.0,242566.0,23480.0,-835.1187971477116,-286.3429358705958,-456.56889730893454
242576.0,7317.0,242576.0,10776.0,242576.0,23463.0,-844.8604517717114,-290.9857857816798,-464.1272432691966
242576.0,7309.0,242576.0,10840.0,242576.0,23485.0,-854.6459958116213,-295.6732395829244,-471.75255067576256
242576.0,7331.0,242576.0,10850.0,242576.0,23477.0,-864.4769307749149,-300.41057541142766,-479.4434048020562
242576.0,7370.0,242576.0,10847.0,242576.0,23458.0,-874.3563989914293,-305.2032214728719,-487.19811025683714
242576.0,7392.0,242576.0,10818.0,242576.0,23424.0,-884.2882380140825,-310.05600082722947,-495.01452793015767
242576.0,7385.0,242576.0,10812.0,242576.0,23416.0,-894.2757504803557,-314.97299775288604,-502.8902763237297
242587.0,7362.0,242587.0,10877.0,242587.0,23447.0,-904.3207478739993,-319.95762258195964,-510.82297354038053
242587.0,7323.0,242587.0,10904.0,242587.0,23452.0,-914.4232101029903,-325.0121341988026,-518.8100424130598
242587.0,7287.0,242587.0,10854.0,242587.0,23433.0,-924.5815304866359,-330.13662819456994,-526.8481193288815
242587.0,7260.0,242587.0,10857.0,242587.0,23384.0,-934.7930992582569,-335.3283790275288,-534.9326638348201
242587.0,7232.0,242587.0,10777.0,242587.0,23371.0,-945.054940285358,-340.5820178387479,-543.0581597162374
242587.0,7186.0,242587.0,10725.0,242587.0,23321.0,-955.3642897792479,-345.89038006554557,-551.218709370102
242597.0,7188.0,242597.0,10695.0,242597.0,23314.0,-965.7191555328992,-351.2458145720552,-559.4086938030548
242597.0,7181.0,242597.0,10673.0,242597.0,23334.0,-976.118713085892,-356.64152143582834,-567.6232474964664
242597.0,7207.0,242597.0,10752.0,242597.0,23323.0,-986.5632717470238,-362.0722932928687,-575.8582811848194
242597.0,7256.0,242597.0,10706.0,242597.0,23312.0,-997.0536830097789,-367.534358918114,-584.1101538909008
242597.0,7240.0,242597.0,10736.0,242597.0,23291.0,-1007.5902682621862,-373.02474811966636,-592.3754355236639
242597.0,7229.0,242597.0,10714.0,242597.0,23293.0,-1018.1717332574399,-378.5408297122279,-600.6508997970446
242607.0,7197.0,242607.0,10802.0,242607.0,23364.0,-1028.7946198009154,-384.07993160731155,-608.9333752203698
242607.0,7149.0,242607.0,10768.0,242607.0,23315.0,-1039.4533776772337,-389.6385857551218,-617.2190819067208
242607.0,7137.0,242607.0,10755.0,242607.0,23302.0,-1050.1408383692624,-395.2116489766325,-625.5028631015497
242607.0,7082.0,242607.0,10627.0,242607.0,23259.0,-1060.8488377791546,-400.79218214752774,-633.7780380767496
242607.0,7046.0,242607.0,10656.0,242607.0,23212.0,-1071.568882941804,-406.37245216951595,-642.036900844697
242607.0,7027.0,242607.0,10661.0,242607.0,23212.0,-1082.2928933406815,-411.9451847219215,-650.2714723028685
242618.0,7024.0,242618.0,10624.0,242618.0,23183.0,-1093.0138167432633,-417.5040784331173,-658.4741498752695
242618.0,7032.0,242618.0,10673.0,242618.0,23230.0,-1103.7258203003623,-423.04373854831397,-666.6379614622971
242618.0,7070.0,242618.0,10655.0,242618.0,23192.0,-1114.4239620213102,-428.559437063631,-674.7563571594767
242618.0,7084.0,242618.0,10624.0,242618.0,23206.0,-1125.103371151633,-434.04678652457034,-682.8228020562949
242618.0,7086.0,242618.0,10645.0,242618.0,23191.0,-1135.758162258203,-439.5016170372703,-690.8304840084021
242618.0,7054.0,242618.0,10707.0,242618.0,23194.0,-1146.3805425783298,-444.91987652728244,-698.7721244578535
242628.0,7019.0,242628.0,10726.0,242628.0,23230.0,-1156.9604811523127,-450.29689667927954,-706.6396820604068
242628.0,7001.0,242628.0,10698.0,242628.0,23197.0,-1167.4859278553383,-455.6262108817738,-714.4238421045417
242628.0,6968.0,242628.0,10658.0,242628.0,23174.0,-1177.943262905229,-460.8988633457692,-722.113559120206
242628.0,6927.0,242628.0,10570.0,242628.0,23114.0,-1188.317772835232,-466.1037499469235,-729.6961305806672
242628.0,6920.0,242628.0,10557.0,242628.0,23109.0,-1198.5941756261518,-471.228810966366,-737.1578324098057
242628.0,6865.0,242628.0,10547.0,242628.0,23096.0,-1208.7571549918562,-476.26238801147656,-744.4846370786385
242638.0,6886.0,242638.0,10542.0,242638.0,23036.0,-1218.7918152615728,-481.19405135508737,-751.6627071211927
242638.0,6920.0,242638.0,10593.0,242638.0,23091.0,-1228.6838225980023,-486.014730090046,-758.6787677251054
242638.0,6958.0,242638.0,10590.0,242638.0,23073.0,-1238.4188343617939,-490.7162648333259,-765.5202252747996
242638.0,6966.0,242638.0,10571.0,242638.0,23087.0,-1247.9812859015951,-495.29070707333375,-772.1748177627745
242638.0,6941.0,242638.0,10552.0,242638.0,23070.0,-1257.3531848624034,-499.7299442151618,-778.630125322637
242638.0,6911.0,242638.0,10661.0,242638.0,23121.0,-1266.5134943384162,-504.025587852515,-784.8731699673801
242649.0,6870.0,242649.0,10667.0,242649.0,23113.0,-1275.438220813804,-508.1682775991313,-790.8898560260861
242649.0,6849.0,242649.0,10620.0,242649.0,23062.0,-1284.1009465131608,-512.1464088574342,-796.6643427751875
242649.0,6807.0,242649.0,10541.0,242649.0,23036.0,-1292.4734912318618,-515.945573947099,-802.1789507705788
242649.0,6773.0,242649.0,10456.0,242649.0,23007.0,-1300.526593186919,-519.549498127772,-807.4147420306188
242649.0,6769.0,242649.0,10467.0,242649.0,22974.0,-1308.2305895522927,-522.9418618325636,-812.3523051338848
242649.0,6757.0,242649.0,10479.0,242649.0,22958.0,-1315.5559134576035,-526.1077893166109,-816.9724685846226
242659.0,6774.0,242659.0,10497.0,242659.0,23006.0,-1322.4732222213672,-529.0342716443383,-821.2567791428669
242659.0,6807.0,242659.0,10580.0,242659.0,22985.0,-1328.9531092045122,-531.7096398411961,-825.1874442002196
242659.0,6817.0,242659.0,10511.0,242659.0,22962.0,-1334.9653982145337,-534.1225520674989,-828.7469411698874
242659.0,6804.0,242659.0,10512.0,242659.0,22968.0,-1340.4782723622898,-536.2612379076006,-831.9178813470805
242659.0,6759.0,242659.0,10538.0,242659.0,22998.0,-1345.457760477259,-538.113441320923,-834.6830559557396
242659.0,6738.0,242659.0,10564.0,242659.0,23004.0,-1349.8678836506506,-539.666419099013,-837.0251529466062
242669.0,6737.0,242669.0,10561.0,242669.0,22989.0,-1353.6712059926786,-540.9064447779672,-838.9262017717663
242669.0,6719.0,242669.0,10533.0,242669.0,22966.0,-1356.8292909043003,-541.8182636412632,-840.3672566779857
242669.0,6658.0,242669.0,10436.0,242669.0,22944.0,-1359.3030296641075,-542.3852014910553,-841.3285579023345
242669.0,6650.0,242669.0,10419.0,242669.0,22899.0,-1361.0532280720925,-542.5902190929962,-841.7900621005406
242669.0,6599.0,242669.0,10389.0,242669.0,22904.0,-1362.0414928798932,-542.4174554601601,-841.7321686002107
242669.0,6635.0,242669.0,10424.0,242669.0,22882.0,-1362.2310529706874,-541.8533943573449,-841.1363992711406
242680.0,6665.0,242680.0,10473.0,242680.0,22907.0,-1361.5870935631824,-540.8871384756972,-839.9857958625241
242680.0,6690.0,242680.0,10429.0,242680.0,22869.0,-1360.0763597553969,-539.5099252748328,-838.2650515877741
242680.0,6699.0,242680.0,10454.0,242680.0,22908.0,-1357.666315882571,-537.7145992199248,-835.9605616603158
242680.0,6714.0,242680.0,10474.0,242680.0,22903.0,-1354.3243838934477,-535.495433303943,-833.0603973217427
242680.0,6684.0,242680.0,10536.0,242680.0,22935.0,-1350.017500606078,-532.8478063055011,-829.5540601194979
242680.0,6651.0,242680.0,10523.0,242680.0,22933.0,-1344.7121426337903,-529.7673959902297,-825.4320633687001
242690.0,6616.0,242690.0,10511.0,242690.0,22933.0,-1338.3749414718798,-526.2493822013895,-820.6855556564094
242690.0,6589.0,242690.0,10467.0,242690.0,22882.0,-1330.9737198275907,-522.2883015058917,-815.3062538295007
242690.0,6574.0,242690.0,10415.0,242690.0,22875.0,-1322.4786122966807,-517.8787012838332,-809.2868962180456
242690.0,6584.0,242690.0,10433.0,242690.0,22906.0,-1312.8629982083517,-513.0162635635547,-802.6219552962381
242690.0,6566.0,242690.0,10398.0,242690.0,22861.0,-1302.1041180713837,-507.6988381940439,-795.3080919354096
242690.0,6596.0,242690.0,10446.0,242690.0,22920.0,-1290.183439229822,-501.92703132897424,-787.3443210640089
242701.0,6664.0,242701.0,10515.0,242701.0,22892.0,-1277.086706698503,-495.7041873854233,-778.7320588299962
242701.0,6708.0,242701.0,10487.0,242701.0,22900.0,-1262.803366101375,-489.03569160383813,-769.4750978406481
242701.0,6734.0,242701.0,10457.0,242701.0,22920.0,-1247.325462390037,-481.9282568861058,-759.5796561398487
242701.0,6710.0,242701.0,10525.0,242701.0,22967.0,-1230.6467108535662,-474.38988280717587,-749.0543520675024
242701.0,6694.0,242701.0,10566.0,242701.0,22985.0,-1212.7623316111385,-466.4298572109463,-737.9097789826518
242701.0,6735.0,242701.0,10585.0,242701.0,23004.0,-1193.669544582161,-458.058057431328,-726.1578354019184
242711.0,6692.0,242711.0,10580.0,242711.0,23000.0,-1173.3681564174394,-449.28403046583384,-713.8112230551066
242711.0,6683.0,242711.0,10491.0,242711.0,23001.0,-1151.8611423314153,-440.1167381778585,-700.8833087786586
242711.0,6701.0,242711.0,10492.0,242711.0,22974.0,-1129.155479839897,-430.56533755935845,-687.388351860062
242711.0,6722.0,242711.0,10483.0,242711.0,22997.0,-1105.2629489484402,-420.6405242272657,-673.3419992575255
242711.0,6753.0,242711.0,10482.0,242711.0,22999.0,-1080.20049380896,-410.355588878978,-658.7617831183949
242711.0,6820.0,242711.0,10622.0,242711.0,23087.0,-1053.990145454325,-399.7266986299217,-643.6672416475706
242721.0,6877.0,242721.0,10551.0,242721.0,23025.0,-1026.658511131644,-388.7722773276595,-628.0795716879267
242721.0,6943.0,242721.0,10611.0,242721.0,23040.0,-998.2358396445842,-377.51208334415253,-612.0213810447337
242721.0,6974.0,242721.0,10605.0,242721.0,23095.0,-968.7549310077441,-365.9667755314118,-595.5169203262432
242721.0,6985.0,242721.0,10681.0,242721.0,23151.0,-938.2503043072516,-354.15768945932734,-578.5921095511688
242721.0,6985.0,242721.0,10714.0,242721.0,23175.0,-906.7579566268282,-342.10621413450974,-561.2738305490396
242721.0,7023.0,242721.0,10673.0,242721.0,23189.0,-874.3156754955257,-329.83294862779866,-543.5890206052829
242732.0,6999.0,242732.0,10659.0,242732.0,23174.0,-840.9635677484207,-317.3574028902001,-525.5642181257421
242732.0,7051.0,242732.0,10662.0,242732.0,23170.0,-806.7446355973757,-304.6985335071425,-507.22571123179233
242732.0,7069.0,242732.0,10666.0,242732.0,23178.0,-771.7053034863953,-291.8755046147546,-488.60008200460544
242732.0,7121.0,242732.0,10623.0,242732.0,23182.0,-735.8956818383017,-278.9082665863869,-469.71479339231917
242732.0,7173.0,242732.0,10696.0,242732.0,23239.0,-699.3695054706208,-265.8180813752587,-450.59853458943644
242732.0,7265.0,242732.0,10734.0,242732.0,23262.0,-662.1837248184916,-252.62771256269903,-431.2811438820487
242742.0,7342.0,242742.0,10775.0,242742.0,23284.0,-624.397620734364,-239.3608665836604,-411.7931808825402
242742.0,7417.0,242742.0,10760.0,242742.0,23307.0,-586.0715118607347,-226.04130735417462,-392.1655033642334
242742.0,7442.0,242742.0,10823.0,242742.0,23335.0,-547.2654574142938,-212.69228101267217,-372.4290116312919
242742.0,7438.0,242742.0,10912.0,242742.0,23403.0,-508.03850591666713,-199.33598490856986,-352.6143408667774
242742.0,7470.0,242742.0,10877.0,242742.0,23427.0,-468.44877530129787,-185.99257821422668,-332.75125559312204
242742.0,7506.0,242742.0,10879.0,242742.0,23431.0,-428.55400833133154,-172.67928795088608,-312.86791525185
242752.0,7527.0,242752.0,10819.0,242752.0,23411.0,-388.4120368206206,-159.4104779577251,-292.99055230096315
242752.0,7545.0,242752.0,10782.0,242752.0,23420.0,-348.08110218419233,-146.19867417253465,-273.14380476574144
242752.0,7601.0,242752.0,10792.0,242752.0,23443.0,-307.6202085224486,-133.05601148335518,-253.35132800082707
242752.0,7635.0,242752.0,10799.0,242752.0,23432.0,-267.0893687318012,-119.99545211182485,-233.63624368642283
242752.0,7728.0,242752.0,10850.0,242752.0,23482.0,-226.54950697373727,-107.03130561511006,-214.0213827854779
242752.0,7798.0,242752.0,10905.0,242752.0,23501.0,-186.06189818195162,-94.17899138943162,-194.52933587293967
242763.0,7928.0,242763.0,10962.0,242763.0,23526.0,-145.68705764443087,-81.45415654168437,-175.18224533624942
242763.0,7924.0,242763.0,10920.0,242763.0,23546.0,-105.48326082373626,-68.8715756441319,-156.0015066841538
242763.0,7956.0,242763.0,10978.0,242763.0,23609.0,-65.50540989066837,-56.44449970402576,-137.00747336351742
242763.0,7964.0,242763.0,10972.0,242763.0,23643.0,-25.804840067528403,-44.18449840030431,-118.21894178646988
242763.0,8010.0,242763.0,11004.0,242763.0,23630.0,13.570237529400515,-32.10132161287359,-99.6524665076488
242763.0,8003.0,242763.0,10952.0,242763.0,23623.0,52.574230929557984,-20.202785941789728,-81.32205135142499
242773.0,8026.0,242773.0,10925.0,242773.0,23602.0,91.16364430100236,-8.495139210540515,-63.239531653756046
242773.0,8050.0,242773.0,10922.0,242773.0,23627.0,129.29642708150038,3.0159900506790223,-45.41533550629964
242773.0,8099.0,242773.0,10915.0,242773.0,23638.0,166.9314071359015,14.324535954837586,-27.85910958439308
242773.0,8151.0,242773.0,11010.0,242773.0,23671.0,204.0280946566644,25.423442800229054,-10.579948151128406
242773.0,8229.0,242773.0,11029.0,242773.0,23662.0,240.54695123819852,36.30498734944712,6.413653658721614
242773.0,8326.0,242773.0,11042.0,242773.0,23681.0,276.4501659097439,46.961735249163894,23.113819015268746
242783.0,8348.0,242783.0,11037.0,242783.0,23673.0,311.70284226066997,57.38731425058529,39.51312953001309
242783.0,8353.0,242783.0,11054.0,242783.0,23725.0,346.2740109932537,67.57661186178038,55.6044222001762
242783.0,8375.0,242783.0,11149.0,242783.0,23783.0,380.13685583832194,77.52589546747498,71.3809076733711
242783.0,8386.0,242783.0,11124.0,242783.0,23768.0,413.26830156713413,87.23343790787544,86.83676588993961
242783.0,8401.0,242783.0,11065.0,242783.0,23783.0,445.6484607856422,96.7001993665387,101.9677255318843
242783.0,8393.0,242783.0,11033.0,242783.0,23769.0,477.2600596696857,105.92951531159306,116.77112153393114
242794.0,8410.0,242794.0,10981.0,242794.0,23754.0,508.08774616038954,114.92574392047794,131.24551174440313
242794.0,8447.0,242794.0,11010.0,242794.0,23761.0,538.117396545252,123.69273297743933,145.39008353290416
242794.0,8458.0,242794.0,11039.0,242794.0,23836.0,567.3356819947169,132.23285692278324,159.20420050407353
242794.0,8523.0,242794.0,11112.0,242794.0,23813.0,595.7299582572102,140.5470266632638,172.6875123072017
242794.0,8595.0,242794.0,11137.0,242794.0,23823.0,623.288529542282,148.63558100127284,185.8403503155057
242794.0,8664.0,242794.0,11085.0,242794.0,23816.0,650.0014752051552,156.49933920194263,198.6637717156624
242804.0,8677.0,242804.0,11107.0,242804.0,23819.0,675.8618352076612,164.13996066870538,211.15924187986383
242804.0,8661.0,242804.0,11182.0,242804.0,23904.0,700.8664402939728,171.5597837111323,223.3284366348829
242804.0,8655.0,242804.0,11173.0,242804.0,23908.0,725.0158649812367,178.76210866174614,235.1736055534741
242804.0,8674.0,242804.0,11180.0,242804.0,23907.0,748.3137281031325,185.75192728658254,246.69832217161286
242804.0,8661.0,242804.0,11108.0,242804.0,23880.0,770.7659318240144,192.53618770568613,257.9078520415974
242804.0,8644.0,242804.0,11100.0,242804.0,23886.0,792.3799867525929,199.12317777605813,268.80883696963417
242814.0,8653.0,242814.0,11058.0,242814.0,23874.0,813.1642185844355,205.52136468184528,279.408700015352
242814.0,8668.0,242814.0,11065.0,242814.0,23867.0,833.1269673500647,211.73823485968978,289.7151049610875
242814.0,8699.0,242814.0,11138.0,242814.0,23905.0,852.2761129264375,217.77961564656744,299.73555299318105
242814.0,8752.0,242814.0,11158.0,242814.0,23881.0,870.6190763068544,223.64987911320344,309.477209446194
242814.0,8840.0,242814.0,11119.0,242814.0,23893.0,888.1633914914971,229.35273243171292,318.9468612106234
242814.0,8859.0,242814.0,11150.0,242814.0,23898.0,904.9178558471326,234.89166776823328,328.1507819674789
242825.0,8843.0,242825.0,11182.0,242825.0,23937.0,920.8937122767209,240.2699744367569,337.0946446697162
242825.0,8823.0,242825.0,11227.0,242825.0,24008.0,936.1050554405208,245.49105590123582,345.7838635508597
242825.0,8843.0,242825.0,11242.0,242825.0,23995.0,950.568398926381,250.55925590963005,354.2244626113252
242825.0,8823.0,242825.0,11185.0,242825.0,23984.0,964.3020383657829,255.48060878724954,362.42392601895153
242825.0,8786.0,242825.0,11144.0,242825.0,23905.0,977.3254629371818,260.26278722837293,370.3912429962627
242825.0,8774.0,242825.0,11109.0,242825.0,23956.0,989.6585333819951,264.91410573351715,378.13608219499156
242835.0,8796.0,242835.0,11126.0,242835.0,23902.0,1001.3205048428651,269.4422331174471,385.667833933731
242835.0,8780.0,242835.0,11106.0,242835.0,23958.0,1012.3293553041497,273.85331201836493,392.9950643793619
242835.0,8841.0,242835.0,11148.0,242835.0,23947.0,1022.7015647315577,278.1516207634845,400.1253712604133
242835.0,8900.0,242835.0,11164.0,242835.0,23946.0,1032.45239897512,282.3396721661445,407.06547287188687
242835.0,8919.0,242835.0,11167.0,242835.0,23963.0,1041.5968132511348,286.4186378118209,413.8212852578522
242835.0,8939.0,242835.0,11199.0,242835.0,23970.0,1050.15057602731,290.38884073557654,420.39793271492954
242845.0,8914.0,242845.0,11240.0,242845.0,24015.0,1058.1309834395324,294.2502618061785,426.799924152685
242845.0,8896.0,242845.0,11258.0,242845.0,24003.0,1065.556926947453,298.00327026446445,433.0315720447003
242845.0,8908.0,242845.0,11250.0,242845.0,24014.0,1072.4484775902574,301.6494367466166,439.09741906976956
242845.0,8844.0,242845.0,11192.0,242845.0,24006.0,1078.8262999141093,305.1918904631887,445.0024132644353
242845.0,8842.0,242845.0,11158.0,242845.0,23970.0,1084.7109232651587,308.6348400221161,450.7517728513782
242845.0,8816.0,242845.0,11130.0,242845.0,23975.0,1090.1218171768778,311.9824399364728,456.35055272951195
242856.0,8819.0,242856.0,11159.0,242856.0,23956.0,1095.0765454279383,315.2376583799032,461.80305210116273
242856.0,8818.0,242856.0,11181.0,242856.0,23970.0,1099.5902187397935,318.4017612804324,467.1123322364673
242856.0,8910.0,242856.0,11214.0,242856.0,24000.0,1103.6754013815319,321.47455432503807,472.2800223311683
242856.0,8965.0,242856.0,11213.0,242856.0,23984.0,1107.3428476051704,324.45503677786763,477.3064558612608
242856.0,8946.0,242856.0,11197.0,242856.0,24011.0,1110.6029582147708,327.3419449932469,482.19093905823775
242856.0,8941.0,242856.0,11215.0,242856.0,24004.0,1113.4669754035547,330.13390840075004,486.9319410262922
242866.0,8906.0,242866.0,11297.0,242866.0,24070.0,1115.9472335168148,332.82957822078157,491.52734313424344
242866.0,8901.0,242866.0,11266.0,242866.0,24068.0,1118.0567365507989,335.4282713064223,495.97498855000276
242866.0,8879.0,242866.0,11236.0,242866.0,24069.0,1119.8085557804764,337.93072642868054,500.2733903196189
242866.0,8855.0,242866.0,11207.0,242866.0,23995.0,1121.2152474533243,340.3390886576056,504.4220132005213
242866.0,8825.0,242866.0,11157.0,242866.0,24004.0,1122.2882294259855,342.65608943719536,508.4207549089208
242866.0,8832.0,242866.0,11152.0,242866.0,23996.0,1123.0370940883395,344.88394239048745,512.2690457152128
242876.0,8827.0,242876.0,11149.0,242876.0,24033.0,1123.469083872785,347.02336559691463,515.9653131531738
242876.0,8862.0,242876.0,11230.0,242876.0,24042.0,1123.5889577267137,349.0731714541733,519.5070729292235
242876.0,8899.0,242876.0,11229.0,242876.0,24035.0,1123.399337360366,351.0307195694997,522.8913425271651
242876.0,8961.0,242876.0,11230.0,242876.0,23999.0,1122.9015938228931,352.892840113772,526.114861539094
242876.0,8926.0,242876.0,11209.0,242876.0,24037.0,1122.097073962264,354.65642025221615,529.1739022806187
242876.0,8927.0,242876.0,11257.0,242876.0,24081.0,1120.9880251921609,356.31848577812224,532.0641585128491
242887.0,8894.0,242887.0,11250.0,242887.0,24114.0,1119.577781388718,357.87631635495177,534.7812972451751
242887.0,8882.0,242887.0,11284.0,242887.0,24103.0,1117.8704284025355,359.3278656381558,537.3219511432992
242887.0,8858.0,242887.0,11230.0,242887.0,24056.0,1115.8703072801359,360.67218482696563,539.684352305118
242887.0,8821.0,242887.0,11190.0,242887.0,24031.0,1113.5814562569578,361.9093579462278,541.8681137209119
242887.0,8810.0,242887.0,11166.0,242887.0,24036.0,1111.006965083277,363.0397384256757,543.8734397745051
242887.0,8826.0,242887.0,11183.0,242887.0,24008.0,1108.1483913178486,364.0629423200848,545.7004053021626
242897.0,8815.0,242897.0,11168.0,242897.0,24037.0,1105.0055359840853,364.9772417134612,547.3485582019985
242897.0,8865.0,242897.0,11267.0,242897.0,24047.0,1101.5766453250694,365.7795890322993,548.8168375041719
242897.0,8924.0,242897.0,11225.0,242897.0,24036.0,1097.8590771118372,366.4662581581194,550.1037866819655
242897.0,8907.0,242897.0,11252.0,242897.0,24026.0,1093.8504720258325,367.0336956638051,551.2077687985927
242897.0,8908.0,242897.0,11235.0,242897.0,24050.0,1089.5499040200195,367.4789913597606,552.1269710457142
242897.0,8877.0,242897.0,11319.0,242897.0,24117.0,1084.958394511328,367.80012813045477,552.859581207398
242907.0,8850.0,242907.0,11288.0,242907.0,24088.0,1080.0788066163957,367.99655957562953,553.404502396726
242907.0,8817.0,242907.0,11253.0,242907.0,24083.0,1074.9153723627453,368.0698625497116,553.7621447086708
242907.0,8776.0,242907.0,11193.0,242907.0,24068.0,1069.4729904027283,368.0236429835078,553.9346482515322
242907.0,8766.0,242907.0,11170.0,242907.0,24027.0,1063.7564256457454,367.86254316130663,553.9255800386734
242907.0,8767.0,242907.0,11174.0,242907.0,24016.0,1057.769653507953,367.5910384123246,553.7393657348003
242907.0,8759.0,242907.0,11137.0,242907.0,24000.0,1051.5155833857157,367.2126119836703,553.3806119763376
242918.0,8771.0,242918.0,11220.0,242918.0,24052.0,1044.9961268259551,366.72942129109146,552.8536651877904
242918.0,8835.0,242918.0,11255.0,242918.0,24008.0,1038.2125839901994,366.14263757378535,552.1626617393281
242918.0,8838.0,242918.0,11175.0,242918.0,24016.0,1031.1665284539883,365.4533475746011,551.3117576545465
242918.0,8816.0,242918.0,11205.0,242918.0,24030.0,1023.8609312513847,364.6630559343666,550.3051714411015
242918.0,8815.0,242918.0,11268.0,242918.0,24067.0,1016.3008542497271,363.7736061240462,549.1473191807415
242918.0,8780.0,242918.0,11268.0,242918.0,24050.0,1008.4935609695294,362.787551956291,547.8433311301724
242928.0,8763.0,242928.0,11241.0,242928.0,24020.0,1000.4483259786052,361.70902615614034,546.399542917625
242928.0,8708.0,242928.0,11208.0,242928.0,24015.0,992.1760276237668,360.54410618491676,544.8234795203019
242928.0,8670.0,242928.0,11161.0,242928.0,23972.0,983.6884610715391,359.3003351720129,543.1234208613308
242928.0,8650.0,242928.0,11145.0,242928.0,23976.0,974.9974482172925,357.98577619823254,541.3078482982007
242928.0,8639.0,242928.0,11085.0,242928.0,23960.0,966.1140537217046,356.60795789749005,539.3849498299688
242928.0,8647.0,242928.0,11128.0,242928.0,23998.0,957.048198217481,355.1729256455649,537.3623901748339
242939.0,8678.0,242939.0,11178.0,242939.0,23971.0,947.8087674954706,353.68483118018065,535.2474506896966
242939.0,8716.0,242939.0,11167.0,242939.0,23953.0,938.4042679394385,352.1464146115557,533.0472535395475
242939.0,8703.0,242939.0,11155.0,242939.0,23937.0,928.843892322592,350.55982216288527,530.7686732318083
242939.0,8683.0,242939.0,11195.0,242939.0,23953.0,919.1384735573394,348.9270471953776,528.4180243297438
242939.0,8665.0,242939.0,11239.0,242939.0,24005.0,909.3008747987819,347.2503101390071,526.0010492670355
242939.0,8589.0,242939.0,11247.0,242939.0,23967.0,899.345799354732,345.53289937383164,523.5234408089418
242949.0,8605.0,242949.0,11189.0,242949.0,23973.0,889.2891859318786,343.78005609357797,520.9914274433017
242949.0,8533.0,242949.0,11101.0,242949.0,23938.0,879.1474720696331,341.9989660560471,518.4118973685472
242949.0,8506.0,242949.0,11085.0,242949.0,23893.0,868.9368912004782,340.19757068499604,515.7920507567576
242949.0,8506.0,242949.0,11101.0,242949.0,23901.0,858.6727501989277,338.383055360228,513.1387561368517
242949.0,8465.0,242949.0,11048.0,242949.0,23901.0,848.3688649902712,336.56095568529173,510.4579567285643
242949.0,8496.0,242949.0,11162.0,242949.0,23908.0,838.0373257465683,334.7349543678706,507.754506970841
242959.0,8529.0,242959.0,11132.0,242959.0,23936.0,827.6886620551022,332.90730580206537,505.0324208416463
242959.0,8564.0,242959.0,11119.0,242959.0,23875.0,817.3326262241425,331.0796635953594,502.2952383711265
242959.0,8531.0,242959.0,11122.0,242959.0,23898.0,806.979379858977,329.25354194650004,499.5461378509125
242959.0,8500.0,242959.0,11193.0,242959.0,23923.0,796.6403204360034,327.43042295544603,496.78783612090996
242959.0,8472.0,242959.0,11155.0,242959.0,23935.0,786.3281245774913,325.61223430029526,494.0228212085671
242959.0,8468.0,242959.0,11143.0,242959.0,23937.0,776.0563415672176,323.80198676018256,491.2539840110416
242970.0,8402.0,242970.0,11126.0,242970.0,23894.0,765.83896977452,322.0038713099352,488.4851065770252
242970.0,8377.0,242970.0,11072.0,242970.0,23901.0,755.6899325818439,320.22281163988487,485.72086488082846
242970.0,8356.0,242970.0,11074.0,242970.0,23842.0,745.6223400424922,318.46375933804563,482.96644917493325
242970.0,8351.0,242970.0,11045.0,242970.0,23839.0,735.6478575972328,316.730942051605,480.2269859327922
242970.0,8331.0,242970.0,11063.0,242970.0,23833.0,725.7764263023385,315.0273255371218,477.5069190718389
242970.0,8370.0,242970.0,11085.0,242970.0,23867.0,716.0162876493752,313.35446553313363,474.8096943301677
242980.0,8403.0,242980.0,11128.0,242980.0,23829.0,706.3744259804706,311.7128667362124,472.1379045067982
242980.0,8410.0,242980.0,11072.0,242980.0,23846.0,696.8575334562571,310.1026768091376,469.4935372559512
242980.0,8379.0,242980.0,11100.0,242980.0,23843.0,687.4730581896465,308.5241305431812,466.8780703605164
242980.0,8356.0,242980.0,11122.0,242980.0,23888.0,678.2297120097473,306.97763690589557,464.29266738151694
242980.0,8307.0,242980.0,11134.0,242980.0,23893.0,669.137302016873,305.46405738874694,461.7387367136902
242980.0,8296.0,242980.0,11118.0,242980.0,23865.0,660.2061608714587,303.9852525372535,459.21863139285404
242990.0,8249.0,242990.0,11028.0,242990.0,23840.0,651.446479062452,302.54425106516464,456.73594926903013
242990.0,8207.0,242990.0,11019.0,242990.0,23788.0,642.8676177542748,301.14454972948425,454.29517442989567
242990.0,8221.0,242990.0,10997.0,242990.0,23790.0,634.4773877259445,299.78889600360765,451.9008965368555
242990.0,8195.0,242990.0,11019.0,242990.0,23781.0,626.2815410010737,298.4783811493462,449.55707339250773
242990.0,8207.0,242990.0,11061.0,242990.0,23799.0,618.2836570556706,297.21227668562676,447.2667008690899
242990.0,8251.0,242990.0,11079.0,242990.0,23784.0,610.4853728250066,295.98857577047977,445.03188197979676
243000.0,8293.0,243000.0,11059.0,243000.0,23789.0,602.8871122133448,294.80483477000865,442.85401572340976
243000.0,8279.0,243000.0,11049.0,243000.0,23779.0,595.4892948029003,293.6586856935553,440.73391135505807
243000.0,8237.0,243000.0,11115.0,243000.0,23817.0,588.2933397151919,292.5479669491475,438.67190695990945
243000.0,8209.0,243000.0,11098.0,243000.0,23817.0,581.3018331976691,291.47106543839544,436.66821086115505
243000.0,8182.0,243000.0,11114.0,243000.0,23827.0,574.5180076154389,290.4275793348129,434.7234557267221
243000.0,8146.0,243000.0,11047.0,243000.0,23775.0,567.9450336492537,289.4187066177494,432.8391031155574
243010.0,8134.0,243010.0,10974.0,243010.0,23723.0,561.585350235743,288.4468311816365,431.01725524488785
243010.0,8100.0,243010.0,10960.0,243010.0,23740.0,555.4400645353143,287.5142700612404,429.25985572021534
243010.0,8111.0,243010.0,10948.0,243010.0,23735.0,549.5084785201881,286.6218232294234,427.5679206862383
243010.0,8094.0,243010.0,10975.0,243010.0,23748.0,543.7878251241663,285.7679171833387,425.9413386526964
243010.0,8144.0,243010.0,11029.0,243010.0,23741.0,538.2733232589792,284.94860741152524,424.37906492627496
243010.0,8177.0,243010.0,11033.0,243010.0,23749.0,532.9587136800643,284.1583062278863,422.879362571455
243020.0,8184.0,243020.0,11049.0,243020.0,23710.0,527.8372758458518,283.3907767071926,421.43992600943
243020.0,8157.0,243020.0,11053.0,243020.0,23725.0,522.9028382421087,282.63988898422525,420.0577881473122
243020.0,8143.0,243020.0,11085.0,243020.0,23769.0,518.1502157335267,281.90013101085543,418.72923169657577
243020.0,8128.0,243020.0,11107.0,243020.0,23800.0,513.5750862753627,281.1671754924158,417.45021272705685
243020.0,8103.0,243020.0,11070.0,243020.0,23727.0,509.17366332455276,280.438513290537,416.21716098110863
243020.0,8046.0,243020.0,11027.0,243020.0,23724.0,504.94224099409263,279.7136778513715,415.02726461190355
243031.0,8041.0,243031.0,10952.0,243031.0,23703.0,500.87647649023313,278.9936155213869,413.87797435098435
243031.0,8030.0,243031.0,10959.0,243031.0,23697.0,496.97060423734683,278.27939200349476,412.76637276453846
243031.0,8033.0,243031.0,10940.0,243031.0,23709.0,493.2169764636449,277.57095335773045,411.6888377154671
243031.0,8045.0,243031.0,10965.0,243031.0,23695.0,489.6060134113587,276.8664899549232,410.64097584579986
243031.0,8085.0,243031.0,11017.0,243031.0,23712.0,486.1265047300791,276.16249446130774,409.61771084579914
243031.0,8117.0,243031.0,10990.0,243031.0,23702.0,482.766327114674,275.4543682043588,408.6134274882254
243041.0,8111.0,243041.0,11000.0,243041.0,23702.0,479.5134571145628,274.7370943814335,407.622118972542
243041.0,8127.0,243041.0,11063.0,243041.0,23739.0,476.356864628882,274.0056665981382,406.6375600182146
243041.0,8083.0,243041.0,11057.0,243041.0,23768.0,473.2869899755491,273.2556715606921,405.6537285052497
243041.0,8052.0,243041.0,11035.0,243041.0,23739.0,470.2957016723168,272.4840645245182,404.66552037711836
243041.0,8049.0,243041.0,10993.0,243041.0,23692.0,467.37578583009986,271.68944147466243,403.6691812330347
243041.0,8003.0,243041.0,10972.0,243041.0,23657.0,464.5202891964396,270.87154707363385,402.6619225328735
243051.0,7989.0,243051.0,10941.0,243051.0,23649.0,461.72190024777996,270.03042114623094,401.64098562273773
243051.0,7991.0,243051.0,10914.0,243051.0,23648.0,458.9723503497935,269.165533823233,400.60282150778426
243051.0,7984.0,243051.0,10943.0,243051.0,23660.0,456.26202141030655,268.275075299475,399.54274264546495
243051.0,8031.0,243051.0,10990.0,243051.0,23657.0,453.57995457180544,267.35574628733013,398.4549780726869
243051.0,8066.0,243051.0,11015.0,243051.0,23696.0,450.9143553662186,266.403342663659,397.3329620255935
243051.0,8089.0,243051.0,10975.0,243051.0,23676.0,448.25359162855995,265.4137114527148,396.1697813559224
243062.0,8066.0,243062.0,10988.0,243062.0,23678.0,445.58727372073207,264.38328092557566,394.958605885898
243062.0,8035.0,243062.0,11051.0,243062.0,23712.0,442.90681233461646,263.3091912492534,393.6929562107631
243062.0,7997.0,243062.0,11021.0,243062.0,23723.0,440.20521742583094,262.1897158808258,392.3670601036013
243062.0,8017.0,243062.0,11022.0,243062.0,23682.0,437.4764643729899,261.0248989144474,390.9763665312702
243062.0,7961.0,243062.0,10933.0,243062.0,23633.0,434.71493352209825,259.81664548961663,389.51764879809383
243062.0,7938.0,243062.0,10900.0,243062.0,23655.0,431.91493343594374,258.5679232510191,387.98843590390095
243072.0,7929.0,243072.0,10911.0,243072.0,23625.0,429.07005304871706,257.28147752710044,386.3863510079907
243072.0,7942.0,243072.0,10882.0,243072.0,23647.0,426.172575643647,255.95883725309855,384.70882861131463
243072.0,7951.0,243072.0,10919.0,243072.0,23635.0,423.2133474663184,254.59993738097108,382.9531133991647
243072.0,8006.0,243072.0,10916.0,243072.0,23670.0,420.1821558627318,253.2031796458546,381.1164355936543
243072.0,8044.0,243072.0,10946.0,243072.0,23618.0,417.0686050872506,251.7658041958128,379.19629611865514
243072.0,8032.0,243072.0,10940.0,243072.0,23600.0,413.8633261740464,250.2844243991782,377.19051965502126
243082.0,7985.0,243082.0,10959.0,243082.0,23648.0,410.5588715773188,248.7555326573053,375.0969744795668
243082.0,7968.0,243082.0,11016.0,243082.0,23686.0,407.1497383478006,247.17603601050052,372.9136128174639
243082.0,7961.0,243082.0,10981.0,243082.0,23650.0,403.6317932832547,245.54399365569344,370.63918389931007
243082.0,7920.0,243082.0,10973.0,243082.0,23635.0,400.00169318250045,243.85925695483758,368.2738750533765
243082.0,7906.0,243082.0,10888.0,243082.0,23589.0,396.25638129126656,242.1234149929193,365.81921708687764
243082.0,7872.0,243082.0,10871.0,243082.0,23568.0,392.39249410953767,240.33891617309948,363.27742798876545
243093.0,7871.0,243093.0,10852.0,243093.0,23574.0,388.405749495496,238.5078353097479,360.6506603652284
243093.0,7888.0,243093.0,10877.0,243093.0,23573.0,384.29054890763877,236.63097219431373,357.94055121626377
243093.0,7949.0,243093.0,10918.0,243093.0,23578.0,380.04011164846975,234.70771060532425,355.1481974352842
243093.0,7982.0,243093.0,10897.0,243093.0,23577.0,375.647357821955,232.7365385762454,352.27435460708523
243093.0,7947.0,243093.0,10882.0,243093.0,23524.0,371.1061779639709,230.71562686795116,349.3195555084206
243093.0,7963.0,243093.0,10890.0,243093.0,23558.0,366.4123124491457,228.64296987682624,346.2839479364716
243103.0,7936.0,243103.0,10945.0,243103.0,23619.0,361.56359801010734,226.5164128267666,343.1672262340523
243103.0,7909.0,243103.0,10942.0,243103.0,23579.0,356.5598830316186,224.33414611116703,339.9692029060914
243103.0,7864.0,243103.0,10951.0,243103.0,23564.0,351.4026643040538,222.09552518618176,336.69054273228807
243103.0,7834.0,243103.0,10890.0,243103.0,23542.0,346.0943683430349,219.80157049794522,333.33285595833337
243103.0,7803.0,243103.0,10788.0,243103.0,23507.0,340.63745127355327,217.45459093683257,329.8982517259386
243103.0,7803.0,243103.0,10841.0,243103.0,23502.0,335.03359445867113,215.05692067201088,326.3887625068838
243113.0,7788.0,243113.0,10817.0,243113.0,23507.0,329.2831981732601,212.60971640379992,322.80587018248207
243113.0,7796.0,243113.0,10863.0,243113.0,23512.0,323.3852036287748,210.11268314514098,319.15036036331054
243113.0,7881.0,243113.0,10843.0,243113.0,23512.0,317.3373283311364,207.56447148749814,315.42250692549027
243113.0,7871.0,243113.0,10847.0,243113.0,23490.0,311.13695764323774,204.96313114718626,311.62231555699015
243113.0,7861.0,243113.0,10878.0,243113.0,23471.0,304.78236274450825,202.30642452786557,307.74955714683097
243113.0,7844.0,243113.0,10850.0,243113.0,23509.0,298.27342544923215,199.59213999149844,303.8036355360242
243124.0,7826.0,243124.0,10928.0,243124.0,23538.0,291.6116958859747,196.81853239705706,299.7837490186531
243124.0,7795.0,243124.0,10907.0,243124.0,23550.0,284.80014325673494,193.98497394189727,295.6896188077793
243124.0,7783.0,243124.0,10893.0,243124.0,23497.0,277.8427756884165,191.09268380971253,291.5223089082329
243124.0,7716.0,243124.0,10808.0,243124.0,23433.0,270.74412705944366,188.1449092841142,287.2843360035706
243124.0,7717.0,243124.0,10750.0,243124.0,23443.0,263.508564131395,185.14608676117092,282.9788973042819
243124.0,7710.0,243124.0,10756.0,243124.0,23427.0,256.1395919324384,182.1003468344856,278.60895291429165
243134.0,7676.0,243134.0,10769.0,243134.0,23425.0,248.6394628381191,179.01032054361664,274.1768061628153
243134.0,7733.0,243134.0,10782.0,243134.0,23455.0,241.00909733360007,175.87685580467098,269.6841251468359
243134.0,7748.0,243134.0,10821.0,243134.0,23399.0,233.2484054251344,172.69944561806977,265.13216053910725
243134.0,7794.0,243134.0,10806.0,243134.0,23395.0,225.35720496140266,169.47694506366025,260.5218236675736
243134.0,7769.0,243134.0,10783.0,243134.0,23413.0,217.33642317520543,166.20816627475244,255.8534750681642
243134.0,7746.0,243134.0,10859.0,243134.0,23449.0,209.18895205663165,162.89216523632024,251.12692940886404
243144.0,7695.0,243144.0,10845.0,243144.0,23435.0,200.91977098292648,159.5286676781217,246.3420208006717
243144.0,7681.0,243144.0,10864.0,243144.0,23439.0,192.53543364356636,156.1188627634421,241.49930351269273
243144.0,7635.0,243144.0,10759.0,243144.0,23376.0,184.0433258683865,152.66590686434517,236.60034775440374
243144.0,7585.0,243144.0,10705.0,243144.0,23358.0,175.4508864067384,149.1744007472907,231.6474362248668
243144.0,7577.0,243144.0,10725.0,243144.0,23347.0,166.76473781121916,145.64901006495836,226.64287184594025
243144.0,7565.0,243144.0,10681.0,243144.0,23366.0,157.98991944735707,142.09323885398638,221.58844503830164
243155.0,7592.0,243155.0,10708.0,243155.0,23367.0,149.12958264274846,138.50889016361936,216.48542271510456
243155.0,7620.0,243155.0,10772.0,243155.0,23363.0,140.18528947297926,134.89610240525545,211.33489501338573
243155.0,7675.0,243155.0,10754.0,243155.0,23340.0,131.15790293156653,131.25401397869666,206.13808306858155
243155.0,7651.0,243155.0,10737.0,243155.0,23324.0,122.0488579501096,127.5816615361161,200.89636292163303
243155.0,7627.0,243155.0,10742.0,243155.0,23373.0,112.86121015284363,123.87837931497279,195.6111714602442
243155.0,7566.0,243155.0,10838.0,243155.0,23344.0,103.59987338081845,120.1439849051836,190.2842031371742
243165.0,7564.0,243165.0,10807.0,243165.0,23354.0,94.27109444807962,116.37955487771242,184.91786301070863
243165.0,7517.0,243165.0,10707.0,243165.0,23290.0,84.88170732802303,112.5883187435291,179.51548023558072
243165.0,7492.0,243165.0,10638.0,243165.0,23295.0,75.43848632115453,108.77529709741253,174.08103705273717
243165.0,7453.0,243165.0,10652.0,243165.0,23247.0,65.94750692304274,104.94567777519327,168.61860947150703
243165.0,7458.0,243165.0,10628.0,243165.0,23249.0,56.41350608496117,101.10334850258906,163.1317987931724
243165.0,7436.0,243165.0,10665.0,243165.0,23263.0,46.839462260745734,97.25036501553944,157.6233582448822
243176.0,7469.0,243176.0,10690.0,243176.0,23220.0,37.22653472510592,93.38716228135968,152.0951198437669
243176.0,7510.0,243176.0,10683.0,243176.0,23239.0,27.574465273062458,89.51320519359047,146.54802914912645
243176.0,7533.0,243176.0,10696.0,243176.0,23228.0,17.882547485296527,85.62769218701348,140.98212796809412
243176.0,7502.0,243176.0,10699.0,243176.0,23236.0,8.150829637310608,81.73003857710637,135.39664890201794
243176.0,7485.0,243176.0,10705.0,243176.0,23282.0,-1.6191327596631027,77.82024487310102,129.79036338776842
243176.0,7425.0,243176.0,10686.0,243176.0,23281.0,-11.424282406397992,73.89921483442114,124.1622561041178
243186.0,7412.0,243186.0,10701.0,243186.0,23266.0,-21.260621335736516,69.96893624447364,118.5123456602332
243186.0,7386.0,243186.0,10621.0,243186.0,23210.0,-31.123935200196,66.0324454435106,112.84208494660518
243186.0,7345.0,243186.0,10579.0,243186.0,23182.0,-41.010401577531354,62.093316521115895,107.15401329916921
243186.0,7323.0,243186.0,10574.0,243186.0,23151.0,-50.91714515941641,58.154604246972895,101.45092351425717
243186.0,7309.0,243186.0,10597.0,243186.0,23144.0,-60.84281481877821,54.21790441434763,95.73503337951766
243186.0,7343.0,243186.0,10593.0,243186.0,23165.0,-70.78791551446653,50.28315076412488,90.00751578965853
243196.0,7361.0,243196.0,10643.0,243196.0,23175.0,-80.75456318800525,46.349018922317526,84.26855737138663
243196.0,7429.0,243196.0,10627.0,243196.0,23149.0,-90.7455816956599,42.413607481388,78.5177836802298
243196.0,7384.0,243196.0,10618.0,243196.0,23123.0,-100.76321290189651,38.475092700033,72.75453490941666
243196.0,7366.0,243196.0,10597.0,243196.0,23170.0,-110.80811173688244,34.531996651579334,66.97782010152301
243196.0,7328.0,243196.0,10670.0,243196.0,23183.0,-120.87916244684851,30.58320850949869,61.186480092857835
243196.0,7308.0,243196.0,10677.0,243196.0,23168.0,-130.9739055575929,26.62841064841487,55.37983241760338
243207.0,7284.0,243207.0,10625.0,243207.0,23164.0,-141.08907977680929,22.668909587934934,49.5582902470112
243207.0,7254.0,243207.0,10553.0,243207.0,23122.0,-151.22109677645727,18.70788420727385,43.72352634817787
243207.0,7210.0,243207.0,10525.0,243207.0,23075.0,-161.36653597607284,14.749500735344924,37.878157759643216
243207.0,7186.0,243207.0,10470.0,243207.0,23082.0,-171.52278086107725,10.797475228898804,32.02507053085259
243207.0,7190.0,243207.0,10550.0,243207.0,23054.0,-181.68866337581875,6.85394349926878,26.16676490552703
243207.0,7227.0,243207.0,10596.0,243207.0,23088.0,-191.86469756271902,2.9193426327996406,20.305081082984145
243217.0,7268.0,243217.0,10539.0,243217.0,23049.0,-202.05256452680504,-1.0066817980881808,14.441281193955433
243217.0,7273.0,243217.0,10526.0,243217.0,23012.0,-212.25397014316457,-4.92448827978609,8.57612316118292
243217.0,7252.0,243217.0,10549.0,243217.0,23037.0,-222.46947449121592,-8.834475910022917,2.7096208209954966
243217.0,7225.0,243217.0,10599.0,243217.0,23090.0,-232.6978818808251,-12.737143561055149,-3.159078668211748
243217.0,7194.0,243217.0,10579.0,243217.0,23081.0,-242.93628657968702,-16.6324876295495,-9.031095044237475
243217.0,7178.0,243217.0,10556.0,243217.0,23060.0,-253.18047679918584,-20.519264531358118,-14.906895487444558
243227.0,7113.0,243227.0,10519.0,243227.0,23014.0,-263.42546632772417,-24.39486470142586,-20.7859236449965
243227.0,7073.0,243227.0,10461.0,243227.0,22991.0,-273.6662348910254,-28.25589123316354,-26.666975449081463
243227.0,7074.0,243227.0,10446.0,243227.0,22981.0,-283.8986652502334,-32.099157891954576,-32.54888867099851
243227.0,7059.0,243227.0,10427.0,243227.0,22975.0,-294.12024411628875,-35.92272209470235,-38.43106662354387
243227.0,7082.0,243227.0,10480.0,243227.0,22988.0,-304.33021535579246,-39.726481420638635,-44.3136377203013
243227.0,7096.0,243227.0,10509.0,243227.0,22948.0,-314.52925640041383,-43.511979560268855,-50.1973682857905
243238.0,7142.0,243238.0,10490.0,243238.0,22987.0,-324.7187487227337,-47.28157551205527,-56.083555270796296
243238.0,7138.0,243238.0,10487.0,243238.0,22946.0,-334.8997253437293,-51.0376863117977,-61.973923136650285
243238.0,7100.0,243238.0,10480.0,243238.0,22963.0,-345.0719000884018,-54.782540352216444,-67.87048237270159
243238.0,7057.0,243238.0,10530.0,243238.0,22996.0,-355.23334925960376,-58.51809111946562,-73.77532531138633
243238.0,7037.0,243238.0,10510.0,243238.0,22993.0,-365.38094086202864,-62.24562784939968,-79.69014871624148
243238.0,7022.0,243238.0,10492.0,243238.0,22960.0,-375.5110055093338,-65.9652570868252,-85.61562653116903
243248.0,6974.0,243248.0,10446.0,243248.0,22954.0,-385.61986460474543,-69.67582175297395,-91.55116093504586
243248.0,6937.0,243248.0,10397.0,243248.0,22885.0,-395.7043676865891,-73.37548032806612,-97.49516548768588
243248.0,6931.0,243248.0,10364.0,243248.0,22857.0,-405.76259285401545,-77.06274380840168,-103.44576300945226
243248.0,6916.0,243248.0,10348.0,243248.0,22885.0,-415.79443919072037,-80.737608239586,-109.40164527407961
243248.0,6935.0,243248.0,10432.0,243248.0,22885.0,-425.80182590050754,-84.40223443379452,-115.36249352396305
243248.0,6994.0,243248.0,10447.0,243248.0,22879.0,-435.78837268847406,-88.06062846200896,-121.32875342805178
243258.0,7035.0,243258.0,10411.0,243258.0,22856.0,-445.7583913430825,-91.71760010538515,-127.30129673268078
243258.0,7005.0,243258.0,10421.0,243258.0,22846.0,-455.7154251948301,-95.37803529065133,-133.2813804103713
243258.0,6951.0,243258.0,10483.0,243258.0,22881.0,-465.66123891049745,-99.04666652419778,-139.27072114816758
243258.0,6927.0,243258.0,10434.0,243258.0,22904.0,-475.59586968625115,-102.72764097067108,-145.27122170771122
243258.0,6912.0,243258.0,10472.0,243258.0,22887.0,-485.5183208782785,-106.4239103158614,-151.28425804167784
243258.0,6868.0,243258.0,10439.0,243258.0,22841.0,-495.4272160737181,-110.13689357696867,-157.31010387413903
243269.0,6847.0,243269.0,10402.0,243269.0,22788.0,-505.32133874973147,-113.8664593169039,-163.34809577555416
243269.0,6835.0,243269.0,10338.0,243269.0,22811.0,-515.2001870767217,-117.61137697263132,-169.39740111124223
243269.0,6815.0,243269.0,10269.0,243269.0,22740.0,-525.0644103348411,-121.37044371382703,-175.45776152671135
243269.0,6813.0,243269.0,10339.0,243269.0,22791.0,-534.9160379131255,-125.14387401959806,-181.52994283438852
243269.0,6847.0,243269.0,10400.0,243269.0,22771.0,-544.7584684903651,-128.93386931006404,-187.61588118667356
243269.0,6911.0,243269.0,10370.0,243269.0,22783.0,-554.5959360167772,-132.74385157382272,-193.71846479921027
243279.0,6912.0,243279.0,10343.0,243279.0,22759.0,-564.4322945492494,-136.57742135460023,-199.84119401190657
243279.0,6862.0,243279.0,10350.0,243279.0,22810.0,-574.2697248893188,-140.43811863854683,-205.98791994853377
243279.0,6829.0,243279.0,10429.0,243279.0,22836.0,-584.1082695421105,-144.32948060525064,-212.16234799393925
243279.0,6827.0,243279.0,10420.0,243279.0,22790.0,-593.9462364101404,-148.2544409404469,-218.36720478934973
243279.0,6770.0,243279.0,10357.0,243279.0,22779.0,-603.7807973238222,-152.21439439977848,-224.6036858708922
243279.0,6730.0,243279.0,10273.0,243279.0,22739.0,-613.6085871811359,-156.2091569568509,-230.8716027807647
243289.0,6715.0,243289.0,10296.0,243289.0,22714.0,-623.4264980567414,-160.238100763697,-237.1699422463513
243289.0,6692.0,243289.0,10299.0,243289.0,22682.0,-633.2324639854222,-164.3013326626198,-243.4975318471695
243289.0,6682.0,243289.0,10296.0,243289.0,22707.0,-643.0259552158712,-168.40002582274133,-249.85362803695915
243289.0,6718.0,243289.0,10329.0,243289.0,22706.0,-652.8081354512711,-172.53614531460744,-256.23811692480245
243289.0,6779.0,243289.0,10321.0,243289.0,22710.0,-662.5814534155832,-176.71198245005218,-262.65124891384073
243289.0,6766.0,243289.0,10323.0,243289.0,22684.0,-672.3485351527573,-180.92965163413783,-269.09326135580096
243300.0,6746.0,243300.0,10305.0,243300.0,22661.0,-682.1109881585757,-185.19076417719253,-275.5642717012927
243300.0,6740.0,243300.0,10342.0,243300.0,22719.0,-691.8688377204924,-189.49628912375363,-282.06435817022066
243300.0,6704.0,243300.0,10398.0,243300.0,22651.0,-701.6205448325738,-193.84617404858193,-288.59343534084746
243300.0,6673.0,243300.0,10345.0,243300.0,22669.0,-711.3632940366897,-198.23850521231515,-295.1510278679268
243300.0,6611.0,243300.0,10205.0,243300.0,22659.0,-721.0935694510221,-202.66908942815178,-301.7362722019638
243300.0,6595.0,243300.0,10240.0,243300.0,22636.0,-730.8080433546613,-207.1324432532656,-308.3479824071335
243310.0,6573.0,243310.0,10218.0,243310.0,22611.0,-740.5045022065873,-211.62338014485033,-314.98472344301956
243310.0,6572.0,243310.0,10202.0,243310.0,22585.0,-750.1824621172665,-216.1378459239466,-321.64511253306017
243310.0,6573.0,243310.0,10196.0,243310.0,22618.0,-759.8433746755148,-220.67313626734193,-328.32819486187634
243310.0,6631.0,243310.0,10273.0,243310.0,22627.0,-769.4904029082936,-225.22789907363,-335.03344437996736
243310.0,6658.0,243310.0,10247.0,243310.0,22589.0,-779.127617578343,-229.801618236909,-341.76034927459824
243310.0,6648.0,243310.0,10176.0,243310.0,22525.0,-788.7587695576963,-234.3939208874619,-348.50824590726614
243320.0,6632.0,243320.0,10221.0,243320.0,22595.0,-798.3862857524394,-239.0045722500684,-355.27673717365593
243320.0,6579.0,243320.0,10343.0,243320.0,22640.0,-808.0109741645283,-243.63358744911966,-362.06582106291773
243320.0,6580.0,243320.0,10267.0,243320.0,22612.0,-817.6323550471853,-248.28028449605523,-368.8750474408728
243320.0,6546.0,243320.0,10255.0,243320.0,22557.0,-827.2491992179031,-252.9420272455725,-375.70259147856956
243320.0,6496.0,243320.0,10167.0,243320.0,22514.0,-836.860038788385,-257.61414983363375,-382.5453385810445
243320.0,6472.0,243320.0,10123.0,243320.0,22521.0,-846.4638183123782,-262.29107685120044,-389.3997400551691
243331.0,6485.0,243331.0,10080.0,243331.0,22508.0,-856.0606297267116,-266.9678906176126,-396.2625248915722
243331.0,6433.0,243331.0,10131.0,243331.0,22477.0,-865.6521648194919,-271.64165157992704,-403.1309601628042
243331.0,6496.0,243331.0,10165.0,243331.0,22478.0,-875.241834624482,-276.31177784705113,-410.00300619462786
243331.0,6542.0,243331.0,10181.0,243331.0,22475.0,-884.8344302172457,-280.9793605031332,-416.8775001624803
243331.0,6558.0,243331.0,10128.0,243331.0,22454.0,-894.4350374440642,-285.64620802303835,-423.75420628174044
243331.0,6538.0,243331.0,10146.0,243331.0,22438.0,-904.0476749470138,-290.3144717504245,-430.6338277443926
243341.0,6520.0,243341.0,10210.0,243341.0,22505.0,-913.6744891101067,-294.98662168492774,-437.5179966008739
243341.0,6461.0,243341.0,10193.0,243341.0,22525.0,-923.3157304421518,-299.6649468394798,-444.40878016180636
243341.0,6448.0,243341.0,10190.0,243341.0,22489.0,-932.970296816357,-304.35068937704204,-451.30766947343693
243341.0,6412.0,243341.0,10135.0,243341.0,22439.0,-942.6365055929151,-309.04363813875926,-458.2149382237395
243341.0,6367.0,243341.0,10077.0,243341.0,22418.0,-952.3128396627168,-313.7425417502737,-465.1299487981409
243341.0,6353.0,243341.0,10076.0,243341.0,22405.0,-961.9986937642753,-318.44611262902674,-472.0519258551387
243351.0,6345.0,243351.0,10065.0,243351.0,22389.0,-971.6950604012716,-323.15401885433346,-478.98054579894864
243351.0,6356.0,243351.0,10040.0,243351.0,22403.0,-981.4048720521957,-327.8674227596984,-485.9161863411534
243351.0,6389.0,243351.0,10112.0,243351.0,22391.0,-991.1328397632091,-332.58910267716743,-492.859898894147
243351.0,6449.0,243351.0,10106.0,243351.0,22369.0,-1000.8847172036203,-337.3230829181279,-499.81325556379517
243351.0,6455.0,243351.0,10108.0,243351.0,22352.0,-1010.6660224238726,-342.0738346425258,-506.7783459349281
243351.0,6404.0,243351.0,10109.0,243351.0,22389.0,-1020.4807675989674,-346.8456040185143,-513.7578952683484
243362.0,6371.0,243362.0,10142.0,243362.0,22417.0,-1030.3310060817116,-351.6420213412142,-520.7550365657712
243362.0,6339.0,243362.0,10158.0,243362.0,22399.0,-1040.217305924339,-356.46559028709675,-527.7725724996666
243362.0,6346.0,243362.0,10096.0,243362.0,22358.0,-1050.1394880444286,-361.3170754091198,-534.8123180410375
243362.0,6283.0,243362.0,10020.0,243362.0,22360.0,-1060.0971473644272,-366.195498122242,-541.8750640354256
243362.0,6263.0,243362.0,10008.0,243362.0,22294.0,-1070.0901350090248,-371.09913577779747,-548.9609997737563
243362.0,6233.0,243362.0,9995.0,243362.0,22288.0,-1080.119244410997,-376.02683983143396,-556.0703213271468
243372.0,6247.0,243372.0,10020.0,243372.0,22287.0,-1090.1868544283138,-380.97877866315696,-563.2038677819697
243372.0,6267.0,243372.0,10063.0,243372.0,22306.0,-1100.2971186254485,-385.95635818371983,-570.3634109747197
243372.0,6292.0,243372.0,10068.0,243372.0,22291.0,-1110.4555549329336,-390.9614902152159,-577.5514428708559
243372.0,6333.0,243372.0,10000.0,243372.0,22292.0,-1120.668152932802,-395.9957914395615,-584.7708005170808
243372.0,6318.0,243372.0,10021.0,243372.0,22285.0,-1130.9402657352048,-401.06043128155017,-592.0244178830951
243372.0,6295.0,243372.0,10084.0,243372.0,22315.0,-1141.2757233907073,-406.15633119293346,-599.3151073683973
243383.0,6246.0,243383.0,10087.0,243383.0,22290.0,-1151.6766027760286,-411.2837317775493,-606.645188750495
243383.0,6232.0,243383.0,10060.0,243383.0,22310.0,-1162.1436538334435,-416.4412228494677,-614.0160545333805
243383.0,6201.0,243383.0,9974.0,243383.0,22248.0,-1172.6769692546186,-421.6253433985619,-621.4279205449078
243383.0,6150.0,243383.0,9963.0,243383.0,22206.0,-1183.2766324690335,-426.83127160817475,-628.8800228005498
243383.0,6141.0,243383.0,9920.0,243383.0,22204.0,-1193.943416777112,-432.05405255547856,-636.3713132408269
243383.0,6154.0,243383.0,9901.0,243383.0,22188.0,-1204.6794081209896,-437.2896635301876,-643.9011889049508
243393.0,6142.0,243393.0,9902.0,243393.0,22197.0,-1215.4881851677146,-442.5357451007237,-651.4698012542046
243393.0,6190.0,243393.0,9966.0,243393.0,22230.0,-1226.3745121130646,-447.7918584113996,-659.0779193523776
243393.0,6229.0,243393.0,9948.0,243393.0,22200.0,-1237.343602782569,-453.0590259391148,-666.7264541576354
243393.0,6221.0,243393.0,9913.0,243393.0,22151.0,-1248.399980171821,-458.3389948754523,-674.4160648397669
243393.0,6179.0,243393.0,9949.0,243393.0,22167.0,-1259.546457438557,-463.63393950457976,-682.1473064811286
243393.0,6150.0,243393.0,10005.0,243393.0,22214.0,-1270.7838878014763,-468.9462908754645,-689.920879994645
243403.0,6119.0,243403.0,10001.0,243403.0,22188.0,-1282.1116225475016,-474.27796719183607,-697.7372698703881
243403.0,6134.0,243403.0,9972.0,243403.0,22185.0,-1293.5281023804682,-479.62935697854374,-705.5960611477653
243403.0,6066.0,243403.0,9882.0,243403.0,22158.0,-1305.0312299979967,-484.9990506412194,-713.4956216448354
243403.0,6046.0,243403.0,9857.0,243403.0,22113.0,-1316.6187465480302,-490.3846826543766,-721.4332627913387
243403.0,6035.0,243403.0,9881.0,243403.0,22108.0,-1328.2888386811817,-495.7842125409261,-729.4057172199545
243403.0,6020.0,243403.0,9848.0,243403.0,22089.0,-1340.040674729937,-501.1966793929546,-737.4096863039067
243414.0,6056.0,243414.0,9927.0,243414.0,22105.0,-1351.874538176859,-506.62219321471684,-745.4421379932163
243414.0,6079.0,243414.0,9910.0,243414.0,22098.0,-1363.7914511796544,-512.0613776320688,-753.5002498195277
243414.0,6116.0,243414.0,9883.0,243414.0,22078.0,-1375.7922679123062,-517.5146120511446,-761.5811712074969
243414.0,6083.0,243414.0,9876.0,243414.0,22057.0,-1387.8765473297053,-522.9816884644811,-769.6819168387375
243414.0,6075.0,243414.0,9924.0,243414.0,22112.0,-1400.0417719824677,-528.4618667085588,-777.7993871152538
243414.0,6031.0,243414.0,9958.0,243414.0,22114.0,-1412.283198250158,-533.9535450057506,-785.9300442962309
243424.0,6025.0,243424.0,9955.0,243424.0,22099.0,-1424.5941539188757,-539.4533090468922,-794.0691634658659
243424.0,5984.0,243424.0,9865.0,243424.0,22055.0,-1436.9664736243694,-544.9551408314906,-802.2103100917194
243424.0,5941.0,243424.0,9791.0,243424.0,22013.0,-1449.3909995152549,-550.4507506719592,-810.3455300239629
243424.0,5917.0,243424.0,9776.0,243424.0,22008.0,-1461.8582485766187,-555.9310446937116,-818.466045723337
243424.0,5906.0,243424.0,9756.0,243424.0,21982.0,-1474.3591295237186,-561.3877101532112,-826.5629408960657
243424.0,5919.0,243424.0,9780.0,243424.0,21976.0,-1486.8853614829322,-566.8140830534576,-834.6275687039602
243434.0,5945.0,243434.0,9845.0,243434.0,22009.0,-1499.4293640440178,-572.2051283210316,-842.6516716895323
243434.0,6008.0,243434.0,9838.0,243434.0,21974.0,-1511.9835319328827,-577.556621803849,-850.6271772676097
243434.0,6007.0,243434.0,9802.0,243434.0,21960.0,-1524.538961342734,-582.8641312584119,-858.5459098747028
243434.0,5965.0,243434.0,9818.0,243434.0,21988.0,-1537.084174588796,-588.1225816767726,-866.3995195503218
243434.0,5927.0,243434.0,9868.0,243434.0,22014.0,-1549.6046204959052,-593.326184520031,-874.1792933048639
243434.0,5885.0,243434.0,9878.0,243434.0,22002.0,-1562.0830925562211,-598.4679235662892,-881.8755196837477
243445.0,5881.0,243445.0,9838.0,243445.0,21976.0,-1574.5005168960079,-603.5386926826927,-889.476833821396
243445.0,5845.0,243445.0,9751.0,243445.0,21935.0,-1586.836598597035,-608.5270409506775,-896.97010185203
243445.0,5801.0,243445.0,9714.0,243445.0,21913.0,-1599.0703087644388,-613.4200617245918,-904.3408733786391
243445.0,5809.0,243445.0,9724.0,243445.0,21904.0,-1611.1804234533788,-618.2048411297003,-911.5740300564469
243445.0,5792.0,243445.0,9715.0,243445.0,21888.0,-1623.145975489022,-622.8694423999973,-918.6542664811645
243445.0,5823.0,243445.0,9745.0,243445.0,21889.0,-1634.9463142783566,-627.4030884993538,-925.5663168442697
243455.0,5841.0,243455.0,9752.0,243455.0,21919.0,-1646.5607075072494,-631.795828751503,-932.2949318940906
243455.0,5882.0,243455.0,9754.0,243455.0,21867.0,-1657.9675218221623,-636.0379913647284,-938.8246168153901
243455.0,5878.0,243455.0,9737.0,243455.0,21862.0,-1669.143134956394,-640.1197216901139,-945.1394684833683
243455.0,5841.0,243455.0,9779.0,243455.0,21902.0,-1680.0610151125838,-644.0307279558572,-951.2232744921878
243455.0,5811.0,243455.0,9838.0,243455.0,21937.0,-1690.6914479963584,-647.75983815467,-957.0592997388173
243455.0,5798.0,243455.0,9784.0,243455.0,21903.0,-1701.0019002196987,-651.2941012953851,-962.6295000322953
243465.0,5740.0,243465.0,9745.0,243465.0,21880.0,-1710.9576193342446,-654.6181335960753,-967.913881697019
243465.0,5724.0,243465.0,9694.0,243465.0,21810.0,-1720.5223278524581,-657.7144891738301,-972.8906634435989
243465.0,5681.0,243465.0,9635.0,243465.0,21819.0,-1729.6590386758567,-660.5648493051931,-977.537103539575
243465.0,5687.0,243465.0,9618.0,243465.0,21775.0,-1738.330823097693,-663.151452023123,-981.8304263339555
243465.0,5682.0,243465.0,9642.0,243465.0,21809.0,-1746.501297812557,-665.4582708601353,-985.7484299495186
243465.0,5731.0,243465.0,9719.0,243465.0,21804.0,-1754.1346459368442,-667.4713422531163,-989.269652423585
243476.0,5773.0,243476.0,9664.0,243476.0,21787.0,-1761.1950234605183,-669.1781186769656,-992.3732123635417
243476.0,5767.0,243476.0,9660.0,243476.0,21764.0,-1767.6454716946173,-670.5667363747657,-995.038721459432
243476.0,5734.0,243476.0,9702.0,243476.0,21796.0,-1773.4469622135857,-671.6258780662217,-997.2464516632859
243476.0,5709.0,243476.0,9764.0,243476.0,21821.0,-1778.558194754273,-672.3445753401727,-998.9773347375376
243476.0,5685.0,243476.0,9717.0,243476.0,21829.0,-1782.9360805290398,-672.711376368271,-1000.2124730412564
243476.0,5700.0,243476.0,9711.0,243476.0,21816.0,-1786.5363800447471,-672.71360581723,-1000.9324981129678
243486.0,5617.0,243486.0,9652.0,243486.0,21750.0,-1789.3142256324313,-672.3374802776639,-1001.1173746636232
243486.0,5619.0,243486.0,9628.0,243486.0,21738.0,-1791.2247931892111,-671.5689379580535,-1000.7469480928966
243486.0,5593.0,243486.0,9626.0,243486.0,21746.0,-1792.2242419451418,-670.3946852447531,-999.8018799955738
243486.0,5594.0,243486.0,9629.0,243486.0,21736.0,-1792.2705371597845,-668.8029890426355,-998.264292329671
243486.0,5638.0,243486.0,9639.0,243486.0,21767.0,-1791.323847523932,-666.7839846108504,-996.1179205138887
243486.0,5664.0,243486.0,9678.0,243486.0,21734.0,-1789.3463890998623,-664.3295721209341,-993.3480310158092
243496.0,5711.0,243496.0,9660.0,243496.0,21710.0,-1786.3017211354195,-661.4330378454795,-989.9414662001172
243496.0,5698.0,243496.0,9655.0,243496.0,21733.0,-1782.1538430592614,-658.0887058238734,-985.8870233292262
243496.0,5689.0,243496.0,9706.0,243496.0,21794.0,-1776.8666078679407,-654.2918286684817,-981.1757229197242
243496.0,5650.0,243496.0,9737.0,243496.0,21788.0,-1770.4037950812328,-650.0383250972316,-975.8004123166086
243496.0,5658.0,243496.0,9737.0,243496.0,21802.0,-1762.7297634821005,-645.324087102088,-969.7550326204971
243496.0,5650.0,243496.0,9692.0,243496.0,21760.0,-1753.8102476787876,-640.1444073428206,-963.0342696478491
243507.0,5597.0,243507.0,9598.0,243507.0,21753.0,-1743.6130790416673,-634.4943100803262,-955.6338319684062
243507.0,5592.0,243507.0,9603.0,243507.0,21754.0,-1732.10908911797,-628.3699315019339,-947.5511052463271
243507.0,5617.0,243507.0,9615.0,243507.0,21737.0,-1719.2731864277955,-621.7701218814923,-938.785788389079
243507.0,5638.0,243507.0,9668.0,243507.0,21789.0,-1705.0850550922346,-614.697209251536,-929.3402909927659
243507.0,5696.0,243507.0,9691.0,243507.0,21787.0,-1689.5291927710434,-607.1567202170174,-919.2197868524675
243507.0,5776.0,243507.0,9668.0,243507.0,21811.0,-1672.5943573675909,-599.1566973285148,-908.4319659542539
243517.0,5802.0,243517.0,9688.0,243517.0,21804.0,-1654.2725120495206,-590.7073353077428,-896.9867944097642
243517.0,5797.0,243517.0,9735.0,243517.0,21837.0,-1634.5577566731572,-581.8209480115102,-884.8964480296017
243517.0,5777.0,243517.0,9794.0,243517.0,21916.0,-1613.4459885826714,-572.5116182180277,-872.1751257745757
243517.0,5795.0,243517.0,9827.0,243517.0,21909.0,-1590.93542249183,-562.7942343802803,-858.8383986616564
243517.0,5827.0,243517.0,9835.0,243517.0,21938.0,-1567.027362455966,-552.6833510244112,-844.9023830625122
243517.0,5817.0,243517.0,9738.0,243517.0,21891.0,-1541.7267139766282,-542.192641335112,-830.3833875101558
243527.0,5812.0,243527.0,9726.0,243527.0,21894.0,-1515.0424243868529,-531.3355303616888,-815.2982591497456
243527.0,5848.0,243527.0,9724.0,243527.0,21917.0,-1486.9881650190139,-520.1266623368418,-799.6651095522571
243527.0,5872.0,243527.0,9750.0,243527.0,21928.0,-1457.5830018854613,-508.58311087195244,-783.5038567415664
243527.0,5963.0,243527.0,9819.0,243527.0,21950.0,-1426.851619315963,-496.7246900194598,-766.8363663008398
243527.0,6057.0,243527.0,9861.0,243527.0,21981.0,-1394.8238429617502,-484.57338992712386,-749.6863851838347
243527.0,6102.0,243527.0,9878.0,243527.0,21999.0,-1361.533481605276,-472.15232297730364,-732.0793687065595
243538.0,6155.0,243538.0,9846.0,243538.0,22022.0,-1327.0170372695159,-459.4849042002505,-714.0422444718945
243538.0,6182.0,243538.0,9942.0,243538.0,22084.0,-1291.3128795388907,-446.59461330146934,-695.6031346646871
243538.0,6201.0,243538.0,10008.0,243538.0,22136.0,-1254.4609800544217,-433.504641393028,-676.7908233581039
243538.0,6223.0,243538.0,9976.0,243538.0,22137.0,-1216.5030946346326,-420.2368793199097,-657.633933523571
243538.0,6274.0,243538.0,9957.0,243538.0,22106.0,-1177.4831913715811,-406.81110691884425,-638.1603895779585
243538.0,6263.0,243538.0,9878.0,243538.0,22120.0,-1137.4478865629721,-393.24537817407327,-618.3976805913584
243548.0,6325.0,243548.0,9916.0,243548.0,22140.0,-1096.4469093034234,-379.55735675328685,-598.3735792144241
243548.0,6362.0,243548.0,9928.0,243548.0,22152.0,-1054.5335709502772,-365.7655833927703,-578.116653669513
243548.0,6408.0,243548.0,9963.0,243548.0,22205.0,-1011.7650071369331,-351.88995005159836,-557.6563978565156
243548.0,6526.0,243548.0,10003.0,243548.0,22262.0,-968.2020691743024,-337.9514712914412,-537.0229867379212
243548.0,6632.0,243548.0,10045.0,243548.0,22233.0,-923.9086302590958,-323.9717084113814,-516.2467349733997
243548.0,6695.0,243548.0,10034.0,243548.0,22264.0,-878.9502053611574,-309.9720925563688,-495.35777185309536
243558.0,6748.0,243558.0,10050.0,243558.0,22295.0,-833.3925080610658,-295.97351240037244,-474.38616427593166
243558.0,6770.0,243558.0,10118.0,243558.0,22387.0,-787.3006464814816,-281.9961960704342,-453.36187968122294
243558.0,6806.0,243558.0,10117.0,243558.0,22386.0,-740.7390553515595,-268.05940904108957,-432.31413464775954
243558.0,6870.0,243558.0,10148.0,243558.0,22386.0,-693.7718200841034,-254.18090258846382,-411.2706341232492
