c_ts,c_val,d_ts,d_val,e_ts,e_val,c_val_filtered,d_val_filtered,e_val_filtered
104074,18847,104074.0,35774.0,104074.0,36901.0,-94.39411931430398,167.52519598282544,114.8891253195574
104074,18849,104074.0,35812.0,104074.0,36937.0,-94.61250624989472,176.85294397117877,128.2113689602646
104074,18849,104074.0,35832.0,104074.0,36937.0,-94.43275295963296,186.90652841158084,142.67059489432793
104074,18837,104074.0,35800.0,104074.0,36906.0,-93.81524010787977,197.7164551168439,158.31573731607799
104074,18813,104074.0,35758.0,104074.0,36870.0,-92.71957541708828,209.31307626968584,175.19464603629848
104074,18787,104074.0,35715.0,104074.0,36860.0,-91.10497579134616,221.72570493655374,193.35300655692186
104084,18788,104084.0,35707.0,104084.0,36863.0,-88.93087300066523,234.98118836234804,212.83307292388312
104084,18776,104084.0,35726.0,104084.0,36870.0,-86.15748924802833,249.10259480038937,233.6726854479863
104084,18783,104084.0,35722.0,104084.0,36881.0,-82.74620988276827,264.10844205572766,255.90464479652178
104084,18787,104084.0,35779.0,104084.0,36901.0,-78.6597707296992,280.0124447471758,279.55629958353927
104084,18790,104084.0,35786.0,104084.0,36916.0,-73.86231187174224,296.8236360104163,304.64925938587527
104084,18789,104084.0,35792.0,104084.0,36929.0,-68.31937801396894,314.54666285031436,331.19916754750824
104095,18794,104095.0,35847.0,104095.0,36961.0,-61.99795967834524,333.1819836695953,359.21547034338573
104095,18816,104095.0,35885.0,104095.0,37019.0,-54.86653789169296,352.72610543277995,388.70129937660596
104095,18813,104095.0,35908.0,104095.0,37048.0,-46.89502820007173,373.1721093628772,419.6536632060533
104095,18789,104095.0,35874.0,104095.0,37040.0,-38.054748474853504,394.51009898596465,452.0637477554824
104095,18778,104095.0,35856.0,104095.0,37062.0,-28.318710991029064,416.72696970109166,485.9168277666691
104095,18784,104095.0,35878.0,104095.0,37085.0,-17.662225533475564,439.8055123425959,521.1917450639689
104105,18782,104105.0,35877.0,104105.0,37109.0,-6.063472387336063,463.7234684040163,557.8603568344283
104105,18779,104105.0,35915.0,104105.0,37158.0,6.496097682519263,488.45295033194776,595.8871772265624
104105,18819,104105.0,35984.0,104105.0,37224.0,20.03147910150814,513.960290355699,635.2292921111525
104105,18826,104105.0,36034.0,104105.0,37283.0,34.554035301290526,540.2064442281218,675.8366675548947
104105,18826,104105.0,36065.0,104105.0,37335.0,50.071607938939636,567.1478234687156,717.6527562552451
104105,18859,104105.0,36111.0,104105.0,37403.0,66.58855009414131,594.7370797663257,760.6151424909971
104115,18878,104115.0,36182.0,104115.0,37476.0,84.10570140552574,622.923717470966,804.6561808655425
104115,18920,104115.0,36262.0,104115.0,37540.0,102.62054178111984,651.654895917871,849.7037441827624
104115,18923,104115.0,36267.0,104115.0,37596.0,122.12750341847848,680.8765203439472,895.6820239478171
104115,18906,104115.0,36242.0,104115.0,37620.0,142.61812753921146,710.5339896713541,942.5121328543048
104115,18933,104115.0,36266.0,104115.0,37671.0,164.08080091288858,740.5719978107511,990.112313381253
104115,18948,104115.0,36297.0,104115.0,37742.0,186.5002808920378,770.9337788069744,1038.3979068302806
104126,18971,104126.0,36327.0,104126.0,37781.0,209.85740194274615,801.5605949696143,1087.2814476951116
104126,19001,104126.0,36373.0,104126.0,37836.0,234.12900059796937,832.3916600631752,1136.6729063417731
104126,19049,104126.0,36435.0,104126.0,37925.0,259.2879926754739,863.3643598249147,1186.4799391459296
104126,19076,104126.0,36501.0,104126.0,37986.0,285.30365005648196,894.4148041545317,1236.6083169674962
104126,19102,104126.0,36516.0,104126.0,38055.0,312.14196861988677,925.4786259751556,1286.9626078000767
104126,19150,104126.0,36597.0,104126.0,38134.0,339.76595023721734,956.4917090764937,1337.4469021241823
104136,19192,104136.0,36679.0,104136.0,38220.0,368.1358788516481,987.3908976054244,1387.9655658303036
104136,19216,104136.0,36696.0,104136.0,38257.0,397.209703140271,1018.114980681823,1438.4240764227914
104136,19228,104136.0,36666.0,104136.0,38290.0,426.9433287188193,1048.6055028829774,1488.7296359619158
104136,19251,104136.0,36695.0,104136.0,38321.0,457.29059054565954,1078.8066720085656,1538.7912319086286
104136,19291,104136.0,36703.0,104136.0,38375.0,488.2030243301767,1108.66461493588,1588.5193026781783
104136,19326,104136.0,36716.0,104136.0,38434.0,519.6297460491866,1138.1266876326658,1637.8254520231142
104146,19354,104146.0,36759.0,104146.0,38501.0,551.5175301875615,1167.141025239785,1686.6224863274192
104146,19419,104146.0,36796.0,104146.0,38556.0,583.8109891900828,1195.6563460778202,1734.8247493421852
104146,19465,104146.0,36842.0,104146.0,38624.0,616.4529084633842,1223.6221023263925,1782.348587190385
104146,19507,104146.0,36895.0,104146.0,38667.0,649.3847893106616,1250.9889142755328,1829.112816890296
104146,19545,104146.0,36941.0,104146.0,38702.0,682.5473952271835,1277.7091865693824,1875.0390756294414
104146,19586,104146.0,37013.0,104146.0,38794.0,715.8811354765929,1303.737885770225,1920.0520230569691
104157,19641,104157.0,37016.0,104157.0,38856.0,749.3263748810502,1329.0333998224567,1964.0796986369937
104157,19664,104157.0,37031.0,104157.0,38858.0,782.8237830552748,1353.5581590916202,2007.054121492334
104157,19697,104157.0,37003.0,104157.0,38893.0,816.3146278740894,1377.2786499772983,2048.911584611643
104157,19719,104157.0,36996.0,104157.0,38913.0,849.7408572426697,1400.1647879125599,2089.592364321884
104157,19755,104157.0,37033.0,104157.0,38958.0,883.045011545866,1422.18901106365,2129.040249810235
104157,19802,104157.0,37020.0,104157.0,38983.0,916.1701568639105,1443.3255874778465,2167.202236642778
104167,19840,104167.0,37066.0,104167.0,39045.0,949.0599946193067,1463.550282288758,2204.0284225311407
104167,19878,104167.0,37093.0,104167.0,39093.0,981.6591292612469,1482.8402846314966,2239.472145515174
104167,19898,104167.0,37136.0,104167.0,39106.0,1013.9133156983086,1501.174443621606,2273.4903196293862
104167,19943,104167.0,37114.0,104167.0,39145.0,1045.7695708958381,1518.5336785429379,2306.04367409734
104167,19993,104167.0,37179.0,104167.0,39185.0,1077.1762728164554,1534.9012300107383,2337.09678816452
104167,20042,104167.0,37235.0,104167.0,39228.0,1108.0834690027964,1550.2629308082173,2366.6181919922783
104177,20074,104177.0,37227.0,104177.0,39248.0,1138.4433843282402,1564.6078692947713,2394.5806460608937
104177,20076,104177.0,37183.0,104177.0,39245.0,1168.210825970782,1577.928958120056,2420.96133498984
104177,20102,104177.0,37159.0,104177.0,39228.0,1197.3432078806418,1590.2226112473227,2445.741644765714
104177,20120,104177.0,37145.0,104177.0,39260.0,1225.8002690592557,1601.4876630835224,2468.9065180475413
104177,20145,104177.0,37145.0,104177.0,39280.0,1253.543776423844,1611.7242523102118,2490.4438313521837
104177,20180,104177.0,37149.0,104177.0,39266.0,1280.537363321187,1620.933071162478,2510.344094124044
104188,20217,104188.0,37179.0,104188.0,39289.0,1306.7465454065145,1629.1150246832237,2528.600223192828
104188,20226,104188.0,37215.0,104188.0,39343.0,1332.138882686389,1636.2713282657705,2545.2073220988755
104188,20264,104188.0,37198.0,104188.0,39331.0,1356.684118849537,1642.4039564326274,2560.162781214734
104188,20306,104188.0,37211.0,104188.0,39352.0,1380.3542867924825,1647.5160481795867,2573.466571324406
104188,20342,104188.0,37262.0,104188.0,39390.0,1403.1239917838288,1651.6121231057666,2585.1214170637077
104188,20359,104188.0,37291.0,104188.0,39412.0,1424.9708630505625,1654.6985412947479,2595.1330586590684
104198,20367,104198.0,37212.0,104198.0,39379.0,1445.8758811649204,1656.7841966720944,2603.510666628109
104198,20358,104198.0,37190.0,104198.0,39355.0,1465.8233573205407,1657.880585569423,2610.2668932025226
104198,20367,104198.0,37145.0,104198.0,39323.0,1484.800567138213,1658.0009102213419,2615.4172707831367
104198,20376,104198.0,37128.0,104198.0,39316.0,1502.7972439097543,1657.1588583487485,2618.979280816711
104198,20378,104198.0,37118.0,104198.0,39299.0,1519.80515228426,1655.367618983959,2620.971521628856
104198,20401,104198.0,37126.0,104198.0,39323.0,1535.8177913052075,1652.639291956345,2621.4131871458403
104208,20430,104208.0,37163.0,104208.0,39330.0,1550.8302634968434,1648.9847978745593,2620.3239591174092
104208,20442,104208.0,37166.0,104208.0,39330.0,1564.8393891370274,1644.4143165437135,2617.72426567195
104208,20448,104208.0,37154.0,104208.0,39294.0,1577.8439323089283,1638.9379620406753,2613.635565576926
104208,20457,104208.0,37186.0,104208.0,39317.0,1589.8447020575793,1632.5663136475143,2608.0803701688574
104208,20495,104208.0,37203.0,104208.0,39335.0,1600.8445711874444,1625.3109034888807,2601.0822531930926
104208,20484,104208.0,37165.0,104208.0,39300.0,1610.848617068205,1617.184844676821,2592.6661716127355
104219,20467,104219.0,37131.0,104219.0,39253.0,1619.8642507890095,1608.2031948351105,2582.8587242527055
104219,20467,104219.0,37065.0,104219.0,39237.0,1627.901010701676,1598.3826154258734,2571.687857726307
104219,20470,104219.0,37060.0,104219.0,39195.0,1634.9701213010733,1587.7404963837275,2559.182231272117
104219,20474,104219.0,37021.0,104219.0,39182.0,1641.0841692648037,1576.294065620365,2545.3706463663984
104219,20455,104219.0,37002.0,104219.0,39136.0,1646.2569347438582,1564.0597803316664,2530.2815988752022
104219,20473,104219.0,37001.0,104219.0,39166.0,1650.5032135786853,1551.052959081339,2513.9429649580907
104229,20483,104229.0,37005.0,104229.0,39136.0,1653.8386886841183,1537.2876865097078,2496.3820039580532
104229,20479,104229.0,37008.0,104229.0,39128.0,1656.2800039266951,1522.7770933780457,2477.625675346169
104229,20470,104229.0,36984.0,104229.0,39108.0,1657.8449003490161,1507.5338455401939,2457.700969319962
104229,20483,104229.0,37019.0,104229.0,39107.0,1658.5522259945235,1491.5706228442489,2436.6351530341844
104229,20484,104229.0,37032.0,104229.0,39102.0,1658.4219381555727,1474.9007292016602,2414.4561116901396
104229,20461,104229.0,36963.0,104229.0,39041.0,1657.4751864762532,1457.5388779203886,2391.1927593052706
104239,20446,104239.0,36901.0,104239.0,38982.0,1655.7342678196574,1439.5015062929779,2366.8751175544285
104239,20417,104239.0,36840.0,104239.0,38943.0,1653.2223004364814,1420.8061170752671,2341.5338128240464
104239,20420,104239.0,36825.0,104239.0,38908.0,1649.9627543286679,1401.4701198761745,2315.199340610032
104239,20387,104239.0,36782.0,104239.0,38864.0,1645.9790394359266,1381.5099125815095,2287.901523275002
104239,20385,104239.0,36781.0,104239.0,38852.0,1641.2941812458594,1360.9404228419519,2259.6692067250833
104239,20396,104239.0,36799.0,104239.0,38820.0,1635.9305911680592,1339.7750827889454,2230.530170755023
104250,20406,104250.0,36770.0,104250.0,38791.0,1629.9101130618878,1318.0262587512607,2200.511237956582
104250,20383,104250.0,36761.0,104250.0,38766.0,1623.2543532844647,1295.7058744681062,2169.638442670685
104250,20379,104250.0,36764.0,104250.0,38727.0,1615.9849596333233,1272.8259076380582,2137.9371720861845
104250,20375,104250.0,36745.0,104250.0,38733.0,1608.1236926523898,1249.3988585661834,2105.43234541545
104250,20369,104250.0,36714.0,104250.0,38665.0,1599.6924747778303,1225.4382471726824,2072.1487031683964
104250,20341,104250.0,36665.0,104250.0,38629.0,1590.7134854221563,1200.95886474514,2038.1110296441366
104260,20312,104260.0,36596.0,104260.0,38561.0,1581.2091090310746,1175.9765573799946,2003.3440326049554
104260,20293,104260.0,36551.0,104260.0,38513.0,1571.201630160961,1150.5075527748254,1967.8719096803702
104260,20276,104260.0,36491.0,104260.0,38466.0,1560.7128367508444,1124.5675544950047,1931.71782330839
104260,20257,104260.0,36467.0,104260.0,38442.0,1549.763721099463,1098.1708966356268,1894.9035019915636
104260,20266,104260.0,36461.0,104260.0,38402.0,1538.3743405789369,1071.330013364991,1857.4491269893444
104260,20241,104260.0,36451.0,104260.0,38386.0,1526.5638637131347,1044.055425259082,1819.3734875477999
104270,20233,104270.0,36430.0,104270.0,38350.0,1514.3507179959015,1016.3561651183401,1780.6943048417115
104270,20229,104270.0,36441.0,104270.0,38312.0,1501.7527072826538,988.2403636425792,1741.4286187748928
104270,20230,104270.0,36434.0,104270.0,38309.0,1488.7871730308534,959.7159420401442,1701.5931682450923
104270,20226,104270.0,36428.0,104270.0,38251.0,1475.4713161821342,930.7914659311252,1661.2048250185953
104270,20177,104270.0,36374.0,104270.0,38192.0,1461.8225273385895,901.476941708631,1620.2809673301672
104270,20145,104270.0,36286.0,104270.0,38125.0,1447.8583867092962,871.78409972894,1578.839458736736
104281,20126,104281.0,36228.0,104281.0,38070.0,1433.5962624312956,841.7258644878261,1536.8982174884468
104281,20100,104281.0,36196.0,104281.0,38021.0,1419.0528426336425,811.3153331749257,1494.474695582312
104281,20098,104281.0,36143.0,104281.0,37957.0,1404.2438738864792,780.564925972936,1451.585471312525
104281,20072,104281.0,36118.0,104281.0,37942.0,1389.1841095429227,749.485924221432,1408.2459891533922
104281,20052,104281.0,36127.0,104281.0,37913.0,1373.8873460391126,718.08833128629,1364.470573926963
104281,20044,104281.0,36104.0,104281.0,37868.0,1358.366429295783,686.3811771878263,1320.2727996947974
104291,20029,104291.0,36081.0,104291.0,37811.0,1342.6332793397762,654.3731715384108,1275.6659154107758
104291,20008,104291.0,36055.0,104291.0,37792.0,1326.6989995076958,622.0733037875317,1230.6630557037051
104291,20034,104291.0,36063.0,104291.0,37774.0,1310.5740637691324,589.4913075044578,1185.2774710980002
104291,20001,104291.0,36020.0,104291.0,37725.0,1294.2686667985884,556.6382049298344,1139.5230484108474
104291,19975,104291.0,35947.0,104291.0,37644.0,1277.7931251437308,523.5267756410085,1093.414823394933
104291,19943,104291.0,35872.0,104291.0,37583.0,1261.1579810725075,490.17143696334654,1046.9689954237263
104301,19916,104301.0,35820.0,104301.0,37522.0,1244.373776380016,456.5874547611961,1000.2024781260293
104301,19896,104301.0,35797.0,104301.0,37469.0,1227.4507508001336,422.7900366191566,953.1323982787959
104301,19850,104301.0,35753.0,104301.0,37425.0,1210.3985759848374,388.7938270194336,905.7757852541564
104301,19868,104301.0,35750.0,104301.0,37405.0,1193.2261267435103,354.6128566410057,858.14952938601
104301,19840,104301.0,35718.0,104301.0,37348.0,1175.941432911497,320.2607975702799,810.2706430992911
104301,19837,104301.0,35694.0,104301.0,37297.0,1158.5518945286963,285.7513924179294,762.1566238948371
104312,19810,104312.0,35675.0,104312.0,37271.0,1141.0645617375174,251.09890106052615,713.8256879214435
104312,19809,104312.0,35667.0,104312.0,37239.0,1123.4863374922677,216.31856050081558,665.2970233094403
104312,19805,104312.0,35663.0,104312.0,37201.0,1105.824206052876,181.42721319628777,616.5912670565051
104312,19767,104312.0,35584.0,104312.0,37131.0,1088.0855436947443,146.44401025564048,567.7310166226616
104312,19725,104312.0,35481.0,104312.0,37040.0,1070.278274625707,111.39061016058281,518.7409748551452
104312,19705,104312.0,35453.0,104312.0,36992.0,1052.4106573514803,76.29048180861912,469.6475676271052
104322,19672,104322.0,35405.0,104322.0,36934.0,1034.490895507257,41.16788591180682,420.478367297781
104322,19649,104322.0,35328.0,104322.0,36874.0,1016.5268319235785,6.047201823724663,371.2617218313799
104322,19625,104322.0,35321.0,104322.0,36823.0,998.5257357794212,-29.047522408691975,322.02657248873084
104322,19623,104322.0,35305.0,104322.0,36787.0,980.4941886582512,-64.09283398400248,272.8023579818048
104322,19600,104322.0,35274.0,104322.0,36742.0,962.4381502167021,-99.0656687142664,223.61909521253006
104322,19580,104322.0,35259.0,104322.0,36681.0,944.3631405118745,-133.942836488078,174.5076052760512
104333,19565,104333.0,35233.0,104333.0,36632.0,926.2743789136913,-168.7005152877648,125.49966315941037
104333,19557,104333.0,35246.0,104333.0,36644.0,908.1768895347918,-203.3137039339838,76.6281288129785
104333,19545,104333.0,35175.0,104333.0,36557.0,890.075698471685,-237.75556756222647,27.92736615663921
104333,19509,104333.0,35095.0,104333.0,36479.0,871.9760822120163,-271.99706925625924,-20.566320212256414
104333,19473,104333.0,35016.0,104333.0,36417.0,853.8836403811611,-306.00740476428234,-68.81483277877714
104333,19449,104333.0,34978.0,104333.0,36340.0,835.8040833708817,-339.75506315170685,-116.77890524091185
104343,19437,104343.0,34929.0,104343.0,36286.0,817.7429390608143,-373.2088161995297,-164.41874283967172
104343,19401,104343.0,34890.0,104343.0,36224.0,799.7054051020582,-406.33829757706656,-211.6945364769124
104343,19383,104343.0,34906.0,104343.0,36216.0,781.6962858697814,-439.11419910535767,-258.56675274911095
104343,19374,104343.0,34883.0,104343.0,36151.0,763.7199228453362,-471.5079960549682,-304.99605548485715
104343,19359,104343.0,34855.0,104343.0,36094.0,745.7802336191517,-503.49128338604487,-350.94304828147915
104343,19347,104343.0,34800.0,104343.0,36049.0,727.8809140075863,-535.0352277737254,-396.3682137135804
104353,19323,104353.0,34815.0,104353.0,36025.0,710.0256756546944,-566.1103751507246,-441.23198371756666
104353,19318,104353.0,34785.0,104353.0,35993.0,692.218429946894,-596.6864443726643,-485.49457817399184
104353,19292,104353.0,34707.0,104353.0,35918.0,674.4634484671778,-626.731976428787,-529.1156453602214
104353,19265,104353.0,34648.0,104353.0,35852.0,656.7654897354793,-656.2143845667031,-572.0541548394481
104353,19211,104353.0,34598.0,104353.0,35786.0,639.1297362639011,-685.1006552708143,-614.2687829007771
104353,19209,104353.0,34568.0,104353.0,35736.0,621.5614729620808,-713.3582033135822,-655.7185429670562
104364,19177,104364.0,34512.0,104364.0,35687.0,604.0657455212469,-740.9554711290664,-696.3633223256579
104364,19148,104364.0,34491.0,104364.0,35665.0,586.647190857403,-767.8623342716066,-736.1641686615314
104364,19176,104364.0,34472.0,104364.0,35613.0,569.3100070678132,-794.050376715714,-775.0833034116897
104364,19131,104364.0,34446.0,104364.0,35582.0,552.0581335749387,-819.492931741873,-813.0839947526451
104364,19114,104364.0,34447.0,104364.0,35545.0,534.8955502462778,-844.1648933810648,-850.1304452568872
104364,19101,104364.0,34438.0,104364.0,35501.0,517.8263897726816,-868.0423519069259,-886.1877055377224
104374,19108,104374.0,34437.0,104374.0,35493.0,500.8549845905716,-891.1020440818977,-921.2215664833998
104374,19081,104374.0,34403.0,104374.0,35441.0,483.98613152594737,-913.3207484632865,-955.1983725360371
104374,19037,104374.0,34333.0,104374.0,35381.0,467.225375686705,-934.6749766391533,-988.0848724863936
104374,19002,104374.0,34292.0,104374.0,35327.0,450.5789289335771,-955.1412809016631,-1019.8484144652248
104374,18968,104374.0,34252.0,104374.0,35282.0,434.0532186980005,-974.6970415076314,-1050.457490261353
104374,18973,104374.0,34217.0,104374.0,35239.0,417.654423118742,-993.3212708504934,-1079.882320397468
104384,18934,104384.0,34186.0,104384.0,35200.0,401.3882796563837,-1010.9952248036248,-1108.0953109925617
104384,18947,104384.0,34187.0,104384.0,35181.0,385.26013865072525,-1027.702819886701,-1135.0713671872877
104384,18909,104384.0,34193.0,104384.0,35164.0,369.2751138979701,-1043.4307212728559,-1160.787997247472
104384,18892,104384.0,34161.0,104384.0,35127.0,353.4382126909094,-1058.1680677585139,-1185.2252020945516
104384,18873,104384.0,34172.0,104384.0,35117.0,337.7543399157099,-1071.9061215037116,-1208.365318969275
104384,18886,104384.0,34191.0,104384.0,35112.0,322.22829341160764,-1084.6379420669768,-1230.1928644092086
104395,18867,104395.0,34191.0,104395.0,35100.0,306.86499124919135,-1096.3578421841937,-1250.6942233216932
104395,18833,104395.0,34150.0,104395.0,35047.0,291.6698194582541,-1107.0607449287886,-1269.8572818052698
104395,18781,104395.0,34086.0,104395.0,34991.0,276.6486831512033,-1116.7420313507182,-1287.6714311764404
104395,18776,104395.0,34045.0,104395.0,34973.0,261.8076252723081,-1125.3981964879727,-1304.1281075224383
104395,18751,104395.0,34049.0,104395.0,34965.0,247.15237502437094,-1133.0279111775199,-1319.2214300035594
104395,18722,104395.0,34019.0,104395.0,34910.0,232.68811516759752,-1139.6328118268045,-1332.948543558237
104405,18712,104405.0,34044.0,104405.0,34923.0,218.4193506278358,-1145.2178016446667,-1345.3098260767579
104405,18725,104405.0,34066.0,104405.0,34922.0,204.34985598138746,-1149.7909482745847,-1356.30903097066
104405,18691,104405.0,34032.0,104405.0,34925.0,190.48286558490804,-1153.363068744524,-1365.9531141924685
104405,18674,104405.0,34065.0,104405.0,34903.0,176.82133622763172,-1155.9473252765506,-1374.251838685328
104405,18652,104405.0,34094.0,104405.0,34914.0,163.36798470616634,-1157.5589125653235,-1381.2174859157853
104405,18661,104405.0,34137.0,104405.0,34937.0,150.125213546454,-1158.2144273211434,-1386.8646195461088
104415,18651,104415.0,34124.0,104415.0,34941.0,137.09522428781338,-1157.9308892448475,-1391.209627660488
104415,18614,104415.0,34062.0,104415.0,34913.0,124.28028586370488,-1156.725072645134,-1394.2701645110346
104415,18591,104415.0,34042.0,104415.0,34875.0,111.68281599132456,-1154.6137552733794,-1396.0649810060754
104415,18568,104415.0,34034.0,104415.0,34877.0,99.30515001917877,-1151.6146531314234,-1396.6143153942771
104415,18545,104415.0,34047.0,104415.0,34882.0,87.14921571156742,-1147.7472453828234,-1395.9404145139197
104415,18536,104415.0,34032.0,104415.0,34865.0,75.2162879316129,-1143.0331285658644,-1394.0677761629768
104426,18533,104426.0,34090.0,104426.0,34879.0,63.506889940254496,-1137.4960411355826,-1391.0232069875024
104426,18518,104426.0,34088.0,104426.0,34910.0,52.02088173893958,-1131.1615920422091,-1386.835796286668
104426,18498,104426.0,34094.0,104426.0,34913.0,40.7576200802082,-1124.0567836528342,-1381.5366429781188
104426,18496,104426.0,34128.0,104426.0,34921.0,29.71603836379495,-1116.2096337780106,-1375.1584238364758
104426,18509,104426.0,34175.0,104426.0,34943.0,18.89474964022861,-1107.6488109439886,-1367.7350691410306
104426,18493,104426.0,34219.0,104426.0,34980.0,8.29235892895008,-1098.4029116752827,-1359.301461715274
104436,18480,104436.0,34195.0,104436.0,34971.0,-2.0921426089387296,-1088.499522558229,-1349.8929882804919
104436,18451,104436.0,34159.0,104436.0,34957.0,-12.259193024288834,-1077.9647542377315,-1339.545201042208
104436,18418,104436.0,34154.0,104436.0,34971.0,-22.208787645590746,-1066.8236552534602,-1328.293904074045
104436,18400,104436.0,34154.0,104436.0,34949.0,-31.94084496995788,-1055.1010879843554,-1316.175519670226
104436,18372,104436.0,34153.0,104436.0,34970.0,-41.455650507516566,-1042.8224446031218,-1303.2274825691402
104436,18377,104436.0,34167.0,104436.0,34995.0,-50.75420454268169,-1030.0140727106748,-1289.4885273047544
104446,18389,104446.0,34205.0,104446.0,35018.0,-59.83830381289226,-1016.703458394207,-1274.998687366028
104446,18370,104446.0,34202.0,104446.0,35037.0,-68.71028624792757,-1002.9191314532766,-1259.7990211065194
104446,18348,104446.0,34247.0,104446.0,35067.0,-77.37270787482748,-988.6904113077017,-1243.9312776314844
104446,18349,104446.0,34268.0,104446.0,35081.0,-85.82825740355929,-974.0471019510371,-1227.4375863403748
104446,18356,104446.0,34332.0,104446.0,35134.0,-94.07975259347836,-959.0190095389758,-1210.3601222393916
104446,18345,104446.0,34358.0,104446.0,35152.0,-102.12993904888822,-943.6351885687598,-1192.740660675997
104457,18325,104457.0,34309.0,104457.0,35139.0,-109.98120671338904,-927.9232354448955,-1174.6201314472512
104457,18289,104457.0,34305.0,104457.0,35142.0,-117.63554170653072,-911.9092720431456,-1156.0385513986853
104457,18279,104457.0,34282.0,104457.0,35155.0,-125.09480449924695,-895.618745875729,-1137.0354050256544
104457,18275,104457.0,34295.0,104457.0,35153.0,-132.36109556881752,-879.0774591285356,-1117.6501176331558
104457,18247,104457.0,34301.0,104457.0,35176.0,-139.43695955806152,-862.3123481387324,-1097.9224254984367
104457,18254,104457.0,34350.0,104457.0,35210.0,-146.325468347997,-845.3518667612451,-1077.8926033097678
104467,18253,104467.0,34388.0,104467.0,35254.0,-153.03023355926484,-828.2258837059114,-1057.6013917715939
104467,18242,104467.0,34410.0,104467.0,35270.0,-159.55526744089002,-810.9651698293192,-1037.0896058659007
104467,18233,104467.0,34442.0,104467.0,35305.0,-165.90478917593668,-793.600800241809,-1016.3976794730067
104467,18240,104467.0,34507.0,104467.0,35337.0,-172.0831039769896,-776.1636098813967,-995.5653069397929
104467,18252,104467.0,34552.0,104467.0,35366.0,-178.09442127875946,-758.6834566920987,-974.6310973257644
104467,18222,104467.0,34550.0,104467.0,35362.0,-183.94253297336513,-741.1882954704449,-953.6322643373471
104477,18193,104477.0,34498.0,104477.0,35374.0,-189.63064095317986,-723.7036908029069,-932.6045773658186
104477,18169,104477.0,34501.0,104477.0,35392.0,-195.1616090712282,-706.2532903152322,-911.5826048094859
104477,18154,104477.0,34513.0,104477.0,35416.0,-200.53847954527146,-688.8598627789044,-890.5999773472263
104477,18151,104477.0,34502.0,104477.0,35417.0,-205.76491372864757,-671.5461414061629,-869.6895142203064
104477,18155,104477.0,34525.0,104477.0,35437.0,-210.84537501530076,-654.3353299261946,-848.8833429774513
104477,18140,104477.0,34572.0,104477.0,35470.0,-215.78506995348528,-637.2513779570849,-828.2130561457009
104488,18153,104488.0,34620.0,104488.0,35507.0,-220.5897911137713,-620.3188124315948,-807.7096953478483
104488,18136,104488.0,34630.0,104488.0,35517.0,-225.26574857099706,-603.5621141879852,-787.4034889961224
104488,18142,104488.0,34661.0,104488.0,35557.0,-229.81940196376104,-587.005080111782,-767.3235510075788
104488,18157,104488.0,34731.0,104488.0,35614.0,-234.25726865501156,-570.6703359922733,-747.4975658810301
104488,18154,104488.0,34740.0,104488.0,35610.0,-238.58560660877333,-554.5787018492337,-727.9512993303513
104488,18126,104488.0,34728.0,104488.0,35608.0,-242.8100628500854,-538.7485203135833,-708.7081966722704
104498,18101,104498.0,34698.0,104498.0,35601.0,-246.93562122850756,-523.1955666544804,-689.7895093134334
104498,18082,104498.0,34682.0,104498.0,35607.0,-250.96694847090225,-507.9337381856407,-671.2148615612508
104498,18077,104498.0,34697.0,104498.0,35625.0,-254.908869210214,-492.9760712455302,-653.0028462546021
104498,18076,104498.0,34694.0,104498.0,35625.0,-258.76667640071753,-478.33555305324325,-635.1714279906964
104498,18081,104498.0,34756.0,104498.0,35661.0,-262.5461757795837,-464.02548516292484,-617.7381675103763
104498,18073,104498.0,34767.0,104498.0,35688.0,-266.25353706209376,-450.05935357097525,-600.7202565430475
104508,18068,104508.0,34780.0,104508.0,35701.0,-269.89511358748837,-436.4503912305892,-584.1343261203646
104508,18079,104508.0,34813.0,104508.0,35727.0,-273.47730914914007,-423.21120288395656,-567.9961836350004
104508,18087,104508.0,34860.0,104508.0,35764.0,-277.006380507974,-410.3534457207371,-552.320579300457
104508,18089,104508.0,34918.0,104508.0,35791.0,-280.4880863482522,-397.88720726677013,-537.1208638967303
104508,18077,104508.0,34855.0,104508.0,35785.0,-283.92731604929327,-385.82019144133477,-522.4085697139604
104508,18043,104508.0,34845.0,104508.0,35763.0,-287.3279429669651,-374.1574774316502,-508.19328258720236
104519,18015,104519.0,34825.0,104519.0,35761.0,-290.6930700424607,-362.9022093366234,-494.4830475001959
104519,17997,104519.0,34831.0,104519.0,35761.0,-294.02560083288824,-352.0566153665398,-481.2850747200316
104519,18000,104519.0,34813.0,104519.0,35779.0,-297.32882218600014,-341.62278984554825,-468.6063313363019
104519,18013,104519.0,34838.0,104519.0,35800.0,-300.6066726454658,-331.6032278157171,-456.45381154858444
104519,18003,104519.0,34843.0,104519.0,35821.0,-303.86362969980814,-322.0011405001833,-444.83449154812035
104519,18001,104519.0,34898.0,104519.0,35820.0,-307.10445657594266,-312.82043821406404,-433.7551266214587
104529,18008,104529.0,34892.0,104529.0,35836.0,-310.3340229551327,-304.0653624082223,-423.22211488904
104529,18011,104529.0,34920.0,104529.0,35866.0,-313.55713066005785,-295.7399974295704,-413.24143960899937
104529,18020,104529.0,34996.0,104529.0,35924.0,-316.778232860442,-287.8477731737852,-403.818396407712
104529,18001,104529.0,34973.0,104529.0,35903.0,-320.00112152939175,-280.39074601989995,-394.95697371128813
104529,17993,104529.0,34965.0,104529.0,35865.0,-323.2287611030781,-273.3689028170194,-386.65940226576066
104529,17962,104529.0,34900.0,104529.0,35861.0,-326.4633795333817,-266.78019009507125,-378.9264605022723
104539,17953,104539.0,34878.0,104539.0,35863.0,-329.7067822389763,-260.6214263503184,-371.75826449861864
104539,17953,104539.0,34890.0,104539.0,35851.0,-332.9607168687626,-254.88955510685122,-365.15490503679007
104539,17917,104539.0,34899.0,104539.0,35846.0,-336.2271350177922,-249.58252447135618,-359.11685282265466
104539,17932,104539.0,34911.0,104539.0,35874.0,-339.508401433259,-244.6995261390656,-353.645275545524
104539,17927,104539.0,34915.0,104539.0,35893.0,-342.8074506499279,-240.24088735229358,-348.7421048654988
104539,17921,104539.0,34950.0,104539.0,35896.0,-346.1277614646351,-236.20787082805256,-344.4097622272286
104550,17933,104550.0,34958.0,104550.0,35901.0,-349.47320582492694,-232.60234419879248,-340.6508206939661
104550,17940,104550.0,35022.0,104550.0,35942.0,-352.84783273840765,-229.42622381864626,-337.4677605819468
104550,17956,104550.0,35039.0,104550.0,35952.0,-356.2555041149949,-226.68064026931933,-334.86260228394997
104550,17928,104550.0,35009.0,104550.0,35941.0,-359.6994633707859,-224.36504205496075,-332.83639395120684
104550,17911,104550.0,34966.0,104550.0,35907.0,-363.18213214181617,-222.4768648139942,-331.38897895854564
104550,17891,104550.0,34923.0,104550.0,35882.0,-366.70529488444356,-221.0121303394787,-330.51934668236174
104560,17888,104560.0,34947.0,104560.0,35917.0,-370.27047701104766,-219.96653026834556,-330.2262832765413
104560,17874,104560.0,34906.0,104560.0,35887.0,-373.8792433029854,-219.33628625650692,-330.5087700019452
104560,17857,104560.0,34914.0,104560.0,35890.0,-377.53338619669375,-219.1186370131129,-331.3660684352506
104560,17880,104560.0,34931.0,104560.0,35900.0,-381.23505853488746,-219.31214456199598,-332.7977921011902
104560,17867,104560.0,34950.0,104560.0,35888.0,-384.98674549581153,-219.91670648917537,-334.8039524128334
104560,17833,104560.0,34916.0,104560.0,35857.0,-388.79113027681785,-220.93327220085507,-337.38498298332064
104571,17843,104571.0,34937.0,104571.0,35902.0,-392.651159038884,-222.36366794210468,-340.5418900428239
104571,17876,104571.0,35040.0,104571.0,35938.0,-396.5701674178863,-224.21040710427081,-344.2761828950129
104571,17866,104571.0,35017.0,104571.0,35911.0,-400.551615201206,-226.47583615799618,-348.58926261700714
104571,17843,104571.0,34975.0,104571.0,35922.0,-404.59860108634916,-229.16099255466904,-353.48175870411967
104571,17813,104571.0,34923.0,104571.0,35877.0,-408.71374227313515,-232.2653786442456,-358.95333776794996
104571,17816,104571.0,34918.0,104571.0,35863.0,-412.89950176853324,-235.78779324013846,-365.0029518954633
104581,17820,104581.0,34914.0,104581.0,35840.0,-417.15852215212215,-239.72729802696347,-371.62933645170506
104581,17803,104581.0,34901.0,104581.0,35852.0,-421.49367430942925,-244.08372993839103,-378.83149225094155
104581,17805,104581.0,34911.0,104581.0,35834.0,-425.9079708061099,-248.8578546427615,-386.6088991705698
104581,17787,104581.0,34876.0,104581.0,35828.0,-430.4045441636089,-254.05141815141835,-394.9615158805337
104581,17759,104581.0,34883.0,104581.0,35811.0,-434.98674256076924,-259.66725639811506,-403.8897862929165
104581,17792,104581.0,34942.0,104581.0,35854.0,-439.65831250821657,-265.7093251210913,-413.39462238124264
104591,17812,104591.0,34972.0,104591.0,35858.0,-444.42335673929983,-272.1821622446275,-423.47705980382443
104591,17819,104591.0,34999.0,104591.0,35863.0,-449.28580209711276,-279.08969764664175,-434.13754583718526
104591,17791,104591.0,34950.0,104591.0,35841.0,-454.24872537569263,-286.4340739609957,-445.3752663657461
104591,17764,104591.0,34924.0,104591.0,35788.0,-459.31409757027507,-294.2151886277707,-457.18791869239766
104591,17735,104591.0,34858.0,104591.0,35768.0,-464.483077987161,-302.4311230746969,-469.5720496024904
104591,17728,104591.0,34851.0,104591.0,35746.0,-469.7565748313623,-311.0791048796336,-482.5237057911722
104602,17725,104602.0,34821.0,104602.0,35697.0,-475.1357039166876,-320.15647882302153,-496.0390426110605
104602,17695,104602.0,34782.0,104602.0,35712.0,-480.62201392592885,-329.66142989542914,-510.1148244801128
104602,17732,104602.0,34851.0,104602.0,35715.0,-486.217569253231,-339.59343000426924,-524.7486916001919
104602,17736,104602.0,34866.0,104602.0,35725.0,-491.9248053867756,-349.95308261633335,-539.9389381038875
104602,17715,104602.0,34849.0,104602.0,35706.0,-497.74609606136596,-360.74126417213853,-555.6839575385451
104602,17706,104602.0,34877.0,104602.0,35722.0,-503.6834085229257,-371.95821997137693,-571.9817179982455
104612,17726,104612.0,34919.0,104612.0,35709.0,-509.73823504321706,-383.6028614090014,-588.829315536869
104612,17721,104612.0,34877.0,104612.0,35707.0,-515.9114606450532,-395.67192863215735,-606.222518919591
104612,17688,104612.0,34826.0,104612.0,35665.0,-522.2030880725036,-408.15936876854335,-624.1554171215838
104612,17654,104612.0,34764.0,104612.0,35620.0,-528.6122328223407,-421.0566118314872,-642.6204105409156
104612,17630,104612.0,34706.0,104612.0,35574.0,-535.137586564628,-434.35367568848073,-661.6086675429445
104612,17617,104612.0,34661.0,104612.0,35544.0,-541.7780636365171,-448.04057621524043,-681.110878610947
104622,17621,104622.0,34720.0,104622.0,35541.0,-548.5332643556242,-462.1084682048904,-701.1179279242737
104622,17626,104622.0,34704.0,104622.0,35549.0,-555.4035831709267,-476.5499162988186,-721.6211285096933
104622,17612,104622.0,34688.0,104622.0,35528.0,-562.3900284494212,-491.3583852653088,-742.6119565024704
104622,17624,104622.0,34701.0,104622.0,35523.0,-569.4939684060962,-506.52770269384087,-764.0815883615281
104622,17611,104622.0,34692.0,104622.0,35471.0,-576.716902314987,-522.0517169338932,-786.0205974973118
104622,17624,104622.0,34728.0,104622.0,35511.0,-584.0602144677944,-537.9238307399224,-808.4188490568488
104633,17627,104633.0,34721.0,104633.0,35493.0,-591.5248663187632,-554.1362792894967,-831.2652531938993
104633,17581,104633.0,34704.0,104633.0,35459.0,-599.1110996340682,-570.6793389819197,-854.5472375241231
104633,17576,104633.0,34626.0,104633.0,35424.0,-606.8184116818823,-587.5409327343336,-878.2503924457465
104633,17558,104633.0,34592.0,104633.0,35370.0,-614.6458449580934,-604.7070085065725,-902.35862770009
104633,17532,104633.0,34538.0,104633.0,35339.0,-622.592314216604,-622.1625012125345,-926.8546827903265
104633,17530,104633.0,34523.0,104633.0,35307.0,-630.6568716731288,-639.8923482483852,-951.7207125032604
104643,17526,104643.0,34528.0,104643.0,35306.0,-638.8388982756586,-657.8821503218971,-976.9386829814963
104643,17531,104643.0,34539.0,104643.0,35273.0,-647.1380895331176,-676.118249382378,-1002.4904352373283
104643,17516,104643.0,34535.0,104643.0,35275.0,-655.5542521165955,-694.5872625676051,-1028.3575118085187
104643,17490,104643.0,34528.0,104643.0,35259.0,-664.087139929326,-713.2754227190487,-1054.5208665479352
104643,17522,104643.0,34536.0,104643.0,35251.0,-672.7364328676836,-732.1679991103529,-1080.9604662472689
104643,17515,104643.0,34535.0,104643.0,35252.0,-681.5015992518887,-751.2487543234947,-1107.6548009102785
104653,17501,104653.0,34542.0,104653.0,35241.0,-690.3815104027522,-770.4993244319114,-1134.5803154772616
104653,17474,104653.0,34483.0,104653.0,35190.0,-699.3741615403867,-789.8986565915457,-1161.710875012764
104653,17446,104653.0,34426.0,104653.0,35145.0,-708.4767803450129,-809.4229174798677,-1189.0175919705669
104653,17433,104653.0,34381.0,104653.0,35100.0,-717.686203848875,-829.0461120635673,-1216.4691641178815
104653,17440,104653.0,34372.0,104653.0,35071.0,-726.999222215387,-848.7410228827812,-1244.032450851284
104653,17406,104653.0,34329.0,104653.0,35044.0,-736.412693207402,-868.4798959470606,-1271.6729448815881
104664,17420,104664.0,34359.0,104664.0,35041.0,-745.9235266123646,-888.2347142415183,-1299.3549703643394
104664,17395,104664.0,34344.0,104664.0,35008.0,-755.528662176394,-907.9770678325633,-1327.0415924030865
104664,17407,104664.0,34325.0,104664.0,35018.0,-765.224994606706,-927.6777125498061,-1354.6943422929073
104664,17397,104664.0,34332.0,104664.0,34984.0,-775.0092093200896,-947.3061338694649,-1382.2728507738098
104664,17404,104664.0,34377.0,104664.0,34990.0,-784.877529044722,-966.8300906452621,-1409.7344310215565
104664,17405,104664.0,34370.0,104664.0,34995.0,-794.8253794855606,-986.2147673215958,-1437.0335904314488
104674,17388,104674.0,34315.0,104674.0,34945.0,-804.847034896207,-1005.421784602169,-1464.1214503262067
104674,17360,104674.0,34264.0,104674.0,34882.0,-814.93540965857,-1024.4088670571527,-1490.9454211259826
104674,17334,104674.0,34202.0,104674.0,34881.0,-825.0821660542117,-1043.1304340220672,-1517.4494603862126
104674,17314,104674.0,34201.0,104674.0,34834.0,-835.2780838188924,-1061.5386092222755,-1543.574536971717
104674,17290,104674.0,34144.0,104674.0,34803.0,-845.5134893777943,-1079.584057637632,-1569.2589105771835
104674,17301,104674.0,34142.0,104674.0,34778.0,-855.778579113177,-1097.2165155560162,-1594.4383661147199
104684,17291,104684.0,34189.0,104684.0,34789.0,-866.063497340643,-1114.3849971912293,-1619.0463948466625
104684,17298,104684.0,34164.0,104684.0,34773.0,-876.3581450294927,-1131.0374265266987,-1643.014047094559
104684,17286,104684.0,34145.0,104684.0,34739.0,-886.6518693470616,-1147.1199287675602,-1666.2695416532506
104684,17275,104684.0,34141.0,104684.0,34743.0,-896.9331982827212,-1162.5764266364467,-1688.73799032231
104684,17284,104684.0,34185.0,104684.0,34740.0,-907.189663202053,-1177.3484481496685,-1710.3412176241395
104684,17277,104684.0,34136.0,104684.0,34696.0,-917.4076004291259,-1191.3746700986003,-1730.997485885886
104695,17237,104695.0,34086.0,104695.0,34658.0,-927.5719383384182,-1204.5905229291502,-1750.6213832088106
104695,17221,104695.0,34047.0,104695.0,34604.0,-937.6662355108413,-1216.9285167145604,-1769.1242048144823
104695,17200,104695.0,33993.0,104695.0,34578.0,-947.6730271083466,-1228.319203287575,-1786.4147151773145
104695,17190,104695.0,33982.0,104695.0,34548.0,-957.5742007261999,-1238.6922647040792,-1802.3999578694124
104695,17179,104695.0,33959.0,104695.0,34523.0,-967.3512221760308,-1247.9774044528315,-1816.9859055945115
104695,17174,104695.0,33973.0,104695.0,34527.0,-976.9852198805766,-1256.1048716582102,-1830.0779088897098
104705,17174,104705.0,33943.0,104705.0,34511.0,-986.4569487191875,-1263.0056387565123,-1841.5809121300072
104705,17171,104705.0,33961.0,104705.0,34482.0,-995.7466379861842,-1268.6114372710213,-1851.3995228692834
104705,17163,104705.0,33972.0,104705.0,34477.0,-1004.8337726598332,-1272.854718678208,-1859.4381885341459
104705,17170,104705.0,33983.0,104705.0,34481.0,-1013.696875410824,-1275.6684130583305,-1865.601477485945
104705,17171,104705.0,33991.0,104705.0,34454.0,-1022.3132616892811,-1276.9855241473292,-1869.7942631464625
104705,17155,104705.0,33942.0,104705.0,34416.0,-1030.658750379355,-1276.7388705703688,-1871.921966052527
104715,17121,104715.0,33874.0,104715.0,34377.0,-1038.707518967893,-1274.8614267151988,-1871.8912070164001
104715,17097,104715.0,33844.0,104715.0,34347.0,-1046.432318527986,-1271.2875082586368,-1869.6108845624713
104715,17073,104715.0,33815.0,104715.0,34338.0,-1053.8049866180022,-1265.95439975539,-1864.993372043396
104715,17073,104715.0,33786.0,104715.0,34307.0,-1060.7969817256349,-1258.8038374908365,-1857.9555844030108
104715,17068,104715.0,33804.0,104715.0,34303.0,-1067.3797013658325,-1249.7831735410414,-1848.4199194296093
104715,17046,104715.0,33805.0,104715.0,34311.0,-1073.5245766595513,-1238.8461682664386,-1836.315114624494
104726,17054,104726.0,33859.0,104726.0,34315.0,-1079.2031244301575,-1225.953301625952,-1821.5769048095322
104726,17049,104726.0,33858.0,104726.0,34332.0,-1084.386996194562,-1211.071655394898,-1804.1484503905485
104726,17038,104726.0,33861.0,104726.0,34338.0,-1089.0479440250388,-1194.174695406632,-1783.9806658433045
104726,17067,104726.0,33912.0,104726.0,34367.0,-1093.1577203921906,-1175.2422624885426,-1761.0325291807774
104726,17054,104726.0,33959.0,104726.0,34379.0,-1096.6878744574537,-1154.2605382006107,-1735.2713658904072
104726,17043,104726.0,33946.0,104726.0,34382.0,-1099.609492280562,-1131.2217269939815,-1706.6731633040717
104736,17001,104736.0,33896.0,104736.0,34368.0,-1101.8932016148528,-1106.124017829819,-1675.223126917682
104736,16988,104736.0,33890.0,104736.0,34401.0,-1103.5096243621217,-1078.9724872606268,-1640.9165725182006
104736,16995,104736.0,33930.0,104736.0,34420.0,-1104.4300206225748,-1049.7805635599618,-1603.7598732865854
104736,16981,104736.0,33933.0,104736.0,34430.0,-1104.6267306607128,-1018.5711471149123,-1563.7712171435098
104736,16982,104736.0,33991.0,104736.0,34497.0,-1104.0733651201076,-985.3771458057776,-1520.9812388764558
104736,16975,104736.0,34035.0,104736.0,34537.0,-1102.7449487755898,-950.2416472279597,-1475.4334657360482
104746,16988,104746.0,34100.0,104746.0,34594.0,-1100.6180611748252,-913.2177651359198,-1427.1844480079003
104746,16991,104746.0,34152.0,104746.0,34672.0,-1097.6708798634088,-874.3682052593414,-1376.3036844501073
104746,17001,104746.0,34246.0,104746.0,34770.0,-1093.883108739766,-833.7646600802134,-1322.873322551463
104746,17026,104746.0,34338.0,104746.0,34850.0,-1089.2358226048964,-791.4869435285419,-1266.9874816089084
104746,17008,104746.0,34368.0,104746.0,34903.0,-1083.711260947643,-747.6218774528149,-1208.7514125095677
104746,17004,104746.0,34364.0,104746.0,34967.0,-1077.2927516929249,-702.262514170387,-1148.280948538227
104757,16983,104757.0,34420.0,104757.0,35051.0,-1069.9649719085546,-655.508248814981,-1085.7023368992545
104757,16987,104757.0,34459.0,104757.0,35123.0,-1061.7144731545213,-607.4654481261421,-1021.1521274579145
104757,16992,104757.0,34507.0,104757.0,35221.0,-1052.530212929883,-558.2479165326315,-954.7768980761523
104757,16999,104757.0,34633.0,104757.0,35355.0,-1042.4039105122508,-507.9769633494265,-886.7327230807828
104757,17013,104757.0,34724.0,104757.0,35503.0,-1031.3302234956327,-456.78085491085073,-817.1841231136352
104757,17042,104757.0,34852.0,104757.0,35610.0,-1019.3067857673511,-404.79352427196704,-746.3024164474652
104767,17052,104767.0,34940.0,104767.0,35740.0,-1006.3340909079927,-352.15286825426824,-674.2638914424012
104767,17079,104767.0,35038.0,104767.0,35866.0,-992.4152838289854,-298.9990504775586,-601.2481568655176
104767,17101,104767.0,35175.0,104767.0,36002.0,-977.5559517029649,-245.4729233126012,-527.4365672515914
104767,17114,104767.0,35276.0,104767.0,36097.0,-961.7639221844156,-191.71435174960743,-453.01062846930586
104767,17124,104767.0,35344.0,104767.0,36224.0,-945.0491335025662,-137.86043464638635,-378.15056180058536
104767,17112,104767.0,35331.0,104767.0,36293.0,-927.4237198590195,-84.04426643801423,-303.0341724544942
104777,17133,104777.0,35416.0,104777.0,36421.0,-908.9023583531781,-30.394773191296053,-227.83600657680608
104777,17130,104777.0,35513.0,104777.0,36497.0,-889.5027374022559,22.96294591925448,-152.72667363425558
104777,17197,104777.0,35550.0,104777.0,36612.0,-869.2458911873116,75.9077250136246,-77.87220306013
104777,17208,104777.0,35623.0,104777.0,36680.0,-848.1561789643117,128.32280889060803,-3.433449881601973
104777,17259,104777.0,35715.0,104777.0,36830.0,-826.2609429631232,180.09623986077622,70.4344641353091
104777,17273,104777.0,35801.0,104777.0,36919.0,-803.5901071734537,231.12137838911337,143.5829016327525
104788,17298,104788.0,35844.0,104788.0,37005.0,-780.1759063675902,281.29770889704196,215.87067227934472
104788,17336,104788.0,35955.0,104788.0,37091.0,-756.0527646331059,330.53161239809515,287.164821085252
104788,17392,104788.0,36027.0,104788.0,37199.0,-731.2571422646784,378.7371051646111,357.34112352989837
104788,17422,104788.0,36041.0,104788.0,37254.0,-705.8271414619552,425.8366395382276,426.28453464640916
104788,17440,104788.0,36040.0,104788.0,37274.0,-679.8020234612281,471.76142730553624,493.8894341846394
104788,17443,104788.0,36066.0,104788.0,37341.0,-653.2220183553769,516.4508490040066,560.0592567173289
104798,17481,104798.0,36085.0,104798.0,37397.0,-626.1285254957005,559.8513743516282,624.7057124884891
104798,17506,104798.0,36096.0,104798.0,37457.0,-598.5644077095358,601.9155381360019,687.7481525934572
104798,17545,104798.0,36137.0,104798.0,37509.0,-570.5741007412682,642.6010562872707,749.1131744526331
104798,17606,104798.0,36211.0,104798.0,37593.0,-542.2034859349209,681.8701949923086,808.7343325875668
104798,17638,104798.0,36263.0,104798.0,37653.0,-513.4995226980172,719.6896917169249,866.552025889325
104798,17676,104798.0,36306.0,104798.0,37714.0,-484.5097627132763,756.0311524606345,922.5135797245696
104809,17709,104809.0,36351.0,104809.0,37756.0,-455.28198318257773,790.8714871738234,976.5733062506488
104809,17771,104809.0,36426.0,104809.0,37824.0,-425.86392947487485,824.1932486640333,1028.69240501094
104809,17802,104809.0,36444.0,104809.0,37892.0,-396.30296528868365,855.9850538218172,1078.838863143022
104809,17803,104809.0,36398.0,104809.0,37887.0,-366.64571783189183,886.241824645376,1126.9874333604926
104809,17841,104809.0,36393.0,104809.0,37918.0,-336.93804837852053,914.9641977985702,1173.1193285048266
104809,17871,104809.0,36407.0,104809.0,37938.0,-307.2253001479653,942.1571757319753,1217.2214149321562
104819,17913,104819.0,36422.0,104819.0,37972.0,-277.552445609064,967.8288470651185,1259.2852554589617
104819,17939,104819.0,36408.0,104819.0,38006.0,-247.9640285294929,991.989538333889,1299.3063402681878
104819,17965,104819.0,36469.0,104819.0,38068.0,-218.5040794249379,1014.6511803207529,1337.283593082671
104819,18017,104819.0,36489.0,104819.0,38097.0,-189.21608998631234,1035.8269412622403,1373.2191932360652
104819,18055,104819.0,36524.0,104819.0,38151.0,-160.14290744792402,1055.5312844041875,1407.1186145192014
104819,18106,104819.0,36578.0,104819.0,38184.0,-131.3264280915373,1073.780283535879,1438.9907147891913
104829,18139,104829.0,36607.0,104829.0,38235.0,-102.80717552317117,1090.592090799071,1468.8478498559484
104829,18182,104829.0,36679.0,104829.0,38252.0,-74.62389998462311,1105.9876048146405,1496.7060093357295
104829,18207,104829.0,36616.0,104829.0,38273.0,-46.813266199938084,1119.9911402072923,1522.5848486012
104829,18214,104829.0,36570.0,104829.0,38275.0,-19.409711479014504,1132.6304421628402,1546.5074685812256
104829,18226,104829.0,36553.0,104829.0,38271.0,7.55439758964053,1143.935600017296,1568.4999023047576
104829,18257,104829.0,36581.0,104829.0,38290.0,34.04835549615143,1153.9375308685899,1588.5903944698734
104840,18287,104840.0,36575.0,104840.0,38289.0,60.04275173178928,1162.6670178060044,1606.808669507186
104840,18320,104840.0,36569.0,104840.0,38315.0,85.5093516474218,1170.1543301054717,1623.1853450850676
104840,18353,104840.0,36591.0,104840.0,38369.0,110.4211685383865,1176.4289508549675,1637.7516115270364
104840,18383,104840.0,36637.0,104840.0,38395.0,134.7526125178464,1181.5194353203299,1650.539352218363
104840,18413,104840.0,36636.0,104840.0,38392.0,158.4796543152678,1185.453678371575,1661.58155423705
104840,18448,104840.0,36665.0,104840.0,38412.0,181.57998661263855,1188.2594180273418,1670.912528553316
104850,18488,104850.0,36725.0,104850.0,38446.0,204.03323023910752,1189.964761718618,1678.5678780156713
104850,18512,104850.0,36725.0,104850.0,38431.0,225.82122236965108,1190.5989104284156,1684.5845216404546
104850,18499,104850.0,36688.0,104850.0,38429.0,246.92822143932017,1190.192881463895,1689.0006991753467
104850,18522,104850.0,36640.0,104850.0,38426.0,267.3407622290165,1188.779526679791,1691.8556957078285
104850,18535,104850.0,36589.0,104850.0,38410.0,287.0472344881389,1186.3926164711688,1693.1893721046163
104850,18553,104850.0,36607.0,104850.0,38414.0,306.0375174242098,1183.0655166739305,1693.0416740565724
104860,18569,104860.0,36566.0,104860.0,38411.0,324.30276757911236,1178.8301352430024,1691.452197370993
104860,18588,104860.0,36602.0,104860.0,38422.0,341.8352713799792,1173.7163683474316,1688.4599073867944
104860,18608,104860.0,36626.0,104860.0,38419.0,358.6283424164294,1167.7520104565247,1684.1030395667053
104860,18637,104860.0,36631.0,104860.0,38424.0,374.67629809840196,1160.9631537590205,1678.4191010823738
104860,18648,104860.0,36648.0,104860.0,38441.0,389.9745280535692,1153.3748432839302,1671.4449337036708
104860,18689,104860.0,36693.0,104860.0,38466.0,404.5196240915658,1145.011739976264,1663.2169440330636
104871,18707,104871.0,36689.0,104871.0,38460.0,418.309586047969,1135.8989042340215,1653.7715585754672
104871,18726,104871.0,36641.0,104871.0,38447.0,431.3441036148721,1126.0625169624652,1643.1456636601256
104871,18723,104871.0,36616.0,104871.0,38411.0,443.6247523217821,1115.5299706861479,1631.3766930930046
104871,18709,104871.0,36563.0,104871.0,38370.0,455.1548992795383,1104.329238803201,1618.5022368735608
104871,18714,104871.0,36519.0,104871.0,38364.0,465.9392761396575,1092.4878823247057,1604.5593175001777
104871,18720,104871.0,36498.0,104871.0,38356.0,475.98342153710735,1080.0319542675188,1589.5837191854926
104881,18736,104881.0,36519.0,104881.0,38347.0,485.2932721431223,1066.9851246186336,1573.609670324719
104881,18758,104881.0,36541.0,104881.0,38354.0,493.87501345863996,1053.3684621616887,1556.6698315176604
104881,18770,104881.0,36540.0,104881.0,38353.0,501.73514968424547,1039.2009108534762,1538.7954706604323
104881,18783,104881.0,36537.0,104881.0,38351.0,508.88067306626135,1024.499992584826,1520.0167835717239
104881,18783,104881.0,36536.0,104881.0,38335.0,515.3191847749431,1009.282328937019,1500.363237712676
104881,18819,104881.0,36590.0,104881.0,38349.0,521.0589488727269,993.5640987326021,1479.8638469492794
104891,18820,104891.0,36576.0,104891.0,38351.0,526.1090187605214,977.3617809356504,1458.5474978199295
104891,18824,104891.0,36503.0,104891.0,38283.0,530.4794419031743,960.6929233313372,1436.4433121960203
104891,18795,104891.0,36446.0,104891.0,38244.0,534.1812835030519,943.5761046967948,1413.580596131106
104891,18800,104891.0,36437.0,104891.0,38240.0,537.2262988044645,926.0299826388812,1389.9882322956912
104891,18810,104891.0,36434.0,104891.0,38223.0,539.6264641405294,908.0723351555228,1365.6941140735078
104891,18800,104891.0,36376.0,104891.0,38184.0,541.3936800229196,889.7196457786765,1340.7249704921626
104902,18821,104902.0,36403.0,104902.0,38192.0,542.5396641041848,870.9869221033953,1315.1063139575833
104902,18822,104902.0,36405.0,104902.0,38187.0,543.0759405381225,851.8876419388519,1288.8624613568415
104902,18831,104902.0,36395.0,104902.0,38175.0,543.013927381942,832.4340836063786,1262.0168219768937
104902,18838,104902.0,36393.0,104902.0,38148.0,542.3650710725005,812.6378598326094,1234.5922956202078
104902,18846,104902.0,36414.0,104902.0,38171.0,541.1409830824409,792.5103978205173,1206.611573733156
104902,18867,104902.0,36442.0,104902.0,38167.0,539.3536289752474,772.0635796267866,1178.0975431456247
104912,18854,104912.0,36404.0,104912.0,38120.0,537.0155836454419,751.3106355546468,1149.0738726265793
104912,18846,104912.0,36344.0,104912.0,38081.0,534.1402005736529,730.2667559047579,1119.5653302172361
104912,18829,104912.0,36305.0,104912.0,38039.0,530.7415145763935,708.9488782925378,1089.5975351073678
104912,18806,104912.0,36275.0,104912.0,38006.0,526.8338877372855,687.3748847925676,1059.1964124073565
104912,18812,104912.0,36221.0,104912.0,37977.0,522.431543776861,665.5627750105295,1028.3876839037857
104912,18818,104912.0,36238.0,104912.0,37960.0,517.548217057276,643.5300310526111,997.1965295535035
104922,18828,104922.0,36230.0,104922.0,37956.0,512.1971100416689,621.2933377390436,965.647499834329
104922,18812,104922.0,36217.0,104922.0,37956.0,506.3910676965071,598.8687829686589,933.7647489658241
104922,18830,104922.0,36212.0,104922.0,37921.0,500.1427316324132,576.2722624667298,901.5725032033806
104922,18824,104922.0,36204.0,104922.0,37932.0,493.4646513031927,553.5198293533937,869.0955266401306
104922,18848,104922.0,36254.0,104922.0,37923.0,486.36948541543575,530.6281478839609,836.3595614614569
104922,18840,104922.0,36222.0,104922.0,37894.0,478.87032551724076,507.61527344037904,803.3918571915958
104933,18812,104933.0,36154.0,104933.0,37842.0,470.9809713587633,484.50139597752946,770.2215573853375
104933,18796,104933.0,36113.0,104933.0,37804.0,462.7158864189033,461.3088177936321,736.8796231285351
104933,18780,104933.0,36057.0,104933.0,37760.0,454.0898210086384,438.0611386619047,703.3983814450944
104933,18775,104933.0,36082.0,104933.0,37734.0,445.11738782984435,414.7823559098159,669.811009262901
104933,18779,104933.0,35990.0,104933.0,37670.0,435.8128121250015,391.49634819403934,636.1510834380267
104933,18764,104933.0,36023.0,104933.0,37680.0,426.1898842793297,368.22658232892843,602.4521735067854
104943,18780,104943.0,36035.0,104943.0,37657.0,416.2620294187451,344.9959938298924,568.7476400020435
104943,18776,104943.0,35992.0,104943.0,37626.0,406.0424611755126,321.8273196836551,535.0707768826901
104943,18767,104943.0,35982.0,104943.0,37612.0,395.54441311197525,298.74357094570416,501.4550440278067
104943,18774,104943.0,36029.0,104943.0,37622.0,384.7813401132464,275.76830039033683,467.9342693124212
104943,18774,104943.0,36042.0,104943.0,37576.0,373.7670832445991,252.92617241202714,434.54300333191327
104943,18763,104943.0,35963.0,104943.0,37552.0,362.51607655844657,230.2439153532004,401.3168738932916
104953,18719,104953.0,35884.0,104953.0,37498.0,351.043439572739,207.75063954388713,368.2926011874297
104953,18707,104953.0,35834.0,104953.0,37441.0,339.36471615369294,185.47693128373282,335.5076198688754
104953,18700,104953.0,35801.0,104953.0,37410.0,327.4953847855804,163.4533957302583,302.99942220829905
104953,18682,104953.0,35787.0,104953.0,37368.0,315.450491855285,141.70953410731005,270.8048457443049
104953,18689,104953.0,35755.0,104953.0,37339.0,303.24450459266006,120.27317079571671,238.95951874109073
104953,18666,104953.0,35761.0,104953.0,37330.0,290.891281995241,99.1702290122731,207.4975108342406
104964,18669,104964.0,35763.0,104964.0,37320.0,278.40408434346114,78.42476513529022,176.45125247181767
104964,18675,104964.0,35749.0,104964.0,37290.0,265.7956188323152,58.05928107255352,145.85171799822336
104964,18674,104964.0,35725.0,104964.0,37280.0,253.07822207300921,38.09509734984988,115.7286487173921
104964,18667,104964.0,35782.0,104964.0,37275.0,240.264162859041,18.552646548714335,86.11072183494468
104964,18675,104964.0,35753.0,104964.0,37247.0,227.36592110794788,-0.5480242137017513,57.025775614235044
104964,18648,104964.0,35682.0,104964.0,37222.0,214.3963960302233,-19.186675998127754,28.501018981039977
104974,18609,104974.0,35635.0,104974.0,37150.0,201.3689277652436,-37.34301585419996,0.5629534928119142
104974,18589,104974.0,35585.0,104974.0,37134.0,188.29694588401844,-54.99770418501592,-26.763130822547623
104974,18570,104974.0,35584.0,104974.0,37100.0,175.1933758715768,-72.13352603486064,-53.45385590922518
104974,18573,104974.0,35533.0,104974.0,37061.0,162.07016135768254,-88.73621086449097,-79.48832740198412
104974,18567,104974.0,35586.0,104974.0,37068.0,148.93808786418117,-104.79484469578887,-104.84853587383861
104974,18581,104974.0,35587.0,104974.0,37058.0,135.80688744653355,-120.30177996851536,-129.5195356698158
104984,18567,104984.0,35589.0,104984.0,37072.0,122.68551864435028,-135.25202525208766,-153.48925418007752
104984,18556,104984.0,35585.0,104984.0,37060.0,109.58243928643685,-149.642548143817,-176.74802715660087
104984,18576,104984.0,35594.0,104984.0,37051.0,96.50576864530012,-163.4718173439702,-199.28811546169433
104984,18585,104984.0,35654.0,104984.0,37050.0,83.46352686745058,-176.73932498083508,-221.10336142131368
104984,18554,104984.0,35599.0,104984.0,37044.0,70.46404652515605,-189.44483628129407,-242.18894052078392
104984,18518,104984.0,35538.0,104984.0,36997.0,57.516171517983935,-201.58788873244694,-262.5411924602221
104995,18506,104995.0,35516.0,104995.0,36981.0,44.62894961254119,-213.16823690524194,-282.1577361255107
104995,18479,104995.0,35509.0,104995.0,36958.0,31.811079395065804,-224.18687058781106,-301.0378949030893
104995,18484,104995.0,35468.0,104995.0,36933.0,19.07046752298993,-234.64680685843786,-319.18317337758776
104995,18467,104995.0,35478.0,104995.0,36939.0,6.413999208220162,-244.55358724869646,-336.59762960483124
104995,18477,104995.0,35538.0,104995.0,36973.0,-6.152502606272492,-253.9154920346288,-353.2879830356907
104995,18475,104995.0,35520.0,104995.0,36953.0,-18.624166027141428,-262.7431517290445,-369.2632839224582
105004,18466,105004.0,35541.0,105004.0,36963.0,-30.996859756905337,-271.0487781218835,-384.53439696154084
105004,18470,105004.0,35525.0,105004.0,36952.0,-43.266988801199204,-278.84561153051396,-399.1136752994871
105004,18478,105004.0,35632.0,105004.0,36985.0,-55.431308617840784,-286.1474928082323,-413.01475575313015
105004,18471,105004.0,35595.0,105004.0,36997.0,-67.48666473860351,-292.9680395984006,-426.2521854605814
105004,18452,105004.0,35555.0,105004.0,36971.0,-79.4297429700045,-299.3197380511948,-438.8408936964161
105004,18438,105004.0,35515.0,105004.0,36947.0,-91.2570346750947,-305.213902741931,-450.7959313456721
105014,18410,105014.0,35512.0,105014.0,36919.0,-102.96505367231447,-310.6615306968211,-462.13276694990407
105014,18410,105014.0,35508.0,105014.0,36937.0,-114.55068141736479,-315.67418907316375,-472.86786968355443
105014,18394,105014.0,35464.0,105014.0,36930.0,-126.01147665697317,-320.2645637632235,-483.0191011594012
105014,18407,105014.0,35509.0,105014.0,36934.0,-137.34582418260533,-324.4468790047302,-492.6057779143997
105014,18398,105014.0,35507.0,105014.0,36956.0,-148.55289443050077,-328.2371248467115,-501.648567919373
105014,18398,105014.0,35531.0,105014.0,36937.0,-159.6324888596397,-331.65287142377736,-510.16931965328524
105025,18403,105025.0,35532.0,105025.0,36960.0,-170.58487232380259,-334.71286380090527,-518.1908999788865
105025,18402,105025.0,35594.0,105025.0,36985.0,-181.4105924484321,-337.43657693675743,-525.737036070528
105025,18410,105025.0,35660.0,105025.0,37020.0,-192.11024553423636,-339.8434448249068,-532.8319238856644
105025,18385,105025.0,35588.0,105025.0,36992.0,-202.68425575732277,-341.95174093499,-539.4996186104365
105025,18378,105025.0,35562.0,105025.0,36988.0,-213.1328194294985,-343.7779977494961,-545.7636798551071
105025,18366,105025.0,35539.0,105025.0,36970.0,-223.4560588289641,-345.33757799690414,-551.6473460524599
105035,18344,105035.0,35527.0,105035.0,36953.0,-233.65427226666236,-346.64575957119877,-557.1740329022352
105035,18343,105035.0,35510.0,105035.0,36971.0,-243.72820955231316,-347.71862127997355,-562.3678697612984
105035,18329,105035.0,35540.0,105035.0,36967.0,-253.6793343970823,-348.57363177541833,-567.2540627504245
105035,18346,105035.0,35560.0,105035.0,37007.0,-263.5099705171128,-349.229852095953,-571.8589542758618
105035,18347,105035.0,35580.0,105035.0,37020.0,-273.2232423466561,-349.70767434979297,-576.209774103768
105035,18355,105035.0,35592.0,105035.0,37030.0,-282.8228224302924,-350.02833472535394,-580.3341985158862
105046,18353,105046.0,35624.0,105046.0,37042.0,-292.312616939352,-350.2134430213823,-584.2599554714093
105046,18372,105046.0,35682.0,105046.0,37076.0,-301.696476219433,-350.28442076141295,-588.0145436935967
105046,18357,105046.0,35682.0,105046.0,37088.0,-310.97790596425097,-350.26167316419316,-591.6248806333313
105046,18330,105046.0,35661.0,105046.0,37060.0,-320.15989424829945,-350.1638160595439,-595.116939138414
105046,18323,105046.0,35614.0,105046.0,37041.0,-329.2450627506038,-350.00758242669536,-598.5157807532984
105046,18305,105046.0,35590.0,105046.0,37053.0,-338.2360611235361,-349.8085678269434,-601.8460779004819
105056,18302,105056.0,35594.0,105056.0,37081.0,-347.1359474065595,-349.58233860749243,-605.1326161763709
105056,18305,105056.0,35600.0,105056.0,37062.0,-355.9484349958264,-349.34528512463953,-608.4003975244188
105056,18311,105056.0,35638.0,105056.0,37101.0,-364.677955475408,-349.11492198482824,-611.674545853701
105056,18307,105056.0,35646.0,105056.0,37097.0,-373.32954933246003,-348.90969345624,-614.9802105966755
105056,18314,105056.0,35667.0,105056.0,37115.0,-381.9087038144279,-348.74853442669996,-618.3424188272062
105056,18322,105056.0,35687.0,105056.0,37121.0,-390.421188361605,-348.65042916290724,-621.7859216743734
105066,18316,105066.0,35728.0,105066.0,37164.0,-398.8728550621207,-348.63395512352815,-625.3350261315327
105066,18337,105066.0,35795.0,105066.0,37208.0,-407.2694201366243,-348.71657039870706,-629.013178738006
105066,18322,105066.0,35738.0,105066.0,37169.0,-415.6162424575703,-348.91366644748365,-632.8423104739004
105066,18307,105066.0,35714.0,105066.0,37157.0,-423.918179871104,-349.23807161900567,-636.8425087581359
105066,18290,105066.0,35676.0,105066.0,37152.0,-432.17969921360105,-349.7005655337872,-641.032378090021
105066,18274,105066.0,35672.0,105066.0,37150.0,-440.40523986510124,-350.31098499529077,-645.4296758445483
105077,18275,105077.0,35653.0,105077.0,37150.0,-448.59963439100284,-351.07923502980674,-650.0517794195923
105077,18283,105077.0,35672.0,105077.0,37157.0,-456.76838375233524,-352.01597401852985,-654.9159699884128
105077,18290,105077.0,35713.0,105077.0,37175.0,-464.91766954998013,-353.13287747608183,-660.0395687189159
105077,18292,105077.0,35743.0,105077.0,37213.0,-473.05416181307055,-354.44233239649867,-665.4398297855641
105077,18295,105077.0,35732.0,105077.0,37195.0,-481.184788079232,-355.95675404584114,-671.1335835455596
105077,18295,105077.0,35752.0,105077.0,37229.0,-489.31655664589164,-357.6880449036374,-677.1368741962617
105087,18305,105087.0,35809.0,105087.0,37272.0,-497.456415558893,-359.64726416623444,-683.4646460165148
105087,18318,105087.0,35820.0,105087.0,37268.0,-505.6110641429767,-361.84406221775623,-690.1302247162791
105087,18308,105087.0,35764.0,105087.0,37237.0,-513.7866885213086,-364.28599911867,-697.1448079332822
105087,18284,105087.0,35738.0,105087.0,37215.0,-521.9888010220207,-366.9785340314865,-704.5175391868643
105087,18278,105087.0,35724.0,105087.0,37205.0,-530.2223917164122,-369.9258512829926,-712.2561649268744
105087,18262,105087.0,35728.0,105087.0,37229.0,-538.4923048895835,-373.1318166009529,-720.3677198777516
105097,18256,105097.0,35712.0,105097.0,37201.0,-546.8036176693072,-376.60056756713766,-728.858868056121
105097,18261,105097.0,35734.0,105097.0,37232.0,-555.1619194658896,-380.3368049346591,-737.7360064862654
105097,18283,105097.0,35751.0,105097.0,37239.0,-563.5733908697932,-384.34585145334097,-747.0052609146724
105097,18280,105097.0,35755.0,105097.0,37247.0,-572.0446008773855,-388.6334335289685,-756.6722984408866
105097,18272,105097.0,35775.0,105097.0,37249.0,-580.5822003347191,-393.2053211357669,-766.7420519848483
105097,18297,105097.0,35803.0,105097.0,37272.0,-589.1927319759047,-398.0669350829671,-777.2185021197965
105108,18299,105108.0,35868.0,105108.0,37297.0,-597.8824475647145,-403.2227271795453,-788.1043865987033
105108,18313,105108.0,35828.0,105108.0,37276.0,-606.6569761059097,-408.6752643261359,-799.4007666218831
105108,18281,105108.0,35779.0,105108.0,37234.0,-615.5210088736619,-414.4246255394958,-811.1068140320099
105108,18267,105108.0,35746.0,105108.0,37226.0,-624.4782924938219,-420.46878977717876,-823.2201877207278
105108,18251,105108.0,35730.0,105108.0,37225.0,-633.5319865924919,-426.8047352824319,-835.7377321400766
105108,18251,105108.0,35729.0,105108.0,37211.0,-642.6851329215394,-433.429453158344,-848.6559839636432
105118,18243,105118.0,35710.0,105118.0,37202.0,-651.9409808649924,-440.34054943621527,-861.9714444948376
105118,18261,105118.0,35741.0,105118.0,37212.0,-661.3031085120911,-447.53653084025,-875.6807939932072
105118,18269,105118.0,35766.0,105118.0,37224.0,-670.7753230005771,-455.0167520607413,-889.7809670815592
105118,18256,105118.0,35765.0,105118.0,37217.0,-680.36139870388,-462.7809638737908,-904.2689942270488
105118,18261,105118.0,35773.0,105118.0,37212.0,-690.0648737272434,-470.828749501983,-919.1417935560793
105118,18278,105118.0,35820.0,105118.0,37248.0,-699.888957210554,-479.15906374541385,-934.3960284543905
105128,18274,105128.0,35809.0,105128.0,37248.0,-709.8363510259237,-487.7696786050822,-950.0278205902849
105128,18264,105128.0,35777.0,105128.0,37231.0,-719.9090019589411,-496.656638650174,-966.0323022847631
105128,18246,105128.0,35745.0,105128.0,37199.0,-730.1080372533644,-505.81424832563465,-982.4034272688125
105128,18224,105128.0,35713.0,105128.0,37166.0,-740.4339886900531,-515.2356965608249,-999.1343091416527
105128,18221,105128.0,35705.0,105128.0,37175.0,-750.8871958802392,-524.9139120890725,-1016.2178651137705
105128,18223,105128.0,35688.0,105128.0,37153.0,-761.4681681659746,-534.8422773232844,-1033.647340269957
105139,18213,105139.0,35706.0,105139.0,37151.0,-772.1777452383631,-545.0150451798432,-1051.4165607962743
105139,18209,105139.0,35706.0,105139.0,37157.0,-783.0171333554568,-555.4274165601607,-1069.520037808089
105139,18222,105139.0,35713.0,105139.0,37175.0,-793.9879223645742,-566.0753414094821,-1087.9528956698887
105139,18225,105139.0,35714.0,105139.0,37160.0,-805.0919964705588,-576.9552215972711,-1106.7105642749154
105139,18236,105139.0,35775.0,105139.0,37183.0,-816.3312759650935,-588.0635238494523,-1125.7884013917164
105139,18257,105139.0,35775.0,105139.0,37203.0,-827.707342476492,-599.3960762004995,-1145.1812917770246
105149,18234,105149.0,35750.0,105149.0,37163.0,-839.2210185134225,-610.9472079632316,-1164.883164524645
105149,18208,105149.0,35688.0,105149.0,37129.0,-850.8721400549407,-622.7094274953039,-1184.88677082998
105149,18190,105149.0,35655.0,105149.0,37105.0,-862.6597710792853,-634.6740103122174,-1205.1840603287721
105149,18180,105149.0,35638.0,105149.0,37102.0,-874.5827062315769,-646.8320889915365,-1225.7668445886554
105149,18181,105149.0,35620.0,105149.0,37062.0,-886.6398994094596,-659.1756076660267,-1246.6273088597184
105149,18167,105149.0,35640.0,105149.0,37072.0,-898.8306746155483,-671.6978479401545,-1267.758366269738
105159,18185,105159.0,35642.0,105159.0,37088.0,-911.1547757704775,-684.3935021971449,-1289.1538466168017
105159,18188,105159.0,35645.0,105159.0,37073.0,-923.6122615784046,-697.2583997452042,-1310.808341899224
105159,18173,105159.0,35639.0,105159.0,37084.0,-936.2032656914823,-710.2891510835613,-1332.7168403259584
105159,18177,105159.0,35660.0,105159.0,37088.0,-948.9278144267331,-723.4828622064614,-1354.8743837375196
105159,18193,105159.0,35710.0,105159.0,37092.0,-961.7857384599852,-736.8367045462171,-1377.2756980125982
105159,18193,105159.0,35680.0,105159.0,37088.0,-974.7764619607124,-750.3471504272427,-1399.9147703180568
105170,18175,105170.0,35673.0,105170.0,37048.0,-987.8986914367575,-764.0092525668703,-1422.7845615841388
105170,18137,105170.0,35611.0,105170.0,37018.0,-1001.150346317772,-777.8165262901108,-1445.8770952240736
105170,18135,105170.0,35588.0,105170.0,37001.0,-1014.5288992871507,-791.7615034257437,-1469.1839344664656
105170,18125,105170.0,35562.0,105170.0,36981.0,-1028.0318592946533,-805.8366160780104,-1492.6967409471963
105170,18112,105170.0,35540.0,105170.0,36963.0,-1041.6570836489175,-820.0350179020745,-1516.407682098445
105170,18110,105170.0,35553.0,105170.0,36973.0,-1055.4029354542636,-834.3511306253715,-1540.3096714078135
105180,18121,105180.0,35592.0,105180.0,36971.0,-1069.2683512161836,-848.7807480593167,-1564.3963750140226
105180,18117,105180.0,35558.0,105180.0,36976.0,-1083.2527377183785,-863.3206229022933,-1588.6619464173443
105180,18104,105180.0,35576.0,105180.0,36957.0,-1097.3557649885652,-877.9679290743156,-1613.1006635513752
105180,18118,105180.0,35609.0,105180.0,36967.0,-1111.5772294131364,-892.7198749197698,-1637.706652567496
105180,18145,105180.0,35664.0,105180.0,36991.0,-1125.916873684966,-907.5730545394276,-1662.4736034061712
105180,18129,105180.0,35609.0,105180.0,36953.0,-1140.3739612224344,-922.5223855736767,-1687.3943215236923
105190,18099,105190.0,35546.0,105190.0,36915.0,-1154.9468661313442,-937.5604572107204,-1712.460421563568
105190,18067,105190.0,35501.0,105190.0,36897.0,-1169.6331401432726,-952.6780312924463,-1737.6625578313192
105190,18067,105190.0,35494.0,105190.0,36875.0,-1184.4300201540138,-967.8652616526449,-1762.990971255112
105190,18046,105190.0,35455.0,105190.0,36870.0,-1199.3349413354144,-983.1127374884983,-1788.4359139809592
105190,18055,105190.0,35461.0,105190.0,36851.0,-1214.3458130560202,-998.4121021506337,-1813.987848700691
105190,18049,105190.0,35509.0,105190.0,36868.0,-1229.4610799482894,-1013.7562658581815,-1839.6374715925072
105201,18068,105201.0,35511.0,105201.0,36848.0,-1244.6795924719377,-1029.1390061868797,-1865.375557156815
105201,18049,105201.0,35515.0,105201.0,36863.0,-1260.0003315457213,-1044.5541265558575,-1891.1926717942983
105201,18054,105201.0,35513.0,105201.0,36860.0,-1275.4221471601877,-1059.994737539696,-1917.0788252334673
105201,18069,105201.0,35551.0,105201.0,36867.0,-1290.9435696942598,-1075.452768472894,-1943.0230479743755
105201,18061,105201.0,35555.0,105201.0,36868.0,-1306.5625502911935,-1090.9183736411906,-1969.0129092425016
105201,18028,105201.0,35464.0,105201.0,36808.0,-1322.2761971260259,-1106.379364869777,-1995.0341599704193
105211,18002,105211.0,35446.0,105211.0,36787.0,-1338.0808476152679,-1121.8213669884046,-2021.0708189345974
105211,18000,105211.0,35413.0,105211.0,36781.0,-1353.9725029675242,-1137.2287613223825,-2047.105682267562
105211,17999,105211.0,35393.0,105211.0,36760.0,-1369.9472285386107,-1152.5856769822549,-2073.1207752108335
105211,17983,105211.0,35382.0,105211.0,36752.0,-1386.0012772676348,-1167.876643912619,-2099.097526071776
105211,17986,105211.0,35395.0,105211.0,36757.0,-1402.1310739290566,-1183.0869426043196,-2125.016792477879
105211,17976,105211.0,35425.0,105211.0,36735.0,-1418.3331959081722,-1198.202543707101,-2150.8587729056185
105221,17978,105221.0,35398.0,105221.0,36739.0,-1434.6043222818225,-1213.2096380180574,-2176.602854694725
105221,17975,105221.0,35419.0,105221.0,36742.0,-1450.9411290528956,-1228.0941155010946,-2202.227453828283
105221,17979,105221.0,35435.0,105221.0,36746.0,-1467.3401306453452,-1242.8411759241917,-2227.709741912917
105221,17997,105221.0,35482.0,105221.0,36750.0,-1483.797425269525,-1257.4347659959813,-2253.025226655976
105221,17988,105221.0,35443.0,105221.0,36710.0,-1500.3083118929987,-1271.8567321841206,-2278.1473707392847
105221,17960,105221.0,35372.0,105221.0,36696.0,-1516.8669469139838,-1286.08630697595,-2303.0475149901567
105232,17941,105232.0,35331.0,105232.0,36656.0,-1533.4663361531473,-1300.1006030684111,-2327.6951836072953
105232,17928,105232.0,35309.0,105232.0,36621.0,-1550.0986623502206,-1313.8758550913606,-2352.058638796305
105232,17910,105232.0,35300.0,105232.0,36595.0,-1566.7556731599554,-1327.38855760359,-2376.1055805561855
105232,17908,105232.0,35300.0,105232.0,36640.0,-1583.428970018821,-1340.6160791797054,-2399.803737642519
105232,17901,105232.0,35312.0,105232.0,36613.0,-1600.110171833636,-1353.5368160711387,-2423.1209439750637
105232,17920,105232.0,35331.0,105232.0,36624.0,-1616.7909011420336,-1366.1299914012957,-2446.024788548488
105242,17904,105242.0,35337.0,105242.0,36604.0,-1633.4625727760329,-1378.375189637937,-2468.482315459261
105242,17901,105242.0,35337.0,105242.0,36605.0,-1650.116133030522,-1390.2518192716889,-2490.4599248525847
105242,17907,105242.0,35397.0,105242.0,36623.0,-1666.7419013930614,-1401.7385913868568,-2511.923299791317
105242,17904,105242.0,35371.0,105242.0,36625.0,-1683.32943215554,-1412.8128630189335,-2532.8371638318904
105242,17884,105242.0,35330.0,105242.0,36583.0,-1699.867341579742,-1423.450066579247,-2553.164961484289
105242,17858,105242.0,35283.0,105242.0,36542.0,-1716.3432972534606,-1433.6238574813265,-2572.868926126339
105252,17853,105252.0,35256.0,105252.0,36537.0,-1732.7442772584566,-1443.3070414701215,-2591.9107166595436
105252,17833,105252.0,35256.0,105252.0,36532.0,-1749.056921455685,-1452.472669306526,-2610.252160685565
105252,17824,105252.0,35233.0,105252.0,36503.0,-1765.267813403618,-1461.094811954076,-2627.855712829014
105252,17823,105252.0,35257.0,105252.0,36502.0,-1781.3636852388317,-1469.1489665319434,-2644.684781207427
105252,17851,105252.0,35271.0,105252.0,36547.0,-1797.3314488082021,-1476.6121404087976,-2660.703977893128
105252,17842,105252.0,35256.0,105252.0,36543.0,-1813.15791586572,-1483.4626547000078,-2675.878976820538
105263,17820,105263.0,35286.0,105263.0,36532.0,-1828.8294101285119,-1489.6798986143415,-2690.1760733716237
105263,17833,105263.0,35314.0,105263.0,36558.0,-1844.3316176740786,-1495.244081897561,-2703.5619202985386
105263,17843,105263.0,35366.0,105263.0,36581.0,-1859.6495648160776,-1500.1356845085259,-2716.0033884566305
105263,17856,105263.0,35318.0,105263.0,36536.0,-1874.7673758408903,-1504.3346547662763,-2727.4673267687235
105263,17816,105263.0,35274.0,105263.0,36534.0,-1889.667900132116,-1507.8200649052756,-2737.9205685441475
105263,17793,105263.0,35252.0,105263.0,36510.0,-1904.3326584604922,-1510.5707366864563,-2747.330442229525
105273,17777,105273.0,35240.0,105273.0,36501.0,-1918.7422708869547,-1512.5664046550248,-2755.665498260692
105273,17767,105273.0,35233.0,105273.0,36493.0,-1932.8770410490342,-1513.788715482493,-2762.8962041394643
105273,17784,105273.0,35238.0,105273.0,36511.0,-1946.7173311535187,-1514.221879871861,-2768.9955237398685
105273,17772,105273.0,35292.0,105273.0,36532.0,-1960.2436230692451,-1513.8529674865815,-2773.9392279820704
105273,17773,105273.0,35298.0,105273.0,36553.0,-1973.4364078090807,-1512.6717219595455,-2777.705864883706
105273,17782,105273.0,35313.0,105273.0,36569.0,-1986.2760861628533,-1510.6700704376558,-2780.276529401904
105284,17782,105284.0,35327.0,105284.0,36579.0,-1998.74285682471,-1507.841750951392,-2781.634648269183
105284,17794,105284.0,35405.0,105284.0,36630.0,-2010.816521816255,-1504.182025492852,-2781.765824952625
105284,17792,105284.0,35400.0,105284.0,36650.0,-2022.4762543656752,-1499.6871066435442,-2780.6575692054494
105284,17772,105284.0,35383.0,105284.0,36627.0,-2033.7004411986397,-1494.353520517028,-2778.2989663135804
105284,17758,105284.0,35340.0,105284.0,36639.0,-2044.4667638320655,-1488.1781387251765,-2774.6807215348417
105284,17765,105284.0,35346.0,105284.0,36645.0,-2054.752511468599,-1481.1590373236709,-2769.795665071052
105294,17742,105294.0,35348.0,105294.0,36670.0,-2064.5349015723405,-1473.2965757082789,-2763.639294903045
105294,17747,105294.0,35367.0,105294.0,36690.0,-2073.791335996664,-1464.5941410066632,-2756.210094622323
105294,17758,105294.0,35426.0,105294.0,36731.0,-2082.4996176758295,-1455.058406159179,-2747.509638533217
105294,17753,105294.0,35445.0,105294.0,36769.0,-2090.638029440985,-1444.6990995457402,-2737.542494182692
105294,17775,105294.0,35489.0,105294.0,36795.0,-2098.1852675766913,-1433.528459979498,-2726.3159627335367
105294,17773,105294.0,35503.0,105294.0,36854.0,-2105.1203137876805,-1421.5607045956872,-2713.839768331763
105304,17796,105304.0,35570.0,105304.0,36900.0,-2111.4222604270067,-1408.8115982852391,-2700.125675990412
105304,17814,105304.0,35621.0,105304.0,36956.0,-2117.07006942525,-1395.2978955358062,-2685.186938510358
105304,17816,105304.0,35629.0,105304.0,36985.0,-2122.0422615474486,-1381.0365732249045,-2669.037673241633
105304,17790,105304.0,35608.0,105304.0,36994.0,-2126.316720814097,-1366.0443213047706,-2651.692455622449
105304,17782,105304.0,35631.0,105304.0,37002.0,-2129.8708960725744,-1350.3377481885802,-2633.1663900932176
105304,17786,105304.0,35613.0,105304.0,37051.0,-2132.6823356662653,-1333.9340695861774,-2613.4755870729405
105315,17785,105315.0,35641.0,105315.0,37081.0,-2134.729199743821,-1316.8518471620462,-2592.6376144422406
105315,17811,105315.0,35678.0,105315.0,37136.0,-2135.990548549649,-1299.111559903588,-2570.671641699086
105315,17832,105315.0,35733.0,105315.0,37184.0,-2136.4463750113964,-1280.7357728338914,-2547.598334892953
105315,17841,105315.0,35786.0,105315.0,37248.0,-2136.077416697304,-1261.7487870458522,-2523.4395806325056
105315,17853,105315.0,35833.0,105315.0,37285.0,-2134.8649380147804,-1242.1759544833606,-2498.218093131321
105315,17865,105315.0,35870.0,105315.0,37337.0,-2132.7906471895753,-1222.0429420296998,-2471.9570573801025
105325,17900,105325.0,35950.0,105325.0,37423.0,-2129.8366656538747,-1201.3750614625087,-2444.6798299653087
105325,17922,105325.0,35978.0,105325.0,37468.0,-2125.985366271108,-1180.1965490975854,-2416.409486312548
105325,17918,105325.0,35973.0,105325.0,37460.0,-2121.219113350073,-1158.529921800363,-2387.168361324488
105325,17921,105325.0,35955.0,105325.0,37511.0,-2115.5202004759108,-1136.3959468892258,-2356.978125015157
105325,17937,105325.0,35979.0,105325.0,37559.0,-2108.8711101674953,-1113.8143830443196,-2325.860325622293
105325,17933,105325.0,35983.0,105325.0,37585.0,-2101.2548915279394,-1090.804967391549,-2293.8368287916655
105335,17933,105335.0,36030.0,105335.0,37624.0,-2092.655561326708,-1067.3881543155678,-2260.930105571496
105335,17973,105335.0,36048.0,105335.0,37705.0,-2083.0585472604284,-1043.5855082063283,-2227.163532412708
105335,17995,105335.0,36122.0,105335.0,37771.0,-2072.450963428852,-1019.4197858901236,-2192.561437325325
105335,18027,105335.0,36168.0,105335.0,37814.0,-2060.82156670672,-994.9146797069334,-2157.148772023133
105335,18037,105335.0,36218.0,105335.0,37857.0,-2048.1605967909,-970.0942589446231,-2120.950814002346
105335,18073,105335.0,36262.0,105335.0,37930.0,-2034.4597188403066,-944.9823476619304,-2083.9931507022347
105346,18119,105346.0,36316.0,105346.0,38003.0,-2019.7119921156675,-919.6020060912649,-2046.301663622106
105346,18143,105346.0,36326.0,105346.0,38042.0,-2003.9116786995378,-893.9751269932947,-2007.9022889467965
105346,18151,105346.0,36354.0,105346.0,38073.0,-1987.0540098897816,-868.1222797805614,-1968.820851318118
105346,18180,105346.0,36352.0,105346.0,38110.0,-1969.1352079310786,-842.0629433555769,-1929.0833260744894
105346,18194,105346.0,36340.0,105346.0,38160.0,-1950.152755134015,-815.8161269864704,-1888.7164218490934
105346,18211,105346.0,36358.0,105346.0,38224.0,-1930.1057324041483,-789.4013259557913,-1847.7481123256068
105356,18242,105356.0,36406.0,105356.0,38258.0,-1908.9951847496359,-762.8395077885989,-1806.2079462739257
105356,18285,105356.0,36501.0,105356.0,38345.0,-1886.8244267619675,-736.1535435549438,-1764.127226008767
105356,18322,105356.0,36532.0,105356.0,38408.0,-1863.5991342196944,-709.3678063061317,-1721.5390492508996
105356,18372,105356.0,36574.0,105356.0,38503.0,-1839.3272277673054,-682.5073952837208,-1678.4780696804462
105356,18394,105356.0,36611.0,105356.0,38539.0,-1814.0186901364,-655.5976205600788,-1634.9800580731344
105356,18474,105356.0,36714.0,105356.0,38641.0,-1787.6853935461063,-628.6636865874106,-1591.0815219248918
105366,18492,105366.0,36733.0,105366.0,38707.0,-1760.3408640985458,-601.7301144525896,-1546.8193844230923
105366,18517,105366.0,36749.0,105366.0,38769.0,-1732.000063726428,-574.8200679671107,-1502.2305880092779
105366,18560,105366.0,36746.0,105366.0,38782.0,-1702.6794523291837,-547.9552384812255,-1457.3518641751334
105366,18591,105366.0,36745.0,105366.0,38850.0,-1672.397260795569,-521.156461704952,-1412.2200062437785
105366,18619,105366.0,36794.0,105366.0,38906.0,-1641.1737497335312,-494.4446408381242,-1366.8724314399499
105366,18676,105366.0,36799.0,105366.0,38974.0,-1609.0314512783007,-467.84148759972504,-1321.3475615355767
105377,18731,105377.0,36895.0,105377.0,39044.0,-1575.9953083122768,-441.36984773385734,-1275.684909535295
105377,18797,105377.0,36936.0,105377.0,39132.0,-1542.0925342916476,-415.0535232571217,-1229.924960185152
105377,18833,105377.0,36981.0,105377.0,39223.0,-1507.3522697639937,-388.91667772198593,-1184.1088065865115
105377,18888,105377.0,37012.0,105377.0,39285.0,-1471.8052957478476,-362.9832527521651,-1138.277565880047
105377,18948,105377.0,37099.0,105377.0,39377.0,-1435.4838900431428,-337.2765913685132,-1092.4717851534722
105377,19035,105377.0,37166.0,105377.0,39463.0,-1398.4216048833446,-311.8188909195296,-1046.730909090286
105387,19068,105387.0,37191.0,105387.0,39522.0,-1360.6528070272902,-286.6303209416303,-1001.0927149502418
105387,19107,105387.0,37197.0,105387.0,39562.0,-1322.212260495108,-261.7283293759233,-955.592891685176
105387,19156,105387.0,37177.0,105387.0,39613.0,-1283.135090812697,-237.1277051523125,-910.2650634909658
105387,19198,105387.0,37194.0,105387.0,39665.0,-1243.457014277011,-212.84137835370325,-865.1411797243131
105387,19245,105387.0,37236.0,105387.0,39739.0,-1203.214574079043,-188.8814151079498,-820.2519219978221
105387,19304,105387.0,37237.0,105387.0,39810.0,-1162.4453234249643,-165.25968262566403,-775.6268703871806
105397,19386,105397.0,37318.0,105397.0,39881.0,-1121.187859343326,-141.98812326335997,-731.2943892893327
105397,19442,105397.0,37382.0,105397.0,39965.0,-1079.481568338097,-119.07862507287996,-687.2813351697077
105397,19489,105397.0,37401.0,105397.0,40009.0,-1037.3662303601989,-96.54241963879667,-643.612710739782
105397,19563,105397.0,37467.0,105397.0,40090.0,-994.8817611113861,-74.38937918173087,-600.3114063451826
105397,19657,105397.0,37544.0,105397.0,40183.0,-952.0679821044941,-52.62742100883747,-557.3979872702234
105397,19703,105397.0,37585.0,105397.0,40245.0,-908.9641358844376,-31.261711390575556,-514.890283361673
105408,19744,105408.0,37555.0,105408.0,40286.0,-865.6083677234985,-10.293868958615576,-472.80289564877467
105408,19802,105408.0,37536.0,105408.0,40304.0,-822.0375893993332,10.278039245515856,-431.1471111351593
105408,19837,105408.0,37546.0,105408.0,40365.0,-778.2876691704291,30.45853104585308,-389.9313851487145
105408,19904,105408.0,37574.0,105408.0,40437.0,-734.3936816333021,50.253512367726216,-349.16195171765185
105408,19963,105408.0,37592.0,105408.0,40492.0,-690.3900726006468,69.66951611360855,-308.84307193782934
105408,20032,105408.0,37628.0,105408.0,40546.0,-646.3106366644727,88.71338460269749,-268.97697272677397
105418,20094,105418.0,37680.0,105418.0,40616.0,-602.1883164353235,107.3922253850842,-229.56377734403213
105418,20153,105418.0,37704.0,105418.0,40660.0,-558.0549457999098,125.71362605158038,-190.60147211337562
105418,20216,105418.0,37749.0,105418.0,40721.0,-513.9410312362238,143.6860165100543,-152.08588302025282
105418,20275,105418.0,37816.0,105418.0,40797.0,-469.87558228855164,161.31908337061782,-114.0106581874038
105418,20380,105418.0,37853.0,105418.0,40864.0,-425.8858708061814,178.6243737798436,-76.36710457131585
105418,20420,105418.0,37849.0,105418.0,40910.0,-381.9969702675428,195.61596494274772,-39.14385883569594
105428,20451,105428.0,37835.0,105428.0,40933.0,-338.23130297984494,212.310648508472,-2.326714442554021
105428,20493,105428.0,37821.0,105428.0,40966.0,-294.608659788938,228.72734807401957,34.101101246722465
105428,20542,105428.0,37813.0,105428.0,40989.0,-251.14665513355203,244.88604450356138,70.15825608328487
105428,20594,105428.0,37847.0,105428.0,41053.0,-207.86118573436852,260.80667999861475,105.86454947068023
105428,20637,105428.0,37855.0,105428.0,41098.0,-164.7667223362114,276.5084106357119,141.24036700583883
105428,20705,105428.0,37924.0,105428.0,41150.0,-121.87650277719513,292.009338286354,176.30644387062694
105439,20765,105439.0,37951.0,105439.0,41208.0,-79.20260363958005,307.3266950033651,211.08378860263747
105439,20834,105439.0,37974.0,105439.0,41267.0,-36.755815162837735,322.47730120637857,245.5936815945288
105439,20877,105439.0,37995.0,105439.0,41311.0,5.454598011051985,337.4779247476399,279.8577517041631
105439,20950,105439.0,38082.0,105439.0,41406.0,47.42108872203562,352.3454978177881,313.8981181581048
105439,21003,105439.0,38099.0,105439.0,41441.0,89.13797009217387,367.09758982246444,347.73766991436605
105439,21036,105439.0,38062.0,105439.0,41474.0,130.60153580445058,381.75298592793274,381.4003623800386
105449,21065,105449.0,38059.0,105449.0,41476.0,171.80996580342526,396.3315814606756,414.911095656797
105449,21095,105449.0,38059.0,105449.0,41516.0,212.7628657742166,410.85347216394916,448.29501773052743
105449,21146,105449.0,38069.0,105449.0,41539.0,253.4606145174871,425.33792572503467,481.5765918071511
105449,21202,105449.0,38066.0,105449.0,41586.0,293.9038390015912,439.80261237928926,514.7787852058959
105449,21251,105449.0,38089.0,105449.0,41654.0,334.0931789971469,454.2629988734475,547.9225368950074
105449,21311,105449.0,38158.0,105449.0,41718.0,374.029258318395,468.7319760631394,581.0266203245701
105459,21372,105459.0,38190.0,105459.0,41761.0,413.7127533838875,483.2200151182244,614.1078482791004
105459,21416,105459.0,38201.0,105459.0,41803.0,453.1445307559284,497.7357244303714,647.1812771480068
105459,21462,105459.0,38267.0,105459.0,41889.0,492.32574639119593,512.2863232174943,680.2602481847007
105459,21532,105459.0,38350.0,105459.0,41967.0,531.2578418268731,526.8781327314946,713.3565789550871
105459,21565,105459.0,38334.0,105459.0,41975.0,569.9425566762047,541.517426840878,746.4810320483857
105459,21603,105459.0,38322.0,105459.0,42004.0,608.3819331146383,556.2110974015382,779.6435162987282
105470,21633,105470.0,38299.0,105470.0,42039.0,646.5781018476823,570.9663753203831,812.8526437717373
105470,21679,105470.0,38307.0,105470.0,42066.0,684.5328535577585,585.7898054237912,846.1149902939965
105470,21712,105470.0,38336.0,105470.0,42117.0,722.2471900560568,600.686211548792,879.4344397295972
105470,21757,105470.0,38327.0,105470.0,42161.0,759.720942120395,615.6580483153377,912.8117008588679
105470,21820,105470.0,38392.0,105470.0,42232.0,796.9524843608958,630.705076706409,946.2440594909704
105470,21873,105470.0,38427.0,105470.0,42294.0,833.9386564159486,645.824347199758,979.7254224694188
105480,21928,105480.0,38474.0,105480.0,42349.0,870.6749047107528,661.0105956991965,1013.24659296135
105480,21979,105480.0,38496.0,105480.0,42412.0,907.1554890655755,676.256841896811,1046.7955991519775
105480,22044,105480.0,38590.0,105480.0,42494.0,943.3736733621624,691.5549817927772,1080.3580220109438
105480,22087,105480.0,38605.0,105480.0,42554.0,979.3219409373266,706.8965344691076,1113.917454068241
105480,22127,105480.0,38589.0,105480.0,42569.0,1014.99217624319,722.2733814786905,1147.4559702749216
105480,22161,105480.0,38565.0,105480.0,42613.0,1050.3756572016764,737.6778110604855,1180.9541966273296
105490,22190,105490.0,38580.0,105490.0,42645.0,1085.4628119830008,753.101705553765,1214.3909042950954
105490,22225,105490.0,38594.0,105490.0,42702.0,1120.2428153836813,768.5355340327801,1247.742502262512
105490,22278,105490.0,38601.0,105490.0,42742.0,1154.703164768227,783.9676685159673,1280.9826983453158
105490,22328,105490.0,38660.0,105490.0,42818.0,1188.8294261717692,799.3840362187709,1314.0823637694966
105490,22383,105490.0,38700.0,105490.0,42871.0,1222.6052339566381,814.7681406187367,1347.0096183691999
105490,22434,105490.0,38744.0,105490.0,42945.0,1256.0124554589697,830.1015104823523,1379.7301272409723
105501,22464,105501.0,38711.0,105501.0,42967.0,1289.0313653394296,845.3642030027979,1412.2074459757455
105501,22506,105501.0,38769.0,105501.0,43045.0,1321.6406723851815,860.5348698852588,1444.403207147161
105501,22612,105501.0,38887.0,105501.0,43184.0,1353.8175086931442,875.5907432035062,1476.2773839965835
105501,22655,105501.0,38909.0,105501.0,43201.0,1385.5377907238153,890.5084058472869,1507.7891121842313
105501,22673,105501.0,38877.0,105501.0,43237.0,1416.7768659525618,905.2649890966261,1538.8976621147722
105501,22707,105501.0,38877.0,105501.0,43257.0,1447.5097821247195,919.8385069461481,1569.5626707052597
105511,22761,105511.0,38898.0,105511.0,43298.0,1477.711058497469,934.2071862617713,1599.7436663030999
105511,22784,105511.0,38919.0,105511.0,43369.0,1507.354437485641,948.3487304742146,1629.39955185683
105511,22833,105511.0,38953.0,105511.0,43402.0,1536.412777424372,962.2400214347308,1658.488434199246
105511,22890,105511.0,38986.0,105511.0,43462.0,1564.8580083873471,975.8571670763979,1686.967719841416
105511,22906,105511.0,38969.0,105511.0,43504.0,1592.6611944492133,989.1756487433315,1714.794235801316
105511,22991,105511.0,39054.0,105511.0,43602.0,1619.792668908106,1002.1703726665417,1741.924419355089
105522,23031,105522.0,39099.0,105522.0,43662.0,1646.2222778170453,1014.8158874435599,1768.3148290581794
105522,23081,105522.0,39158.0,105522.0,43742.0,1671.9198238585172,1027.0871487937256,1793.923000712085
105522,23152,105522.0,39197.0,105522.0,43779.0,1696.8555860725623,1038.9606077760393,1818.7083582690634
105522,23168,105522.0,39188.0,105522.0,43787.0,1721.0008192808932,1050.4151052011182,1842.6327924969619
105522,23184,105522.0,39151.0,105522.0,43826.0,1744.328078346804,1061.4321237296954,1865.6606577818225
105522,23211,105522.0,39159.0,105522.0,43863.0,1766.8111132203153,1071.995202045509,1887.758384614126
105532,23248,105532.0,39182.0,105532.0,43906.0,1788.4244975658785,1082.0889893118892,1908.8941723597986
105532,23265,105532.0,39124.0,105532.0,43894.0,1809.1433480106334,1091.6984949611858,1929.0378180601624
105532,23302,105532.0,39186.0,105532.0,43947.0,1828.9431611597429,1100.8084311235255,1948.160382797545
105532,23387,105532.0,39251.0,105532.0,44034.0,1847.799799552879,1109.40277771378,1966.2338625656976
105532,23404,105532.0,39288.0,105532.0,44090.0,1865.6898600915297,1117.4651636300653,1983.2314615920468
105532,23448,105532.0,39306.0,105532.0,44142.0,1882.591282039954,1124.9798439984104,1999.1284690259708
105542,23474,105542.0,39371.0,105542.0,44165.0,1898.4837724036347,1131.9325636638996,2013.9031104868623
105542,23543,105542.0,39445.0,105542.0,44261.0,1913.3490797581999,1138.3113863544602,2027.5371182596255
105542,23552,105542.0,39404.0,105542.0,44255.0,1927.1713903910759,1144.1077429338584,2040.0162758317965
105542,23559,105542.0,39376.0,105542.0,44261.0,1939.9376996199444,1149.3170454632477,2051.3308422525397
105542,23575,105542.0,39372.0,105542.0,44281.0,1951.6378026316997,1153.9382460672175,2061.4754338243706
105542,23583,105542.0,39293.0,105542.0,44245.0,1962.2639538416406,1157.9727030086733,2070.4484120251745
105553,23581,105553.0,39333.0,105553.0,44301.0,1971.8104480810998,1161.4228640035242,2078.251103672324
105553,23631,105553.0,39370.0,105553.0,44351.0,1980.2732331603574,1164.29123625708,2084.8872500514717
105553,23680,105553.0,39415.0,105553.0,44383.0,1987.6498089937127,1166.5802543234095,2090.363101869998
105553,23683,105553.0,39428.0,105553.0,44417.0,1993.9395955618988,1168.2929425049576,2094.687969695111
105553,23719,105553.0,39442.0,105553.0,44430.0,1999.1444196952025,1169.433653293669,2097.8747055371646
105553,23728,105553.0,39481.0,105553.0,44452.0,2003.2687888096916,1170.0085539087424,2099.9399371935165
105563,23761,105563.0,39559.0,105563.0,44516.0,2006.3200567743756,1170.0261825563502,2100.9042229111665
105563,23785,105563.0,39546.0,105563.0,44517.0,2008.3086477130128,1169.4984020476052,2100.7923990376107
105563,23777,105563.0,39514.0,105563.0,44516.0,2009.248317270361,1168.441274917549,2099.6339904820093
105563,23768,105563.0,39467.0,105563.0,44505.0,2009.156218283721,1166.8750339809899,2097.4632136869077
105563,23769,105563.0,39457.0,105563.0,44493.0,2008.052600430627,1164.823135668092,2094.3184821217615
105563,23777,105563.0,39438.0,105563.0,44497.0,2005.9603497280946,1162.3110916588498,2090.2417046215865
105573,23760,105573.0,39413.0,105573.0,44506.0,2002.904616158934,1159.3655212715216,2085.277658666732
105573,23785,105573.0,39439.0,105573.0,44524.0,1998.912520603316,1156.0134339175777,2079.473619400067
105573,23822,105573.0,39468.0,105573.0,44554.0,1994.0130313406485,1152.2818743418497,2072.879303658492
105573,23827,105573.0,39461.0,105573.0,44553.0,1988.2372257896536,1148.1980856089199,2065.5470586926776
105573,23819,105573.0,39489.0,105573.0,44563.0,1981.618732158152,1143.7899015960097,2057.5320774353727
105573,23815,105573.0,39501.0,105573.0,44557.0,1974.1938966872444,1139.0860928845914,2048.892434235225
105584,23826,105584.0,39563.0,105584.0,44589.0,1966.0016490977337,1134.1168351396773,2039.6889979650045
105584,23839,105584.0,39526.0,105584.0,44584.0,1957.0833989824814,1128.9144083215576,2029.9854310996598
105584,23803,105584.0,39505.0,105584.0,44559.0,1947.4830630785145,1123.5136845788593,2019.848222209656
105584,23773,105584.0,39461.0,105584.0,44514.0,1937.2468861499,1117.951877611009,2009.3463592420917
105584,23760,105584.0,39425.0,105584.0,44501.0,1926.4228193199524,1112.267623208916,1998.5504552700595
105584,23761,105584.0,39412.0,105584.0,44499.0,1915.0597660228113,1106.4998269076812,1987.531688765945
105594,23755,105594.0,39401.0,105594.0,44517.0,1903.2071028288055,1100.6866498846175,1976.3610701587813
105594,23764,105594.0,39448.0,105594.0,44481.0,1890.914512025277,1094.8649293474448,1965.109121434179
105594,23773,105594.0,39450.0,105594.0,44526.0,1878.2320150833589,1089.0702062289527,1953.8456851965211
105594,23754,105594.0,39436.0,105594.0,44504.0,1865.2101183890063,1083.3371242491687,1942.6397860443067
105594,23757,105594.0,39463.0,105594.0,44512.0,1851.8998976078633,1077.6997094554008,1931.5595986713938
105594,23769,105594.0,39500.0,105594.0,44540.0,1838.3529806034412,1072.1915594731556,1920.672431424778
105604,23756,105604.0,39472.0,105604.0,44531.0,1824.6216033235,1066.8462570646768,1910.0447797836086
105604,23729,105604.0,39459.0,105604.0,44500.0,1810.7586742535436,1061.6977053722208,1899.7423808048002
105604,23699,105604.0,39398.0,105604.0,44462.0,1796.8175401719695,1056.779857594249,1889.8298414113715
105604,23685,105604.0,39384.0,105604.0,44444.0,1782.8514110294518,1052.1258238148018,1880.369714963038
105604,23677,105604.0,39364.0,105604.0,44446.0,1768.9127296064155,1047.7667465032619,1871.421430803899
105604,23655,105604.0,39344.0,105604.0,44437.0,1755.0527048254485,1043.730832185052,1863.0404916697016
105615,23662,105615.0,39376.0,105615.0,44448.0,1741.3209867967644,1040.0426900717016,1855.2779977618748
105615,23655,105615.0,39406.0,105615.0,44454.0,1727.7654576653283,1036.7231244813634,1848.1803742840693
105615,23657,105615.0,39398.0,105615.0,44487.0,1714.432175111103,1033.7894429943763,1841.789288656175
105615,23645,105615.0,39427.0,105615.0,44472.0,1701.3653920816819,1031.2559174258204,1836.1417478162512
105615,23634,105615.0,39458.0,105615.0,44502.0,1688.6075136590466,1029.1341643241021,1831.2702042757319
105615,23665,105615.0,39510.0,105615.0,44561.0,1676.199013918255,1027.4337096360778,1827.2026879482464
105625,23641,105625.0,39478.0,105625.0,44522.0,1664.1784894973614,1026.1627877487338,1823.963163052718
105625,23626,105625.0,39436.0,105625.0,44501.0,1652.582765600585,1025.3287735494007,1821.5717226568888
105625,23596,105625.0,39425.0,105625.0,44519.0,1641.446707135115,1024.9377372605886,1820.0441182105083
105625,23587,105625.0,39402.0,105625.0,44508.0,1630.8026872520484,1024.9934537082875,1819.3910038881777
105625,23595,105625.0,39390.0,105625.0,44510.0,1620.680025850098,1025.4964486724803,1819.61736677352
105625,23573,105625.0,39402.0,105625.0,44539.0,1611.1046418759381,1026.4432542308614,1820.7220899390409
105635,23586,105635.0,39466.0,105635.0,44585.0,1602.0988638422098,1027.8260491557628,1822.6977433878576
105635,23586,105635.0,39496.0,105635.0,44610.0,1593.6812965465315,1029.6329941116921,1825.530817415868
105635,23596,105635.0,39502.0,105635.0,44651.0,1585.8668019627685,1031.8490777472057,1829.2022428119744
105635,23608,105635.0,39526.0,105635.0,44684.0,1578.66661192027,1034.4568487288918,1833.6879352503963
105635,23620,105635.0,39560.0,105635.0,44733.0,1572.0885255473727,1037.436839918988,1838.9593402052174
105635,23633,105635.0,39611.0,105635.0,44764.0,1566.1371688558754,1040.7680515475,1844.9840358279475
105646,23642,105646.0,39558.0,105646.0,44758.0,1560.8142716927314,1044.4285688810692,1851.7262530495873
105646,23598,105646.0,39545.0,105646.0,44767.0,1556.1188020362238,1048.3957322343458,1859.1469982567805
105646,23610,105646.0,39537.0,105646.0,44796.0,1552.046724856858,1052.6455261221465,1867.2037533956477
105646,23615,105646.0,39551.0,105646.0,44823.0,1548.5905070064487,1057.1517225561045,1875.8501595173564
105646,23630,105646.0,39568.0,105646.0,44852.0,1545.738809445545,1061.885374248137,1885.0359583525415
105646,23641,105646.0,39601.0,105646.0,44916.0,1543.47649455528,1066.8147456000377,1894.707171161479
105656,23665,105656.0,39611.0,105656.0,44936.0,1541.7847870082562,1071.9055448077522,1904.8065043475822
105656,23691,105656.0,39657.0,105656.0,44973.0,1540.6415441684235,1077.1213002575491,1915.2738560874755
105656,23688,105656.0,39683.0,105656.0,45025.0,1540.0216123427317,1082.4238398228003,1926.046731554245
105656,23723,105656.0,39723.0,105656.0,45076.0,1539.8971299638836,1087.773916734187,1937.0606880768303
105656,23755,105656.0,39813.0,105656.0,45135.0,1540.237806849178,1093.13205003359,1948.2500105798817
105656,23765,105656.0,39802.0,105656.0,45148.0,1541.0113504276808,1098.4596456292725,1959.5484959387918
105666,23757,105666.0,39756.0,105666.0,45158.0,1542.1838759930208,1103.71990947826,1970.8899739846997
105666,23758,105666.0,39760.0,105666.0,45172.0,1543.7199620419794,1108.877787149101,1982.208314336566
105666,23773,105666.0,39726.0,105666.0,45191.0,1545.582392272554,1113.899092855433,1993.4370831036185
105666,23787,105666.0,39761.0,105666.0,45255.0,1547.731917283049,1118.7495940711347,2004.5092644449678
105666,23811,105666.0,39740.0,105666.0,45257.0,1550.1272253887475,1123.3944191406556,2015.35731222803
105666,23836,105666.0,39803.0,105666.0,45302.0,1552.7251076408656,1127.7978193599436,2025.9133882523495
105677,23855,105677.0,39834.0,105677.0,45354.0,1555.4807536272178,1131.9233554681573,2036.1095929273079
105677,23886,105677.0,39850.0,105677.0,45404.0,1558.3481086222814,1135.7345097064313,2045.878370710152
105677,23924,105677.0,39885.0,105677.0,45442.0,1561.2802935345087,1139.19540284622,2055.153195709224
105677,23956,105677.0,39956.0,105677.0,45504.0,1564.2301660388864,1142.2714777238027,2063.8693433336193
105677,23978,105677.0,39983.0,105677.0,45531.0,1567.1509819084772,1144.9304418464537,2071.9646550203443
105677,23973,105677.0,39942.0,105677.0,45542.0,1569.9969293847014,1147.1432900655195,2079.3801969412107
105687,23987,105687.0,39893.0,105687.0,45522.0,1572.723329652462,1148.884570533555,2086.0604929260094
105687,23980,105687.0,39888.0,105687.0,45546.0,1575.2865312107397,1150.1315812075175,2091.9531898272144
105687,24000,105687.0,39893.0,105687.0,45588.0,1577.6436857700794,1150.8632222221486,2097.008563895486
105687,24014,105687.0,39866.0,105687.0,45584.0,1579.752581134851,1151.0592131841881,2101.1793575852057
105687,24031,105687.0,39932.0,105687.0,45624.0,1581.5716356713797,1150.699718582266,2104.4208735285783
105687,24053,105687.0,39952.0,105687.0,45673.0,1583.0600395413185,1149.765432568584,2106.691149124373
105697,24085,105697.0,39958.0,105697.0,45689.0,1584.1780096435714,1148.23817232303,2107.951366990077
105697,24091,105697.0,39973.0,105697.0,45696.0,1584.8871575601092,1146.1015252828536,2108.16638525761
105697,24118,105697.0,40007.0,105697.0,45756.0,1585.1508706047252,1143.3412735694935,2107.3050975504357
105697,24145,105697.0,40058.0,105697.0,45782.0,1584.9346525732608,1139.9459300489596,2105.3408301944005
105697,24149,105697.0,40029.0,105697.0,45777.0,1584.206498230411,1135.9075463504682,2102.251941585643
105697,24141,105697.0,39998.0,105697.0,45749.0,1582.9371913418238,1131.2222690637743,2098.022159120224
105708,24123,105708.0,39923.0,105708.0,45738.0,1581.1002662269207,1125.8900170159468,2092.640257737108
105708,24161,105708.0,39920.0,105708.0,45734.0,1578.6716884204475,1119.9133323743238,2086.099329524439
105708,24140,105708.0,39948.0,105708.0,45727.0,1575.6296236202475,1113.2961867467354,2078.396100099667
105708,24136,105708.0,39901.0,105708.0,45737.0,1571.9543584393227,1106.0434221806383,2069.5304700859924
105708,24140,105708.0,39915.0,105708.0,45747.0,1567.6281126139502,1098.160600287085,2059.5052878717743
105708,24189,105708.0,39938.0,105708.0,45760.0,1562.6348708035894,1089.6538707843383,2048.3263637798377
105718,24170,105718.0,39952.0,105718.0,45747.0,1556.9605785916574,1080.5301122463218,2036.0026263946536
105718,24172,105718.0,39951.0,105718.0,45769.0,1550.5934988095128,1070.7974419922286,2022.5462488431524
105718,24200,105718.0,39996.0,105718.0,45794.0,1543.5243684145858,1060.465805496851,2007.9728115219068
105718,24205,105718.0,40007.0,105718.0,45775.0,1535.7465384342954,1049.547653143957,1992.3016587239463
105718,24198,105718.0,39961.0,105718.0,45760.0,1527.2562753600118,1038.0586655394186,1975.5562118829007
105718,24174,105718.0,39890.0,105718.0,45697.0,1518.0529287414454,1026.017915810438,1957.7638158501363
105728,24163,105728.0,39847.0,105728.0,45673.0,1508.1387323742983,1013.447031260706,1938.955010193698
105728,24152,105728.0,39856.0,105728.0,45675.0,1497.5183848125214,1000.3688718449937,1919.1625646285336
105728,24132,105728.0,39813.0,105728.0,45650.0,1486.1986317474764,986.8065646210421,1898.4207976972841
105728,24146,105728.0,39813.0,105728.0,45650.0,1474.1879391518155,972.7830290418508,1876.7652950269287
105728,24146,105728.0,39859.0,105728.0,45644.0,1461.4963541129723,958.3208061661054,1854.2328115429916
105728,24147,105728.0,39841.0,105728.0,45645.0,1448.1356178430601,943.4423529432246,1830.861307921853
105739,24134,105739.0,39821.0,105739.0,45633.0,1434.119368641787,928.1706308467186,1806.690122114901
105739,24123,105739.0,39835.0,105739.0,45633.0,1419.4632259875477,912.5294437425125,1781.7601755511885
105739,24143,105739.0,39858.0,105739.0,45637.0,1404.184785669151,896.5436335226152,1756.1141985758868
105739,24107,105739.0,39857.0,105739.0,45602.0,1388.3036873486685,880.2395799679464,1729.7969899856234
105739,24092,105739.0,39777.0,105739.0,45562.0,1371.8416568465473,863.6457389220926,1702.8554947602931
105739,24065,105739.0,39732.0,105739.0,45522.0,1354.8222897862363,846.7924731894155,1675.3384476002543
105749,24036,105749.0,39704.0,105749.0,45468.0,1337.2706183956768,829.711076076766,1647.2956414656028
105749,24026,105749.0,39649.0,105749.0,45477.0,1319.2126306993978,812.4326240769349,1618.7771109642335
105749,24002,105749.0,39640.0,105749.0,45432.0,1300.6748546252013,794.9870422021851,1589.8325548057078
105749,24016,105749.0,39707.0,105749.0,45439.0,1281.6841134465255,777.4025833458526,1560.5110948710255
105749,23992,105749.0,39663.0,105749.0,45427.0,1262.2675083684092,759.7060789061225,1530.8612589888742
105749,23976,105749.0,39675.0,105749.0,45389.0,1242.4525120370372,741.9236501255876,1500.9310927371346
105760,23973,105760.0,39648.0,105760.0,45390.0,1222.2669859123578,724.081158826613,1470.7682327521434
105760,23965,105760.0,39680.0,105760.0,45382.0,1201.7391732293224,706.204400735931,1440.4199237984278
105760,23965,105760.0,39665.0,105760.0,45359.0,1180.8978265174483,688.3194392262409,1409.933166259832
105760,23936,105760.0,39637.0,105760.0,45323.0,1159.7724141210338,670.4530482775028,1379.3548771677888
105760,23902,105760.0,39563.0,105760.0,45276.0,1138.393176106344,652.6327862115832,1348.7317536147646
105760,23868,105760.0,39524.0,105760.0,45227.0,1116.7908525372177,634.8863492302863,1318.1097500156313
105770,23854,105770.0,39490.0,105770.0,45191.0,1094.9961823047786,617.2404588601369,1287.533299252856
105770,23818,105770.0,39468.0,105770.0,45159.0,1073.0394285330185,599.7198389423849,1257.0445089550958
105770,23811,105770.0,39490.0,105770.0,45169.0,1050.9500246854673,582.3466273713764,1226.6825945632693
105770,23796,105770.0,39500.0,105770.0,45146.0,1028.7563403973413,565.1403735665696,1196.4837340096817
105770,23795,105770.0,39464.0,105770.0,45138.0,1006.4856308411759,548.1184833484651,1166.4812516743611
105770,23767,105770.0,39453.0,105770.0,45102.0,984.1641423984063,531.296572271392,1136.7058106978461
105780,23763,105780.0,39476.0,105780.0,45110.0,961.8172159024823,514.688518401186,1107.1854628126557
105780,23768,105780.0,39529.0,105780.0,45151.0,939.4693744581099,498.30675233478667,1077.9458299218545
105780,23742,105780.0,39476.0,105780.0,45086.0,917.1445245301925,482.16309160907105,1049.0106694748868
105780,23721,105780.0,39423.0,105780.0,45058.0,894.8661662945542,466.26940066681334,1020.402349253432
105780,23676,105780.0,39405.0,105780.0,45009.0,872.6573412950963,450.6373393566174,992.1416398674655
105780,23658,105780.0,39356.0,105780.0,44969.0,850.5402680766656,435.2775274254788,964.2470043483027
105791,23629,105791.0,39323.0,105791.0,44942.0,828.5358593271749,420.1986932985658,936.733807129836
105791,23624,105791.0,39301.0,105791.0,44952.0,806.6633403992446,405.4068735970768,909.6137069360803
105791,23610,105791.0,39320.0,105791.0,44926.0,784.9400778184529,390.9047906158547,882.8944536692966
105791,23607,105791.0,39345.0,105791.0,44939.0,763.3816110854646,376.6917657694802,856.5800342822738
105791,23588,105791.0,39331.0,105791.0,44933.0,742.001800188022,362.7642134396283,830.6709731041851
105791,23572,105791.0,39338.0,105791.0,44927.0,720.8129547507984,349.1162801399539,805.1647237489636
105801,23580,105801.0,39384.0,105801.0,44942.0,699.8259079436153,335.7403822105762,780.0561040121968
105801,23569,105801.0,39387.0,105801.0,44939.0,679.0501703342385,322.6279154213406,755.3377778768514
105801,23539,105801.0,39346.0,105801.0,44892.0,658.4941694015546,309.77008409972916,731.0007078853265
105801,23505,105801.0,39315.0,105801.0,44878.0,638.1652910766575,297.1582226990073,707.034258360387
105801,23506,105801.0,39283.0,105801.0,44830.0,618.0696178036047,284.7833854531617,683.4258485786889
105801,23474,105801.0,39271.0,105801.0,44853.0,598.2116360826072,272.63563950037087,660.1604719423889
105811,23457,105811.0,39227.0,105811.0,44814.0,578.5940549605116,260.7034280645429,637.2204195198641
105811,23455,105811.0,39238.0,105811.0,44823.0,559.2176442572845,248.97303438064978,614.5852428467965
105811,23459,105811.0,39272.0,105811.0,44814.0,540.0811855314931,237.42830256992534,592.231812876227
105811,23448,105811.0,39271.0,105811.0,44831.0,521.1816713464019,226.05091744365689,570.134502044385
105811,23434,105811.0,39296.0,105811.0,44850.0,502.51459502174134,214.8211081641589,548.2656176892212
105811,23444,105811.0,39293.0,105811.0,44848.0,484.07415489929963,203.71837362556778,526.5960694286582
105822,23442,105822.0,39358.0,105822.0,44880.0,465.853476471351,192.72219375463533,505.09612769890714
105822,23424,105822.0,39333.0,105822.0,44836.0,447.84493552568335,181.8129054675652,483.7361124837364
105822,23408,105822.0,39282.0,105822.0,44828.0,430.0403922939454,170.97244644698583,462.4867824815958
105822,23381,105822.0,39244.0,105822.0,44780.0,412.43117090031126,160.18431370555663,441.3192415054509
105822,23367,105822.0,39211.0,105822.0,44776.0,395.0078410355196,149.43272942504404,420.2044986495662
105822,23359,105822.0,39191.0,105822.0,44754.0,377.75996201080625,138.70163791728544,399.11299886071424
105832,23342,105832.0,39183.0,105832.0,44773.0,360.67592508679206,127.97394504420356,378.0143737732583
105832,23346,105832.0,39231.0,105832.0,44778.0,343.7429166761722,117.23119287863722,356.87755340182207
105832,23366,105832.0,39247.0,105832.0,44786.0,326.94704529176613,106.4538846756468,335.67121336233527
105832,23348,105832.0,39231.0,105832.0,44774.0,310.2737115748197,95.62229075334778,314.3643339863431
105832,23329,105832.0,39251.0,105832.0,44775.0,293.708011379348,84.71715914435129,292.9266335342245
105832,23343,105832.0,39269.0,105832.0,44811.0,277.23490524749025,73.72018188897653,271.3289351892156
105842,23355,105842.0,39301.0,105842.0,44799.0,260.83936117066287,62.61458994554539,249.54372783816257
105842,23329,105842.0,39252.0,105842.0,44759.0,244.50671801041904,51.385903607013574,227.5457778888847
105842,23287,105842.0,39172.0,105842.0,44732.0,228.22294828826102,40.022195415251076,205.3122749342665
105842,23273,105842.0,39137.0,105842.0,44714.0,211.97443630866087,28.5133236828666,182.82245136371694
105842,23267,105842.0,39151.0,105842.0,44688.0,195.7474926539694,16.849630802994966,160.05710164180527
105842,23250,105842.0,39109.0,105842.0,44655.0,179.52804464089945,5.021061882332901,136.9981901357212
105853,23263,105853.0,39151.0,105853.0,44668.0,163.30159020334986,-6.983097654667745,113.62850764285099
105853,23258,105853.0,39170.0,105853.0,44674.0,147.0533468493079,-19.174037177426158,89.93156540969562
105853,23258,105853.0,39165.0,105853.0,44672.0,130.76855770592806,-31.56279845326833,65.89191337867987
105853,23252,105853.0,39175.0,105853.0,44675.0,114.43282965412754,-44.1595229965601,41.49568891342983
105853,23246,105853.0,39175.0,105853.0,44666.0,98.03240081337071,-56.97289868326277,16.73113340938812
105853,23272,105853.0,39214.0,105853.0,44672.0,81.55440664152957,-70.00965960681583,-8.410963246528581
105863,23237,105863.0,39199.0,105863.0,44647.0,64.98724627350043,-83.27392034437105,-33.936867736047134
105863,23213,105863.0,39132.0,105863.0,44614.0,48.320857254600696,-96.76662167521022,-59.8496668802843
105863,23190,105863.0,39086.0,105863.0,44552.0,31.546603576443204,-110.4857068825703,-86.14942022729224
105863,23174,105863.0,39062.0,105863.0,44543.0,14.65689471493124,-124.42706503411296,-112.83374405459995
105863,23152,105863.0,39031.0,105863.0,44512.0,-2.355168585979527,-138.5855775196634,-139.8984766776182
105863,23144,105863.0,38996.0,105863.0,44522.0,-19.496048682659648,-152.9558895320838,-167.33803253479732
105873,23154,105873.0,39035.0,105873.0,44487.0,-36.77188485360489,-167.53292081212544,-195.14539863631398
105873,23148,105873.0,39037.0,105873.0,44492.0,-54.1883530390005,-182.31190535958387,-223.31197390669854
105873,23132,105873.0,39039.0,105873.0,44469.0,-71.7503502287168,-197.28787123347536,-251.8273872422451
105873,23123,105873.0,39037.0,105873.0,44459.0,-89.46176033322149,-212.45497951253947,-280.6792986147086
105873,23131,105873.0,39083.0,105873.0,44459.0,-107.32533781211032,-227.80594114981682,-309.8531693975947
105873,23126,105873.0,39061.0,105873.0,44440.0,-125.34250252143988,-243.3312994328461,-339.3319658942994
105884,23103,105884.0,39018.0,105884.0,44396.0,-143.51302748344938,-259.0187482901764,-369.09588558964947
105884,23049,105884.0,38954.0,105884.0,44340.0,-161.83493523831635,-274.853101969191,-399.1224223812226
105884,23040,105884.0,38914.0,105884.0,44303.0,-180.30483753929911,-290.8170885009415,-429.3869171403046
105884,23012,105884.0,38894.0,105884.0,44293.0,-198.91849179786277,-306.89246555439047,-459.86327660347433
105884,22995,105884.0,38851.0,105884.0,44255.0,-217.67122428159337,-323.06093710771347,-490.52443843069614
105884,22997,105884.0,38886.0,105884.0,44230.0,-236.5581493685636,-339.3046994996007,-521.3425711276709
105894,22996,105894.0,38880.0,105894.0,44227.0,-255.57416477168067,-355.60650411877145,-552.2891999365172
105894,22983,105894.0,38869.0,105894.0,44210.0,-274.7137087281592,-371.9492575458795,-583.335190790634
105894,22969,105894.0,38853.0,105894.0,44181.0,-293.97047157779775,-388.3155826688886,-614.4505507610929
105894,22950,105894.0,38858.0,105894.0,44178.0,-313.3372521456547,-404.6876104867031,-645.6042341481827
105894,22957,105894.0,38885.0,105894.0,44165.0,-332.8059125933362,-421.04674008759014,-676.7639693610424
105894,22942,105894.0,38864.0,105894.0,44134.0,-352.3672559132883,-437.3731124000535,-707.8960104582884
105904,22899,105904.0,38823.0,105904.0,44084.0,-372.0108607373061,-453.64508569457905,-738.9650066531135
105904,22868,105904.0,38774.0,105904.0,44034.0,-391.7251813651874,-469.8392517947526,-769.934272174937
105904,22850,105904.0,38727.0,105904.0,44000.0,-411.49798620552633,-485.9311009561653,-800.7664212038114
105904,22826,105904.0,38701.0,105904.0,43951.0,-431.31682537122947,-501.8959860613834,-831.4240958578014
105904,22814,105904.0,38652.0,105904.0,43955.0,-451.16932140333984,-517.7100469285772,-861.8705557085468
105904,22812,105904.0,38695.0,105904.0,43932.0,-471.0432835240463,-533.3508830297433,-892.0699499182399
105915,22813,105915.0,38697.0,105915.0,43928.0,-490.92660939385655,-548.7976738500843,-921.9872205690344
105915,22786,105915.0,38693.0,105915.0,43890.0,-510.8070111983991,-564.0306747602242,-951.5878569098552
105915,22786,105915.0,38684.0,105915.0,43876.0,-530.6717708577867,-579.0305767977422,-980.8377647434806
105915,22782,105915.0,38727.0,105915.0,43883.0,-550.5075794029347,-593.7780264699102,-1009.7032217200554
105915,22772,105915.0,38713.0,105915.0,43851.0,-570.3003132053154,-608.2530390834322,-1038.1506970367254
105915,22733,105915.0,38642.0,105915.0,43787.0,-590.0348041609755,-622.4344175424803,-1066.1466823469127
105925,22703,105925.0,38595.0,105925.0,43762.0,-609.6948774921661,-636.2998734270109,-1093.6579700662169
105925,22661,105925.0,38552.0,105925.0,43731.0,-629.2637507499865,-649.8270028149609,-1120.6523032566106
105925,22653,105925.0,38554.0,105925.0,43691.0,-648.7246002620602,-662.9944335439607,-1147.0989711543007
105925,22650,105925.0,38501.0,105925.0,43652.0,-668.0609758169071,-675.782602268338,-1172.9693129278912
105925,22612,105925.0,38520.0,105925.0,43644.0,-687.2569143711521,-688.1742146084293,-1198.2372460057595
105925,22623,105925.0,38514.0,105925.0,43651.0,-706.2969293750393,-700.1544800864206,-1222.8796033580734
105935,22591,105935.0,38498.0,105935.0,43631.0,-725.1660097998486,-711.7110616948082,-1246.8760559429943
105935,22582,105935.0,38510.0,105935.0,43629.0,-743.8496030628935,-722.8338943802305,-1270.208801180007
105935,22586,105935.0,38547.0,105935.0,43622.0,-762.3335863859877,-733.5149173675031,-1292.8622791728412
105935,22577,105935.0,38570.0,105935.0,43654.0,-780.6041339708158,-743.7474373370262,-1314.822840364152
105935,22570,105935.0,38533.0,105935.0,43601.0,-798.6474339077217,-753.5252299842482,-1336.0782598998176
105935,22539,105935.0,38478.0,105935.0,43565.0,-816.4494495476756,-762.8420884897021,-1356.617457350093
105946,22491,105946.0,38455.0,105946.0,43531.0,-833.9959706587131,-771.692258253202,-1376.4308228820923
105946,22469,105946.0,38417.0,105946.0,43520.0,-851.2730580313978,-780.0713897731459,-1395.5109053708497
105946,22446,105946.0,38395.0,105946.0,43500.0,-868.2676836652788,-787.9774735615238,-1413.852964918984
105946,22438,105946.0,38395.0,105946.0,43479.0,-884.9682269970826,-795.411575087893,-1431.4552928806957
105946,22441,105946.0,38442.0,105946.0,43502.0,-901.3646717612373,-802.3781735072646,-1448.3193926300223
105946,22437,105946.0,38433.0,105946.0,43496.0,-917.448509928693,-808.8848815254553,-1464.4499239889224
105956,22420,105956.0,38462.0,105956.0,43491.0,-933.2124845924802,-814.9417749405993,-1479.8543950788521
105956,22413,105956.0,38463.0,105956.0,43489.0,-948.6503926650835,-820.5607404141849,-1494.542860484773
105956,22427,105956.0,38532.0,105956.0,43520.0,-963.7569658407676,-825.754822943253,-1508.5276841816585
105956,22404,105956.0,38527.0,105956.0,43535.0,-978.5276640837199,-830.5373318394352,-1521.8231038210993
105956,22395,105956.0,38478.0,105956.0,43498.0,-992.9584405048695,-834.9209719365081,-1534.4446243171606
105956,22373,105956.0,38450.0,105956.0,43482.0,-1007.0456882449027,-838.9177058825499,-1546.4087320408853
105966,22346,105966.0,38427.0,105966.0,43467.0,-1020.7863998525374,-842.5394442459783,-1557.7331517338494
105966,22352,105966.0,38402.0,105966.0,43447.0,-1034.1784299935473,-845.7989619975099,-1568.4373238344665
105966,22331,105966.0,38425.0,105966.0,43458.0,-1047.2206936179537,-848.7106038482316,-1578.542802127531
105966,22324,105966.0,38447.0,105966.0,43477.0,-1059.913230846872,-851.2905554117654,-1588.0734132326802
105966,22323,105966.0,38454.0,105966.0,43502.0,-1072.2572276574538,-853.556586631647,-1597.0550193825397
105966,22327,105966.0,38465.0,105966.0,43503.0,-1084.2549701048313,-855.5275462255231,-1605.5149606236578
105977,22325,105977.0,38490.0,105977.0,43511.0,-1095.909649072674,-857.2228979925183,-1613.4814933334978
105977,22327,105977.0,38502.0,105977.0,43540.0,-1107.2250782175277,-858.662253859746,-1620.9833719074813
105977,22330,105977.0,38558.0,105977.0,43580.0,-1118.2054079810714,-859.8647593626008,-1628.0493501003857
105977,22331,105977.0,38526.0,105977.0,43565.0,-1128.854835552485,-860.8483450999211,-1634.7074553924663
105977,22300,105977.0,38502.0,105977.0,43556.0,-1139.177373387008,-861.6292240123987,-1640.9843916322307
105977,22282,105977.0,38475.0,105977.0,43548.0,-1149.1768684012707,-862.2220750795977,-1646.9054393955898
105987,22277,105987.0,38454.0,105987.0,43531.0,-1158.8573020716144,-862.6407712479843,-1652.4947277282122
105987,22267,105987.0,38474.0,105987.0,43548.0,-1168.2231102489693,-862.8991310115198,-1657.7755708682275
105987,22269,105987.0,38472.0,105987.0,43543.0,-1177.2793303052715,-863.0113228455955,-1662.7706728628955
105987,22273,105987.0,38529.0,105987.0,43586.0,-1186.0315855844783,-862.9917925232069,-1667.5020799218046
105987,22277,105987.0,38537.0,105987.0,43602.0,-1194.4859312805056,-862.8547391638795,-1671.9908170364247
105987,22281,105987.0,38538.0,105987.0,43615.0,-1202.648597989677,-862.6133844240026,-1676.2562830345887
105998,22287,105998.0,38565.0,105998.0,43649.0,-1210.5256995284988,-862.2794107892582,-1680.3156179101438
105998,22301,105998.0,38591.0,105998.0,43678.0,-1218.1229129150543,-861.8625564076076,-1684.1830741883177
105998,22315,105998.0,38621.0,105998.0,43694.0,-1225.4450777052998,-861.3700524169906,-1687.86928452459
105998,22292,105998.0,38637.0,105998.0,43681.0,-1232.4957650998865,-860.8058741292045,-1691.3805950772899
105998,22275,105998.0,38558.0,105998.0,43654.0,-1239.2770736823065,-860.1702065408933,-1694.718822514575
105998,22255,105998.0,38530.0,105998.0,43657.0,-1245.7898236911449,-859.4597169963181,-1697.881535638233
106007,22256,106007.0,38529.0,106007.0,43647.0,-1252.0339676221151,-858.6686208249394,-1700.862555980163
106007,22252,106007.0,38499.0,106007.0,43644.0,-1258.0089115475455,-857.7897669896258,-1703.6523617429325
106007,22263,106007.0,38546.0,106007.0,43680.0,-1263.713611561645,-856.8152562018859,-1706.2383042096822
106007,22282,106007.0,38553.0,106007.0,43680.0,-1269.1464372743294,-855.7365492276242,-1708.6045458599501
106007,22291,106007.0,38586.0,106007.0,43699.0,-1274.304814531734,-854.5440939684224,-1710.7317529793704
106007,22302,106007.0,38596.0,106007.0,43703.0,-1279.184744559648,-853.2267124211253,-1712.5967780288238
106017,22288,106017.0,38608.0,106017.0,43713.0,-1283.780391872495,-851.7710250815239,-1714.1724396585405
106017,22337,106017.0,38654.0,106017.0,43740.0,-1288.0837957238668,-850.1609435182149,-1715.4273282649428
106017,22308,106017.0,38639.0,106017.0,43735.0,-1292.0845454191856,-848.3771243010735,-1716.3255570233073
106017,22299,106017.0,38586.0,106017.0,43711.0,-1295.769488559138,-846.3966155154023,-1716.82659500308
106017,22277,106017.0,38566.0,106017.0,43678.0,-1299.122800395107,-844.1932105137605,-1716.8855214870214
106017,22266,106017.0,38533.0,106017.0,43677.0,-1302.1264066260037,-841.7384529780998,-1716.4537554162061
106028,22264,106028.0,38514.0,106028.0,43650.0,-1304.7604626571483,-839.0027558187483,-1715.4799193954068
106028,22254,106028.0,38484.0,106028.0,43639.0,-1307.00371788313,-835.956404110211,-1713.91061923166
106028,22272,106028.0,38560.0,106028.0,43667.0,-1308.8337271803398,-832.5703094401754,-1711.691106251627
106028,22285,106028.0,38546.0,106028.0,43688.0,-1310.2268597004165,-828.8161442593239,-1708.76560757674
106028,22287,106028.0,38579.0,106028.0,43668.0,-1311.1580895007735,-824.6658935969924,-1705.0772654100028
106028,22273,106028.0,38581.0,106028.0,43686.0,-1311.6007711501693,-820.0913573002324,-1700.5680898551032
106038,22304,106038.0,38608.0,106038.0,43709.0,-1311.5265852793318,-815.0638081041493,-1695.1790930507227
106038,22305,106038.0,38643.0,106038.0,43713.0,-1310.9054889955517,-809.5536222940625,-1688.8503312687367
106038,22291,106038.0,38604.0,106038.0,43695.0,-1309.705560774258,-803.5298616334655,-1681.5208872380626
106038,22281,106038.0,38536.0,106038.0,43648.0,-1307.8930079305055,-796.9602911878237,-1673.1292317522928
106038,22263,106038.0,38551.0,106038.0,43658.0,-1305.4325097174633,-789.8122630690948,-1663.6141466339366
106038,22250,106038.0,38521.0,106038.0,43647.0,-1302.2877676221826,-782.0539713221401,-1652.9158305731773
106048,22248,106048.0,38515.0,106048.0,43642.0,-1298.422108166922,-773.6554172370409,-1640.976785061254
106048,22262,106048.0,38527.0,106048.0,43650.0,-1293.798981531349,-764.5890962188466,-1627.7425147163735
106048,22268,106048.0,38556.0,106048.0,43688.0,-1288.3822114668085,-754.8304294342164,-1613.1620822991745
106048,22269,106048.0,38576.0,106048.0,43716.0,-1282.136050296908,-744.3577751731915,-1597.1883177994266
106048,22276,106048.0,38588.0,106048.0,43720.0,-1275.0252324250548,-733.1521502372491,-1579.777717639082
106048,22288,106048.0,38616.0,106048.0,43725.0,-1267.015088214986,-721.1969413284946,-1560.8904321625805
106059,22318,106059.0,38679.0,106059.0,43807.0,-1258.0715918892572,-708.4775746781205,-1540.490446028211
106059,22310,106059.0,38679.0,106059.0,43812.0,-1248.1612696887335,-694.9809420855687,-1518.5455399484322
