c_ts,c_val,d_ts,d_val,e_ts,e_val,c_val_filtered,d_val_filtered,e_val_filtered
531,9621,531.0,42550.0,531.0,63888.0,148.3340391874276,69.89294795545806,85.31299956660091
531,9637,531.0,42538.0,531.0,63926.0,145.49490629370493,66.26975208843567,82.39201468224891
531,9615,531.0,42501.0,531.0,63863.0,142.5638508975873,62.64809600022901,79.41776093449906
531,9589,531.0,42477.0,531.0,63855.0,139.54463104465458,59.04103012240916,76.39505768152301
531,9597,531.0,42482.0,531.0,63847.0,136.44108646589407,55.46028937935761,73.32848721186326
531,9602,531.0,42516.0,531.0,63868.0,133.25687045252357,51.915916270418485,70.22195267824401
541,9612,541.0,42512.0,541.0,63886.0,129.99547380180235,48.416447714640974,67.07870692326304
541,9608,541.0,42518.0,541.0,63892.0,126.6604941686443,44.969426532319886,63.90179742918656
541,9578,541.0,42511.0,541.0,63837.0,123.25584714896272,41.58179813426511,60.69449015876556
541,9572,541.0,42466.0,541.0,63827.0,119.78568220016089,38.25999586820194,57.46018042059548
541,9558,541.0,42449.0,541.0,63828.0,116.25405993581484,35.00961968122104,54.201847317705464
541,9566,541.0,42462.0,541.0,63884.0,112.66466386402828,31.834853601216864,50.921737712774586
552,9589,552.0,42527.0,552.0,63851.0,109.0207670250256,28.73823504661617,47.62169042951197
552,9555,552.0,42515.0,552.0,63850.0,105.32545745530153,25.721200809739656,44.3036533730352
552,9548,552.0,42497.0,552.0,63843.0,101.58180262229298,22.78492595702697,40.9698349582051
552,9544,552.0,42441.0,552.0,63797.0,97.79271392861551,19.93058134533436,37.622507993034176
552,9541,552.0,42417.0,552.0,63798.0,93.96073581843979,17.158754724831823,34.263599512270304
552,9557,552.0,42505.0,552.0,63845.0,90.0880224752723,14.46868905539344,30.894297195566082
562,9553,562.0,42542.0,562.0,63854.0,86.17652024111166,11.85839035480906,27.515194428804094
562,9534,562.0,42504.0,562.0,63839.0,82.22820390519529,9.325710333335792,24.126939563896883
562,9531,562.0,42455.0,562.0,63783.0,78.24513811563978,6.869149164905693,20.730614268203354
562,9513,562.0,42447.0,562.0,63789.0,74.22933349218903,4.487552780007306,17.327399768170338
562,9527,562.0,42460.0,562.0,63809.0,70.1825795074128,2.1793381517401116,13.918004503269415
562,9533,562.0,42496.0,562.0,63840.0,66.10643822968382,-0.05781032949479936,10.502599906984457
572,9539,572.0,42511.0,572.0,63823.0,62.00247374568204,-2.2265385881799773,7.081337145354695
572,9512,572.0,42463.0,572.0,63790.0,57.872547215707016,-4.329188181116564,3.6548154265094865
572,9496,572.0,42425.0,572.0,63777.0,53.718867878438516,-6.367679919734002,0.2239959420248283
572,9484,572.0,42412.0,572.0,63752.0,49.543725065590536,-8.344156544522605,-3.210307037928686
572,9487,572.0,42467.0,572.0,63788.0,45.34915007344165,-10.261718581395229,-6.647892487852019
572,9497,572.0,42499.0,572.0,63827.0,41.136785068545606,-12.124401320384749,-10.089155220785713
583,9496,583.0,42484.0,583.0,63775.0,36.90802372109198,-13.936386746124555,-13.534544286529552
583,9476,583.0,42454.0,583.0,63761.0,32.66423935207729,-15.701306329620735,-16.98417511155573
583,9460,583.0,42414.0,583.0,63751.0,28.406821273025628,-17.422306427210884,-20.438083085818874
583,9451,583.0,42443.0,583.0,63754.0,24.136952489626054,-19.1026657038164,-23.896687540591486
583,9477,583.0,42462.0,583.0,63804.0,19.85538776046107,-20.74621367534907,-27.36088328311125
583,9478,583.0,42484.0,583.0,63771.0,15.562543625139256,-22.35709897214062,-30.831652417488968
593,9464,593.0,42464.0,593.0,63771.0,11.258845734445345,-23.939202664658325,-34.30959712326322
593,9444,593.0,42419.0,593.0,63744.0,6.944936816230324,-25.495848159850823,-37.79486084383943
593,9444,593.0,42409.0,593.0,63728.0,2.6215631251441778,-27.030149553636505,-41.28742167777257
593,9433,593.0,42451.0,593.0,63741.0,-1.7106441078549324,-28.54560977607592,-44.78746655096215
593,9442,593.0,42488.0,593.0,63769.0,-6.051271664615598,-30.046171080276622,-48.295518325593164
593,9455,593.0,42493.0,593.0,63780.0,-10.400040958082258,-31.535507296338665,-51.8120891835365
604,9422,604.0,42453.0,604.0,63760.0,-14.756590912149647,-33.01623567549932,-55.33709502355586
604,9415,604.0,42397.0,604.0,63713.0,-19.12039222215867,-34.48984960550348,-58.86960155026763
604,9411,604.0,42387.0,604.0,63702.0,-23.490930622348372,-35.95750365497145,-62.40819954694044
604,9399,604.0,42439.0,604.0,63727.0,-27.867930497356582,-37.42092437689253,-65.95162890103367
604,9431,604.0,42463.0,604.0,63747.0,-32.25140029221569,-38.88253817711772,-69.49896538335912
604,9423,604.0,42469.0,604.0,63748.0,-36.64142282972739,-40.34476964526907,-73.0492123706583
614,9404,614.0,42443.0,614.0,63733.0,-41.03781600933294,-41.809295478584104,-76.60077514287818
614,9390,614.0,42417.0,614.0,63687.0,-45.440018039743734,-43.27687723354546,-80.15132574646589
614,9374,614.0,42406.0,614.0,63679.0,-49.84730447078252,-44.74775464105289,-83.69820013748514
614,9382,614.0,42433.0,614.0,63692.0,-54.25908205385389,-46.22213602677739,-87.23898971575102
614,9395,614.0,42462.0,614.0,63714.0,-58.67498422749708,-47.700259658857746,-90.77176676197942
614,9383,614.0,42464.0,614.0,63680.0,-63.09469134636396,-49.18191066475576,-94.29485076250688
624,9366,624.0,42413.0,624.0,63686.0,-67.5177124430067,-50.66590146765188,-97.80659125901911
624,9352,624.0,42377.0,624.0,63660.0,-71.943415903682,-52.15018560422952,-101.30545667155516
624,9344,624.0,42374.0,624.0,63643.0,-76.37127669565947,-53.632641387816406,-104.79031379654569
624,9359,624.0,42417.0,624.0,63704.0,-80.80108315352155,-55.111796937846265,-108.26065518131935
624,9351,624.0,42439.0,624.0,63697.0,-85.232917158818,-56.58681059814151,-111.71640204759098
624,9340,624.0,42408.0,624.0,63661.0,-89.66699271711818,-58.056872735987085,-115.1573617086421
635,9328,635.0,42376.0,635.0,63649.0,-94.10360184929701,-59.52085463090049,-118.58304778855842
635,9311,635.0,42354.0,635.0,63629.0,-98.54325481161149,-60.977665889792064,-121.99306764747823
635,9313,635.0,42399.0,635.0,63641.0,-102.98690535422404,-62.42687925274652,-125.38759133435664
635,9332,635.0,42426.0,635.0,63651.0,-107.43606267638563,-63.86884368949623,-128.7675276879774
635,9335,635.0,42422.0,635.0,63679.0,-111.89260993740018,-65.304113784493,-132.1343084171215
635,9331,635.0,42413.0,635.0,63676.0,-116.35841629795999,-66.73279644902156,-135.48937120151007
645,9301,645.0,42380.0,645.0,63612.0,-120.8350763495607,-68.15437349576516,-138.83375056426286
645,9294,645.0,42347.0,645.0,63628.0,-125.3239934132823,-69.56806685810761,-142.1682358572973
645,9296,645.0,42392.0,645.0,63658.0,-129.82666297332756,-70.97344088653792,-145.49380895859161
645,9314,645.0,42450.0,645.0,63643.0,-134.34479597740466,-72.37055165539269,-148.81164525837187
645,9312,645.0,42403.0,645.0,63690.0,-138.88010994010043,-73.75930533366733,-152.12265968985196
645,9306,645.0,42381.0,645.0,63616.0,-143.4339760028911,-75.13882701599849,-155.42706727360954
655,9264,655.0,42368.0,655.0,63591.0,-148.00726593179326,-76.50762117682305,-158.72440741612917
655,9278,655.0,42363.0,655.0,63607.0,-152.60055483715303,-77.86416355504679,-162.0141473067027
655,9273,655.0,42366.0,655.0,63611.0,-157.21441852761103,-79.20731335036749,-165.29623707071113
655,9272,655.0,42405.0,655.0,63627.0,-161.84949561249732,-80.53636768851138,-168.5710885015887
655,9270,655.0,42398.0,655.0,63640.0,-166.50636897418786,-81.85073815522577,-171.83917772076416
655,9258,655.0,42353.0,655.0,63607.0,-171.18546693961935,-83.14955905407493,-175.10063400220943
666,9236,666.0,42344.0,666.0,63574.0,-175.88708329637547,-84.43178190886704,-178.35516485427723
666,9234,666.0,42341.0,666.0,63559.0,-180.61155863814957,-85.6967279059885,-181.60250353707926
666,9233,666.0,42350.0,666.0,63599.0,-185.35950160622576,-86.94453166527322,-184.84297832511425
666,9245,666.0,42393.0,666.0,63595.0,-190.13183347727198,-88.17613232530445,-188.07760045164864
666,9231,666.0,42404.0,666.0,63603.0,-194.92962572275707,-89.39278765502232,-191.3076707233021
666,9232,666.0,42315.0,666.0,63527.0,-199.75391062353867,-90.595528052693,-194.5345118902424
676,9219,676.0,42326.0,676.0,63535.0,-204.6056065684507,-91.78530726587903,-197.75981039977728
676,9202,676.0,42347.0,676.0,63574.0,-209.4855661006991,-92.96372837500547,-200.986227503495
676,9210,676.0,42400.0,676.0,63580.0,-214.3947062086126,-94.13328457804036,-204.21746207789766
676,9220,676.0,42401.0,676.0,63589.0,-219.33406298340105,-95.29671807504991,-207.4576881711509
676,9212,676.0,42396.0,676.0,63588.0,-224.30462288413258,-96.4561405206648,-210.7109682058122
676,9174,676.0,42329.0,676.0,63550.0,-229.30714104541443,-97.61267993018961,-213.98098978940553
686,9179,686.0,42302.0,686.0,63531.0,-234.34226634504188,-98.76697776992188,-217.27122719118142
686,9178,686.0,42326.0,686.0,63553.0,-239.41083559444428,-99.92016584979456,-220.5853897519313
686,9191,686.0,42368.0,686.0,63569.0,-244.51394422882373,-101.07442243450402,-223.92763903941764
686,9184,686.0,42380.0,686.0,63582.0,-249.65272871135193,-102.2326258866257,-227.30228321308869
686,9177,686.0,42336.0,686.0,63556.0,-254.82810144125904,-103.39765217703584,-230.7132763088495
686,9159,686.0,42316.0,686.0,63554.0,-260.04064859954735,-104.57219244510667,-234.1639857408383
697,9142,697.0,42307.0,697.0,63503.0,-265.29074756917294,-105.75924027301333,-237.65737360317226
697,9142,697.0,42357.0,697.0,63536.0,-270.5788148669719,-106.96259289973456,-241.19643381139835
697,9172,697.0,42373.0,697.0,63551.0,-275.9054316091745,-108.1867288037032,-244.78446405063102
697,9147,697.0,42385.0,697.0,63545.0,-281.2711441257228,-109.43611414997308,-248.42485268455124
697,9126,697.0,42345.0,697.0,63517.0,-286.6761967191449,-110.71455924555092,-252.12071645697577
697,9108,697.0,42304.0,697.0,63507.0,-292.1206154621886,-112.0252016245221,-255.87490897450425
707,9111,707.0,42307.0,707.0,63493.0,-297.6045600541108,-113.37113992502371,-259.6903634427158
707,9116,707.0,42361.0,707.0,63521.0,-303.12854303682326,-114.75604860071323,-263.57038303123875
707,9119,707.0,42375.0,707.0,63539.0,-308.6933483957156,-116.18403875273377,-267.51855699952614
707,9115,707.0,42355.0,707.0,63547.0,-314.2997790478873,-117.65893698070029,-271.53826200388824
707,9092,707.0,42341.0,707.0,63507.0,-319.9484638995726,-119.1838098264079,-275.63212893448684
707,9082,707.0,42315.0,707.0,63485.0,-325.639888370766,-120.76109593739403,-279.80197706017145
717,9076,717.0,42326.0,717.0,63502.0,-331.3746018219253,-122.39304229389089,-284.04920527893535
717,9086,717.0,42352.0,717.0,63535.0,-337.15336913867054,-124.08197491447794,-288.3750231795337
717,9088,717.0,42399.0,717.0,63531.0,-342.9770924166358,-125.83003969713243,-292.7801029589633
717,9094,717.0,42350.0,717.0,63528.0,-348.8465351030582,-127.63850843903751,-297.26398000249986
717,9075,717.0,42322.0,717.0,63473.0,-354.7620226096985,-129.5073663683811,-301.8247889885066
717,9048,717.0,42279.0,717.0,63465.0,-360.7233440090947,-131.43572350643765,-306.4595783819399
728,9042,728.0,42326.0,728.0,63493.0,-366.7299620622995,-133.422643090052,-311.16486743742297
728,9046,728.0,42373.0,728.0,63487.0,-372.7813231408464,-135.46744604802404,-315.9368265454344
728,9051,728.0,42380.0,728.0,63509.0,-378.87694326356757,-137.5690807457191,-320.77096163314974
728,9037,728.0,42334.0,728.0,63440.0,-385.01624800483097,-139.7252238287434,-325.66178034323093
728,9032,728.0,42290.0,728.0,63456.0,-391.1984111612678,-141.93210787672106,-330.60288333270586
728,9015,728.0,42276.0,728.0,63404.0,-397.4223460003622,-144.18523784193349,-335.587450512962
738,9018,738.0,42305.0,738.0,63447.0,-403.68679447852816,-146.4802617793487,-340.60873185555187
738,9022,738.0,42345.0,738.0,63471.0,-409.9903626852928,-148.8131966368765,-345.66012811776505
738,9019,738.0,42326.0,738.0,63479.0,-416.3313973218901,-151.17991412970702,-350.7346815957452
738,9005,738.0,42286.0,738.0,63453.0,-422.70779028124093,-153.57560322714866,-355.8243636543344
738,8990,738.0,42263.0,738.0,63408.0,-429.11690970953674,-155.9949075724442,-360.9198311404902
738,8983,738.0,42257.0,738.0,63393.0,-435.5557102357163,-158.43260037766476,-366.0108563378258
748,8999,748.0,42307.0,748.0,63427.0,-442.0208463906666,-160.88409068409993,-371.08695316428935
748,8989,748.0,42347.0,748.0,63402.0,-448.50858491935975,-163.34519451257373,-376.13758472803727
748,8981,748.0,42318.0,748.0,63412.0,-455.01458085482045,-165.8112742652236,-381.15197888595947
748,8956,748.0,42276.0,748.0,63395.0,-461.53378460768045,-168.27659648403008,-386.1189751031144
748,8942,748.0,42260.0,748.0,63352.0,-468.06060365995927,-170.73454761697664,-391.0270972395581
748,8927,748.0,42283.0,748.0,63388.0,-474.58921986292773,-173.17829716280792,-395.8648425066567
759,8954,759.0,42308.0,759.0,63418.0,-481.11382978960904,-175.6010705847403,-400.6208085268577
759,8954,759.0,42305.0,759.0,63415.0,-487.6285573875536,-177.99580555545825,-405.2832440082945
759,8945,759.0,42291.0,759.0,63399.0,-494.1270795957571,-180.35466530516413,-409.83938160610154
759,8919,759.0,42235.0,759.0,63356.0,-500.602349626004,-182.66897189923083,-414.2752232073014
759,8904,759.0,42228.0,759.0,63347.0,-507.0466791759294,-184.92973778609343,-418.57591566803865
759,8909,759.0,42241.0,759.0,63370.0,-513.4520259995501,-187.12841745581886,-422.7262904486146
769,8914,769.0,42268.0,769.0,63395.0,-519.8101430502404,-189.2572379744352,-426.71097669716335
769,8920,769.0,42340.0,769.0,63398.0,-526.1124295819163,-191.30877273073997,-430.5139385169431
769,8908,769.0,42262.0,769.0,63361.0,-532.3496281610121,-193.27502578343018,-434.11792463484943
769,8883,769.0,42232.0,769.0,63332.0,-538.5116430965495,-195.14693570678665,-437.5044178729358
769,8875,769.0,42200.0,769.0,63321.0,-544.5876424874534,-196.914926549972,-440.6541497406586
769,8885,769.0,42257.0,769.0,63340.0,-550.56629041107,-198.56983837285145,-443.5476869552772
779,8883,779.0,42306.0,779.0,63365.0,-556.4357959259871,-200.10309628451895,-446.1655683889665
779,8879,779.0,42285.0,779.0,63335.0,-562.1837367578053,-201.50592805073921,-448.48798699841956
779,8868,779.0,42252.0,779.0,63337.0,-567.7968826836443,-202.76855741680086,-450.49450913167595
779,8853,779.0,42201.0,779.0,63293.0,-573.2611728219684,-203.88026994366757,-452.1641961243955
779,8837,779.0,42192.0,779.0,63286.0,-578.5618573750892,-204.83027274855098,-453.47607825219336
779,8833,779.0,42255.0,779.0,63334.0,-583.6837374951144,-205.60853090707957,-454.4096397032957
790,8857,790.0,42258.0,790.0,63340.0,-588.611315542643,-206.20580779832815,-454.9448133636307
790,8841,790.0,42257.0,790.0,63316.0,-593.3286761182476,-206.61302709204472,-455.0615144101808
790,8832,790.0,42222.0,790.0,63307.0,-597.8192481244957,-206.82080259545936,-454.73938928648266
790,8799,790.0,42193.0,790.0,63269.0,-602.0658005019304,-206.81962599756713,-453.9581085539646
790,8797,790.0,42212.0,790.0,63279.0,-606.050759194774,-206.60048210968918,-452.6979573812552
790,8813,790.0,42268.0,790.0,63309.0,-609.75656055683,-206.15521800703138,-450.94030338928303
800,8811,800.0,42267.0,800.0,63302.0,-613.165707849694,-205.47617257379926,-448.66761464239664
800,8806,800.0,42261.0,800.0,63303.0,-616.2605678274642,-204.55543503572852,-445.8632044503013
800,8781,800.0,42195.0,800.0,63267.0,-619.0232520071299,-203.38456852985024,-442.5111932880982
800,8765,800.0,42173.0,800.0,63257.0,-621.435797709768,-201.9551854992436,-438.5968968161943
800,8764,800.0,42191.0,800.0,63283.0,-623.4805604055807,-200.2599785311005,-434.10740778145515
800,8763,800.0,42244.0,800.0,63298.0,-625.140554856323,-198.2933265817741,-429.0318946710229
810,8777,810.0,42275.0,810.0,63308.0,-626.399563487166,-196.0509506531347,-423.3614455164028
810,8767,810.0,42228.0,810.0,63297.0,-627.2420449151466,-193.5290764643944,-417.0888032536003
810,8751,810.0,42181.0,810.0,63260.0,-627.6530495780523,-190.7241404078907,-410.2084199328098
810,8744,810.0,42178.0,810.0,63264.0,-627.6183493856325,-187.63346996437673,-402.71697571771665
810,8753,810.0,42213.0,810.0,63284.0,-627.1247130686481,-184.25621622021993,-394.61404917070604
810,8766,810.0,42250.0,810.0,63332.0,-626.1600463867495,-180.59360765430546,-385.90237633038254
821,8760,821.0,42289.0,821.0,63345.0,-624.7132984592668,-176.64837546394273,-376.58750026709885
821,8766,821.0,42235.0,821.0,63336.0,-622.7743167447707,-172.42393929694822,-366.6772157733411
821,8747,821.0,42211.0,821.0,63300.0,-620.3338372096118,-167.92417696175633,-356.1814323181705
821,8743,821.0,42222.0,821.0,63327.0,-617.3836626299856,-163.15399859217985,-345.1126411954464
821,8755,821.0,42267.0,821.0,63379.0,-613.9169483757465,-158.11996219569042,-333.4864178757708
821,8767,821.0,42292.0,821.0,63379.0,-609.92837130498,-152.83018366968878,-321.32134394281513
831,8783,831.0,42289.0,831.0,63423.0,-605.4140423519394,-147.29371713686385,-308.6385201248132
831,8766,831.0,42253.0,831.0,63400.0,-600.3713107116513,-141.52013388006327,-295.46117777588535
831,8762,831.0,42267.0,831.0,63404.0,-594.7987450916605,-135.51970837813514,-281.81463097377826
831,8759,831.0,42247.0,831.0,63440.0,-588.6963933012846,-129.3039440009992,-267.72652395992225
831,8799,831.0,42309.0,831.0,63489.0,-582.0660652330897,-122.88593209655241,-253.2269339535587
831,8788,831.0,42342.0,831.0,63510.0,-574.9113376976918,-116.28018791938757,-238.34796822290724
841,8812,841.0,42357.0,841.0,63528.0,-567.2373620003863,-109.5019427428029,-223.12313573962575
841,8814,841.0,42312.0,841.0,63512.0,-559.0507190140082,-102.56646642704428,-207.58699426447794
841,8801,841.0,42287.0,841.0,63517.0,-550.3594005070165,-95.48912825776847,-191.77527820158775
841,8817,841.0,42319.0,841.0,63579.0,-541.1729569869734,-88.28611865811902,-175.72524504125292
841,8855,841.0,42373.0,841.0,63620.0,-531.5026721617121,-80.97494893043888,-159.47563818778337
841,8854,841.0,42417.0,841.0,63648.0,-521.3614682442742,-73.57406472037312,-143.0660605712175
852,8861,852.0,42341.0,852.0,63642.0,-510.76365506406444,-66.10201785698976,-126.53627991304106
852,8869,852.0,42350.0,852.0,63626.0,-499.7248645745549,-58.577268547859134,-109.92604720003553
852,8878,852.0,42352.0,852.0,63652.0,-488.26216422293004,-51.0188095829308,-93.27547564940778
852,8905,852.0,42390.0,852.0,63722.0,-476.3941422547233,-43.44673567576018,-76.62541628098936
852,8932,852.0,42473.0,852.0,63775.0,-464.140824762647,-35.882071282257,-60.017152873744635
852,8955,852.0,42463.0,852.0,63792.0,-451.52338542742154,-28.345870414692286,-43.49145343778062
862,8954,862.0,42463.0,862.0,63804.0,-438.5638011070348,-20.858225251142102,-27.087687199119358
862,8962,862.0,42429.0,862.0,63784.0,-425.28470757967057,-13.437953905394806,-10.84352992946873
862,8981,862.0,42395.0,862.0,63794.0,-411.709495203758,-6.103102299729542,5.2047497212770395
862,9004,862.0,42482.0,862.0,63882.0,-397.8624110333845,1.1282808059887088,21.021907780768572
862,9034,862.0,42504.0,862.0,63893.0,-383.7684662820507,8.237964394558873,36.573919449423215
862,9042,862.0,42571.0,862.0,63905.0,-369.45318477633214,15.208324330197001,51.82868489210395
873,9058,873.0,42506.0,873.0,63887.0,-354.942381820385,22.023423692836175,66.75644805496401
873,9056,873.0,42459.0,873.0,63899.0,-340.2621244246693,28.66933051194688,81.32958955915541
873,9081,873.0,42500.0,873.0,63931.0,-325.43885587252805,35.13339414000369,95.52220140378839
873,9106,873.0,42536.0,873.0,63959.0,-310.49950569119255,41.403470319559176,109.30995030635327
873,9149,873.0,42569.0,873.0,63985.0,-295.4713696551192,47.46805257795587,122.67034182654322
873,9165,873.0,42563.0,873.0,63992.0,-280.38172049971365,53.31699464326341,135.58311690580456
883,9165,883.0,42512.0,883.0,63987.0,-265.2573994055781,58.94193381327048,148.0304678717295
883,9185,883.0,42499.0,883.0,63968.0,-250.1246808122424,64.33592586288637,159.9968883801322
883,9201,883.0,42515.0,883.0,64008.0,-235.00936112393921,69.49258520418155,171.46874084702972
883,9220,883.0,42608.0,883.0,64028.0,-219.93681546705955,74.40564120431458,182.43397090565594
883,9256,883.0,42591.0,883.0,64061.0,-204.93191440517543,79.0694714414368,192.88228098636375
883,9263,883.0,42569.0,883.0,64046.0,-190.01881597933684,83.47998879249263,202.805534729393
893,9278,893.0,42514.0,893.0,64019.0,-175.22075166857044,87.63477555513902,212.19788056177237
893,9306,893.0,42546.0,893.0,64045.0,-160.55992691237935,91.5323392645366,221.05538423555885
893,9308,893.0,42564.0,893.0,64065.0,-146.05746866073343,95.17138881973761,229.3755874070198
893,9341,893.0,42604.0,893.0,64077.0,-131.73335244953086,98.55082915766292,237.1574679624432
893,9351,893.0,42636.0,893.0,64111.0,-117.60631438807098,101.67039356844509,244.40172931879448
893,9359,893.0,42572.0,893.0,64101.0,-103.69375550628916,104.53135513557913,251.1111576708011
904,9369,904.0,42542.0,904.0,64049.0,-90.01173296898776,107.13659078860167,257.2907456252069
904,9371,904.0,42544.0,904.0,64083.0,-76.57509223208558,109.48980769802353,262.94729476515755
904,9407,904.0,42595.0,904.0,64089.0,-63.397626289724485,111.59475557939862,268.0888531623184
904,9418,904.0,42628.0,904.0,64133.0,-50.49208748876339,113.4552767784416,272.72463521150235
904,9442,904.0,42657.0,904.0,64096.0,-37.870015035547056,115.07613330399636,276.86537293713144
904,9433,904.0,42571.0,904.0,64103.0,-25.541559916344397,116.4638194031748,280.52352576032354
914,9434,914.0,42542.0,914.0,64066.0,-13.515523395255059,117.62647110581833,283.71304077373696
914,9450,914.0,42546.0,914.0,64083.0,-1.7996209007604875,118.57284622118283,286.4488371640086
914,9484,914.0,42583.0,914.0,64104.0,9.599302189985508,119.31139853424858,288.7464089618222
914,9491,914.0,42586.0,914.0,64127.0,20.675352039662585,119.85018660834842,290.6218674124054
914,9502,914.0,42602.0,914.0,64089.0,31.423827722293424,120.19732348497391,292.0922868770755
914,9504,914.0,42558.0,914.0,64080.0,41.84133530053094,120.36133764110619,293.175795197177
924,9498,924.0,42554.0,924.0,64044.0,51.92568976529054,120.35108471618139,293.8911408382073
924,9511,924.0,42552.0,924.0,64097.0,61.675669709347574,120.1753008009745,294.2570964541835
924,9531,924.0,42579.0,924.0,64080.0,71.09078873138003,119.84226246041302,294.2922365807149
924,9549,924.0,42637.0,924.0,64093.0,80.17127789084896,119.35997616734335,294.0151414696738
924,9555,924.0,42582.0,924.0,64091.0,88.91826101815195,118.73684425969492,293.44463993419475
924,9539,924.0,42535.0,924.0,64052.0,97.33386990850516,117.98205230996433,292.5998437074123
935,9555,935.0,42538.0,935.0,64031.0,105.42110913486391,117.10506444643502,291.49984723590916
935,9574,935.0,42545.0,935.0,64068.0,113.18362826358498,116.11478083178358,290.16318943235274
935,9583,935.0,42602.0,935.0,64096.0,120.62569481789023,115.01927576750111,288.6076636526057
935,9593,935.0,42601.0,935.0,64097.0,127.7523496597484,113.82629624987624,286.8507829035532
935,9590,935.0,42574.0,935.0,64055.0,134.56952204374898,112.54398240300065,284.9103431804798
935,9583,935.0,42542.0,935.0,64042.0,141.08397870996873,111.18107896930914,282.8044205835972
945,9576,945.0,42515.0,945.0,64012.0,147.3030805181573,109.74643522050528,280.55081580445744
945,9606,945.0,42557.0,945.0,64050.0,153.23447187931953,108.24829893946259,278.16645335576635
945,9627,945.0,42594.0,945.0,64095.0,158.88600226112482,106.69412868390827,275.66729149733834
945,9629,945.0,42614.0,945.0,64077.0,164.2659867787923,105.09120131526652,273.0689123032716
945,9621,945.0,42562.0,945.0,64040.0,169.38349194064295,103.44744588051577,270.3871680439592
945,9618,945.0,42498.0,945.0,64014.0,174.24833057840186,101.77156459981288,267.6381285273147
955,9608,955.0,42532.0,955.0,63995.0,178.87079804957568,100.07223428322399,264.8374078119318
955,9630,955.0,42524.0,955.0,64071.0,183.26136593630014,98.35725405283154,261.999594268774
955,9645,955.0,42583.0,955.0,64045.0,187.4305636160318,96.63343644211903,259.13838048847856
955,9646,955.0,42573.0,955.0,64043.0,191.38912426922076,94.90716067369314,256.26714971574074
955,9625,955.0,42537.0,955.0,64010.0,195.148139995618,93.18498684590168,253.39923923274688
955,9625,955.0,42494.0,955.0,63962.0,198.71892618263763,91.47366501331811,250.5475807465465
966,9620,966.0,42484.0,966.0,64001.0,202.11265750516702,89.77941550278615,247.72400674436392
966,9647,966.0,42567.0,966.0,64018.0,205.34008280076074,88.10722902808573,244.9388315446551
966,9654,966.0,42591.0,966.0,64034.0,208.41152892967318,86.46109100855199,242.20112355079857
966,9637,966.0,42470.0,966.0,63966.0,211.33709006428086,84.84481625239818,239.51920494166734
966,9634,966.0,42511.0,966.0,63996.0,214.12666208982,83.26214000447911,236.9006540118719
966,9640,966.0,42485.0,966.0,63974.0,216.78972465272238,81.71593369282357,234.35192119640465
976,9653,976.0,42516.0,976.0,63979.0,219.33514981226705,80.2076663972885,231.878084703875
976,9665,976.0,42578.0,976.0,64004.0,221.7712434108388,78.73759359722357,229.48285483377867
976,9668,976.0,42567.0,976.0,64027.0,224.10595007048784,77.30552541729872,227.16883895595657
976,9662,976.0,42541.0,976.0,63999.0,226.34703334051306,75.91167449581425,224.9380407202438
976,9648,976.0,42482.0,976.0,63973.0,228.50206681741093,74.55679422374655,222.79214009441188
976,9662,976.0,42491.0,976.0,63957.0,230.57823598741157,73.24147580436033,220.73221215579468
986,9657,986.0,42556.0,986.0,63978.0,232.58214280277707,71.96543788628165,218.75820635584682
986,9682,986.0,42580.0,986.0,64012.0,234.5197766837751,70.7277133575246,216.86878322411127
986,9682,986.0,42572.0,986.0,64013.0,236.3966598292331,69.52760176580439,215.06172100515818
986,9668,986.0,42538.0,986.0,63980.0,238.2180310526632,68.36540183740257,213.3344612167498
986,9654,986.0,42512.0,986.0,63980.0,239.9888190480379,67.24234127881181,211.68422250851256
986,9642,986.0,42436.0,986.0,63957.0,241.713309803347,66.15981110862087,210.1076788548234
997,9684,997.0,42557.0,997.0,63990.0,243.3947771616003,65.11841446565857,208.60062108437376
997,9683,997.0,42489.0,997.0,64015.0,245.0354609015053,64.11763124992348,207.15797219735828
997,9703,997.0,42542.0,997.0,64011.0,246.63691247047802,63.156199767360235,205.77423755492003
997,9687,997.0,42509.0,997.0,63979.0,248.20035819255833,62.23250102173833,204.44397119171208
997,9689,997.0,42489.0,997.0,63978.0,249.72682490981634,61.344609753421835,203.16177273324834
997,9688,997.0,42488.0,997.0,63979.0,251.21705230120148,60.49004060824491,201.92194663565942
1006,9706,1006.0,42531.0,1006.0,64015.0,252.6713901712585,59.66544246586402,200.71833794896511
1006,9707,1006.0,42581.0,1006.0,64033.0,254.08985270249661,58.866823839345955,199.5446321571792
1006,9704,1006.0,42545.0,1006.0,63978.0,255.4722709730081,58.09037420916266,198.39486430327355
1006,9701,1006.0,42523.0,1006.0,63991.0,256.81835553333303,57.33309621073279,197.26354262674238
1006,9695,1006.0,42481.0,1006.0,63950.0,258.12760631340274,56.59261132178439,196.14525131693202
1006,9702,1006.0,42493.0,1006.0,63985.0,259.39915891459196,55.866400207304935,195.03416766291735
1016,9719,1016.0,42559.0,1016.0,64021.0,260.631713013427,55.151285269116414,193.9239430453675
1016,9724,1016.0,42565.0,1016.0,64031.0,261.82365218724345,54.44375045828515,192.80816247372994
1016,9705,1016.0,42552.0,1016.0,64008.0,262.97323985207464,53.740788821669824,191.6810449084124
1016,9718,1016.0,42489.0,1016.0,63964.0,264.07864851875223,53.04031257588193,190.53768031593154
1016,9709,1016.0,42470.0,1016.0,63963.0,265.1378365899744,52.34064011051946,189.37357496210998
1016,9713,1016.0,42525.0,1016.0,63993.0,266.1484447755616,51.63960639624696,188.18403329614318
1027,9734,1027.0,42569.0,1027.0,64031.0,267.10777695321343,50.9343410974562,186.96409297254291
1027,9740,1027.0,42551.0,1027.0,64011.0,268.01293435858247,50.221985639117676,185.7090900645074
1027,9726,1027.0,42534.0,1027.0,63996.0,268.8610566456809,49.50046495070259,184.41520096460832
1027,9725,1027.0,42503.0,1027.0,63963.0,269.6494108746991,48.768546983637634,183.07941269121415
1027,9722,1027.0,42475.0,1027.0,63978.0,270.3752536424311,48.02528315841245,181.69905326602753
1027,9732,1027.0,42539.0,1027.0,64005.0,271.03567084115724,47.26937214293899,180.27144080998116
1037,9770,1037.0,42562.0,1037.0,64018.0,271.62762179323613,46.49911077745625,178.79405011937666
1037,9765,1037.0,42572.0,1037.0,64003.0,272.14829308867064,45.71310015613784,177.26500860199042
1037,9747,1037.0,42517.0,1037.0,63990.0,272.5955213986929,44.91096825728313,175.68339548434574
1037,9733,1037.0,42471.0,1037.0,63956.0,272.9678522781608,44.09328146087336,174.04908733533946
1037,9727,1037.0,42470.0,1037.0,63953.0,273.2642006238677,43.26064294292976,172.36226731369445
1037,9760,1037.0,42542.0,1037.0,64009.0,273.4835135356409,42.41286027754144,170.62301098647853
1047,9777,1047.0,42565.0,1047.0,64004.0,273.6248221491016,41.54909290675887,168.83143845582012
1047,9749,1047.0,42547.0,1047.0,63999.0,273.6876217632051,40.66878925379265,166.98829922451128
1047,9744,1047.0,42514.0,1047.0,63966.0,273.67207436289846,39.77234902357203,165.09530172796832
1047,9743,1047.0,42461.0,1047.0,63958.0,273.5788109435458,38.860877278351055,163.1548940660324
1047,9750,1047.0,42492.0,1047.0,63978.0,273.40866754700744,37.93533383471143,161.16984193607885
1047,9746,1047.0,42558.0,1047.0,63991.0,273.16260998074824,36.99598660264607,159.14309747861665
1058,9760,1058.0,42562.0,1058.0,63976.0,272.84178446022,36.04285083207462,157.07804191975288
1058,9758,1058.0,42539.0,1058.0,63977.0,272.447623313666,35.07663665705638,154.9787275258679
1058,9727,1058.0,42482.0,1058.0,63933.0,271.9819105973665,34.099110098002456,152.84981924894248
1058,9730,1058.0,42469.0,1058.0,63934.0,271.4466132991325,33.112509297408984,150.6962177189705
1058,9746,1058.0,42510.0,1058.0,63973.0,270.8435711663061,32.11866959726452,148.5226508042294
1058,9767,1058.0,42559.0,1058.0,63986.0,270.1744498409879,31.118806516670894,146.33373546583448
1068,9758,1068.0,42558.0,1068.0,63962.0,269.4410503348775,30.114205488714596,144.134489515192
1068,9760,1068.0,42497.0,1068.0,63947.0,268.6456348034295,29.10700882479309,141.93064553165993
1068,9746,1068.0,42471.0,1068.0,63920.0,267.7910135698663,28.100154782254016,139.7284308378042
1068,9737,1068.0,42472.0,1068.0,63939.0,266.88041558591146,27.096537472662874,137.53410071613692
1068,9745,1068.0,42510.0,1068.0,63943.0,265.91726973439853,26.098298195383002,135.35366584040463
1068,9756,1068.0,42528.0,1068.0,63951.0,264.9050850778696,25.10686534367794,133.19298573799978
1078,9750,1078.0,42565.0,1078.0,63949.0,263.8475372011073,24.123609248413096,131.05803988276634
1078,9731,1078.0,42494.0,1078.0,63903.0,262.7485763762493,23.15054324190995,128.95504838409096
1078,9738,1078.0,42462.0,1078.0,63895.0,261.6123368467745,22.190372708269415,126.89019316107543
1078,9718,1078.0,42473.0,1078.0,63922.0,260.442913886816,21.245748370898028,124.86910939580777
1078,9748,1078.0,42503.0,1078.0,63937.0,259.2442007580215,20.31854334157223,122.89671978172495
1078,9740,1078.0,42521.0,1078.0,63943.0,258.0199109042291,19.409878342195668,120.97759554405104
1089,9744,1089.0,42521.0,1089.0,63954.0,256.773758950084,18.520670407077304,119.11646765830955
1089,9731,1089.0,42501.0,1089.0,63904.0,255.5095939632743,17.652089814399993,117.3185177724546
1089,9716,1089.0,42442.0,1089.0,63877.0,254.23133105714697,16.805498208267792,115.58918356969916
1089,9732,1089.0,42475.0,1089.0,63897.0,252.94274394555686,15.981843589609916,113.93352495223014
1089,9735,1089.0,42533.0,1089.0,63914.0,251.6473449818941,15.1811779399888,112.35575799094053
1089,9737,1089.0,42566.0,1089.0,63921.0,250.34848410338208,14.403086699182722,110.85937539117197
1099,9756,1099.0,42511.0,1099.0,63895.0,249.04956335693026,13.647706295500555,109.44750728267297
1099,9719,1099.0,42477.0,1099.0,63867.0,247.75422118859478,12.91615597733847,108.12295760127499
1099,9712,1099.0,42477.0,1099.0,63873.0,246.4662961558505,12.209987288541704,106.88780263291783
1099,9721,1099.0,42480.0,1099.0,63899.0,245.18952137718196,11.530406001462659,105.74299077898367
1099,9739,1099.0,42532.0,1099.0,63928.0,243.9273118429669,10.878021310946686,104.68843726577715
1099,9733,1099.0,42548.0,1099.0,63924.0,242.6828994574209,10.253272008254996,103.72358745733757
1110,9719,1110.0,42505.0,1110.0,63910.0,241.45955666522832,9.657128914696692,102.84795700528475
1110,9709,1110.0,42466.0,1110.0,63854.0,240.26057666778144,9.09129239968847,102.06116720318039
1110,9700,1110.0,42469.0,1110.0,63876.0,239.08901417122223,8.557597582479922,101.36241282545723
1110,9729,1110.0,42495.0,1110.0,63910.0,237.9474455983608,8.057303088785858,100.74992506126655
1110,9728,1110.0,42535.0,1110.0,63939.0,236.83800365643384,7.591016131805041,100.2211054944619
1110,9742,1110.0,42558.0,1110.0,63900.0,235.76267605873056,7.159322683738424,99.773171312123
1120,9714,1120.0,42462.0,1120.0,63930.0,234.72358500804518,6.763479170025377,99.40358125818483
1120,9706,1120.0,42471.0,1120.0,63873.0,233.72298226840172,6.405305582029477,99.10999957069956
1120,9706,1120.0,42469.0,1120.0,63878.0,232.76297189901953,6.086350798528336,98.88995583419565
1120,9708,1120.0,42519.0,1120.0,63914.0,231.84523378239305,5.807350016769412,98.74043153019957
1120,9735,1120.0,42532.0,1120.0,63932.0,230.97098668023705,5.568502438181092,98.65784691894932
1120,9704,1120.0,42533.0,1120.0,63928.0,230.14116445568737,5.370178605267441,98.63855762987092
1130,9705,1130.0,42480.0,1130.0,63889.0,229.3565221013116,5.21336931257013,98.67925800491932
1130,9693,1130.0,42465.0,1130.0,63874.0,228.61747524212836,5.0994328810116585,98.77679752231668
1130,9713,1130.0,42453.0,1130.0,63902.0,227.92386736758556,5.029326948236424,98.92763706518343
1130,9727,1130.0,42520.0,1130.0,63922.0,227.27496631496757,5.003022920580179,99.12759880180661
1130,9734,1130.0,42545.0,1130.0,63938.0,226.66974464956814,5.01970815246036,99.37218704314932
1130,9718,1130.0,42509.0,1130.0,63922.0,226.10721528268942,5.07858359851047,99.65710986978226
1141,9717,1141.0,42481.0,1141.0,63893.0,225.58654106078257,5.179317953366279,99.97848764435336
1141,9697,1141.0,42467.0,1141.0,63874.0,225.10687788211794,5.321672608694065,100.33253807975235
1141,9699,1141.0,42483.0,1141.0,63923.0,224.667088982725,5.504817535535814,100.7150536911312
1141,9728,1141.0,42536.0,1141.0,63938.0,224.2655348178147,5.727074738714315,101.12131125253732
1141,9747,1141.0,42542.0,1141.0,63961.0,223.90020368431402,5.9863584665447505,101.54660160003256
1141,9726,1141.0,42512.0,1141.0,63918.0,223.56914670898388,6.2808811739322365,101.98684769137935
1151,9698,1151.0,42472.0,1151.0,63892.0,223.27071538204063,6.609336050560572,102.43868169254603
1151,9711,1151.0,42464.0,1151.0,63883.0,223.00331230617527,6.970319395472664,102.89888813133919
1151,9718,1151.0,42529.0,1151.0,63918.0,222.7650316273623,7.361650592978592,103.36376165927385
1151,9734,1151.0,42536.0,1151.0,63949.0,222.55362834881805,7.780399227578535,103.82902307361283
1151,9740,1151.0,42556.0,1151.0,63970.0,222.36678421122718,8.22359309951105,104.2903888345431
1151,9722,1151.0,42507.0,1151.0,63917.0,222.20238688930087,8.688842264347052,104.74425185406253
1161,9712,1161.0,42492.0,1161.0,63928.0,222.0585696124625,9.17430849817147,105.18782812244335
1161,9706,1161.0,42478.0,1161.0,63896.0,221.93346877976626,9.678101214037902,105.61874702563149
1161,9718,1161.0,42547.0,1161.0,63924.0,221.82493235942496,10.19772927051686,106.03457316251857
1161,9727,1161.0,42548.0,1161.0,63943.0,221.73043210104922,10.730234066588231,106.43264222601843
1161,9737,1161.0,42555.0,1161.0,63938.0,221.64722010582304,11.272868412841994,106.8102859062333
1161,9708,1161.0,42502.0,1161.0,63925.0,221.57253151116564,11.823550232678862,107.16513627119708
1172,9719,1172.0,42505.0,1172.0,63905.0,221.50357636528946,12.380633817893994,107.49510901316438
1172,9727,1172.0,42486.0,1172.0,63931.0,221.43737744508343,12.942271909455336,107.79811420572398
1172,9745,1172.0,42557.0,1172.0,63930.0,221.37077587917673,13.505987920075611,108.07188724203085
1172,9753,1172.0,42571.0,1172.0,63976.0,221.30070585768146,14.068925840476453,108.31418286847469
1172,9738,1172.0,42563.0,1172.0,63933.0,221.224519966555,14.628622080070521,108.52320084293316
1172,9730,1172.0,42526.0,1172.0,63919.0,221.14009608803872,15.183532338279278,108.69779604443964
1182,9718,1182.0,42487.0,1182.0,63893.0,221.04565309786875,15.732773248676956,108.83714524889899
1182,9722,1182.0,42525.0,1182.0,63911.0,220.93944542203516,16.27535812086252,108.94013369424206
1182,9737,1182.0,42554.0,1182.0,63958.0,220.8195712652654,16.80973427852191,109.00506655847906
1182,9739,1182.0,42574.0,1182.0,63959.0,220.6840200404613,17.334089508197536,109.03001906497107
1182,9732,1182.0,42541.0,1182.0,63939.0,220.53085180356305,17.84698852029046,109.01345694965488
1182,9721,1182.0,42517.0,1182.0,63923.0,220.35825984051428,18.347572486822386,108.95446154375415
1192,9721,1192.0,42521.0,1192.0,63899.0,220.16443147249225,18.835153731493584,108.85240369216433
1192,9727,1192.0,42524.0,1192.0,63942.0,219.9473629652986,19.308697366170072,108.70647533048239
1192,9749,1192.0,42572.0,1192.0,63971.0,219.70483906961655,19.766691782480265,108.51562919506745
1192,9750,1192.0,42594.0,1192.0,63965.0,219.43465415800475,20.207563859166264,108.27909263672365
1192,9740,1192.0,42545.0,1192.0,63933.0,219.1349070592982,20.630335371452958,107.99690309208296
1192,9722,1192.0,42502.0,1192.0,63889.0,218.80407824366912,21.034763777610614,107.66980752476454
1203,9716,1203.0,42507.0,1203.0,63910.0,218.44079632817696,21.420647666625733,107.2985703580168
1203,9731,1203.0,42558.0,1203.0,63955.0,218.0435165630198,21.78705982200728,106.88343056050078
1203,9746,1203.0,42590.0,1203.0,63955.0,217.6104290693882,22.132402397131102,106.424302837626
1203,9752,1203.0,42579.0,1203.0,63945.0,217.13968592317693,22.455181022287782,105.9213890058605
1203,9739,1203.0,42522.0,1203.0,63909.0,216.62971238977056,22.754577097217194,105.37543660622669
1203,9711,1203.0,42506.0,1203.0,63888.0,216.07926845343002,23.03014846221202,104.78738166427411
1213,9731,1213.0,42524.0,1213.0,63913.0,215.48718379040375,23.28098631888311,104.15771960712402
1213,9740,1213.0,42601.0,1213.0,63938.0,214.8521062121247,23.505305876850038,103.48620130947296
1213,9743,1213.0,42604.0,1213.0,63929.0,214.1725732468617,23.701017162066243,102.77208900640429
1213,9732,1213.0,42552.0,1213.0,63920.0,213.44723286376015,23.86666082933818,102.01454102756799
1213,9719,1213.0,42536.0,1213.0,63919.0,212.67488351913727,24.001620278687383,101.21269432113051
1213,9730,1213.0,42510.0,1213.0,63899.0,211.8543072598358,24.105458341621457,100.36549943267012
1223,9731,1223.0,42530.0,1223.0,63916.0,210.98412865079735,24.17710912433479,99.47150629223601
1223,9728,1223.0,42589.0,1223.0,63960.0,210.0628331327972,24.214580714904216,98.52883964313371
1223,9751,1223.0,42610.0,1223.0,63947.0,209.08887604831548,24.215448064416,97.53559081427804
1223,9736,1223.0,42544.0,1223.0,63953.0,208.06084595595118,24.177688859923727,96.49037697427656
1223,9714,1223.0,42531.0,1223.0,63893.0,206.97757097670137,24.099870839272306,95.3925235431522
1223,9716,1223.0,42523.0,1223.0,63879.0,205.83795977438186,23.98049431066127,94.24163100606046
1234,9720,1234.0,42577.0,1234.0,63934.0,204.64070267997056,23.817364173723774,93.03689244751243
1234,9743,1234.0,42610.0,1234.0,63935.0,203.38418714780795,23.607736223056904,91.77692476568355
1234,9743,1234.0,42605.0,1234.0,63943.0,202.06672674852632,23.349118404386786,90.46025525417832
1234,9737,1234.0,42566.0,1234.0,63933.0,200.68688923437284,23.039954044211804,89.08582612117708
1234,9713,1234.0,42526.0,1234.0,63901.0,199.2436201702858,22.679523347471083,87.65309807811231
1234,9715,1234.0,42532.0,1234.0,63890.0,197.73605491850145,22.267168447680852,86.16174898256055
1244,9728,1244.0,42556.0,1244.0,63917.0,196.16325173936016,21.801564507072086,84.6112225436464
1244,9732,1244.0,42596.0,1244.0,63927.0,194.5241556668513,21.280652105309315,83.00059255868277
1244,9731,1244.0,42611.0,1244.0,63917.0,192.81778914215994,20.702239055429885,81.3288378150292
1244,9711,1244.0,42560.0,1244.0,63908.0,191.04339825961202,20.064701019177164,79.59510270396584
1244,9705,1244.0,42539.0,1244.0,63883.0,189.20036442581875,19.367072684872056,77.79863192478784
1244,9695,1244.0,42541.0,1244.0,63890.0,187.287934073662,18.60845872928477,75.93845823148924
1254,9732,1254.0,42573.0,1254.0,63910.0,185.305019418023,17.787472899763735,74.0131508539515
1254,9735,1254.0,42621.0,1254.0,63940.0,183.25033943298757,16.902342721282224,72.02095246812432
1254,9731,1254.0,42599.0,1254.0,63932.0,181.12284037184511,15.951615112548623,69.96030678252737
1254,9711,1254.0,42562.0,1254.0,63900.0,178.9219890998066,14.934750613396645,67.83032347915282
1254,9699,1254.0,42536.0,1254.0,63872.0,176.64769035272784,13.851960699140655,65.6307049807282
1254,9701,1254.0,42553.0,1254.0,63869.0,174.29997971778005,12.70350676173787,63.3611795950927
1265,9711,1265.0,42615.0,1265.0,63941.0,171.87880197018055,11.489310717236187,61.02106840294907
1265,9716,1265.0,42634.0,1265.0,63933.0,169.3840488064136,10.209425660700404,58.609586943908525
1265,9719,1265.0,42567.0,1265.0,63910.0,166.8157810975723,8.86490313510781,56.12659232775229
1265,9707,1265.0,42537.0,1265.0,63856.0,164.17443936300444,7.457970269501487,53.57283476149783
1265,9686,1265.0,42525.0,1265.0,63872.0,161.46086841980784,5.991243549179643,50.9494241024949
1265,9695,1265.0,42542.0,1265.0,63885.0,158.67612381380383,4.466814947752248,48.25719948039132
1275,9705,1275.0,42610.0,1275.0,63921.0,155.82129070928815,2.8860218557528228,45.496692044321115
1275,9706,1275.0,42608.0,1275.0,63894.0,152.8975560265526,1.250062637825046,42.668616049685696
1275,9680,1275.0,42569.0,1275.0,63888.0,149.90639213096708,-0.439137203960847,39.77429126600927
1275,9673,1275.0,42531.0,1275.0,63855.0,146.84952216807713,-2.1787331461202797,36.8155980057378
1275,9667,1275.0,42517.0,1275.0,63841.0,143.72864473625538,-3.965624214545784,33.79454567952814
1275,9673,1275.0,42568.0,1275.0,63887.0,140.54518699749167,-5.797217274104412,30.712833255712013
1285,9683,1285.0,42593.0,1285.0,63896.0,137.30027640286633,-7.671491738885628,27.5718771357132
1285,9683,1285.0,42582.0,1285.0,63874.0,133.99491884409994,-9.586360739007496,24.373306389272102
1285,9683,1285.0,42552.0,1285.0,63858.0,130.63024557936126,-11.539101874566732,21.119295922958678
1285,9657,1285.0,42522.0,1285.0,63846.0,127.20764473913908,-13.526456650179504,17.812403612351808
1285,9656,1285.0,42527.0,1285.0,63831.0,123.72866202168252,-15.545232733231813,14.455182505377486
1285,9664,1285.0,42563.0,1285.0,63859.0,120.19478790885806,-17.59278583132415,11.049891812244596
1296,9668,1296.0,42581.0,1296.0,63868.0,116.60740455509348,-19.66689964336487,7.598527186865255
1296,9675,1296.0,42578.0,1296.0,63853.0,112.96796717841048,-21.76519348923322,4.103156059478181
1296,9652,1296.0,42512.0,1296.0,63821.0,109.27822562963381,-23.884723498109498,0.5661370193723627
1296,9632,1296.0,42510.0,1296.0,63821.0,105.54023312554448,-26.022301578410435,-3.010090497346823
1296,9637,1296.0,42533.0,1296.0,63826.0,101.75608340109086,-28.17521656213903,-6.6233852310628265
1296,9641,1296.0,42566.0,1296.0,63865.0,97.92764941770145,-30.341507660116026,-10.271970265260677
1306,9647,1306.0,42581.0,1306.0,63872.0,94.05658664488169,-32.519498898505375,-13.954002248132824
1306,9645,1306.0,42579.0,1306.0,63837.0,90.14453407151002,-34.707060059647475,-17.666965503660464
1306,9622,1306.0,42517.0,1306.0,63794.0,86.1932761160042,-36.90121344711323,-21.407524521083218
1306,9614,1306.0,42517.0,1306.0,63784.0,82.20468324564857,-39.098432603736065,-25.1720737046237
1306,9615,1306.0,42490.0,1306.0,63818.0,78.18047779277308,-41.29539630132159,-28.957432012181442
1306,9633,1306.0,42549.0,1306.0,63825.0,74.122104181353,-43.48955436659192,-32.76098441154099
1316,9629,1316.0,42588.0,1316.0,63849.0,70.03088159550884,-45.6789853504106,-36.58022168666426
1316,9609,1316.0,42538.0,1316.0,63804.0,65.9082569067298,-47.86164528680033,-40.41218663645222
1316,9590,1316.0,42481.0,1316.0,63748.0,61.75581985375197,-50.034952685981686,-44.25342374937625
1316,9587,1316.0,42466.0,1316.0,63753.0,57.575021739961905,-52.19641408326645,-48.10064898755323
1316,9618,1316.0,42520.0,1316.0,63786.0,53.366931511668646,-54.34461632450035,-51.95152659972692
1316,9615,1316.0,42564.0,1316.0,63796.0,49.132369155675875,-56.47940785759373,-55.804753695152456
1327,9603,1327.0,42560.0,1327.0,63823.0,44.87229090898671,-58.601095034797176,-59.65948503222678
1327,9591,1327.0,42511.0,1327.0,63771.0,40.587997222091474,-60.70959648962314,-63.514709232771594
1327,9566,1327.0,42485.0,1327.0,63768.0,36.28099952075664,-62.80443995093104,-67.36908845692743
1327,9568,1327.0,42474.0,1327.0,63755.0,31.952695479686426,-64.88549828815118,-71.2212899065185
1327,9574,1327.0,42540.0,1327.0,63784.0,27.604095608033077,-66.95363102553412,-75.07032350680342
1327,9607,1327.0,42569.0,1327.0,63810.0,23.235860139211923,-69.01050076266219,-78.91543047179104
1337,9567,1337.0,42546.0,1337.0,63784.0,18.848648214626664,-71.05769196982033,-82.75557338008477
1337,9562,1337.0,42508.0,1337.0,63733.0,14.44336245072354,-73.0960771883542,-86.58911466889865
1337,9544,1337.0,42481.0,1337.0,63743.0,10.020991378854433,-75.12605794339956,-90.41414498998182
1337,9550,1337.0,42488.0,1337.0,63744.0,5.5822844801663365,-77.1483261888674,-94.22906685373826
1337,9564,1337.0,42525.0,1337.0,63762.0,1.127615959781437,-79.16438332351929,-98.03278400572805
1337,9559,1337.0,42574.0,1337.0,63783.0,-3.342867648482155,-81.17632094025522,-101.82441361317984
1347,9561,1347.0,42549.0,1347.0,63743.0,-7.82897391097373,-83.1859927807924,-105.60284104735626
1347,9545,1347.0,42498.0,1347.0,63717.0,-12.330287573935848,-85.19438125197021,-109.36658477368175
1347,9513,1347.0,42465.0,1347.0,63711.0,-16.84622386834056,-87.20187889238986,-113.11418994865235
1347,9541,1347.0,42507.0,1347.0,63738.0,-21.376289792459318,-89.20916298445421,-116.84471162193117
1347,9539,1347.0,42561.0,1347.0,63714.0,-25.920245784717793,-91.21758060402725,-120.55780189504262
1347,9552,1347.0,42554.0,1347.0,63744.0,-30.477916861685244,-93.22855636712117,-124.25351034612254
1358,9519,1358.0,42524.0,1358.0,63729.0,-35.048885958665025,-95.24275137310033,-127.93205069913554
1358,9496,1358.0,42469.0,1358.0,63686.0,-39.63247827235088,-97.25995076072313,-131.59367944666727
1358,9498,1358.0,42481.0,1358.0,63680.0,-44.22811149704455,-99.27976687700239,-135.23893938511347
1358,9511,1358.0,42499.0,1358.0,63729.0,-48.83564163364191,-101.30240118949361,-138.86908794086222
1358,9516,1358.0,42529.0,1358.0,63729.0,-53.45534416624429,-103.3287687885927,-142.4860485126814
1358,9523,1358.0,42599.0,1358.0,63753.0,-58.08759941797854,-105.35988023886037,-146.09179979538138
1368,9504,1368.0,42507.0,1368.0,63690.0,-62.732571472510415,-107.39589764300345,-149.68782228623712
1368,9487,1368.0,42481.0,1368.0,63693.0,-67.39011135707341,-109.43577354371021,-153.27510986903937
1368,9478,1368.0,42475.0,1368.0,63683.0,-72.05994317135736,-111.47793406883537,-156.85463512473572
1368,9496,1368.0,42503.0,1368.0,63721.0,-76.74191258116133,-113.5211604347466,-160.4276774079107
1368,9498,1368.0,42521.0,1368.0,63734.0,-81.43598805585023,-115.56476627316573,-163.99561295989983
1368,9489,1368.0,42540.0,1368.0,63685.0,-86.14201687897054,-117.60814569514861,-167.55942200731803
1379,9478,1379.0,42496.0,1379.0,63676.0,-90.85953342217331,-119.65024661678979,-171.11955837172343
1379,9457,1379.0,42464.0,1379.0,63654.0,-95.58781194296608,-121.68952994061542,-174.6763798838371
1379,9453,1379.0,42472.0,1379.0,63667.0,-100.32611130495829,-123.72452795497453,-178.2306802009216
1379,9480,1379.0,42515.0,1379.0,63712.0,-105.07387891495586,-125.75437059703596,-181.783832271155
1379,9476,1379.0,42527.0,1379.0,63712.0,-109.83064474580837,-127.77863608068958,-185.33736330802404
1379,9446,1379.0,42524.0,1379.0,63689.0,-114.59572486373969,-129.7967100773122,-188.8922951486916
1389,9436,1389.0,42473.0,1389.0,63662.0,-119.36818576676777,-131.80737593536048,-192.44889551938903
1389,9433,1389.0,42453.0,1389.0,63619.0,-124.1471363398094,-133.8090933227178,-196.00707290524977
1389,9438,1389.0,42479.0,1389.0,63665.0,-128.93197711494182,-135.8007002213234,-199.56704669576277
1389,9441,1389.0,42484.0,1389.0,63693.0,-133.7223943734995,-137.78182799314004,-203.12960656325092
1389,9447,1389.0,42543.0,1389.0,63692.0,-138.5181699397537,-139.75266528160205,-206.6956332234914
1389,9427,1389.0,42482.0,1389.0,63684.0,-143.3189645289688,-141.71334801198347,-210.26539862907617
1399,9410,1399.0,42452.0,1399.0,63646.0,-148.12426893656774,-143.66367974310788,-213.8383012588057
1399,9401,1399.0,42460.0,1399.0,63610.0,-152.93361010008093,-145.60358711144966,-217.4131963714555
1399,9414,1399.0,42490.0,1399.0,63626.0,-157.74681574844206,-147.5337093265752,-220.9890844651916
1399,9424,1399.0,42519.0,1399.0,63662.0,-162.56403814222872,-149.45534258529233,-224.5655710950837
1399,9411,1399.0,42520.0,1399.0,63660.0,-167.38551060250325,-151.36981223793202,-228.14265488289365
1399,9401,1399.0,42481.0,1399.0,63635.0,-172.2113262174872,-153.27791014156884,-231.72020193123313
1410,9391,1410.0,42459.0,1410.0,63627.0,-177.0414512125312,-155.1799253529991,-235.29776637847806
1410,9382,1410.0,42428.0,1410.0,63586.0,-181.87589203263792,-157.07627015913033,-238.87488661870972
1410,9378,1410.0,42484.0,1410.0,63626.0,-186.7148663824717,-158.96817728603213,-242.45154149931417
1410,9383,1410.0,42550.0,1410.0,63629.0,-191.5588972733319,-160.85772556306276,-246.02833545508335
1410,9383,1410.0,42519.0,1410.0,63661.0,-196.4087754291096,-162.74696329944362,-249.6061737799517
1410,9372,1410.0,42472.0,1410.0,63611.0,-201.26543253323348,-164.6370420105357,-253.18572955412756
1420,9363,1420.0,42463.0,1420.0,63569.0,-206.12987707136395,-166.52832372396097,-256.7673416965566
1420,9363,1420.0,42469.0,1420.0,63608.0,-211.003251428669,-168.42110970257596,-260.3515201849134
1420,9351,1420.0,42508.0,1420.0,63628.0,-215.88691509454713,-170.31604549100882,-263.9393420333962
1420,9370,1420.0,42520.0,1420.0,63652.0,-220.78245882295653,-172.2138562162438,-267.53211065757455
1420,9378,1420.0,42483.0,1420.0,63605.0,-225.69155863799807,-174.11480067668532,-271.13068536156106
1420,9349,1420.0,42459.0,1420.0,63577.0,-230.61569594419882,-176.01852619297225,-274.73528837399897
1430,9335,1430.0,42441.0,1430.0,63578.0,-235.55605331891104,-177.92455289289595,-278.34596749438094
1430,9330,1430.0,42436.0,1430.0,63581.0,-240.51374581356436,-179.8329766223111,-281.96315579290905
1430,9348,1430.0,42488.0,1430.0,63615.0,-245.49007202449917,-181.7448724178474,-285.58779004863914
1430,9336,1430.0,42561.0,1430.0,63593.0,-250.48648336190428,-183.66196141213726,-289.2209939810696
1430,9335,1430.0,42502.0,1430.0,63568.0,-255.5043908742108,-185.5855654260851,-292.86376944129586
1430,9314,1430.0,42428.0,1430.0,63551.0,-260.54508278449237,-187.5159177249522,-296.5171205090878
1441,9305,1441.0,42416.0,1441.0,63550.0,-265.6098417378811,-189.4527871179689,-300.1825072527938
1441,9317,1441.0,42471.0,1441.0,63589.0,-270.70013624718894,-191.39667268476532,-303.86212925759327
1441,9333,1441.0,42507.0,1441.0,63600.0,-275.81762725848574,-193.34913026335275,-307.55868876964115
1441,9325,1441.0,42519.0,1441.0,63587.0,-280.9638784856817,-195.31201616573486,-311.2747973088834
1441,9309,1441.0,42472.0,1441.0,63584.0,-286.1400335468336,-197.2866073181609,-315.0125396931528
1441,9296,1441.0,42438.0,1441.0,63542.0,-291.34676746002555,-199.27348213830433,-318.7734726437692
1451,9273,1451.0,42421.0,1451.0,63561.0,-296.5845165103244,-201.273210678739,-322.5589445775267
1451,9286,1451.0,42460.0,1451.0,63573.0,-301.8537921870715,-203.28716190005986,-326.37037631047855
1451,9297,1451.0,42512.0,1451.0,63592.0,-307.1553201385604,-205.3176387976312,-330.20913835879037
1451,9290,1451.0,42516.0,1451.0,63573.0,-312.489868537515,-207.3671612257603,-334.0761178828124
1451,9262,1451.0,42485.0,1451.0,63538.0,-317.858016776101,-209.43756215432055,-337.9714730681946
1451,9254,1451.0,42434.0,1451.0,63517.0,-323.2602145703401,-211.52977153070623,-341.8949068065047
1461,9259,1461.0,42468.0,1461.0,63525.0,-328.69705657739536,-213.64437673382528,-345.8462552717169
1461,9265,1461.0,42499.0,1461.0,63571.0,-334.1694122877945,-215.7821237913155,-349.8258004712443
1461,9270,1461.0,42492.0,1461.0,63570.0,-339.6782715359789,-217.9437198423224,-353.8339364340115
1461,9256,1461.0,42492.0,1461.0,63554.0,-345.2244776183981,-220.1293172808723,-357.8705209190505
1461,9244,1461.0,42435.0,1461.0,63523.0,-350.8085867887455,-222.33836964786616,-361.93458248799834
1461,9246,1461.0,42423.0,1461.0,63510.0,-356.43091886387185,-224.5700859235132,-366.02459746338013
1472,9230,1472.0,42473.0,1472.0,63519.0,-362.0916613099356,-226.82410682155552,-370.138974556488
1472,9253,1472.0,42496.0,1472.0,63551.0,-367.7908912087823,-229.10063409224924,-374.27624735149044
1472,9241,1472.0,42548.0,1472.0,63544.0,-373.5284523633925,-231.3997173828368,-378.4347763710883
1472,9225,1472.0,42462.0,1472.0,63519.0,-379.30376646649813,-233.7203199368507,-382.6123088528716
1472,9214,1472.0,42435.0,1472.0,63515.0,-385.1158110663892,-236.06012238115443,-386.80588400862734
1472,9206,1472.0,42420.0,1472.0,63463.0,-390.96330279946926,-238.41631962337925,-391.0121526470814
1482,9211,1482.0,42440.0,1482.0,63499.0,-396.84487140717823,-240.78659132199897,-395.22787650060195
1482,9213,1482.0,42483.0,1482.0,63546.0,-402.75906470349656,-243.16939807200558,-399.4501419043808
1482,9214,1482.0,42508.0,1482.0,63531.0,-408.70418656104727,-245.56348600140603,-403.67588723591973
1482,9189,1482.0,42430.0,1482.0,63493.0,-414.67811974317243,-247.96715837811226,-407.90122990524935
1482,9180,1482.0,42437.0,1482.0,63477.0,-420.67833601008607,-250.37817030561513,-412.1214207001745
1482,9176,1482.0,42423.0,1482.0,63461.0,-426.7020955911364,-252.7943275120101,-416.33137906760464
1492,9182,1492.0,42491.0,1492.0,63496.0,-432.7466033758865,-255.21392719710883,-420.5261699853758
1492,9191,1492.0,42532.0,1492.0,63523.0,-438.80893977680375,-257.6353650844275,-424.7009530817644
1492,9183,1492.0,42497.0,1492.0,63512.0,-444.885806829141,-260.0561171802758,-428.8504102340631
1492,9173,1492.0,42439.0,1492.0,63504.0,-450.9732879494574,-262.47208994653425,-432.9681597613181
1492,9153,1492.0,42429.0,1492.0,63461.0,-457.06680562029305,-264.8780351325168,-437.04664105741233
1492,9147,1492.0,42438.0,1492.0,63480.0,-463.1612872468726,-267.2684870390657,-441.0774455883286
1503,9164,1503.0,42465.0,1503.0,63510.0,-469.251343031917,-269.6382671809615,-445.0516027323161
1503,9165,1503.0,42498.0,1503.0,63503.0,-475.3312050905421,-271.9822590316635,-448.95937753935516
1503,9142,1503.0,42484.0,1503.0,63477.0,-481.39447250197964,-274.2947606240747,-452.78984378435615
1503,9128,1503.0,42442.0,1503.0,63448.0,-487.43401258939264,-276.56901824646116,-456.53085391264096
1503,9114,1503.0,42421.0,1503.0,63424.0,-493.4421643430406,-278.797431161455,-460.16953372478844
1503,9119,1503.0,42446.0,1503.0,63466.0,-499.4110216067512,-280.97220293177804,-463.69287113649625
1513,9139,1513.0,42454.0,1513.0,63480.0,-505.3325089049887,-283.0857231967784,-467.0878327836007
1513,9130,1513.0,42451.0,1513.0,63476.0,-511.19814695606425,-285.130439324658,-470.3409117529778
1513,9128,1513.0,42423.0,1513.0,63443.0,-516.9987044356076,-287.09866137947284,-473.43767957618826
1513,9092,1513.0,42423.0,1513.0,63408.0,-522.724056015209,-288.98269324818966,-476.3628933769748
1513,9088,1513.0,42383.0,1513.0,63429.0,-528.3633724466116,-290.7752476766011,-479.1010655471523
1513,9107,1513.0,42441.0,1513.0,63452.0,-533.9054224321328,-292.46987427929747,-481.6368771810564
1523,9106,1523.0,42464.0,1523.0,63464.0,-539.338604146657,-294.0609777984085,-483.95499864288723
1523,9093,1523.0,42486.0,1523.0,63465.0,-544.6506966553155,-295.5432021877384,-486.03955453811426
1523,9076,1523.0,42461.0,1523.0,63453.0,-549.8287120622805,-296.9106340222963,-487.8737152349014
1523,9061,1523.0,42409.0,1523.0,63399.0,-554.8590410399904,-298.15654180995796,-489.43970484447703
1523,9053,1523.0,42420.0,1523.0,63418.0,-559.727758592008,-299.27385984145417,-490.7192788211886
1523,9065,1523.0,42451.0,1523.0,63433.0,-564.4208699009479,-300.25583598535144,-491.6942649843879
1534,9083,1534.0,42478.0,1534.0,63469.0,-568.9242943374397,-301.09607868572573,-492.3465836932985
1534,9058,1534.0,42485.0,1534.0,63492.0,-573.2235901065221,-301.7879831425788,-492.65767693222375
1534,9045,1534.0,42495.0,1534.0,63408.0,-577.3037599733489,-302.3240772191484,-492.6078993709318
1534,9027,1534.0,42417.0,1534.0,63374.0,-581.1494097144948,-302.69576084655387,-492.1766814910742
1534,9032,1534.0,42399.0,1534.0,63392.0,-584.7450978808752,-302.8937751056049,-491.343556478105
1534,9033,1534.0,42479.0,1534.0,63394.0,-588.0755657139724,-302.9090774635623,-490.0890963388025
1544,9047,1544.0,42494.0,1544.0,63419.0,-591.1257181938586,-302.73303874539636,-488.39512447192675
1544,9035,1544.0,42467.0,1544.0,63407.0,-593.8804336132409,-302.35675975824955,-486.2445028008947
1544,9010,1544.0,42418.0,1544.0,63385.0,-596.3244470366415,-301.77065327444586,-483.62099796151665
1544,9013,1544.0,42404.0,1544.0,63361.0,-598.4425105056799,-300.9649777028795,-480.5095427984348
1544,9017,1544.0,42405.0,1544.0,63371.0,-600.2196766797147,-299.9308026575405,-476.89683500313777
1544,9018,1544.0,42487.0,1544.0,63428.0,-601.6414089156842,-298.660534506173,-472.77176137358674
1554,9026,1554.0,42494.0,1554.0,63452.0,-602.6935000550109,-297.14752458479296,-468.125148263349
1554,9029,1554.0,42439.0,1554.0,63415.0,-603.3619278818738,-295.3852419705832,-462.9490773800491
1554,9005,1554.0,42400.0,1554.0,63391.0,-603.6327549704286,-293.36714836229555,-457.23663743211864
1554,9001,1554.0,42399.0,1554.0,63391.0,-603.4922292007304,-291.08757074120325,-450.9824518653861
1554,9000,1554.0,42429.0,1554.0,63415.0,-602.9270833682037,-288.54267146138164,-444.1833838871298
1554,9018,1554.0,42486.0,1554.0,63460.0,-601.9247712444948,-285.7306558621954,-436.83874909313215
1565,9013,1565.0,42496.0,1565.0,63428.0,-600.4734664758543,-282.65114871714485,-428.9500196049805
1565,8995,1565.0,42468.0,1565.0,63446.0,-598.5619926914987,-279.30438110000694,-420.52057019032213
1565,8990,1565.0,42428.0,1565.0,63429.0,-596.179966499479,-275.6910072924436,-411.555824516668
1565,9001,1565.0,42429.0,1565.0,63471.0,-593.3181233728667,-271.81273183712824,-402.06355655761456
1565,8993,1565.0,42497.0,1565.0,63468.0,-589.9685616507677,-267.6730262654339,-392.0539988924785
1565,9021,1565.0,42514.0,1565.0,63491.0,-586.124809834752,-263.27709154763846,-381.5397455021467
1575,9026,1575.0,42541.0,1575.0,63536.0,-581.7817396949299,-258.63110055567034,-370.53555598625184
1575,9020,1575.0,42516.0,1575.0,63503.0,-576.9353881299617,-253.7414671274646,-359.0580850798744
1575,9005,1575.0,42463.0,1575.0,63497.0,-571.5829287692554,-248.61475674979997,-347.125818289492
1575,9005,1575.0,42480.0,1575.0,63522.0,-565.7229492698102,-243.25834388456911,-334.75945797646585
1575,9034,1575.0,42561.0,1575.0,63584.0,-559.3558097622065,-237.68112158393916,-321.9822574031536
1575,9055,1575.0,42584.0,1575.0,63595.0,-552.4837121464404,-231.89329986021323,-308.8197354275259
1585,9068,1585.0,42565.0,1585.0,63619.0,-545.1104114173415,-225.9054787050125,-295.2990362013212
1585,9067,1585.0,42558.0,1585.0,63636.0,-537.2408684595274,-219.72808824095173,-281.4484673118923
1585,9060,1585.0,42504.0,1585.0,63637.0,-528.8811477497402,-213.37168338279042,-267.2973187035181
1585,9068,1585.0,42542.0,1585.0,63658.0,-520.038600280094,-206.84775065852406,-252.87586432495655
1585,9089,1585.0,42596.0,1585.0,63711.0,-510.72211698865055,-200.169302348494,-238.21537151482116
1585,9122,1585.0,42626.0,1585.0,63745.0,-500.9421630639388,-193.35063425910977,-223.34779942103106
1596,9118,1596.0,42662.0,1596.0,63743.0,-490.7105381932853,-186.4064268220668,-208.3052137769864
1596,9126,1596.0,42614.0,1596.0,63737.0,-480.0401457366692,-179.3509479582121,-193.11943912281333
1596,9132,1596.0,42592.0,1596.0,63765.0,-468.9450092430111,-172.1979764954321,-177.8222064712958
1596,9152,1596.0,42629.0,1596.0,63802.0,-457.44042053789417,-164.96141937043774,-162.4453906431754
1596,9181,1596.0,42665.0,1596.0,63826.0,-445.5429720326644,-157.65580862817507,-147.020897095152
1596,9208,1596.0,42709.0,1596.0,63862.0,-433.27035538254836,-150.2960362452959,-131.58025589595226
1606,9202,1606.0,42683.0,1606.0,63870.0,-420.6410372616039,-142.8966501026591,-116.15419299826169
1606,9214,1606.0,42650.0,1606.0,63855.0,-407.67410107459955,-135.47152416324778,-100.77241658790868
1606,9226,1606.0,42664.0,1606.0,63863.0,-394.3893531699702,-128.03427879751698,-85.46381179239052
1606,9257,1606.0,42717.0,1606.0,63909.0,-380.80745413522453,-120.59887809051668,-70.25685255378886
1606,9272,1606.0,42749.0,1606.0,63947.0,-366.9498600169268,-113.17958205527287,-55.17968332233812
1606,9298,1606.0,42753.0,1606.0,63961.0,-352.8386132692042,-105.7902856789043,-40.25970977309254
1617,9305,1617.0,42735.0,1617.0,63961.0,-338.4961324915201,-98.44397288223925,-25.523150948510818
1617,9312,1617.0,42692.0,1617.0,63955.0,-323.9451216655086,-91.15282932672554,-10.994991088751647
1617,9323,1617.0,42726.0,1617.0,63969.0,-309.2086528044374,-83.92893674411167,3.3006858899722147
1617,9363,1617.0,42778.0,1617.0,64002.0,-294.3102958070339,-76.78484413307189,17.340334233476142
1617,9394,1617.0,42816.0,1617.0,64053.0,-279.2740276357022,-69.73333140923984,31.100947866115064
1617,9415,1617.0,42810.0,1617.0,64057.0,-264.1238552967129,-62.78658164079354,44.56050122730011
1627,9398,1627.0,42802.0,1627.0,64056.0,-248.88346754774818,-55.955579044064734,57.69842137915555
1627,9413,1627.0,42762.0,1627.0,64054.0,-233.57626870703172,-49.25019578105517,70.49564080738446
1627,9430,1627.0,42771.0,1627.0,64098.0,-218.22571284618388,-42.67984375443828,82.93434086197891
1627,9473,1627.0,42858.0,1627.0,64120.0,-202.85551059999884,-36.254061696650865,94.99788631615132
1627,9508,1627.0,42900.0,1627.0,64145.0,-187.48943665194355,-29.98222573247665,106.67113982761282
1627,9495,1627.0,42873.0,1627.0,64146.0,-172.15090307226637,-23.872480247112662,117.94086744812915
1637,9527,1637.0,42831.0,1637.0,64142.0,-156.86271260273526,-17.931068591172618,128.79590377923114
1637,9531,1637.0,42825.0,1637.0,64121.0,-141.6470983880321,-12.162751427416879,139.22694363746973
1637,9554,1637.0,42866.0,1637.0,64188.0,-126.52580859190203,-6.5716649236875355,149.22613868175483
1637,9593,1637.0,42949.0,1637.0,64242.0,-111.52007530197119,-1.1615318940716293,158.78709832853377
1637,9613,1637.0,42929.0,1637.0,64221.0,-96.65039416403394,4.065096019458679,167.90556841071628
1637,9625,1637.0,42866.0,1637.0,64197.0,-81.93617881809627,9.107644449594659,176.58003091306165
1648,9622,1648.0,42859.0,1648.0,64185.0,-67.3955687470081,13.967277961494574,184.81148019084412
1648,9635,1648.0,42838.0,1648.0,64177.0,-53.045539663919214,18.645821684040925,192.60264892653413
1648,9661,1648.0,42884.0,1648.0,64206.0,-38.90213776134419,23.14483451002576,199.95732532026688
1648,9695,1648.0,42939.0,1648.0,64217.0,-24.980529663156176,27.46544498133312,206.8800872548557
1648,9709,1648.0,42958.0,1648.0,64256.0,-11.294764348049625,31.609006476051377,213.37646748442535
1648,9705,1648.0,42904.0,1648.0,64226.0,2.1425085769514,35.57794228041621,219.45330887701385
1658,9712,1658.0,42879.0,1658.0,64208.0,15.320053055207097,39.37583541973976,225.11886836042208
1658,9715,1658.0,42875.0,1658.0,64200.0,28.227785528218817,43.00664174787602,230.3824042447631
1658,9748,1658.0,42954.0,1658.0,64259.0,40.856498056744954,46.473934835957834,235.25363723731851
1658,9772,1658.0,42966.0,1658.0,64273.0,53.19781891144652,49.7810345251811,239.74275470626924
1658,9772,1658.0,42960.0,1658.0,64269.0,65.24441498148872,52.93179844353455,243.8609457377416
1658,9785,1658.0,42916.0,1658.0,64245.0,76.99016104753389,55.93109689521742,247.62077859030063
1668,9788,1668.0,42916.0,1668.0,64232.0,88.43010009384824,58.78448125523278,251.03600329710957
1668,9798,1668.0,42917.0,1668.0,64216.0,99.56029199851866,61.497472719755365,254.1209692418724
1668,9821,1668.0,42954.0,1668.0,64253.0,110.37769040254148,64.07512692533317,256.8900721333541
1668,9849,1668.0,42986.0,1668.0,64274.0,120.88017538281468,66.52217579821036,259.35762049929684
1668,9853,1668.0,42971.0,1668.0,64289.0,131.06678250353792,68.84357243085446,261.5382123038905
1668,9840,1668.0,42930.0,1668.0,64242.0,140.9378935635222,71.04483980879866,263.4471760063361
1679,9852,1679.0,42945.0,1679.0,64249.0,150.49512598837157,73.13178812693576,265.1005332296
1679,9864,1679.0,42940.0,1679.0,64235.0,159.74104430507276,75.10994252829329,266.51453111416663
1679,9889,1679.0,42972.0,1679.0,64288.0,168.67902554081041,76.98426189060064,267.7052902469439
1679,9897,1679.0,43009.0,1679.0,64271.0,177.31337358144816,78.75932859730307,268.68891774716496
1679,9886,1679.0,42990.0,1679.0,64243.0,185.6494759628742,80.43986949521974,269.4817915499297
1679,9895,1679.0,42948.0,1679.0,64251.0,193.69375606370596,82.03109993392317,270.1004851525471
1689,9881,1689.0,42945.0,1689.0,64225.0,201.45340838564312,83.53839896956168,270.5613565804088
1689,9906,1689.0,42968.0,1689.0,64232.0,208.93609075836963,84.9666332924239,270.8801410260571
1689,9923,1689.0,43024.0,1689.0,64278.0,216.1497695424485,86.31993515015958,271.07175103383406
1689,9935,1689.0,43048.0,1689.0,64289.0,223.1028268668187,87.60227004899713,271.15052454596685
1689,9916,1689.0,42982.0,1689.0,64241.0,229.80424548638246,88.8182557858976,271.1307462861802
1689,9924,1689.0,42964.0,1689.0,64212.0,236.26355933704144,89.97328355483751,271.02669121553885
1699,9932,1699.0,42946.0,1699.0,64236.0,242.49059783211578,91.0727446775841,270.8520115128327
1699,9947,1699.0,43002.0,1699.0,64257.0,248.49531905831333,92.12119858790439,270.6192315884687
1699,9954,1699.0,43028.0,1699.0,64289.0,254.28784690885504,93.12228734317057,270.33992138356905
1699,9945,1699.0,43033.0,1699.0,64255.0,259.87855803135153,94.07936211572374,270.02525815785333
1699,9941,1699.0,43016.0,1699.0,64236.0,265.27801589291107,94.99613145419767,269.6863024905739
1699,9955,1699.0,43004.0,1699.0,64236.0,270.4967435347909,95.87679491587627,269.33371695332477
1710,9940,1710.0,42997.0,1710.0,64218.0,275.54500467134994,96.72573075502214,268.97727315568204
1710,9973,1710.0,43029.0,1710.0,64264.0,280.4326798173448,97.5471443018937,268.62556168678674
1710,9972,1710.0,43058.0,1710.0,64283.0,285.16927151821506,98.34508366218259,268.286131297374
1710,9985,1710.0,43039.0,1710.0,64261.0,289.7640525312594,99.12385902816058,267.96599633188924
1710,9978,1710.0,43019.0,1710.0,64243.0,294.2262089192418,99.88836156316984,267.6719738542916
1710,9975,1710.0,42985.0,1710.0,64251.0,298.5648259780578,100.64381828764732,267.410518348801
1720,9981,1720.0,43009.0,1720.0,64241.0,302.78873086915746,101.39514470997491,267.18739173735577
1720,9993,1720.0,43034.0,1720.0,64275.0,306.9063393973332,102.14649406098553,267.00754087260214
1720,10003,1720.0,43093.0,1720.0,64273.0,310.92565235910524,102.90147248037252,266.8752572001216
1720,10013,1720.0,43011.0,1720.0,64257.0,314.85439309634,103.66379741127295,266.79445653207705
1720,9996,1720.0,43008.0,1720.0,64219.0,318.70013624168257,104.43751269454219,266.76868214416646
1720,9997,1720.0,42995.0,1720.0,64237.0,322.4702533669865,105.2263878789893,266.80066917385835
1730,10002,1730.0,43023.0,1730.0,64282.0,326.17168338707154,106.03320587609815,266.8919619733088
1730,10019,1730.0,43081.0,1730.0,64285.0,329.8107622352305,106.85967547820485,267.043136806821
1730,10038,1730.0,43109.0,1730.0,64270.0,333.3932957474067,107.70710221687227,267.25438294844804
1730,10015,1730.0,43053.0,1730.0,64262.0,336.9247804364634,108.5773216895027,267.5257723070977
1730,10005,1730.0,43034.0,1730.0,64251.0,340.4104421031194,109.47298867857444,267.85707388673313
1730,10009,1730.0,43016.0,1730.0,64262.0,343.854940329016,110.39696499061418,268.24744092350693
1741,10035,1741.0,43054.0,1741.0,64297.0,347.2620543869191,111.35153649688039,268.69530664794286
1741,10041,1741.0,43110.0,1741.0,64271.0,350.6346985010157,112.3382606833909,269.19860607749916
1741,10047,1741.0,43077.0,1741.0,64266.0,353.9751833645927,113.35854177792697,269.75500818959506
1741,10044,1741.0,43036.0,1741.0,64287.0,357.28542431007645,114.41414212722219,270.36186712634543
1741,10037,1741.0,43055.0,1741.0,64261.0,360.56695237205076,115.50692754705543,271.01609690202565
1741,10042,1741.0,43057.0,1741.0,64260.0,363.8207686567888,116.63828168942536,271.71407695846386
1751,10071,1751.0,43089.0,1751.0,64284.0,367.0472241060294,117.80892600526838,272.4514915328831
1751,10064,1751.0,43110.0,1751.0,64302.0,370.24611687799603,119.0192221626157,273.22333366143556
1751,10068,1751.0,43110.0,1751.0,64309.0,373.4169021017948,120.26968976443635,274.02424799724497
1751,10061,1751.0,43074.0,1751.0,64266.0,376.55875092845974,121.561354843375,274.84886250019326
1751,10047,1751.0,43054.0,1751.0,64272.0,379.67039818588785,122.895554727259,275.69168216564105
1751,10072,1751.0,43077.0,1751.0,64284.0,382.74989604327277,124.27332876329032,276.5466825808514
1761,10086,1761.0,43118.0,1761.0,64316.0,385.79451050488905,125.69505257223958,277.40716001278776
1761,10098,1761.0,43125.0,1761.0,64325.0,388.80092067200536,127.16072661798256,278.26606488042114
1761,10112,1761.0,43101.0,1761.0,64342.0,391.7655751531872,128.67052445429096,279.11655574277864
1761,10088,1761.0,43078.0,1761.0,64308.0,394.6849547869512,130.2249105585496,279.952409756323
1761,10086,1761.0,43079.0,1761.0,64291.0,397.55555965576684,131.82419822883492,280.76800649886
1761,10109,1761.0,43070.0,1761.0,64318.0,400.37367717068014,133.46797251538896,281.55793797890726
1772,10120,1772.0,43159.0,1772.0,64344.0,403.135293587959,135.15486589916594,282.31678332476554
1772,10122,1772.0,43143.0,1772.0,64356.0,405.83629681120874,136.88298826763395,283.03941664681406
1772,10120,1772.0,43122.0,1772.0,64326.0,408.47270145448647,138.65065303058583,283.72149612013806
1772,10133,1772.0,43080.0,1772.0,64323.0,411.040718211383,140.45651709201076,284.35957995147686
1772,10121,1772.0,43103.0,1772.0,64321.0,413.53675063122836,142.29896878761627,284.9508390145042
1772,10139,1772.0,43132.0,1772.0,64332.0,415.95738418497757,144.17554499219256,285.4927649398601
1782,10142,1782.0,43162.0,1782.0,64357.0,418.29940011801835,146.08300683106694,285.9831590992154
1782,10143,1782.0,43157.0,1782.0,64347.0,420.5598587229821,148.01790813168412,286.4203863757588
1782,10145,1782.0,43169.0,1782.0,64346.0,422.73618130707905,149.9771062646298,286.803642849819
1782,10136,1782.0,43109.0,1782.0,64311.0,424.82613583507964,151.95785930696348,287.13294401195765
1782,10142,1782.0,43110.0,1782.0,64331.0,426.8277324039465,153.95738820655407,287.4088051984576
1782,10153,1782.0,43173.0,1782.0,64339.0,428.7391237383785,155.97225009779936,287.63193399988165
1792,10162,1792.0,43185.0,1792.0,64344.0,430.5586402915413,157.99830199570658,287.8032321158381
1792,10152,1792.0,43193.0,1792.0,64314.0,432.2849337031852,160.03134402425343,287.9239346190617
1792,10154,1792.0,43178.0,1792.0,64327.0,433.9170404637216,162.06768948626006,287.9955324497164
1792,10145,1792.0,43138.0,1792.0,64320.0,435.45428690349826,164.1041620477397,288.0195307182877
1792,10150,1792.0,43166.0,1792.0,64338.0,436.89612458410664,166.13761324760185,287.99733013904336
1792,10161,1792.0,43226.0,1792.0,64341.0,438.2420195631715,168.16455743682053,287.93031654331196
1803,10168,1803.0,43209.0,1803.0,64369.0,439.4914906672974,170.18148684533816,287.8201098577528
1803,10174,1803.0,43228.0,1803.0,64327.0,440.64428060121725,172.18552487982015,287.6688551240797
1803,10163,1803.0,43182.0,1803.0,64325.0,441.70051622409636,174.17470136493029,287.47926206695354
1803,10161,1803.0,43160.0,1803.0,64318.0,442.66072038782676,176.14762923454913,287.2542818366503
1803,10153,1803.0,43211.0,1803.0,64352.0,443.5256652155156,178.10287010831087,286.9967972533728
1803,10161,1803.0,43224.0,1803.0,64361.0,444.2961821576409,180.03865258466294,286.70971703786927
1813,10185,1813.0,43249.0,1813.0,64339.0,444.97310284333423,181.95325697640624,286.39634441695614
1813,10176,1813.0,43233.0,1813.0,64327.0,445.55742986321695,183.84559299411615,286.06053431550885
1813,10169,1813.0,43161.0,1813.0,64318.0,446.0505593690829,185.7153187923048,285.70644272660496
1813,10165,1813.0,43181.0,1813.0,64314.0,446.4542903500635,187.56221607052447,285.3381312209547
1813,10170,1813.0,43223.0,1813.0,64342.0,446.77066910967454,189.38536765118346,284.9593320470766
1813,10191,1813.0,43293.0,1813.0,64347.0,447.0019279227888,191.18315143098062,284.57353154375414
1823,10165,1823.0,43269.0,1823.0,64348.0,447.15059875624956,192.95417013484627,284.18429484227306
1823,10188,1823.0,43222.0,1823.0,64331.0,447.2196218701316,194.6980787512229,283.795511995499
1823,10167,1823.0,43196.0,1823.0,64342.0,447.21234196040126,196.41539901462437,283.411385305253
1823,10149,1823.0,43210.0,1823.0,64301.0,447.1324038907714,198.10660224547053,283.03624069420596
1823,10160,1823.0,43255.0,1823.0,64328.0,446.983501362635,199.77145823168968,282.67424191439807
1823,10172,1823.0,43261.0,1823.0,64311.0,446.76914435350903,201.4091661924989,282.3291248315992
1834,10167,1834.0,43281.0,1834.0,64315.0,446.4926900768944,203.0189420142491,282.0040791490753
1834,10162,1834.0,43238.0,1834.0,64330.0,446.1574916433703,204.60045061731466,281.7017329301551
1834,10153,1834.0,43231.0,1834.0,64314.0,445.7669012310053,206.15371920650193,281.42419934296356
1834,10166,1834.0,43213.0,1834.0,64332.0,445.32415194148814,207.67859010545862,281.1731551862135
1834,10177,1834.0,43295.0,1834.0,64353.0,444.8323327484609,209.17424339414458,280.94995517387304
1834,10176,1834.0,43309.0,1834.0,64350.0,444.2945596431618,210.63942278202876,280.7559053688701
1844,10173,1844.0,43281.0,1844.0,64358.0,443.71419312107895,212.0732251052649,280.5926127458274
1844,10158,1844.0,43249.0,1844.0,64319.0,443.09489953538923,213.4755043595,280.46212954033655
1844,10146,1844.0,43248.0,1844.0,64323.0,442.44049752037273,214.84644912458032,280.36674864774363
1844,10159,1844.0,43285.0,1844.0,64333.0,441.75469460168557,216.1859627650157,280.3086280942781
1844,10176,1844.0,43303.0,1844.0,64336.0,441.0409708848143,217.49357292053122,280.28961282662164
1844,10183,1844.0,43277.0,1844.0,64334.0,440.3027796950165,218.76880350968798,280.3113144640972
1854,10149,1854.0,43300.0,1854.0,64298.0,439.543842445852,220.01143047740794,280.37513123124074
1854,10148,1854.0,43242.0,1854.0,64321.0,438.7681409742396,221.22136024062513,280.48200564805285
1854,10145,1854.0,43252.0,1854.0,64298.0,437.9796031745565,222.39819155317838,280.6320980224218
1854,10144,1854.0,43299.0,1854.0,64340.0,437.1818258378686,223.54072792937757,280.8246489197985
1854,10161,1854.0,43347.0,1854.0,64341.0,436.37801063600904,224.64706192488472,281.05813381589803
1854,10149,1854.0,43342.0,1854.0,64350.0,435.57106254284827,225.7153972564618,281.33063710137276
1865,10165,1865.0,43319.0,1865.0,64352.0,434.76374130769017,226.74485599221805,281.64021073216185
1865,10142,1865.0,43288.0,1865.0,64328.0,433.95875862827853,227.73556458536302,281.98501925897256
1865,10133,1865.0,43287.0,1865.0,64328.0,433.15872986602665,228.6880916326459,282.36321868024623
1865,10145,1865.0,43311.0,1865.0,64336.0,432.3659761692094,229.60283030818326,282.77268857862657
1865,10142,1865.0,43324.0,1865.0,64363.0,431.58237726946317,230.47982531928096,283.2109333026147
1865,10155,1865.0,43336.0,1865.0,64356.0,430.80942463295264,231.31904032783768,283.67530606512116
1875,10141,1875.0,43314.0,1875.0,64351.0,430.04836562467847,232.12067930453665,284.1633050968549
1875,10134,1875.0,43271.0,1875.0,64327.0,429.30025852575636,232.8851408822036,284.67260397705917
1875,10149,1875.0,43292.0,1875.0,64330.0,428.56589991211894,233.61249035186393,285.20076967673054
1875,10147,1875.0,43329.0,1875.0,64333.0,427.8457943526805,234.30195117603904,285.7449152860944
1875,10146,1875.0,43345.0,1875.0,64373.0,427.140257468362,234.95202313709183,286.30160523193393
1875,10141,1875.0,43345.0,1875.0,64354.0,426.4495046035993,235.56106929523827,286.86712033611207
1886,10145,1886.0,43314.0,1886.0,64356.0,425.7736441505915,236.1277161161602,287.4377914087163
1886,10130,1886.0,43318.0,1886.0,64330.0,425.1126301593274,236.65074302252728,288.01002912941146
1886,10112,1886.0,43314.0,1886.0,64352.0,424.4661337565868,237.12869211850412,288.58007664333934
1886,10149,1886.0,43371.0,1886.0,64355.0,423.8333354010569,237.55967977472687,289.14382294996483
1886,10155,1886.0,43366.0,1886.0,64382.0,423.2129273781193,237.9417015379519,289.6969099354149
1886,10140,1886.0,43320.0,1886.0,64368.0,422.6034277457819,238.2731005580299,290.23505223125915
1896,10128,1896.0,43315.0,1896.0,64333.0,422.0033929334835,238.55251355471574,290.7542179111482
1896,10138,1896.0,43320.0,1896.0,64327.0,421.41130440700783,238.7782943790635,291.2503564868733
1896,10133,1896.0,43354.0,1896.0,64357.0,420.825406695339,238.94811947216408,291.71889694605204
1896,10151,1896.0,43382.0,1896.0,64385.0,420.243719438341,239.05918811678617,292.15463319985315
1896,10139,1896.0,43367.0,1896.0,64358.0,419.66417696656805,239.10880506530572,292.5521124415293
1896,10130,1896.0,43346.0,1896.0,64338.0,419.0847335785297,239.0947870835659,292.9059194667874
1906,10126,1906.0,43336.0,1906.0,64348.0,418.50329494481457,239.01533327252875,293.21046857662844
1906,10121,1906.0,43325.0,1906.0,64328.0,417.9175283224058,238.86855149251457,293.45961489131946
1906,10131,1906.0,43372.0,1906.0,64382.0,417.3247196171752,238.65209426605267,293.64648393203896
1906,10140,1906.0,43381.0,1906.0,64391.0,416.7217846283308,238.36325432741884,293.76370382843277
1906,10143,1906.0,43389.0,1906.0,64386.0,416.10544468068235,237.9994713246903,293.8039634699448
1906,10143,1906.0,43358.0,1906.0,64374.0,415.4724554377213,237.55876001802935,293.7604374496043
1917,10122,1917.0,43341.0,1917.0,64362.0,414.8197190064643,237.0396512621594,293.62677245041255
1917,10130,1917.0,43348.0,1917.0,64365.0,414.14419848880425,236.44073892912644,293.3968174286938
1917,10133,1917.0,43357.0,1917.0,64399.0,413.4427666213108,235.76028006472558,293.0644559993398
1917,10139,1917.0,43406.0,1917.0,64438.0,412.7121970452747,234.99622069243125,292.62387108821645
1917,10130,1917.0,43399.0,1917.0,64403.0,411.9492821182681,234.1466817238953,292.07020157097156
1917,10133,1917.0,43376.0,1917.0,64393.0,411.1509094019393,233.21051243650544,291.3999961067034
1927,10122,1927.0,43372.0,1927.0,64367.0,410.3140402644785,232.18740362054174,290.6110454095139
1927,10133,1927.0,43353.0,1927.0,64383.0,409.4356514093678,231.07756043158693,289.70188853267086
1927,10132,1927.0,43409.0,1927.0,64376.0,408.51272847224175,229.88139636802856,288.67147488573283
1927,10131,1927.0,43407.0,1927.0,64414.0,407.54234213875037,228.5996591838259,287.51916619396184
1927,10137,1927.0,43416.0,1927.0,64385.0,406.5217441444339,227.233940152534,286.244999509045
1927,10119,1927.0,43343.0,1927.0,64344.0,405.4484205144652,225.7869817998954,284.8498328544465
1937,10113,1937.0,43337.0,1937.0,64360.0,404.3200373722709,224.26227609921838,283.3350173295133
1937,10122,1937.0,43362.0,1937.0,64370.0,403.1342814223154,222.66324648413374,281.70192551294326
1937,10134,1937.0,43397.0,1937.0,64380.0,401.8887955311592,220.9928756769094,279.95189467098703
1937,10123,1937.0,43402.0,1937.0,64378.0,400.5813248331648,219.25410909104014,278.0865138968379
1937,10121,1937.0,43353.0,1937.0,64370.0,399.20987915848514,217.45041647559538,276.10787265229897
1937,10103,1937.0,43329.0,1937.0,64343.0,397.77271353014606,215.58574876089548,274.01856828579474
1948,10106,1948.0,43302.0,1948.0,64342.0,396.268153102284,213.6638151167299,271.82144614981866
1948,10118,1948.0,43361.0,1948.0,64351.0,394.694440684038,211.68731757372282,269.51927056029916
1948,10108,1948.0,43371.0,1948.0,64362.0,393.04975868268843,209.65784127758369,267.11463411333585
1948,10116,1948.0,43410.0,1948.0,64354.0,391.33235873959313,207.57647921515945,264.6101416972118
1948,10111,1948.0,43370.0,1948.0,64336.0,389.5406615030059,205.44462876123794,262.00858174617787
1948,10105,1948.0,43334.0,1948.0,64327.0,387.6733104022371,203.26428812842803,259.31284382755604
1958,10089,1958.0,43326.0,1958.0,64320.0,385.72914304595565,201.03761994411116,256.5256452071562
1958,10114,1958.0,43361.0,1958.0,64354.0,383.7070863591501,198.76629794120913,253.64934962164972
1958,10113,1958.0,43384.0,1958.0,64356.0,381.6061778675609,196.4513915446008,250.68613315884588
1958,10112,1958.0,43385.0,1958.0,64332.0,379.4257941111089,194.09386722527375,247.63837371977814
1958,10084,1958.0,43356.0,1958.0,64307.0,377.1658231314572,191.69511161071745,244.50877829634368
1958,10067,1958.0,43335.0,1958.0,64302.0,374.82651594494547,189.25695217244657,241.30005370919935
1968,10071,1968.0,43349.0,1968.0,64320.0,372.4080918829518,186.7812482988233,238.01450117892512
1968,10097,1968.0,43400.0,1968.0,64353.0,369.910476229458,184.2696517166807,234.65401224253822
1968,10094,1968.0,43402.0,1968.0,64357.0,367.3334494229688,181.72399760963285,231.22056914902473
1968,10090,1968.0,43381.0,1968.0,64331.0,364.677021641001,179.14700258073157,227.71686111259092
1968,10072,1968.0,43337.0,1968.0,64284.0,361.94164219244294,176.5425064525176,224.1464335220859
1968,10052,1968.0,43302.0,1968.0,64265.0,359.12809193511487,173.9149461620239,220.51315752746504
1979,10058,1979.0,43331.0,1979.0,64283.0,356.2371781032204,171.26846839931073,216.82044689746908
1979,10086,1979.0,43355.0,1979.0,64318.0,353.26954722082263,168.60642760656535,213.07092021271953
1979,10074,1979.0,43351.0,1979.0,64321.0,350.22586904004777,165.93159098031603,209.26677136962394
1979,10044,1979.0,43352.0,1979.0,64277.0,347.1071364923423,163.24660312626318,205.41035047246078
1979,10047,1979.0,43307.0,1979.0,64253.0,343.9146343865504,160.55414767991275,201.50423054636812
1979,10028,1979.0,43299.0,1979.0,64270.0,340.6496355084233,157.8566358134853,197.55072559034514
1989,10051,1989.0,43347.0,1989.0,64264.0,337.3131802553894,155.1557331975629,193.55149331272395
1989,10053,1989.0,43380.0,1989.0,64306.0,333.90611987733,152.45239721610685,189.50761507836646
1989,10043,1989.0,43360.0,1989.0,64279.0,330.429366623987,149.74757211067117,185.4200194470111
1989,10031,1989.0,43290.0,1989.0,64244.0,326.884085661006,147.04270015077876,181.28981214019882
1989,10021,1989.0,43314.0,1989.0,64246.0,323.27164658735904,144.33936680323106,177.11812182541496
1989,10030,1989.0,43310.0,1989.0,64262.0,319.5934680803257,141.6385837615261,172.90571667010644
1999,10015,1999.0,43315.0,1999.0,64272.0,315.85095394779273,138.94049296845267,168.65296838930539
1999,10020,1999.0,43347.0,1999.0,64268.0,312.04552054163554,136.24451791196842,164.36019411736987
1999,10011,1999.0,43338.0,1999.0,64238.0,308.1786264419289,133.54972338983544,160.027949083817
1999,9999,1999.0,43312.0,1999.0,64226.0,304.25177198510124,130.855153053839,155.65695640306092
1999,9980,1999.0,43300.0,1999.0,64226.0,300.2664058525507,128.15979668077392,151.2477670507028
1999,9982,1999.0,43308.0,1999.0,64211.0,296.22371033940925,125.46222767583785,146.80046772876864
2009,10005,2009.0,43361.0,2009.0,64256.0,292.12446358155,122.76044308053287,142.31462885751603
2009,10007,2009.0,43356.0,2009.0,64260.0,287.96922357142245,120.05227242397655,137.7896080419311
2009,9988,2009.0,43335.0,2009.0,64236.0,283.7587125108988,117.3360215645433,133.2250977171697
2009,9972,2009.0,43324.0,2009.0,64228.0,279.49399673471714,114.6107080436766,128.621437366
2009,9967,2009.0,43286.0,2009.0,64219.0,275.1763326597048,111.87575039100642,123.97950413157056
2009,9968,2009.0,43312.0,2009.0,64215.0,270.8069397840145,109.1304433044493,119.30049144165602
2019,9982,2019.0,43351.0,2019.0,64221.0,266.3869658029551,106.37369835012521,114.58581036807593
2019,9974,2019.0,43346.0,2019.0,64225.0,261.917682251329,103.60438007245756,109.83715415715491
2019,9966,2019.0,43319.0,2019.0,64208.0,257.4007325445576,100.82186315881674,105.05666517247951
2019,9943,2019.0,43284.0,2019.0,64175.0,252.8382016696298,98.02609631891397,100.24696741782779
2019,9934,2019.0,43282.0,2019.0,64156.0,248.23244271146072,95.21707171257512,95.41084803299313
2019,9930,2019.0,43305.0,2019.0,64202.0,243.58580180765094,92.39424835960874,90.55081636014319
2029,9932,2029.0,43332.0,2029.0,64185.0,238.90044585228972,89.55647796437827,85.66906058829304
2029,9928,2029.0,43347.0,2029.0,64193.0,234.1783717984853,86.70249388481476,80.76781605990604
2029,9934,2029.0,43318.0,2029.0,64165.0,229.42153070546263,83.83153222580006,75.84965340186673
2029,9908,2029.0,43266.0,2029.0,64141.0,224.6319551582615,80.94348809517285,70.9174091554053
2029,9892,2029.0,43279.0,2029.0,64143.0,219.8117341679498,78.03839455531894,65.97383976963323
2029,9907,2029.0,43312.0,2029.0,64156.0,214.96281322462963,75.1158091321135,61.02131659285482
2040,9915,2040.0,43323.0,2040.0,64162.0,210.08691489777456,72.17483237549739,56.06187140274824
2040,9906,2040.0,43332.0,2040.0,64153.0,205.18576205385193,69.21466741866743,51.09750740115686
2040,9878,2040.0,43307.0,2040.0,64117.0,200.26131221685196,66.23512153951087,46.13039109793297
2040,9884,2040.0,43290.0,2040.0,64114.0,195.31570754976514,63.23668749857109,41.162676099145244
2040,9865,2040.0,43256.0,2040.0,64112.0,190.35106788604185,60.22018239745195,36.196132769692525
2040,9872,2040.0,43302.0,2040.0,64135.0,185.3693594691617,57.186229389297864,31.231988446060626
2050,9877,2050.0,43323.0,2050.0,64139.0,180.3724040905864,54.135126599226766,26.271156229213886
2050,9850,2050.0,43296.0,2050.0,64098.0,175.3619901101766,51.06726715594414,21.314597326303982
2050,9851,2050.0,43268.0,2050.0,64105.0,170.33991732913702,47.98347892265903,16.363389903409313
2050,9827,2050.0,43252.0,2050.0,64083.0,165.30786637515862,44.8847577455157,11.418478107415837
2050,9830,2050.0,43259.0,2050.0,64099.0,160.2671977743595,41.771693704909055,6.480443231192936
2050,9837,2050.0,43310.0,2050.0,64099.0,155.21883648226736,38.64421364686959,1.5494953166865457
2060,9847,2060.0,43325.0,2060.0,64105.0,150.16337741794763,35.501981985191634,-3.374328989696039
2060,9830,2060.0,43274.0,2060.0,64097.0,145.1013775649388,32.34512181110314,-8.290893881392691
2060,9817,2060.0,43304.0,2060.0,64081.0,140.03356141318642,29.17453182370103,-13.199801299472284
2060,9804,2060.0,43246.0,2060.0,64081.0,134.96076365664794,25.991677649355225,-18.10041421278794
2060,9805,2060.0,43256.0,2060.0,64078.0,129.88373661553237,22.798185363788036,-22.99195498051327
2060,9808,2060.0,43310.0,2060.0,64114.0,124.80305305959632,19.595528589072302,-27.87344811522084
2071,9802,2071.0,43298.0,2071.0,64086.0,119.71918535604124,16.385215881682456,-32.74340021738021
2071,9794,2071.0,43269.0,2071.0,64066.0,114.63264556921274,13.169316464265961,-37.5995004377462
2071,9773,2071.0,43251.0,2071.0,64035.0,109.54401852537029,9.950563330973438,-42.43874626266421
2071,9773,2071.0,43228.0,2071.0,64029.0,104.45383925462363,6.731883903126118,-47.2579501748163
2071,9780,2071.0,43278.0,2071.0,64067.0,99.3624625216338,3.5159005065135887,-52.05415373302105
2071,9771,2071.0,43251.0,2071.0,64033.0,94.27010251383376,0.3048599636902054,-56.82460109177663
2081,9766,2081.0,43292.0,2081.0,64038.0,89.17697993838226,-2.8990543278990515,-61.56650276023066
2081,9762,2081.0,43239.0,2081.0,64028.0,84.08340854933527,-6.093404319072704,-66.2769822930164
2081,9738,2081.0,43252.0,2081.0,64005.0,78.98978264416257,-9.275456628222827,-70.95319183965992
2081,9735,2081.0,43233.0,2081.0,63998.0,73.89645742302628,-12.442419336412371,-75.5925136730005
2081,9740,2081.0,43265.0,2081.0,64023.0,68.80358898027373,-15.591656835777428,-80.192768862375
2081,9746,2081.0,43266.0,2081.0,64028.0,63.71113628769103,-18.720599499610614,-84.75214985549661
2091,9729,2091.0,43251.0,2091.0,64019.0,58.619051470655165,-21.826443375725432,-89.26885275768748
2091,9714,2091.0,43226.0,2091.0,63981.0,53.52740743434612,-24.90602854250679,-93.74083435152045
2091,9719,2091.0,43213.0,2091.0,63979.0,48.43632724947429,-27.956116804396743,-98.16599949960923
2091,9711,2091.0,43222.0,2091.0,64000.0,43.345889332857155,-30.97384217048591,-102.54255793729095
2091,9718,2091.0,43256.0,2091.0,63995.0,38.25617031479368,-33.956901141428034,-106.86907494780726
2091,9707,2091.0,43264.0,2091.0,63999.0,33.16738106658454,-36.90325016911913,-111.14420383636852
2102,9711,2102.0,43218.0,2102.0,63974.0,28.08000481495708,-39.810617971832954,-115.36646249761992
2102,9673,2102.0,43202.0,2102.0,63966.0,22.994848289482377,-42.67646417475257,-119.53426661392797
2102,9673,2102.0,43203.0,2102.0,63965.0,17.91289660458932,-45.49847744080995,-123.64614465598245
2102,9669,2102.0,43224.0,2102.0,63958.0,12.83504268012507,-48.275022245173915,-127.70092022195081
2102,9669,2102.0,43257.0,2102.0,63967.0,7.761944133905388,-51.00506081473043,-131.69774843384073
2102,9672,2102.0,43252.0,2102.0,63976.0,2.6940926132919003,-53.68761504562306,-135.63600642944232
2112,9664,2112.0,43233.0,2112.0,63952.0,-2.3680218333171297,-56.32122377503751,-139.51509262032448
2112,9652,2112.0,43190.0,2112.0,63934.0,-7.4237829063578715,-58.90388720765519,-143.33436544219973
2112,9635,2112.0,43175.0,2112.0,63938.0,-12.472464002422612,-61.433603778283455,-147.09335923147114
2112,9627,2112.0,43213.0,2112.0,63961.0,-17.513398099179597,-63.90905631576368,-150.79197976160657
2112,9644,2112.0,43233.0,2112.0,63943.0,-22.54613970436776,-66.32978985897981,-154.43038196801405
2112,9628,2112.0,43237.0,2112.0,63955.0,-27.57043068530021,-68.69574760041007,-158.00869985870963
2122,9630,2122.0,43219.0,2122.0,63935.0,-32.58603070692777,-71.00671542739579,-161.52689978721628
2122,9602,2122.0,43169.0,2122.0,63909.0,-37.59264299364162,-73.26224373277776,-164.9848360113984
2122,9610,2122.0,43201.0,2122.0,63915.0,-42.59000827903594,-75.46209709613206,-168.38252068161614
2122,9617,2122.0,43232.0,2122.0,63958.0,-47.57799493890434,-77.6066429455997,-171.72033303583873
2122,9626,2122.0,43223.0,2122.0,63937.0,-52.55646270888059,-79.69663887311981,-174.99878531913828
2122,9609,2122.0,43230.0,2122.0,63935.0,-57.52494451666871,-81.73272619805562,-178.21807409856086
2133,9583,2133.0,43193.0,2133.0,63897.0,-62.4824682092181,-83.71521258961599,-181.3779653885727
2133,9571,2133.0,43184.0,2133.0,63890.0,-67.42772461258272,-85.64428741415625,-184.47812286360505
2133,9552,2133.0,43184.0,2133.0,63907.0,-72.35945243804986,-87.52047956619424,-187.5185513210614
2133,9591,2133.0,43213.0,2133.0,63917.0,-77.27671830380206,-89.34496921892847,-190.49973851639731
2133,9574,2133.0,43240.0,2133.0,63904.0,-82.17883085265379,-91.11942360858617,-193.42243263429253
2133,9556,2133.0,43222.0,2133.0,63887.0,-87.06503470591639,-92.84546002655372,-196.2874439354377
2143,9545,2143.0,43196.0,2143.0,63892.0,-91.93442342631874,-94.52426213689964,-199.09572352195988
2143,9538,2143.0,43191.0,2143.0,63856.0,-96.78613627622696,-96.15672395877584,-201.8485977726197
2143,9524,2143.0,43196.0,2143.0,63873.0,-101.61957369410646,-97.74387053404496,-204.54804103935408
2143,9545,2143.0,43229.0,2143.0,63903.0,-106.434495927321,-99.28704324775887,-207.19682263879145
2143,9545,2143.0,43219.0,2143.0,63918.0,-111.23091984547995,-100.78767167972572,-209.79822451782582
2143,9533,2143.0,43198.0,2143.0,63888.0,-116.00883418266034,-102.24695371660479,-212.35546914446633
2154,9511,2154.0,43187.0,2154.0,63864.0,-120.76801855657828,-103.66588100358535,-214.87147071017853
2154,9506,2154.0,43181.0,2154.0,63877.0,-125.50815447432296,-105.04559957819146,-217.34910584322728
2154,9503,2154.0,43201.0,2154.0,63886.0,-130.22905631701087,-106.38773328721996,-219.79151602287226
2154,9502,2154.0,43233.0,2154.0,63890.0,-134.93078149117196,-107.69435424706685,-222.20204697496
2154,9493,2154.0,43215.0,2154.0,63907.0,-139.6135995158141,-108.9675820820739,-224.58394030016024
2154,9485,2154.0,43189.0,2154.0,63863.0,-144.2779495627463,-110.20923888230041,-226.94006257443448
2164,9460,2164.0,43185.0,2164.0,63859.0,-148.92450179497735,-111.4209827715994,-229.27293895093135
2164,9467,2164.0,43162.0,2164.0,63839.0,-153.55434070318336,-112.60478038980429,-231.5851417632307
2164,9488,2164.0,43202.0,2164.0,63871.0,-158.16907614184322,-113.76330539235695,-233.87968596580635
2164,9495,2164.0,43230.0,2164.0,63871.0,-162.77061692481755,-114.8999208917119,-236.16006300870697
2164,9465,2164.0,43231.0,2164.0,63887.0,-167.36073847443714,-116.0181587350769,-238.42991912019875
2164,9450,2164.0,43218.0,2164.0,63850.0,-171.94091194654317,-117.12112049620254,-240.69271180145552
2174,9446,2174.0,43167.0,2174.0,63844.0,-176.5125242955694,-118.21136671348538,-242.95169249830235
2174,9451,2174.0,43206.0,2174.0,63850.0,-181.0771371058438,-119.29134486870603,-245.2101930784852
2174,9458,2174.0,43236.0,2174.0,63879.0,-185.63648868113734,-120.36373676349265,-247.47178900389918
2174,9457,2174.0,43236.0,2174.0,63870.0,-190.19226767544973,-121.43118285642163,-249.74006386421127
2174,9440,2174.0,43205.0,2174.0,63875.0,-194.74586463188422,-122.4957700059191,-252.0182139576496
2174,9425,2174.0,43212.0,2174.0,63837.0,-199.29831184589534,-123.558948340267,-254.3088773137368
2185,9414,2185.0,43174.0,2185.0,63832.0,-203.8504540083078,-124.62186909406009,-256.6143347881078
2185,9416,2185.0,43192.0,2185.0,63839.0,-208.4031816262974,-125.6858236134868,-258.93690505565087
2185,9412,2185.0,43222.0,2185.0,63865.0,-212.95753898852212,-126.7525062391806,-261.27912261048164
2185,9417,2185.0,43240.0,2185.0,63869.0,-217.5146681951416,-127.82381163094479,-263.64348013563915
2185,9383,2185.0,43233.0,2185.0,63843.0,-222.07571873852413,-128.9012717156427,-266.0320144360805
2185,9396,2185.0,43176.0,2185.0,63816.0,-226.6418905682167,-129.98573122234166,-268.4462255980002
2195,9392,2195.0,43192.0,2195.0,63806.0,-231.21454382168633,-131.07765638262882,-270.88747299320914
2195,9375,2195.0,43190.0,2195.0,63824.0,-235.79519911970704,-132.17772261589204,-273.3574757128841
2195,9382,2195.0,43247.0,2195.0,63828.0,-240.38549921359925,-133.28699716338926,-275.85847621168114
2195,9394,2195.0,43244.0,2195.0,63861.0,-244.98716634029813,-134.40649403886766,-278.3929821091441
2195,9359,2195.0,43197.0,2195.0,63815.0,-249.60186214404155,-135.53658493394155,-280.96334106689403
2195,9360,2195.0,43187.0,2195.0,63808.0,-254.231126174979,-136.6769783983663,-283.57157971685643
2205,9351,2205.0,43153.0,2205.0,63805.0,-258.8765244541944,-137.82734823180814,-286.2196704874064
2205,9356,2205.0,43200.0,2205.0,63812.0,-263.53978342345056,-138.98802016523763,-288.90985187302476
2205,9376,2205.0,43235.0,2205.0,63846.0,-268.2227048342928,-140.1601076966869,-291.6446074567632
2205,9342,2205.0,43225.0,2205.0,63830.0,-272.9269060450347,-141.34497159918496,-294.4262934951572
2205,9336,2205.0,43191.0,2205.0,63804.0,-277.6536649441035,-142.54363042162888,-297.25677318745113
2205,9319,2205.0,43176.0,2205.0,63784.0,-282.4040657506655,-143.75680596002667,-300.13748658402653
2216,9322,2216.0,43187.0,2216.0,63797.0,-287.1792594695645,-144.98544176896652,-303.06987512504674
2216,9344,2216.0,43256.0,2216.0,63816.0,-291.9805394547491,-146.2309479353481,-306.0556345932768
2216,9324,2216.0,43228.0,2216.0,63824.0,-296.80913693006164,-147.4947511494771,-309.09651108864443
2216,9324,2216.0,43190.0,2216.0,63803.0,-301.6659448718168,-148.7776964351546,-312.193890912474
2216,9295,2216.0,43178.0,2216.0,63779.0,-306.5514535376476,-150.08013224440901,-315.3486477399631
2216,9279,2216.0,43160.0,2216.0,63784.0,-311.46595225524163,-151.40258579769306,-318.5613826269191
2226,9288,2226.0,43202.0,2226.0,63775.0,-316.4098497228995,-152.7463264225287,-321.8327492160682
2226,9290,2226.0,43223.0,2226.0,63802.0,-321.383841632554,-154.11336760207752,-325.1635484207973
2226,9297,2226.0,43240.0,2226.0,63801.0,-326.38877382296084,-155.50591376375334,-328.5545278055287
2226,9269,2226.0,43224.0,2226.0,63779.0,-331.425391172269,-156.9256868479195,-332.0060657497186
2226,9258,2226.0,43189.0,2226.0,63771.0,-336.49427981089684,-158.37365471149434,-335.5180722642985
2226,9261,2226.0,43185.0,2226.0,63756.0,-341.5960410833218,-159.8503252351869,-339.09019751657746
2236,9246,2236.0,43221.0,2236.0,63792.0,-346.7314543938588,-161.35621349982193,-342.7220485554979
2236,9262,2236.0,43227.0,2236.0,63796.0,-351.90148523277753,-162.8918890626053,-346.4130702155365
2236,9252,2236.0,43224.0,2236.0,63771.0,-357.1071646668072,-164.45758510253899,-350.1621509253588
2236,9234,2236.0,43196.0,2236.0,63749.0,-362.34943538009065,-166.05290772791386,-353.9674452057498
2236,9243,2236.0,43195.0,2236.0,63746.0,-367.62910791891056,-167.67696316450466,-357.82663955038277
2236,9230,2236.0,43176.0,2236.0,63742.0,-372.9468866375422,-169.32873891497022,-361.73732783430256
2247,9227,2247.0,43174.0,2247.0,63731.0,-378.3033418739236,-171.00748797320324,-365.69721097669594
2247,9243,2247.0,43250.0,2247.0,63768.0,-383.6988263103268,-172.71286720435248,-369.70410676698117
2247,9218,2247.0,43230.0,2247.0,63765.0,-389.1333213371513,-174.44452230971112,-373.7557051700491
2247,9207,2247.0,43204.0,2247.0,63747.0,-394.60631864471054,-176.20141283111158,-377.8491521572121
2247,9199,2247.0,43133.0,2247.0,63732.0,-400.1169050140659,-177.98177574136375,-381.98085879032004
2247,9187,2247.0,43176.0,2247.0,63710.0,-405.66395318535683,-179.78391383570806,-386.1467076694204
2257,9185,2257.0,43233.0,2257.0,63722.0,-411.2462569350073,-181.60682140123234,-390.34241198871285
2257,9190,2257.0,43230.0,2257.0,63735.0,-416.86256587574246,-183.44980939580498,-394.5636873462015
2257,9184,2257.0,43207.0,2257.0,63727.0,-422.51148966344783,-185.31165431417347,-398.80609478385827
2257,9170,2257.0,43162.0,2257.0,63705.0,-428.1913485547228,-187.1903372688855,-403.06480816236825
2257,9146,2257.0,43158.0,2257.0,63694.0,-433.9001646391214,-189.08357772375084,-407.3346500476875
2257,9159,2257.0,43199.0,2257.0,63715.0,-439.6358302282756,-190.9894941141726,-411.6103112692521
2267,9161,2267.0,43203.0,2267.0,63725.0,-445.3962065724862,-192.90669526372236,-415.88635564448106
2267,9157,2267.0,43217.0,2267.0,63737.0,-451.17897083905234,-194.83381682179314,-420.1568602871308
2267,9153,2267.0,43226.0,2267.0,63708.0,-456.9813652265244,-196.76898846381826,-424.4149749999085
2267,9130,2267.0,43157.0,2267.0,63691.0,-462.80007090245374,-198.70958605447157,-428.6527895008971
2267,9116,2267.0,43166.0,2267.0,63668.0,-468.6312878050186,-200.6525116828385,-432.86162001139684
2267,9121,2267.0,43188.0,2267.0,63698.0,-474.4709455385804,-202.5947830897015,-437.0324199958757
2278,9112,2278.0,43227.0,2278.0,63728.0,-480.3148329948398,-204.53367773620394,-441.1558215446224
2278,9118,2278.0,43202.0,2278.0,63686.0,-486.15854564496044,-206.4662373323141,-445.2217044824219
2278,9100,2278.0,43176.0,2278.0,63676.0,-491.99735789698695,-208.38882300407008,-449.21886824490196
2278,9100,2278.0,43180.0,2278.0,63637.0,-497.8261461336423,-210.2972311751762,-453.1352723071055
2278,9082,2278.0,43168.0,2278.0,63642.0,-503.6394010359246,-212.18709505545888,-456.95861886812884
2278,9103,2278.0,43179.0,2278.0,63656.0,-509.4312524582042,-214.0541428400848,-460.67680260145494
2288,9088,2288.0,43228.0,2288.0,63704.0,-515.1953734691709,-215.89414681299266,-464.2778575241534
2288,9073,2288.0,43229.0,2288.0,63659.0,-520.924812319796,-217.70245218961992,-467.74941351929465
2288,9058,2288.0,43201.0,2288.0,63676.0,-526.611983248798,-219.47333880604035,-471.07820930769753
2288,9063,2288.0,43146.0,2288.0,63639.0,-532.2488305174086,-221.19990185080653,-474.2500528516129
2288,9054,2288.0,43172.0,2288.0,63640.0,-537.8269331911679,-222.87465217286737,-477.2500778421034
2288,9056,2288.0,43218.0,2288.0,63680.0,-543.3374598618668,-224.4900815376921,-480.06296079059047
2298,9058,2298.0,43237.0,2298.0,63680.0,-548.7710444132235,-226.0384159626645,-482.67275921955775
2298,9048,2298.0,43194.0,2298.0,63651.0,-554.1176276402778,-227.5108710524524,-485.06246656487656
2298,9021,2298.0,43171.0,2298.0,63634.0,-559.3663722851753,-228.89737288054593,-487.21387725772405
2298,9017,2298.0,43172.0,2298.0,63612.0,-564.5057954998458,-230.18700171584766,-489.1079689561277
2298,9011,2298.0,43138.0,2298.0,63626.0,-569.5240259944538,-231.36862870274922,-490.72543014754575
2298,9025,2298.0,43191.0,2298.0,63640.0,-574.4089231583105,-232.4313350256852,-492.04692696472875
2309,9019,2309.0,43223.0,2309.0,63672.0,-579.1479512798511,-233.3643629722428,-493.0529216311876
2309,9013,2309.0,43202.0,2309.0,63644.0,-583.7279468729942,-234.1565263953064,-493.72319494194056
2309,8990,2309.0,43139.0,2309.0,63617.0,-588.1350102221569,-234.795760896121,-494.0365712505834
2309,8989,2309.0,43150.0,2309.0,63580.0,-592.3546166882738,-235.26950620374078,-493.9712493380008
2309,8974,2309.0,43170.0,2309.0,63617.0,-596.3718308495872,-235.56545770688052,-493.50551318738263
2309,8990,2309.0,43208.0,2309.0,63614.0,-600.1714478821435,-235.67176269982224,-492.61817172714825
2319,8975,2319.0,43174.0,2319.0,63621.0,-603.7379796897595,-235.57659900230615,-491.2884955107196
2319,8960,2319.0,43166.0,2319.0,63599.0,-607.0555915087447,-235.2678486871773,-489.49605171327113
2319,8948,2319.0,43143.0,2319.0,63581.0,-610.1081938841652,-234.7333084705217,-487.2208327402444
2319,8954,2319.0,43096.0,2319.0,63567.0,-612.8796702920137,-233.9613076359857,-484.44371148597634
2319,8943,2319.0,43161.0,2319.0,63602.0,-615.354028435821,-232.94141817996322,-481.14694663439474
2319,8956,2319.0,43185.0,2319.0,63603.0,-617.5154069313402,-231.6647091200256,-477.3143541086252
2329,8944,2329.0,43174.0,2329.0,63618.0,-619.3480026555569,-230.12327614699473,-472.9311067898685
2329,8929,2329.0,43175.0,2329.0,63584.0,-620.8360265311294,-228.3096783124423,-467.98354551173395
2329,8919,2329.0,43164.0,2329.0,63581.0,-621.9638278941801,-226.21684055806458,-462.4593478656467
2329,8913,2329.0,43144.0,2329.0,63573.0,-622.7161717650381,-223.8383009067293,-456.3480249002355
2329,8921,2329.0,43174.0,2329.0,63615.0,-623.0784813197454,-221.16855767161334,-449.64136767217923
2329,8923,2329.0,43195.0,2329.0,63648.0,-623.0369084397755,-218.20322142576066,-442.3334351917818
2340,8930,2340.0,43181.0,2340.0,63596.0,-622.5782429292228,-214.93881001071946,-434.42017711861524
2340,8909,2340.0,43178.0,2340.0,63597.0,-621.6898025084123,-211.37253683000367,-425.8993713688915
2340,8898,2340.0,43119.0,2340.0,63609.0,-620.3595023361812,-207.50252966252097,-416.7711337759313
2340,8902,2340.0,43149.0,2340.0,63611.0,-618.5761388730971,-203.32850031931378,-407.0384413242574
2340,8911,2340.0,43214.0,2340.0,63645.0,-616.3296516987882,-198.8522945081966,-396.7073006297968
2340,8910,2340.0,43226.0,2340.0,63672.0,-613.611173413525,-194.07762575214903,-385.78661620601724
2350,8902,2350.0,43191.0,2350.0,63659.0,-610.412987347178,-189.00931102682037,-374.28788581570234
2350,8899,2350.0,43180.0,2350.0,63653.0,-606.7285977570297,-183.65302795489401,-362.22507070061647
2350,8911,2350.0,43181.0,2350.0,63676.0,-602.5529006205979,-178.01579172762524,-349.6148467354829
2350,8912,2350.0,43200.0,2350.0,63707.0,-597.8822872632279,-172.10650397605238,-336.47687582964056
2350,8924,2350.0,43243.0,2350.0,63728.0,-592.7146222962135,-165.936071476844,-322.8337226455466
2350,8939,2350.0,43284.0,2350.0,63776.0,-587.0491445510557,-159.5169790506195,-308.7104686139466
2360,8923,2360.0,43254.0,2360.0,63758.0,-580.8863477437872,-152.86256926884914,-294.13425524568424
2360,8925,2360.0,43222.0,2360.0,63773.0,-574.2279886257452,-145.98670246894955,-279.1340473475116
2360,8922,2360.0,43243.0,2360.0,63788.0,-567.0773055759284,-138.90416294076246,-263.7407468060391
2360,8960,2360.0,43273.0,2360.0,63829.0,-559.4392371087905,-131.63122800159894,-247.9873463723387
2360,8964,2360.0,43321.0,2360.0,63876.0,-551.3203710358971,-124.18565070088462,-231.9087399626055
2360,8975,2360.0,43326.0,2360.0,63895.0,-542.728676737965,-116.58605562693609,-215.5411701949467
2371,8972,2371.0,43325.0,2371.0,63883.0,-533.6733157983128,-108.85130174452763,-198.92169249621463
2371,8978,2371.0,43307.0,2371.0,63903.0,-524.1646703775532,-101.00029128758757,-182.08807351910608
2371,8990,2371.0,43330.0,2371.0,63935.0,-514.2144837990722,-93.05222207473508,-165.07900529506884
2371,9012,2371.0,43350.0,2371.0,63954.0,-503.83593694390623,-85.0268596767423,-147.93417451457236
2371,9018,2371.0,43383.0,2371.0,64007.0,-493.0435730534461,-76.94446251891594,-130.69403187781447
2371,9035,2371.0,43408.0,2371.0,64025.0,-481.8531555091386,-68.82535927849064,-113.39935737088524
2381,9050,2381.0,43376.0,2381.0,64044.0,-470.2815552574219,-60.68949160128378,-96.09077801179066
2381,9052,2381.0,43371.0,2381.0,64034.0,-458.346669394187,-52.55636265319971,-78.80851399989388
2381,9058,2381.0,43382.0,2381.0,64069.0,-446.0674169079804,-44.44546573776301,-61.592471353876306
2381,9102,2381.0,43434.0,2381.0,64123.0,-433.46378874089726,-36.37664998803298,-44.48234582232794
2381,9112,2381.0,43461.0,2381.0,64160.0,-420.55673096912096,-28.369906450481082,-27.51729155651006
2381,9113,2381.0,43451.0,2381.0,64159.0,-407.36786450408306,-20.44474795925143,-10.735264567563178
2391,9127,2391.0,43450.0,2391.0,64166.0,-393.9193583610064,-12.619807486952524,5.827385558694942
2391,9137,2391.0,43438.0,2391.0,64193.0,-380.2340225779293,-4.912951830197855,22.135874543121844
2391,9170,2391.0,43473.0,2391.0,64202.0,-366.335379244159,2.658373294588486,38.15683000467942
2391,9189,2391.0,43518.0,2391.0,64271.0,-352.2475449536355,10.07706718489058,53.85835270844004
2391,9203,2391.0,43514.0,2391.0,64248.0,-337.9949704675845,17.32678421845074,69.21034616766195
2391,9218,2391.0,43525.0,2391.0,64271.0,-323.6022169182283,24.39246228638772,84.18482826311842
2402,9226,2402.0,43485.0,2402.0,64275.0,-309.09387097321,31.26045609382689,98.75592027147943
2402,9232,2402.0,43507.0,2402.0,64296.0,-294.4945819760218,37.918194866454755,112.89966396458837
2402,9275,2402.0,43528.0,2402.0,64304.0,-279.8291312216189,44.35374941485027,126.59391856115815
2402,9298,2402.0,43612.0,2402.0,64371.0,-265.1223241253419,50.55589584545656,139.81843140036796
2402,9315,2402.0,43578.0,2402.0,64382.0,-250.3986397247215,56.51484427163591,152.55522876110194
2402,9320,2402.0,43558.0,2402.0,64343.0,-235.68190182059828,62.22293065232894,164.78911296535165
2412,9321,2412.0,43529.0,2412.0,64354.0,-220.995215837113,67.6744868679181,176.50764304048948
2412,9345,2412.0,43557.0,2412.0,64350.0,-206.3611261074505,72.86510379726268,187.7005650314254
2412,9365,2412.0,43567.0,2412.0,64406.0,-191.80175201267548,77.79109302576086,198.3593480560299
2412,9373,2412.0,43598.0,2412.0,64404.0,-177.33875653362293,82.44950148514116,208.47722713805666
2412,9411,2412.0,43609.0,2412.0,64413.0,-162.9932193520884,86.83848891677277,218.0495244160394
2412,9393,2412.0,43566.0,2412.0,64371.0,-148.78550891476308,90.95766755558344,227.07372480437976
2423,9419,2423.0,43540.0,2423.0,64391.0,-134.73525598695593,94.8079386377787,235.54906746122418
2423,9436,2423.0,43573.0,2423.0,64404.0,-120.8614462490495,98.39081967725795,243.47599515851704
2423,9458,2423.0,43604.0,2423.0,64454.0,-107.18242892687962,101.70798293162744,250.85600191792037
2423,9498,2423.0,43642.0,2423.0,64461.0,-93.71570929913398,104.76154534581542,257.6920246087537
2423,9497,2423.0,43607.0,2423.0,64447.0,-80.47759531924748,107.55476386181851,263.9889797850776
2423,9490,2423.0,43594.0,2423.0,64433.0,-67.48294063378853,110.09238117440012,269.7539114018581
2433,9502,2433.0,43574.0,2433.0,64412.0,-54.74523238757277,112.38031017221851,274.99561366173384
2433,9526,2433.0,43597.0,2433.0,64451.0,-42.27686143558458,114.42504749118922,279.72407887256145
2433,9545,2433.0,43623.0,2433.0,64467.0,-30.089198110388367,116.23339477839886,283.9502739432719
2433,9569,2433.0,43623.0,2433.0,64470.0,-18.19240231167683,117.81266959446589,287.68639292974126
2433,9573,2433.0,43605.0,2433.0,64446.0,-6.59514968479354,119.1710475362386,290.9461582714444
2433,9555,2433.0,43583.0,2433.0,64431.0,4.6954896643860025,120.31755369658302,293.744714987091
2443,9563,2443.0,43558.0,2443.0,64431.0,15.673844136303387,121.26159998863656,296.09816393318454
2443,9583,2443.0,43596.0,2443.0,64431.0,26.335259321394688,122.01238577187408,298.0230958866977
2443,9609,2443.0,43630.0,2443.0,64479.0,36.675933166498055,122.57870181460027,299.53643758964324
2443,9606,2443.0,43619.0,2443.0,64464.0,46.69306289278296,122.96934978757281,300.65571243092427
2443,9603,2443.0,43601.0,2443.0,64445.0,56.38499011322449,123.19364476428728,301.3994096350389
2443,9606,2443.0,43585.0,2443.0,64414.0,65.75108925280816,123.26141963247346,301.78693319909615
2454,9612,2454.0,43556.0,2454.0,64420.0,74.79149848973375,123.18256754270587,301.83807938857694
2454,9633,2454.0,43634.0,2454.0,64426.0,83.5069300168619,122.96657741683461,301.57251976742094
2454,9645,2454.0,43623.0,2454.0,64448.0,91.89867902182448,122.6226045569183,301.0096716106443
2454,9632,2454.0,43603.0,2454.0,64456.0,99.9687382736006,122.16000521705129,300.1689550658596
2454,9649,2454.0,43579.0,2454.0,64418.0,107.71979971307746,121.58855368452438,299.0701227578491
2454,9649,2454.0,43561.0,2454.0,64407.0,115.15512881848869,120.91802991387962,297.7332402728016
2464,9646,2464.0,43569.0,2464.0,64399.0,122.27844927371439,120.15761047754809,296.17826022043556
2464,9675,2464.0,43600.0,2464.0,64413.0,129.09386414505138,119.31554214440126,294.4246000438586
2464,9678,2464.0,43626.0,2464.0,64439.0,135.6058802306241,118.39935075810637,292.4910912531273
2464,9691,2464.0,43624.0,2464.0,64396.0,141.8195819957068,117.41645765211558,290.3962387443364
2464,9693,2464.0,43572.0,2464.0,64387.0,147.74081126353684,116.37464885362573,288.15832616344835
2464,9674,2464.0,43563.0,2464.0,64390.0,153.3762007176254,115.28189495086198,285.7951299414703
2474,9676,2474.0,43576.0,2474.0,64389.0,158.73298412639957,114.14572172175296,283.323605681377
2474,9703,2474.0,43602.0,2474.0,64405.0,163.8187125967874,112.97284766770491,280.7598620247219
2474,9711,2474.0,43626.0,2474.0,64404.0,168.64120649198964,111.76943831594551,278.11935871566845
2474,9703,2474.0,43574.0,2474.0,64404.0,173.2087609842951,110.5416148265737,275.4171704896029
2474,9696,2474.0,43577.0,2474.0,64355.0,177.5302467921677,109.2955853016459,272.66808558033586
2474,9692,2474.0,43561.0,2474.0,64364.0,181.6149358414939,108.03727110318442,269.8863359865975
2485,9705,2485.0,43595.0,2485.0,64351.0,185.47223774857702,106.77192986428712,267.08513306293634
2485,9712,2485.0,43606.0,2485.0,64368.0,189.11158157964195,105.50419796219006,264.2763965334819
2485,9711,2485.0,43624.0,2485.0,64395.0,192.54247294090283,104.23852597503985,261.4708505445426
2485,9711,2485.0,43574.0,2485.0,64371.0,195.7745662215534,102.97962043815147,258.6784013739813
2485,9703,2485.0,43569.0,2485.0,64351.0,198.81762418864753,101.73242629760774,255.90843015433813
2485,9701,2485.0,43549.0,2485.0,64352.0,201.68136664673028,100.50162764875232,253.16968256385468
2495,9723,2495.0,43581.0,2495.0,64357.0,204.37531712977596,99.29114217853439,250.46999195734116
2495,9726,2495.0,43588.0,2495.0,64385.0,206.9088213527724,98.10403009903567,247.81626468418654
2495,9727,2495.0,43615.0,2495.0,64361.0,209.2912371154668,96.94284173172748,245.2147718623837
2495,9706,2495.0,43577.0,2495.0,64345.0,211.53204441452067,95.81008186969663,242.67138918549784
2495,9703,2495.0,43536.0,2495.0,64336.0,213.64068927965997,94.70828692596783,240.19147695345026
2495,9716,2495.0,43570.0,2495.0,64351.0,215.62628852388883,93.63955086625415,237.77958632039923
2505,9716,2505.0,43575.0,2505.0,64369.0,217.4974784262045,92.60507660776081,235.43940847447357
2505,9728,2505.0,43593.0,2505.0,64338.0,219.26248193220533,91.60527291561797,233.17401112502478
2505,9723,2505.0,43600.0,2505.0,64336.0,220.92925040998875,90.64018224460497,230.98597969474469
2505,9711,2505.0,43552.0,2505.0,64329.0,222.50552993987878,89.70978214951452,228.8772587220172
2505,9707,2505.0,43561.0,2505.0,64324.0,223.99875474266827,88.8138688451283,226.8489160000795
2505,9713,2505.0,43583.0,2505.0,64324.0,225.41583023322096,87.95169695750059,224.90100545692414
2516,9722,2516.0,43604.0,2516.0,64322.0,226.76301188095476,87.12194616389954,223.0325064834923
2516,9724,2516.0,43613.0,2516.0,64347.0,228.04596869959244,86.32316247677407,221.2413660182099
2516,9711,2516.0,43593.0,2516.0,64341.0,229.26989557546807,85.55425125402127,219.52471425050234
2516,9715,2516.0,43575.0,2516.0,64327.0,230.43950021155115,84.8146111633663,217.87913258468473
2516,9713,2516.0,43566.0,2516.0,64293.0,231.5588847572243,84.10385044728653,216.30065218478597
2516,9722,2516.0,43550.0,2516.0,64348.0,232.63147375204437,83.4213263336715,214.78447511657694
2526,9738,2526.0,43633.0,2526.0,64374.0,233.6600813431354,82.76589414020322,213.32498485769707
2526,9741,2526.0,43599.0,2526.0,64356.0,234.64712980746123,82.1362121512079,211.91633369717727
2526,9734,2526.0,43586.0,2526.0,64343.0,235.59490595783603,81.53130481505316,210.55301020517658
2526,9725,2526.0,43556.0,2526.0,64323.0,236.5056550044843,80.95062743205412,209.2298425772882
2526,9728,2526.0,43553.0,2526.0,64317.0,237.3814713233756,80.39355546297541,207.94161814210403
2526,9713,2526.0,43567.0,2526.0,64350.0,238.22411962578974,79.85885297945615,206.68276037338322
2536,9745,2536.0,43585.0,2536.0,64364.0,239.03491598210678,79.34451895505445,205.44740558746298
2536,9734,2536.0,43626.0,2536.0,64358.0,239.81477792547446,78.84810250660544,204.22985724491528
2536,9728,2536.0,43590.0,2536.0,64329.0,240.5643869291307,78.36728882313784,203.0249444929665
2536,9734,2536.0,43564.0,2536.0,64333.0,241.28423859485514,77.90022766606339,201.82794312192223
2536,9729,2536.0,43557.0,2536.0,64323.0,241.97457648310944,77.4452402442357,200.63425540418936
2536,9731,2536.0,43595.0,2536.0,64358.0,242.63535122999951,77.00031534072835,199.4392415728641
2547,9736,2547.0,43616.0,2547.0,64348.0,243.26621708687463,76.5630909081824,198.23837510676094
2547,9751,2547.0,43614.0,2547.0,64339.0,243.8665942169112,76.13137179132556,197.02753578953204
2547,9737,2547.0,43579.0,2547.0,64341.0,244.43582509150315,75.70359069994329,195.80312296356186
2547,9731,2547.0,43563.0,2547.0,64321.0,244.97327322579338,75.27871466559338,194.5619526840896
2547,9723,2547.0,43549.0,2547.0,64314.0,245.47821856716052,74.8556881011244,193.30105424347033
2547,9742,2547.0,43600.0,2547.0,64347.0,245.9496750293801,74.43294069277685,192.0174774758701
2557,9747,2557.0,43607.0,2557.0,64362.0,246.38638113868365,74.00844383225333,190.70839021338656
2557,9754,2557.0,43595.0,2557.0,64345.0,246.78701036972387,73.58021647788426,189.37151253301502
2557,9730,2557.0,43581.0,2557.0,64306.0,247.15038062600138,73.14666934422883,188.0053799301166
2557,9745,2557.0,43538.0,2557.0,64321.0,247.47545851098147,72.70641916524389,186.60908538757448
2557,9735,2557.0,43581.0,2557.0,64336.0,247.76124140067083,72.25777545618377,185.1818970385377
2557,9746,2557.0,43633.0,2557.0,64369.0,248.00670758185998,71.79853527056228,183.72332619045545
2567,9758,2567.0,43641.0,2567.0,64351.0,248.21088912994082,71.32656765205844,182.233631567387
2567,9752,2567.0,43597.0,2567.0,64329.0,248.37304934560717,70.84068394150887,180.71423159203619
2567,9738,2567.0,43563.0,2567.0,64293.0,248.49283121512144,70.34082059306708,179.1675835256218
2567,9733,2567.0,43560.0,2567.0,64309.0,248.5701927592749,69.82739692349548,177.5966306069031
2567,9749,2567.0,43586.0,2567.0,64327.0,248.60521832721213,69.30059455408828,176.004369591281
2567,9758,2567.0,43617.0,2567.0,64326.0,248.59809522976605,68.76023446063782,174.39390691588005
2578,9743,2578.0,43611.0,2578.0,64307.0,248.5492982083028,68.20624353295729,172.76874233530086
2578,9734,2578.0,43576.0,2578.0,64288.0,248.45969638850465,67.63912174503237,171.13279828171414
2578,9737,2578.0,43570.0,2578.0,64294.0,248.3304289010935,67.05988376822171,169.4901321011597
2578,9741,2578.0,43576.0,2578.0,64297.0,248.16274544318333,66.46961869536156,167.84466090735083
2578,9734,2578.0,43599.0,2578.0,64295.0,247.95797971390368,65.86922436898291,166.20011951032623
2578,9757,2578.0,43613.0,2578.0,64323.0,247.71761723441722,65.25958341186741,164.5602047485766
2588,9741,2588.0,43571.0,2588.0,64305.0,247.44342715308937,64.64191582317862,162.92883527224112
2588,9731,2588.0,43564.0,2588.0,64276.0,247.13756894312291,64.01780218050207,161.31033440179507
2588,9734,2588.0,43550.0,2588.0,64265.0,246.80252215641679,63.388758009712106,159.70923440085852
2588,9721,2588.0,43571.0,2588.0,64289.0,246.44090797129746,62.75577616168045,158.12985178059822
2588,9733,2588.0,43597.0,2588.0,64290.0,246.05536030604293,62.1192479662098,156.57613537442768
2588,9737,2588.0,43605.0,2588.0,64285.0,245.6485071270161,61.47932789123955,155.05186394675977
2598,9723,2598.0,43613.0,2598.0,64279.0,245.2230517483589,60.83648265503241,153.56083298565818
2598,9728,2598.0,43577.0,2598.0,64270.0,244.78182047287316,60.19184432161191,152.1068383024038
2598,9719,2598.0,43554.0,2598.0,64269.0,244.3277036329123,59.54709820639265,150.69354333488513
2598,9721,2598.0,43586.0,2598.0,64281.0,243.86357493666776,58.90401686115787,149.32437978813343
2598,9734,2598.0,43628.0,2598.0,64279.0,243.39226997615617,58.26426136865171,148.00259482267376
2598,9723,2598.0,43612.0,2598.0,64283.0,242.91666427862634,57.62983034917506,146.73141229968755
2609,9724,2609.0,43587.0,2609.0,64261.0,242.43977593169876,57.00361426586753,145.5141400079744
2609,9705,2609.0,43559.0,2609.0,64261.0,241.96474495751426,56.38935880154713,144.35409527350873
2609,9694,2609.0,43551.0,2609.0,64261.0,241.49464076995335,55.791085783100684,143.25441158060815
2609,9696,2609.0,43571.0,2609.0,64255.0,241.03216642267293,55.21250579965779,142.21790013905795
2609,9731,2609.0,43603.0,2609.0,64278.0,240.57949430326417,54.65688177476021,141.24704522253808
2609,9722,2609.0,43587.0,2609.0,64278.0,240.13846186747293,54.127387896304,140.34415747193432
2619,9713,2619.0,43587.0,2619.0,64259.0,239.71093306477778,53.62752464959523,139.5116041326831
2619,9701,2619.0,43538.0,2619.0,64231.0,239.29891255479117,53.16113451099035,138.75180854466353
2619,9713,2619.0,43553.0,2619.0,64238.0,238.90439443927767,52.73197973849185,138.0668872675768
2619,9710,2619.0,43535.0,2619.0,64254.0,238.5292490030745,52.343207958196956,137.45827689357282
2619,9715,2619.0,43585.0,2619.0,64289.0,238.17527084735997,51.99710005606398,136.92678355720082
2619,9697,2619.0,43604.0,2619.0,64247.0,237.84425074236404,51.69532288448321,136.47300247926663
2629,9713,2629.0,43544.0,2629.0,64240.0,237.53795376571497,51.43945802787931,136.0975570644128
2629,9684,2629.0,43527.0,2629.0,64234.0,237.25803604824438,51.23108410276029,135.80085802133846
2629,9708,2629.0,43547.0,2629.0,64228.0,237.00594661688044,51.071208146079705,135.5827083054827
2629,9703,2629.0,43597.0,2629.0,64237.0,236.78288106497212,50.95987576850863,135.44207564642076
2629,9698,2629.0,43598.0,2629.0,64283.0,236.58984771522643,50.896561086688564,135.37713790244408
2629,9715,2629.0,43578.0,2629.0,64263.0,236.42776326375702,50.880866927550194,135.38567615218986
2640,9691,2640.0,43561.0,2640.0,64245.0,236.29751513648074,50.91278249318789,135.46550594935576
2640,9684,2640.0,43504.0,2640.0,64219.0,236.19993386360105,50.99229207752137,135.61443480843343
2640,9690,2640.0,43552.0,2640.0,64241.0,236.13560866183556,51.11863839711047,135.82981479890856
2640,9695,2640.0,43601.0,2640.0,64237.0,236.10472428653418,51.289932655487924,136.10821446530124
2640,9707,2640.0,43600.0,2640.0,64260.0,236.10711543655611,51.503627416273446,136.44545503209872
2640,9688,2640.0,43550.0,2640.0,64258.0,236.1424415674529,51.757265465125464,136.83686934506173
2650,9685,2650.0,43563.0,2650.0,64248.0,236.21024534224424,52.048571803652244,137.27755500147504
2650,9685,2650.0,43535.0,2650.0,64251.0,236.3098239003795,52.37497384943929,137.76244980151563
2650,9676,2650.0,43595.0,2650.0,64261.0,236.44006271588248,52.73323393537125,138.2862802708923
2650,9698,2650.0,43599.0,2650.0,64276.0,236.59936158722664,53.11959286747172,138.84361816907074
2650,9690,2650.0,43632.0,2650.0,64294.0,236.78569731771444,53.53038214615081,139.42915645661054
2650,9709,2650.0,43590.0,2650.0,64266.0,236.9968069476419,53.962667843104335,140.03805918604368
2661,9688,2661.0,43563.0,2661.0,64248.0,237.2303762496948,54.41439400842575,140.66604954803725
2661,9679,2661.0,43533.0,2661.0,64224.0,237.48407570895608,54.88385166239087,141.30904195208308
2661,9694,2661.0,43571.0,2661.0,64260.0,237.75541370637487,55.36889437764572,141.96260160481705
2661,9698,2661.0,43598.0,2661.0,64281.0,238.0416376856512,55.86661488732536,142.62177407919384
2661,9714,2661.0,43625.0,2661.0,64279.0,238.33987766133285,56.3737640888827,143.2814469174035
2661,9702,2661.0,43566.0,2661.0,64250.0,238.64741478007264,56.88740660525917,143.93676178026647
2671,9689,2671.0,43571.0,2671.0,64235.0,238.96182610816194,57.40505815710786,144.58305721040122
2671,9681,2671.0,43565.0,2671.0,64232.0,239.28086609536635,57.92425222256147,145.215404902021
2671,9704,2671.0,43589.0,2671.0,64267.0,239.60223657318653,58.44215937313649,145.82822532453102
2671,9691,2671.0,43603.0,2671.0,64305.0,239.9235307060448,58.95563982802385,146.41542200917235
2671,9696,2671.0,43604.0,2671.0,64291.0,240.24233680471076,59.4615937297313,146.97102253496956
