c_ts,c_val,d_ts,d_val,e_ts,e_val,c_val_filtered,d_val_filtered,e_val_filtered
138521.0,13646.0,138521.0,8921.0,138521.0,23720.0,-519.6386783838059,-291.0581554956165,-445.38803568449583
138521.0,13647.0,138521.0,8915.0,138521.0,23721.0,-529.1350025092951,-297.05098918334744,-454.1989303775525
138521.0,13637.0,138521.0,8898.0,138521.0,23717.0,-538.8578020690054,-303.15513320136535,-463.21000728862117
138521.0,13617.0,138521.0,8890.0,138521.0,23683.0,-548.8016892605873,-309.3630042427073,-472.4143086876404
138531.0,13610.0,138531.0,8873.0,138531.0,23678.0,-558.9608712691146,-315.66711486786636,-481.80443952376834
138531.0,13593.0,138531.0,8875.0,138531.0,23672.0,-569.3293299141983,-322.060306336536,-491.3728507743145
138531.0,13613.0,138531.0,8893.0,138531.0,23676.0,-579.9009459621716,-328.5358509742384,-501.1120057354238
138531.0,13601.0,138531.0,8894.0,138531.0,23675.0,-590.6694185403287,-335.08728062026216,-511.01430807301983
138531.0,13585.0,138531.0,8891.0,138531.0,23664.0,-601.6280506805538,-341.7080283959868,-521.071913300222
138531.0,13566.0,138531.0,8866.0,138531.0,23650.0,-612.7696764216645,-348.39118351606135,-531.2766040388105
138542.0,13556.0,138542.0,8863.0,138542.0,23639.0,-624.0868207533008,-355.1295313729993,-541.6198203861136
138542.0,13559.0,138542.0,8864.0,138542.0,23645.0,-635.5718882349187,-361.9157394819182,-552.0927545851438
138542.0,13561.0,138542.0,8859.0,138542.0,23638.0,-647.2171660144079,-368.74244059964144,-562.6863382575943
138542.0,13544.0,138542.0,8867.0,138542.0,23640.0,-659.0146435140316,-375.6021545659609,-573.3910880809078
138542.0,13535.0,138542.0,8842.0,138542.0,23616.0,-670.9558534284092,-382.48716648075515,-584.1969417449455
138542.0,13543.0,138542.0,8838.0,138542.0,23604.0,-683.0318213137307,-389.3895112142143,-595.0932382981681
138552.0,13515.0,138552.0,8832.0,138552.0,23589.0,-695.2330046427201,-396.3010989023306,-606.0688735636566
138552.0,13503.0,138552.0,8837.0,138552.0,23608.0,-707.549253994096,-403.2138197862133,-617.1124549041558
138552.0,13507.0,138552.0,8843.0,138552.0,23598.0,-719.9698917980905,-410.11947890049134,-628.2122290369693
138552.0,13494.0,138552.0,8820.0,138552.0,23575.0,-732.4837551618818,-417.00962158454956,-639.3558561207005
138552.0,13480.0,138552.0,8816.0,138552.0,23580.0,-745.0791241933218,-423.87545852517667,-650.5303138150856
138552.0,13483.0,138552.0,8808.0,138552.0,23562.0,-757.7436657004677,-430.7079675052829,-661.721943855744
138562.0,13466.0,138562.0,8797.0,138562.0,23553.0,-770.4643946687227,-437.49803655246774,-672.9164897855669
138562.0,13463.0,138562.0,8819.0,138562.0,23552.0,-783.2276033207752,-444.23651925913043,-684.099124259035
138562.0,13464.0,138562.0,8823.0,138562.0,23534.0,-796.0187743682144,-450.9140912635113,-695.2544663791579
138562.0,13441.0,138562.0,8804.0,138562.0,23529.0,-808.822466755566,-457.5209324734477,-706.366587521526
138562.0,13427.0,138562.0,8788.0,138562.0,23521.0,-821.6222553144016,-464.04654901275285,-717.4190425684268
138562.0,13421.0,138562.0,8782.0,138562.0,23515.0,-834.4008118452982,-470.4799112721248,-728.3948865925565
138573.0,13422.0,138573.0,8786.0,138573.0,23513.0,-847.1399844727969,-476.8096797224491,-739.276635023039
138573.0,13410.0,138573.0,8781.0,138573.0,23513.0,-859.8207260766458,-483.02427195095663,-750.0461637939704
138573.0,13400.0,138573.0,8790.0,138573.0,23499.0,-872.4229573812223,-489.1117692613792,-760.6845662310564
138573.0,13384.0,138573.0,8755.0,138573.0,23481.0,-884.9255130498469,-495.0598109437391,-771.1720745200145
138573.0,13376.0,138573.0,8764.0,138573.0,23461.0,-897.3061896457916,-500.85564254379574,-781.4881677905154
138573.0,13354.0,138573.0,8753.0,138573.0,23465.0,-909.5418435255174,-506.4862922221199,-791.6118107884372
138583.0,13370.0,138583.0,8770.0,138583.0,23468.0,-921.6084766440731,-511.93865098056676,-801.5215910692104
138583.0,13354.0,138583.0,8772.0,138583.0,23457.0,-933.4812017378549,-517.1993377749883,-811.1956319432938
138583.0,13349.0,138583.0,8764.0,138583.0,23439.0,-945.1340856359169,-522.2544450535312,-820.6114619761063
138583.0,13326.0,138583.0,8745.0,138583.0,23434.0,-956.5400556623342,-527.0893897875396,-829.7460522160095
138583.0,13325.0,138583.0,8726.0,138583.0,23433.0,-967.6709630583298,-531.6890465085864,-838.5759490219068
138583.0,13310.0,138583.0,8732.0,138583.0,23428.0,-978.4976990642645,-536.0380818720463,-847.0773190749496
138593.0,13310.0,138593.0,8730.0,138593.0,23410.0,-988.9902593354927,-540.1212200538607,-855.2259235203783
138593.0,13303.0,138593.0,8733.0,138593.0,23426.0,-999.1177394172526,-543.9232897170905,-862.9971292658545
138593.0,13289.0,138593.0,8731.0,138593.0,23402.0,-1008.8482986737621,-547.4291441072734,-870.3659197682298
138593.0,13280.0,138593.0,8727.0,138593.0,23381.0,-1018.1491746178383,-550.6235883319388,-877.3069364594829
138593.0,13278.0,138593.0,8730.0,138593.0,23387.0,-1026.9867668819275,-553.4913547883873,-883.7946912544073
138593.0,13262.0,138593.0,8719.0,138593.0,23383.0,-1035.3267170098134,-556.0171150883284,-889.8038133434773
138604.0,13252.0,138604.0,8726.0,138604.0,23371.0,-1043.1339932472383,-558.1855208770355,-895.3091368142932
138604.0,13247.0,138604.0,8708.0,138604.0,23373.0,-1050.3730360792501,-559.9812780884688,-900.2857371754583
138604.0,13247.0,138604.0,8719.0,138604.0,23367.0,-1057.007896836959,-561.3892571540632,-904.7090106850571
138604.0,13222.0,138604.0,8707.0,138604.0,23356.0,-1063.0023239742761,-562.3946133488377,-908.5547608602565
138604.0,13217.0,138604.0,8684.0,138604.0,23348.0,-1068.3199175722966,-562.9829420453618,-911.7993374821832
138604.0,13223.0,138604.0,8707.0,138604.0,23359.0,-1072.924373476112,-563.1405381579066,-914.4198288745963
138614.0,13222.0,138614.0,8720.0,138614.0,23360.0,-1076.7796239596548,-562.8545781038621,-916.3941604861595
138614.0,13213.0,138614.0,8716.0,138614.0,23350.0,-1079.8498295430204,-562.1130081851489,-917.7010721818119
138614.0,13205.0,138614.0,8709.0,138614.0,23346.0,-1082.099413354676,-560.9043624121409,-918.3201550653039
138614.0,13194.0,138614.0,8704.0,138614.0,23342.0,-1083.4932504984158,-559.217809669519,-918.2320375608206
138614.0,13197.0,138614.0,8699.0,138614.0,23339.0,-1083.9969467879891,-557.0433941659887,-917.4186283181782
138614.0,13193.0,138614.0,8709.0,138614.0,23354.0,-1083.577090603564,-554.3722954741972,-915.8633113295905
138624.0,13194.0,138624.0,8724.0,138624.0,23354.0,-1082.2014324305524,-551.1969627703918,-913.5510250315417
138624.0,13186.0,138624.0,8723.0,138624.0,23355.0,-1079.8390498195033,-547.511070938946,-910.4682583049351
138624.0,13183.0,138624.0,8722.0,138624.0,23356.0,-1076.4605736816036,-543.3094404441348,-906.6030974225099
138624.0,13196.0,138624.0,8719.0,138624.0,23364.0,-1072.0384566763055,-538.588101282747,-901.9453567563721
138624.0,13191.0,138624.0,8726.0,138624.0,23359.0,-1066.5471834484083,-533.3444890399405,-896.4867268440381
138624.0,13207.0,138624.0,8739.0,138624.0,23391.0,-1059.963401338231,-527.5776213937594,-890.2208915681707
138635.0,13210.0,138635.0,8754.0,138635.0,23387.0,-1052.266020953608,-521.2881337241796,-883.1435459080865
138635.0,13217.0,138635.0,8765.0,138635.0,23388.0,-1043.4363075909391,-514.4781738556787,-875.2523630328042
138635.0,13211.0,138635.0,8773.0,138635.0,23402.0,-1033.4580269171772,-507.1512591211284,-866.5470849106941
138635.0,13231.0,138635.0,8764.0,138635.0,23408.0,-1022.3176940814461,-499.31222924192673,-857.0297061506462
138635.0,13251.0,138635.0,8772.0,138635.0,23425.0,-1010.004801303905,-490.96738395192205,-846.7046013226469
138635.0,13258.0,138635.0,8808.0,138635.0,23453.0,-996.5118908058159,-482.12468175795476,-835.578549142494
138645.0,13280.0,138645.0,8822.0,138645.0,23468.0,-981.834556387191,-472.793710237953,-823.6606250431431
138645.0,13295.0,138645.0,8832.0,138645.0,23486.0,-965.9714811450814,-462.98541547472524,-810.9620125039595
138645.0,13309.0,138645.0,8829.0,138645.0,23496.0,-948.9244952802974,-452.71191208587743,-797.4958785501406
138645.0,13332.0,138645.0,8847.0,138645.0,23508.0,-930.6986520057809,-441.98654146343085,-783.2773818643249
138645.0,13352.0,138645.0,8863.0,138645.0,23537.0,-911.3023133966013,-430.8240139075285,-768.3237543928968
138645.0,13386.0,138645.0,8895.0,138645.0,23569.0,-890.7471832768417,-419.24040756269363,-752.6542981021947
138655.0,13403.0,138655.0,8896.0,138655.0,23595.0,-869.048264606539,-407.2529953460285,-736.2901870428238
138655.0,13432.0,138655.0,8925.0,138655.0,23613.0,-846.2238037201884,-394.8800592195644,-719.2541793291986
138655.0,13462.0,138655.0,8921.0,138655.0,23624.0,-822.2952715195606,-382.1408086227788,-701.5704447670313
138655.0,13492.0,138655.0,8943.0,138655.0,23642.0,-797.2873365037917,-369.05540449573317,-683.2645964337971
138655.0,13525.0,138655.0,8971.0,138655.0,23676.0,-771.2277925102228,-355.64500934346785,-664.3638161450469
138655.0,13565.0,138655.0,8998.0,138655.0,23703.0,-744.1474504817705,-341.93169674175857,-644.8968726246071
138666.0,13607.0,138666.0,9012.0,138666.0,23727.0,-716.0799650256338,-327.9381892422854,-624.8939849489482
138666.0,13632.0,138666.0,9022.0,138666.0,23761.0,-687.0616028580183,-313.68763038182726,-604.386649730907
138666.0,13650.0,138666.0,9036.0,138666.0,23775.0,-657.1311078688838,-299.2035438622045,-583.4075059399299
138666.0,13696.0,138666.0,9056.0,138666.0,23805.0,-626.3297729328838,-284.5099123673822,-561.9902626451914
138666.0,13750.0,138666.0,9083.0,138666.0,23846.0,-594.7015168589064,-269.6312113320813,-540.1696582661808
138666.0,13787.0,138666.0,9103.0,138666.0,23879.0,-562.2927101478915,-254.5923098628627,-517.9813085765097
138676.0,13822.0,138676.0,9122.0,138676.0,23902.0,-529.1518594379604,-239.41829468174757,-495.46143019207835
138676.0,13865.0,138676.0,9137.0,138676.0,23928.0,-495.329402097921,-224.13433163829023,-472.6466265950137
138676.0,13908.0,138676.0,9155.0,138676.0,23954.0,-460.8776053490074,-208.76561254621578,-449.5738245628133
138676.0,13975.0,138676.0,9186.0,138676.0,23988.0,-425.8503922155837,-193.33732581670824,-426.28026470011145
138676.0,14002.0,138676.0,9206.0,138676.0,24028.0,-390.30301368530894,-177.87454483780118,-402.80341940360057
138676.0,14062.0,138676.0,9223.0,138676.0,24058.0,-354.29168877837503,-162.40203935438694,-379.18078645863096
138686.0,14093.0,138686.0,9249.0,138686.0,24089.0,-317.87334430142676,-146.94411629350475,-355.4496299064169
138686.0,14142.0,138686.0,9263.0,138686.0,24115.0,-281.1054423459502,-131.52451149337992,-331.6467843422502
138686.0,14181.0,138686.0,9274.0,138686.0,24129.0,-244.04586130569953,-116.16632142956092,-307.8085841716448
138686.0,14235.0,138686.0,9299.0,138686.0,24167.0,-206.7527880748022,-100.89200857086792,-283.9709166284006
138686.0,14280.0,138686.0,9332.0,138686.0,24217.0,-169.2845507426017,-85.72339057136833,-260.16924154760693
138686.0,14336.0,138686.0,9347.0,138686.0,24243.0,-131.6993716848433,-70.6814769803417,-236.43837840385822
138697.0,14380.0,138697.0,9350.0,138697.0,24262.0,-94.05506951643497,-55.786268114601796,-212.81218493502968
138697.0,14413.0,138697.0,9356.0,138697.0,24293.0,-56.40879301519362,-41.05676635255594,-189.32341156697692
138697.0,14442.0,138697.0,9373.0,138697.0,24317.0,-18.816928825948253,-26.511211341542605,-166.00372446964172
138697.0,14513.0,138697.0,9420.0,138697.0,24367.0,18.66483509929253,-12.167257201792268,-142.88368773769696
138697.0,14555.0,138697.0,9439.0,138697.0,24390.0,55.981567381320815,1.9581759982185645,-119.9925862914148
138697.0,14611.0,138697.0,9449.0,138697.0,24422.0,93.07940373881536,15.849271834480476,-97.35815933589504
138707.0,14641.0,138707.0,9447.0,138707.0,24425.0,129.9059034964406,29.491522205668673,-75.00644377692788
138707.0,14686.0,138707.0,9468.0,138707.0,24452.0,166.41025347342213,42.87161380707181,-52.96185216277547
138707.0,14722.0,138707.0,9477.0,138707.0,24480.0,202.54332297670567,55.97720936357064,-31.247379070449824
138707.0,14773.0,138707.0,9514.0,138707.0,24510.0,238.25768689996278,68.79686083239352,-9.88471050696728
138707.0,14822.0,138707.0,9537.0,138707.0,24551.0,273.507737923076,81.32014604606218,11.105863586700139
138707.0,14858.0,138707.0,9539.0,138707.0,24563.0,308.249909588675,93.5379482187218,31.70565955743166
138717.0,14894.0,138717.0,9546.0,138717.0,24583.0,342.4428882885909,105.4426175938504,51.897755559669804
138717.0,14926.0,138717.0,9557.0,138717.0,24614.0,376.0476901035838,117.02787994076459,71.66698774759959
138717.0,14970.0,138717.0,9553.0,138717.0,24634.0,409.0276382413981,128.28861964510094,90.9999111382092
138717.0,15018.0,138717.0,9581.0,138717.0,24666.0,441.34839007179244,139.2206630725235,109.88484908735609
138717.0,15062.0,138717.0,9605.0,138717.0,24665.0,472.97812220757464,149.82068379968507,128.31195896467352
138717.0,15079.0,138717.0,9616.0,138717.0,24694.0,503.88778772702335,160.08633508463413,146.27318489180323
138728.0,15096.0,138728.0,9601.0,138728.0,24698.0,534.0511855117795,170.01641540940727,163.76209179699777
138728.0,15134.0,138728.0,9613.0,138728.0,24719.0,563.4447434837089,179.61076361549908,180.77366807329474
138728.0,15160.0,138728.0,9639.0,138728.0,24744.0,592.0472452766669,188.8699828370345,197.30416181496935
138728.0,15207.0,138728.0,9661.0,138728.0,24773.0,619.8397277710224,197.79537167660538,213.35103782093245
138728.0,15237.0,138728.0,9655.0,138728.0,24788.0,646.8055643510504,206.38911320077148,228.9130898947068
138728.0,15270.0,138728.0,9674.0,138728.0,24803.0,672.9306434366019,214.65441815732055,243.99057091402244
138738.0,15271.0,138738.0,9672.0,138738.0,24813.0,698.2034728388537,222.59549485077252,258.5851990521653
138738.0,15294.0,138738.0,9685.0,138738.0,24822.0,722.6150383859715,230.2174589027358,272.7000320525227
138738.0,15327.0,138738.0,9689.0,138738.0,24851.0,746.1584900517271,237.5262475235952,286.3393005738799
138738.0,15365.0,138738.0,9697.0,138738.0,24854.0,768.8289614685261,244.52854218135928,299.5083138418928
138738.0,15378.0,138738.0,9701.0,138738.0,24881.0,790.623642453311,251.231695431989,312.2134435469944
138738.0,15397.0,138738.0,9716.0,138738.0,24879.0,811.541876029499,257.64366372244945,324.4621028495353
138748.0,15406.0,138748.0,9700.0,138748.0,24881.0,831.5850695743761,263.77294188476424,336.2626352951921
138748.0,15427.0,138748.0,9724.0,138748.0,24910.0,850.7564585702048,269.6284464508893,347.62409519340906
138748.0,15463.0,138748.0,9720.0,138748.0,24933.0,869.0609030319392,275.2193798971375,358.5561114484501
138748.0,15471.0,138748.0,9747.0,138748.0,24941.0,886.5048541269718,280.5551969564855,369.0689883579687
138748.0,15500.0,138748.0,9730.0,138748.0,24950.0,903.0964240529211,285.6456625854379,379.1738548656085
138748.0,15501.0,138748.0,9736.0,138748.0,24959.0,918.845403143172,290.5008393847031,388.88265956555506
138759.0,15516.0,138759.0,9737.0,138759.0,24956.0,933.7631652548287,295.1309191647862,398.2080333638329
138759.0,15536.0,138759.0,9755.0,138759.0,24979.0,947.8624975550495,299.54604201890857,407.16309834040464
138759.0,15545.0,138759.0,9756.0,138759.0,24985.0,961.1574616014009,303.75626245129706,415.76132157189863
138759.0,15567.0,138759.0,9778.0,138759.0,24992.0,973.6633359017796,307.7716399748747,424.01646408932504
138759.0,15577.0,138759.0,9780.0,138759.0,25014.0,985.3966010538461,311.60238707167923,431.9425597812169
138759.0,15571.0,138759.0,9767.0,138759.0,25020.0,996.3749001920055,315.2589831237434,439.5539217775296
138769.0,15572.0,138769.0,9757.0,138769.0,25007.0,1006.6168467202529,318.75207185112095,446.86514753208735
138769.0,15608.0,138769.0,9766.0,138769.0,25013.0,1016.1417192413478,322.09212573230604,453.89094810574943
138769.0,15609.0,138769.0,9783.0,138769.0,25028.0,1024.9693243838556,325.28916038872603,460.6458295163675
138769.0,15612.0,138769.0,9802.0,138769.0,25056.0,1033.1200532176276,328.3527475168531,467.1439272203286
138769.0,15618.0,138769.0,9791.0,138769.0,25036.0,1040.6148553963335,331.292245097693,473.39908230562764
138769.0,15621.0,138769.0,9785.0,138769.0,25047.0,1047.475065612954,334.11692685104254,479.42486955211973
138780.0,15623.0,138780.0,9776.0,138780.0,25073.0,1053.7222071667256,336.83581837998884,485.234455492164
138780.0,15627.0,138780.0,9798.0,138780.0,25069.0,1059.3778043373625,339.4573975592996,490.84053900133654
138780.0,15652.0,138780.0,9796.0,138780.0,25079.0,1064.4632433509962,341.9894442248358,496.25542054307493
138780.0,15655.0,138780.0,9819.0,138780.0,25090.0,1068.999788503567,344.43911174759376,501.4910134781587
138780.0,15639.0,138780.0,9814.0,138780.0,25081.0,1073.0086697811412,346.813100843176,506.5587869261527
138780.0,15652.0,138780.0,9801.0,138780.0,25087.0,1076.5110004706696,349.1177653935172,511.46964789253013
138790.0,15649.0,138790.0,9811.0,138790.0,25110.0,1079.5275483634357,351.3590165000487,516.2337784857565
138790.0,15664.0,138790.0,9823.0,138790.0,25111.0,1082.0785845063485,353.54214598863985,520.8605938212565
138790.0,15666.0,138790.0,9833.0,138790.0,25122.0,1084.1838695460315,355.6718221429729,525.3588344530617
138790.0,15673.0,138790.0,9830.0,138790.0,25116.0,1085.8627082074784,357.7522392839762,529.7366108973491
138790.0,15664.0,138790.0,9833.0,138790.0,25135.0,1087.13398222743,359.78721462629903,534.0013433042403
138790.0,15657.0,138790.0,9829.0,138790.0,25132.0,1088.0160639827714,361.7801513284936,538.1596931577612
138800.0,15658.0,138800.0,9831.0,138800.0,25140.0,1088.5265960417864,363.73392225614407,542.2175292663667
138800.0,15681.0,138800.0,9848.0,138800.0,25171.0,1088.6822979467788,365.65077148956107,546.1799339037113
138800.0,15684.0,138800.0,9849.0,138800.0,25174.0,1088.4990040575574,367.5323346719663,550.0513480747184
138800.0,15672.0,138800.0,9861.0,138800.0,25172.0,1087.9918570402876,369.37977003253206,553.8358071748537
138800.0,15677.0,138800.0,9860.0,138800.0,25174.0,1087.1753772182724,371.1938927750293,557.5370159594178
138800.0,15681.0,138800.0,9858.0,138800.0,25181.0,1086.0633789647766,372.97523791754577,561.1582282916494
138811.0,15678.0,138811.0,9859.0,138811.0,25195.0,1084.6689198531737,374.724021202401,564.702135949315
138811.0,15691.0,138811.0,9893.0,138811.0,25205.0,1083.0043306900473,376.44009722310443,568.1708918593478
138811.0,15677.0,138811.0,9884.0,138811.0,25218.0,1081.0812713713035,378.1231009448451,571.5662433921492
138811.0,15684.0,138811.0,9875.0,138811.0,25219.0,1078.9107555005307,379.7726653666897,574.8896866042712
138811.0,15691.0,138811.0,9880.0,138811.0,25208.0,1076.5031413711854,381.3884198751415,578.1425199516324
138811.0,15676.0,138811.0,9878.0,138811.0,25219.0,1073.8681557413415,382.9698077533516,581.3257185030873
138821.0,15685.0,138821.0,9890.0,138821.0,25230.0,1071.0149116179707,384.5159596362115,584.4397520636177
138821.0,15699.0,138821.0,9904.0,138821.0,25250.0,1067.9519136672939,386.0257140000241,587.4845697893102
138821.0,15685.0,138821.0,9911.0,138821.0,25251.0,1064.6871683338445,387.4977826928389,590.4597755669704
138821.0,15691.0,138821.0,9912.0,138821.0,25259.0,1061.2283255405562,388.9309724993518,593.364820122062
138821.0,15684.0,138821.0,9903.0,138821.0,25255.0,1057.5827120756746,390.32429886047146,596.1990702324839
138821.0,15677.0,138821.0,9896.0,138821.0,25266.0,1053.7572928476266,391.6768986958507,598.9617631628868
138831.0,15683.0,138831.0,9926.0,138831.0,25270.0,1049.7586123902697,392.9878516445975,601.6519434819431
138831.0,15696.0,138831.0,9936.0,138831.0,25287.0,1045.5927973447301,394.2561930752462,604.2684713342991
138831.0,15688.0,138831.0,9926.0,138831.0,25281.0,1041.2657107750738,395.48117151279587,606.810104225038
138831.0,15682.0,138831.0,9927.0,138831.0,25299.0,1036.7831366973944,396.6624287427827,609.2755754546218
138831.0,15673.0,138831.0,9924.0,138831.0,25291.0,1032.1508084511581,397.79993262460425,611.6636287723879
138831.0,15667.0,138831.0,9935.0,138831.0,25309.0,1027.3742928698025,398.89383869070195,613.9730295291988
138842.0,15672.0,138842.0,9939.0,138842.0,25325.0,1022.4588636336207,399.94445255144785,616.2026171312845
138842.0,15685.0,138842.0,9934.0,138842.0,25334.0,1017.4095012408684,400.95227893711615,618.3514838330572
138842.0,15683.0,138842.0,9937.0,138842.0,25337.0,1012.2310841871517,401.91803594574895,620.4192212191958
138842.0,15680.0,138842.0,9942.0,138842.0,25333.0,1006.9286538161624,402.84260210284646,622.4060583421337
138842.0,15668.0,138842.0,9931.0,138842.0,25328.0,1001.5075624536014,403.72695894689446,624.3128105808794
138842.0,15662.0,138842.0,9948.0,138842.0,25331.0,995.973447997065,404.5721331623281,626.1406918337117
138852.0,15670.0,138852.0,9948.0,138852.0,25348.0,990.3321420473966,405.37917060997,627.8911418020082
138852.0,15666.0,138852.0,9964.0,138852.0,25351.0,984.5896692512877,406.1492211481407,629.5658160620327
138852.0,15660.0,138852.0,9954.0,138852.0,25363.0,978.7523498105477,406.88368968934697,631.1667166201454
138852.0,15652.0,138852.0,9953.0,138852.0,25352.0,972.8268653276784,407.58430977150965,632.6963111208975
138852.0,15649.0,138852.0,9952.0,138852.0,25356.0,966.8202290965405,408.2530707927053,634.1575232691847
138852.0,15655.0,138852.0,9973.0,138852.0,25365.0,960.7397537144243,408.89212230185274,635.5536227212663
138862.0,15646.0,138862.0,9967.0,138862.0,25372.0,954.5931048336953,409.50382325144864,636.8881681559707
138862.0,15637.0,138862.0,9962.0,138862.0,25358.0,948.388382129669,410.0908612663347,638.1650297319148
138862.0,15632.0,138862.0,9965.0,138862.0,25371.0,942.1341118858176,410.6562475762111,639.3883451111384
138862.0,15623.0,138862.0,9953.0,138862.0,25364.0,935.83916307801,411.2031855026649,640.5623947612784
138862.0,15609.0,138862.0,9962.0,138862.0,25380.0,929.5126413246081,411.73491156822024,641.691517829036
138862.0,15615.0,138862.0,9968.0,138862.0,25382.0,923.1637685133622,412.25458602843185,642.7801210665743
138873.0,15611.0,138873.0,9987.0,138873.0,25388.0,916.8018206669617,412.76533593423596,643.8327563882232
138873.0,15617.0,138873.0,9985.0,138873.0,25394.0,910.436200651871,413.2704647888064,644.8542082286968
138873.0,15597.0,138873.0,9962.0,138873.0,25393.0,904.0765705532494,413.7736263253098,645.8495500823001
138873.0,15583.0,138873.0,9971.0,138873.0,25389.0,897.7328673485172,414.27873766604455,646.824143761641
138873.0,15595.0,138873.0,9964.0,138873.0,25395.0,891.4151651411142,414.78972079027494,647.7835589531775
138873.0,15588.0,138873.0,9996.0,138873.0,25404.0,885.1335920776005,415.3103696738062,648.7334877766741
138883.0,15581.0,138883.0,9985.0,138883.0,25405.0,878.8984048333211,415.84446844635124,649.6797513096665
138883.0,15566.0,138883.0,9975.0,138883.0,25405.0,872.7200382053787,416.39597223870214,650.6283513496362
138883.0,15556.0,138883.0,9967.0,138883.0,25396.0,866.6089979403712,416.9689612059651,651.5854437808938
138883.0,15554.0,138883.0,9965.0,138883.0,25396.0,860.5756733625692,417.5673655769611,652.5571868092975
138883.0,15542.0,138883.0,9979.0,138883.0,25400.0,854.6301888649077,418.19471659000055,653.549536723513
138883.0,15551.0,138883.0,10003.0,138883.0,25416.0,848.7823364275598,418.85413770545836,654.5681346716788
138893.0,15543.0,138893.0,9984.0,138893.0,25408.0,843.041594909384,419.5485759821055,655.618344975766
138893.0,15538.0,138893.0,9984.0,138893.0,25408.0,837.4172054402717,420.2809861475735,656.7053112379663
138893.0,15526.0,138893.0,9969.0,138893.0,25425.0,831.918197374478,421.0542284686329,657.8339248339978
138893.0,15511.0,138893.0,9962.0,138893.0,25418.0,826.5532896291045,421.8707633001922,659.0088088381669
138893.0,15519.0,138893.0,9986.0,138893.0,25413.0,821.3307156866122,422.73235673893475,660.2343334136758
138893.0,15529.0,138893.0,10002.0,138893.0,25427.0,816.2581480448017,423.64003408103906,661.5145471691282
138904.0,15530.0,138904.0,10011.0,138904.0,25437.0,811.3428574376919,424.59436400035526,662.8531174330286
138904.0,15513.0,138904.0,9997.0,138904.0,25430.0,806.591962893982,425.5958083051627,664.2534007403342
138904.0,15500.0,138904.0,9987.0,138904.0,25424.0,802.0124931232062,426.6448053629864,665.7184855640834
138904.0,15504.0,138904.0,9996.0,138904.0,25434.0,797.6112225719306,427.7415709885419,667.2510736201851
138904.0,15498.0,138904.0,10007.0,138904.0,25434.0,793.3945045329986,428.88590415063965,668.8533352371549
138904.0,15496.0,138904.0,10008.0,138904.0,25454.0,789.3682285849118,430.07720391279753,670.5268904851644
138914.0,15497.0,138914.0,10020.0,138914.0,25455.0,785.5378353745987,431.31461261919776,672.2729220672971
138914.0,15485.0,138914.0,10008.0,138914.0,25450.0,781.9083258181918,432.5971315425355,674.0923146877832
138914.0,15479.0,138914.0,10008.0,138914.0,25456.0,778.484220022397,433.92362200122403,675.9856771754501
138914.0,15472.0,138914.0,10000.0,138914.0,25452.0,775.2694313625822,435.2926636472932,677.9532453112358
138914.0,15475.0,138914.0,10033.0,138914.0,25470.0,772.2671203320161,436.702403529316,679.9947928365651
138914.0,15479.0,138914.0,10039.0,138914.0,25476.0,769.479635294462,438.15063275293915,682.1096497993719
138924.0,15482.0,138924.0,10039.0,138924.0,25487.0,766.9085784893044,439.63508877473913,684.2968403885881
138924.0,15472.0,138924.0,10037.0,138924.0,25477.0,764.5549223352498,441.15369198356905,686.5552289742984
138924.0,15463.0,138924.0,10020.0,138924.0,25474.0,762.4190322960283,442.70452641136615,688.8835165354412
138924.0,15470.0,138924.0,10034.0,138924.0,25475.0,760.500559849705,444.28563344773,691.2800612051209
138924.0,15481.0,138924.0,10048.0,138924.0,25507.0,758.7983714951608,445.89484527904966,693.7427172554413
138924.0,15474.0,138924.0,10042.0,138924.0,25502.0,757.3106433252754,447.52982811002863,696.268911138879
138935.0,15468.0,138935.0,10049.0,138935.0,25503.0,756.0349856137987,449.1882097681377,698.8558514469282
138935.0,15464.0,138935.0,10040.0,138935.0,25500.0,754.968419387021,450.86759951326866,701.500587525092
138935.0,15465.0,138935.0,10025.0,138935.0,25496.0,754.1072475556498,452.565461679288,704.1998682659244
138935.0,15469.0,138935.0,10048.0,138935.0,25519.0,753.4469623645623,454.2788877490312,706.9499711703463
138935.0,15475.0,138935.0,10053.0,138935.0,25525.0,752.9822540399772,456.00446324818904,709.7466818959758
138935.0,15482.0,138935.0,10055.0,138935.0,25519.0,752.7071126848015,457.73836311945195,712.5854223907817
138945.0,15473.0,138945.0,10056.0,138945.0,25528.0,752.6149588337463,459.47649760046403,715.4613213298555
138945.0,15462.0,138945.0,10061.0,138945.0,25540.0,752.6986692959272,461.21455290241994,718.3691824819325
138945.0,15481.0,138945.0,10060.0,138945.0,25531.0,752.9504600469617,462.94797943778804,721.3034847293975
138945.0,15486.0,138945.0,10083.0,138945.0,25555.0,753.3618267492988,464.67201475669884,724.2584118873392
138945.0,15493.0,138945.0,10089.0,138945.0,25560.0,753.923686836391,466.38182431118474,727.2279104771504
138945.0,15496.0,138945.0,10086.0,138945.0,25572.0,754.6265939162929,468.07273793881996,730.2058444489364
138955.0,15493.0,138955.0,10085.0,138955.0,25567.0,755.4608750308229,469.74039401444696,733.1861660990324
138955.0,15496.0,138955.0,10087.0,138955.0,25561.0,756.4166667889574,471.38070844733795,736.1629455304131
138955.0,15495.0,138955.0,10082.0,138955.0,25563.0,757.4838871132198,472.98977187471394,739.1302204020001
138955.0,15504.0,138955.0,10091.0,138955.0,25576.0,758.6522076768106,474.56375411023055,742.0817977026172
138955.0,15503.0,138955.0,10114.0,138955.0,25612.0,759.9110718792285,476.0988949002583,745.0112465436498
138955.0,15510.0,138955.0,10104.0,138955.0,25581.0,761.2497465516481,477.5916620604839,747.9121388355585
138966.0,15508.0,138966.0,10101.0,138966.0,25595.0,762.6573692819635,479.03892735819073,750.7782243790411
138966.0,15515.0,138966.0,10081.0,138966.0,25598.0,764.1229755159343,480.437907289036,753.6033442777585
138966.0,15505.0,138966.0,10086.0,138966.0,25600.0,765.6354976901005,481.7858648032854,756.3813054842302
138966.0,15523.0,138966.0,10106.0,138966.0,25624.0,767.183734726999,483.0798290869756,759.1058886957246
138966.0,15538.0,138966.0,10113.0,138966.0,25620.0,768.7563893884873,484.3165925252638,761.7709695641076
138966.0,15534.0,138966.0,10130.0,138966.0,25622.0,770.3422628912531,485.49297482579294,764.3706643764353
138976.0,15522.0,138976.0,10112.0,138976.0,25607.0,771.9304351315118,486.6061135810129,766.899328388103
138976.0,15529.0,138976.0,10092.0,138976.0,25610.0,773.5102204124396,487.65351626267835,769.351346288229
138976.0,15534.0,138976.0,10114.0,138976.0,25628.0,775.0710164024458,488.63281302922275,771.7208869986792
138976.0,15537.0,138976.0,10121.0,138976.0,25666.0,776.6022611842425,489.54153422330177,774.0019164298052
138976.0,15544.0,138976.0,10150.0,138976.0,25651.0,778.0934967139218,490.37723643228566,776.1885614720811
138976.0,15553.0,138976.0,10128.0,138976.0,25647.0,779.5344682002476,491.13785981478895,778.2754712654624
138986.0,15543.0,138986.0,10113.0,138986.0,25651.0,780.9152314082204,491.8219201206606,780.2578359486306
138986.0,15547.0,138986.0,10098.0,138986.0,25646.0,782.226189291538,492.42828857608697,782.1312006732173
138986.0,15543.0,138986.0,10119.0,138986.0,25661.0,783.4580218474766,492.955764079347,783.8913300284987
138986.0,15562.0,138986.0,10120.0,138986.0,25669.0,784.6016208085167,493.4028526096921,785.5342019474616
138986.0,15566.0,138986.0,10136.0,138986.0,25668.0,785.6481610128579,493.76786924273904,787.056117065636
138986.0,15545.0,138986.0,10125.0,138986.0,25665.0,786.5892460115331,494.0491584248573,788.4537941442125
138997.0,15553.0,138997.0,10108.0,138997.0,25661.0,787.4169015392614,494.2451795943757,789.7243262059476
138997.0,15551.0,138997.0,10127.0,138997.0,25669.0,788.1234090248302,494.35437320605376,790.8650460597272
138997.0,15557.0,138997.0,10128.0,138997.0,25668.0,788.7011979603478,494.37502374683436,791.8734288032038
138997.0,15561.0,138997.0,10134.0,138997.0,25681.0,789.1428661854399,494.30532418929556,792.7470880550806
138997.0,15576.0,138997.0,10139.0,138997.0,25688.0,789.4412858318674,494.1435427755746,793.4838639749003
138997.0,15559.0,138997.0,10134.0,138997.0,25679.0,789.5897587382809,493.88815255159466,794.0819566007807
139006.0,15565.0,139006.0,10119.0,139006.0,25676.0,789.5820981158117,493.53785489937786,794.5399689845706
139006.0,15563.0,139006.0,10125.0,139006.0,25680.0,789.4125820384475,493.09144854712736,794.8568035178827
139006.0,15571.0,139006.0,10145.0,139006.0,25692.0,789.0759104982291,492.5476958786353,795.0315673208103
139006.0,15564.0,139006.0,10131.0,139006.0,25687.0,788.5672431102283,491.9053909766051,795.0636142232761
139006.0,15581.0,139006.0,10144.0,139006.0,25682.0,787.8822731150061,491.16353027694845,794.9526201580051
139006.0,15553.0,139006.0,10133.0,139006.0,25672.0,787.0172933108121,490.3213996891041,794.6985260405706
139017.0,15553.0,139017.0,10121.0,139017.0,25669.0,785.9691508431058,489.3785498811012,794.3013380290316
139017.0,15566.0,139017.0,10123.0,139017.0,25675.0,784.735078828088,488.3346536812087,793.7609126609831
139017.0,15555.0,139017.0,10148.0,139017.0,25682.0,783.312615378179,487.1893751294728,793.076866506239
139017.0,15562.0,139017.0,10154.0,139017.0,25698.0,781.6996647583951,485.9425031541524,792.2486730754854
139017.0,15559.0,139017.0,10133.0,139017.0,25691.0,779.8945611147221,484.59427095669184,791.2758903313468
139017.0,15539.0,139017.0,10113.0,139017.0,25683.0,777.8960741281601,483.1454462470907,790.1583407285889
139027.0,15533.0,139027.0,10116.0,139027.0,25680.0,775.7032878402641,481.5970445896098,788.8960940401404
139027.0,15552.0,139027.0,10131.0,139027.0,25683.0,773.3153992349523,479.9500118911711,787.4893278511367
139027.0,15550.0,139027.0,10132.0,139027.0,25698.0,770.731695641372,478.205211938687,785.9382721379421
139027.0,15540.0,139027.0,10138.0,139027.0,25681.0,767.9517352663612,476.36364812459163,784.2433026848288
139027.0,15532.0,139027.0,10124.0,139027.0,25696.0,764.975449579623,474.42666231784153,782.4050497641612
139027.0,15539.0,139027.0,10109.0,139027.0,25682.0,761.8030825664005,472.395944900235,780.4244330221699
139037.0,15532.0,139037.0,10112.0,139037.0,25674.0,758.435146958111,470.27334580510797,778.3026326668461
139037.0,15533.0,139037.0,10116.0,139037.0,25688.0,754.8724723083235,468.0606726865325,776.0410009751682
139037.0,15535.0,139037.0,10124.0,139037.0,25669.0,751.1162821595282,465.7596785318918,773.6409930060363
139037.0,15520.0,139037.0,10120.0,139037.0,25683.0,747.1682658670809,463.3722163978182,771.1041589730617
139037.0,15506.0,139037.0,10097.0,139037.0,25666.0,743.0305701600769,460.90035479161594,768.4321354941985
139037.0,15503.0,139037.0,10086.0,139037.0,25664.0,738.7056456234749,458.346255312354,765.626599240336
139048.0,15504.0,139048.0,10116.0,139048.0,25676.0,734.1960735015023,455.711913670894,762.6891991189916
139048.0,15503.0,139048.0,10103.0,139048.0,25657.0,729.504534639386,452.9991161463997,759.6215418157062
139048.0,15502.0,139048.0,10109.0,139048.0,25675.0,724.6339083354935,450.2096458173491,756.4252346860268
139048.0,15499.0,139048.0,10105.0,139048.0,25668.0,719.5874038749821,447.34545923378545,753.1019495174016
139048.0,15479.0,139048.0,10083.0,139048.0,25655.0,714.3686396513297,444.40871407062696,749.6535030591069
139048.0,15469.0,139048.0,10081.0,139048.0,25649.0,708.9815827485293,441.40163960236873,746.0818409359654
139058.0,15461.0,139058.0,10087.0,139058.0,25651.0,703.4303569597498,438.3263268309832,742.3888985776745
139058.0,15467.0,139058.0,10078.0,139058.0,25646.0,697.7190810105355,435.1846324726629,738.5765030214706
139058.0,15466.0,139058.0,10101.0,139058.0,25672.0,691.8518825594122,431.9782513760263,734.6464268292223
139058.0,15454.0,139058.0,10074.0,139058.0,25651.0,685.8330453415556,428.70887231385086,730.600596081018
139058.0,15441.0,139058.0,10078.0,139058.0,25636.0,679.6671031358833,425.3782774541321,726.4412702496095
139058.0,15439.0,139058.0,10076.0,139058.0,25634.0,673.3587913693793,421.98830450488146,722.1709672339697
139068.0,15432.0,139068.0,10074.0,139068.0,25636.0,666.9129675132641,418.54079896757685,717.7922609716993
139068.0,15426.0,139068.0,10074.0,139068.0,25635.0,660.3346013011097,415.0376495296823,713.3077207027972
139068.0,15416.0,139068.0,10078.0,139068.0,25634.0,653.6287961582659,411.4808640367931,708.7199958480894
139068.0,15401.0,139068.0,10059.0,139068.0,25620.0,646.8007668012197,407.87264550669926,704.0319007093802
139068.0,15383.0,139068.0,10042.0,139068.0,25619.0,639.8557242699071,404.2153527666444,699.2464078355835
139068.0,15380.0,139068.0,10047.0,139068.0,25611.0,632.7986803650688,400.5112808832879,694.3665722227569
139079.0,15382.0,139079.0,10063.0,139079.0,25612.0,625.6343028624935,396.7624899896106,689.3954732703206
139079.0,15382.0,139079.0,10048.0,139079.0,25595.0,618.3669589528357,392.97089897208934,684.3361905832172
139079.0,15371.0,139079.0,10045.0,139079.0,25586.0,611.0009002066463,389.1384699100353,679.1917325704984
139079.0,15359.0,139079.0,10035.0,139079.0,25588.0,603.5404067836025,385.26723428501384,673.9648954791273
139079.0,15343.0,139079.0,10033.0,139079.0,25578.0,595.9897794388935,381.3591973216291,668.658160022007
139079.0,15337.0,139079.0,10031.0,139079.0,25582.0,588.3532176352662,377.4162580057463,663.2736841968084
139089.0,15350.0,139089.0,10042.0,139089.0,25576.0,580.6347414688837,373.44022161581825,657.8133517390103
139089.0,15331.0,139089.0,10029.0,139089.0,25577.0,572.8382928589563,369.43292089366565,652.2788518521802
139089.0,15310.0,139089.0,10020.0,139089.0,25577.0,564.9678802777238,365.39632639433233,646.6717840796281
139089.0,15304.0,139089.0,9996.0,139089.0,25557.0,557.0275260666115,361.3324739375174,640.9937498087043
139089.0,15294.0,139089.0,9987.0,139089.0,25558.0,549.0210850119565,357.24318278824967,635.2463514276347
139089.0,15289.0,139089.0,10004.0,139089.0,25549.0,540.9521445146453,353.1297506845678,629.4311071756488
139099.0,15284.0,139099.0,10008.0,139099.0,25545.0,532.8240365823042,348.9929029039919,623.5493888899093
139099.0,15290.0,139099.0,10013.0,139099.0,25547.0,524.6399331923359,344.8330459185135,617.6024230726755
139099.0,15266.0,139099.0,10001.0,139099.0,25546.0,516.4030046755687,340.65057871713736,611.5913592794323
139099.0,15254.0,139099.0,9993.0,139099.0,25533.0,508.1165054235253,336.446035121259,605.517385547647
139099.0,15234.0,139099.0,9975.0,139099.0,25513.0,499.7836674130156,332.2200145782847,599.3817572602474
139099.0,15238.0,139099.0,9990.0,139099.0,25520.0,491.4075046495642,327.97301271927194,593.1856685727435
139110.0,15230.0,139110.0,9983.0,139110.0,25517.0,482.9907287710379,323.70535200885547,586.9301363540596
139110.0,15237.0,139110.0,9988.0,139110.0,25517.0,474.53585058846494,319.41728734783675,580.6160584980125
139110.0,15210.0,139110.0,9969.0,139110.0,25502.0,466.04536830939185,315.1091409078809,574.2443514548822
139110.0,15197.0,139110.0,9959.0,139110.0,25490.0,457.52184403257854,310.78129619507445,567.8159848160362
139110.0,15191.0,139110.0,9961.0,139110.0,25498.0,448.9677935510788,306.4340513301952,561.3319048237227
139110.0,15183.0,139110.0,9960.0,139110.0,25486.0,440.3855553223269,302.0675035486905,554.7930025986013
139120.0,15185.0,139120.0,9959.0,139120.0,25486.0,431.77729434708056,297.6815802618023,548.20018371575
139120.0,15178.0,139120.0,9960.0,139120.0,25469.0,423.1451307590362,293.27615393860094,541.5544277928308
139120.0,15160.0,139120.0,9942.0,139120.0,25456.0,414.49129388750555,288.85113557499454,534.8567449670306
139120.0,15133.0,139120.0,9938.0,139120.0,25455.0,405.8181377980626,284.40646175494646,528.1080413692516
139120.0,15132.0,139120.0,9932.0,139120.0,25456.0,397.12795145252153,279.9419773287869,521.3090230791564
139120.0,15125.0,139120.0,9943.0,139120.0,25453.0,388.422751615473,275.4573573936849,514.4602538816671
139130.0,15128.0,139130.0,9952.0,139130.0,25459.0,379.7042688977359,270.9522142872412,507.5623303715139
139130.0,15117.0,139130.0,9938.0,139130.0,25441.0,370.97410663053984,266.4263612692806,500.6160752204601
139130.0,15096.0,139130.0,9926.0,139130.0,25429.0,362.233892398167,261.8800042197049,493.6226312070519
139130.0,15088.0,139130.0,9909.0,139130.0,25407.0,353.48527444022557,257.3136792200838,486.58335884005754
139130.0,15071.0,139130.0,9912.0,139130.0,25407.0,344.72979119867045,252.72802505439566,479.4995962246799
139130.0,15076.0,139130.0,9904.0,139130.0,25420.0,335.96876168448216,248.12360512571593,472.3725037357809
139141.0,15071.0,139141.0,9913.0,139141.0,25412.0,327.2033099392187,243.5008819780399,465.2031715401942
139141.0,15062.0,139141.0,9921.0,139141.0,25401.0,318.434521520458,238.8603464270554,457.99286850357316
139141.0,15045.0,139141.0,9890.0,139141.0,25384.0,309.6635903087547,234.20271830897326,450.7431511446335
139141.0,15039.0,139141.0,9888.0,139141.0,25363.0,300.8918382196192,229.52899419518025,443.45573747687286
139141.0,15021.0,139141.0,9881.0,139141.0,25376.0,292.12065027506026,224.84027324070234,436.1322792506024
139141.0,15027.0,139141.0,9883.0,139141.0,25369.0,283.35142212647213,220.13759588453468,428.77426728994914
139151.0,15007.0,139151.0,9887.0,139151.0,25366.0,274.58557664431146,215.42195523941757,421.3831528414972
139151.0,14998.0,139151.0,9857.0,139151.0,25364.0,265.8246090507415,210.6943839972771,413.9605290560172
139151.0,14984.0,139151.0,9860.0,139151.0,25334.0,257.07006543011914,205.95592051555406,406.508220772434
139151.0,14976.0,139151.0,9860.0,139151.0,25328.0,248.32346468349226,201.2074580967842,399.0282015996429
139151.0,14971.0,139151.0,9864.0,139151.0,25326.0,239.58625089318298,196.44970813033922,391.52239085145794
139151.0,14964.0,139151.0,9864.0,139151.0,25325.0,230.85982056624835,191.6833499192196,383.99255287826384
139161.0,14952.0,139161.0,9854.0,139161.0,25312.0,222.14559839710955,186.90921943395318,376.44036753739425
139161.0,14932.0,139161.0,9842.0,139161.0,25307.0,213.44506840817849,182.1283912598032,368.8675138919064
139161.0,14927.0,139161.0,9824.0,139161.0,25300.0,204.759699706442,177.34208692450824,361.27568613048254
139161.0,14923.0,139161.0,9831.0,139161.0,25277.0,196.09085382394528,172.5514723059096,353.6665639113035
139161.0,14908.0,139161.0,9841.0,139161.0,25305.0,187.43978489546407,167.7575545461769,346.0417734987633
139161.0,14910.0,139161.0,9832.0,139161.0,25282.0,178.8077022692779,162.9613160461874,338.4029651055586
139172.0,14905.0,139172.0,9823.0,139172.0,25266.0,170.19586110209116,158.16392158314926,330.7519780509768
139172.0,14880.0,139172.0,9797.0,139172.0,25255.0,161.60567482194483,153.3667354326771,323.0908346418557
139172.0,14859.0,139172.0,9794.0,139172.0,25233.0,153.03870370554534,148.57109988623046,315.421528310396
139172.0,14858.0,139172.0,9801.0,139172.0,25232.0,144.4964507141691,143.77807546779098,307.7457799817504
139172.0,14850.0,139172.0,9802.0,139172.0,25229.0,135.98017702523532,138.98839172377018,300.0648820059462
139172.0,14845.0,139172.0,9796.0,139172.0,25236.0,127.49090112941974,134.2026085504113,292.379722687666
139182.0,14828.0,139182.0,9794.0,139182.0,25221.0,119.02948228660398,129.42128363616814,284.69097113131886
139182.0,14821.0,139182.0,9766.0,139182.0,25207.0,110.59664664253194,124.64500636047529,276.9992341615332
139182.0,14809.0,139182.0,9761.0,139182.0,25201.0,102.19294787876345,119.87424753545088,269.3050476796441
139182.0,14811.0,139182.0,9775.0,139182.0,25202.0,93.81874534027509,115.1091362753458,261.60880159458657
139182.0,14798.0,139182.0,9780.0,139182.0,25190.0,85.47426032986914,110.34944932199028,253.91075615733405
139182.0,14791.0,139182.0,9780.0,139182.0,25195.0,77.15967210187989,105.5948816258911,246.2111395639232
139192.0,14783.0,139192.0,9752.0,139192.0,25179.0,68.87518068871657,100.84531081768233,238.5102559838508
139192.0,14758.0,139192.0,9754.0,139192.0,25162.0,60.62100619333978,96.10080058665108,230.80853721899553
139192.0,14758.0,139192.0,9749.0,139192.0,25148.0,52.39730632335909,91.3614340345946,223.1064489357127
139192.0,14746.0,139192.0,9738.0,139192.0,25152.0,44.204068820171415,86.62720568185273,215.4043101414817
139192.0,14753.0,139192.0,9754.0,139192.0,25152.0,36.041108292236686,81.89802069113517,207.70223635548848
139192.0,14747.0,139192.0,9749.0,139192.0,25147.0,27.908211969923514,77.17380130708091,200.00028133705644
139203.0,14716.0,139203.0,9727.0,139203.0,25133.0,19.80531295884373,72.45465396537384,192.29862356088154
139203.0,14716.0,139203.0,9727.0,139203.0,25112.0,11.732494691998909,67.74089469862002,184.59760922613827
139203.0,14696.0,139203.0,9711.0,139203.0,25115.0,3.689834673151495,63.032898429871295,176.8976295286999
139203.0,14706.0,139203.0,9716.0,139203.0,25103.0,-4.322706075566998,58.3309482058512,169.1989940796699
139203.0,14690.0,139203.0,9722.0,139203.0,25103.0,-12.305246681865924,53.635205780096896,161.50192390200243
139203.0,14682.0,139203.0,9714.0,139203.0,25085.0,-20.257880111915824,48.94583186681541,153.80660328037868
139213.0,14659.0,139213.0,9689.0,139213.0,25094.0,-28.18064663583027,44.263108325652354,146.11321355194696
139213.0,14657.0,139213.0,9695.0,139213.0,25072.0,-36.07363968819686,39.58736596861638,138.4219710884572
139213.0,14664.0,139213.0,9693.0,139213.0,25062.0,-43.93709437116843,34.91882928255427,130.73314517507322
139213.0,14650.0,139213.0,9696.0,139213.0,25060.0,-51.771296703905705,30.257616853654213,123.04699506380427
139213.0,14651.0,139213.0,9699.0,139213.0,25065.0,-59.57638444633096,25.603901531762858,115.36373547009191
139213.0,14621.0,139213.0,9675.0,139213.0,25049.0,-67.35222972382746,20.958074500590158,107.68364787569078
139223.0,14608.0,139223.0,9659.0,139223.0,25038.0,-75.09850868741796,16.320731109938833,100.0072060847034
139223.0,14596.0,139223.0,9655.0,139223.0,25020.0,-82.81492988507557,11.692427862565978,92.33504602674213
139223.0,14605.0,139223.0,9662.0,139223.0,25018.0,-90.50142707998259,7.073437192795836,84.66781621526411
139223.0,14591.0,139223.0,9675.0,139223.0,25017.0,-98.15814248805316,2.463759054500713,77.00607275911898
139223.0,14595.0,139223.0,9654.0,139223.0,25009.0,-105.78526317648084,-2.1366410484635594,69.35031604198082
139223.0,14572.0,139223.0,9645.0,139223.0,24996.0,-113.3828745457813,-6.727659008788521,61.70108809915291
139234.0,14552.0,139234.0,9639.0,139234.0,24989.0,-120.95095231835649,-11.309118081793372,54.0589971057982
139234.0,14544.0,139234.0,9634.0,139234.0,24969.0,-128.48953553326248,-15.880926145281762,46.424648717729724
139234.0,14545.0,139234.0,9642.0,139234.0,24973.0,-135.99893079549997,-20.443134030659905,38.798538882515345
139234.0,14545.0,139234.0,9640.0,139234.0,24960.0,-143.47973124360033,-24.995848384452927,31.180987023547004
139234.0,14539.0,139234.0,9638.0,139234.0,24963.0,-150.93264415853366,-29.53905370234429,23.572162194595535
139234.0,14519.0,139234.0,9612.0,139234.0,24962.0,-158.35831135908586,-34.0724973389751,15.97219207186447
139244.0,14509.0,139244.0,9597.0,139244.0,24944.0,-165.7572862880928,-38.59580141814001,8.38131025089433
139244.0,14509.0,139244.0,9593.0,139244.0,24929.0,-173.13013134689265,-43.108775343970535,0.7999183921978101
139244.0,14493.0,139244.0,9622.0,139244.0,24945.0,-180.4774715430484,-47.61163346192416,-6.771471199759617
139244.0,14501.0,139244.0,9610.0,139244.0,24922.0,-187.79995586776056,-52.10485479311785,-14.332230446811991
139244.0,14490.0,139244.0,9605.0,139244.0,24903.0,-195.09815674336278,-56.58884875967459,-21.881551884424425
139244.0,14467.0,139244.0,9594.0,139244.0,24892.0,-202.37246621333634,-61.06378508876071,-29.418553246079114
139255.0,14458.0,139255.0,9587.0,139255.0,24884.0,-209.62313052162528,-65.52964455085714,-36.94251587005749
139255.0,14455.0,139255.0,9584.0,139255.0,24889.0,-216.85041093018378,-69.98632863200072,-44.4530222074286
139255.0,14449.0,139255.0,9572.0,139255.0,24896.0,-224.05466839823998,-74.43374112191236,-51.94987508143504
139255.0,14449.0,139255.0,9572.0,139255.0,24884.0,-231.23629926451758,-78.87184971702482,-59.43284121459271
139255.0,14433.0,139255.0,9578.0,139255.0,24865.0,-238.39561501648416,-83.3007074058304,-66.90142747930065
139255.0,14419.0,139255.0,9560.0,139255.0,24846.0,-245.53278756231475,-87.72039316543487,-74.35490237580291
139265.0,14415.0,139265.0,9549.0,139265.0,24841.0,-252.64791059328252,-92.13098125094012,-81.79252430651707
139265.0,14414.0,139265.0,9566.0,139265.0,24838.0,-259.74106775440134,-96.53261597853611,-89.21374799208195
139265.0,14391.0,139265.0,9557.0,139265.0,24846.0,-266.81231655685485,-100.92550986774427,-96.618237038767
139265.0,14395.0,139265.0,9553.0,139265.0,24828.0,-273.86167505329297,-105.30979431083188,-104.00570291553242
139265.0,14386.0,139265.0,9546.0,139265.0,24818.0,-280.8891396105531,-109.68541097165007,-111.37576058612558
139265.0,14372.0,139265.0,9531.0,139265.0,24802.0,-287.89466295355317,-114.0521370040052,-118.72795461313387
139275.0,14351.0,139275.0,9520.0,139275.0,24801.0,-294.8781714095769,-118.40971576152236,-126.06189503871337
139275.0,14359.0,139275.0,9550.0,139275.0,24800.0,-301.8396921880435,-122.75798372636177,-133.37733306715074
139275.0,14354.0,139275.0,9536.0,139275.0,24794.0,-308.7794247566942,-127.09677712906557,-140.6740976401711
139275.0,14349.0,139275.0,9534.0,139275.0,24784.0,-315.6976328704808,-131.42565671901355,-147.95197184203914
139275.0,14334.0,139275.0,9517.0,139275.0,24775.0,-322.59449486447136,-135.74376032404956,-155.21063056811943
139275.0,14319.0,139275.0,9490.0,139275.0,24764.0,-329.47008219996997,-140.04992487740407,-162.4496637530042
139286.0,14310.0,139286.0,9505.0,139286.0,24757.0,-336.3244743573871,-144.34297877865134,-169.66863862696266
139286.0,14312.0,139286.0,9497.0,139286.0,24751.0,-343.1578846062936,-148.62195975574934,-176.86715244782135
139286.0,14301.0,139286.0,9511.0,139286.0,24750.0,-349.9706711825638,-152.88607613151123,-184.04483322736348
139286.0,14295.0,139286.0,9490.0,139286.0,24726.0,-356.76326220151896,-157.13452080851044,-191.2013066823621
139286.0,14270.0,139286.0,9475.0,139286.0,24721.0,-363.5361359600565,-161.36639096618268,-198.33623465908533
139286.0,14271.0,139286.0,9460.0,139286.0,24709.0,-370.2899254242059,-165.58085313531177,-205.44945135456362
139296.0,14263.0,139296.0,9475.0,139296.0,24700.0,-377.02554772757696,-169.77741404312576,-212.54109616194762
139296.0,14269.0,139296.0,9470.0,139296.0,24711.0,-383.74420688444616,-173.95601191165383,-219.6116601749443
139296.0,14271.0,139296.0,9474.0,139296.0,24708.0,-390.44722921766765,-178.11687560971433,-226.6618815913223
139296.0,14243.0,139296.0,9473.0,139296.0,24689.0,-397.1358427728711,-182.26032165610064,-233.69253452630358
139296.0,14233.0,139296.0,9449.0,139296.0,24682.0,-403.8111172197754,-186.38663073120586,-240.70432573159724
139296.0,14228.0,139296.0,9451.0,139296.0,24675.0,-410.4741168221584,-190.49608666288145,-247.69796193509933
139306.0,14221.0,139306.0,9453.0,139306.0,24674.0,-417.126049907042,-194.58910704930048,-254.6742177899008
139306.0,14223.0,139306.0,9457.0,139306.0,24660.0,-423.7682711172488,-198.66625099715378,-261.63391739283577
139306.0,14207.0,139306.0,9439.0,139306.0,24666.0,-430.4021950995168,-202.7280918214023,-268.57788399152594
139306.0,14207.0,139306.0,9427.0,139306.0,24648.0,-437.0292207510629,-206.77517932379203,-275.50688618938693
139306.0,14187.0,139306.0,9420.0,139306.0,24625.0,-443.65071657646115,-210.80819484309416,-282.4216393138154
139306.0,14184.0,139306.0,9421.0,139306.0,24617.0,-450.2680671137001,-214.82815132857274,-289.32297322986983
139317.0,14172.0,139317.0,9420.0,139317.0,24625.0,-456.8827500326115,-218.83646842236885,-296.21206134453416
139317.0,14177.0,139317.0,9432.0,139317.0,24635.0,-463.49637505751514,-222.83488811593054,-303.0904234087186
139317.0,14172.0,139317.0,9434.0,139317.0,24616.0,-470.110617887206,-226.8252552223858,-309.9596656556504
139317.0,14164.0,139317.0,9419.0,139317.0,24619.0,-476.7270733494445,-230.809255704421,-316.8212273868984
139317.0,14144.0,139317.0,9411.0,139317.0,24590.0,-483.34715928252604,-234.78829898491608,-323.67631811843046
139317.0,14141.0,139317.0,9403.0,139317.0,24584.0,-489.9721662116656,-238.76360490081993,-330.526031078802
139327.0,14137.0,139327.0,9411.0,139327.0,24600.0,-496.6033617105086,-242.7363313352311,-337.3714954099894
139327.0,14133.0,139327.0,9408.0,139327.0,24585.0,-503.2419996539561,-246.7075724971042,-344.2138484766049
139327.0,14132.0,139327.0,9396.0,139327.0,24568.0,-509.88922218255505,-250.67825614493609,-351.054074795852
139327.0,14113.0,139327.0,9388.0,139327.0,24567.0,-516.545947433413,-254.6491097137539,-357.8929807100558
139327.0,14099.0,139327.0,9376.0,139327.0,24549.0,-523.2128583571666,-258.6207681712027,-364.73130477364043
139327.0,14097.0,139327.0,9377.0,139327.0,24555.0,-529.8905209269393,-262.59393453645964,-371.5698019337516
139337.0,14101.0,139337.0,9387.0,139337.0,24536.0,-536.5794718461867,-266.56945138153355,-378.4092650559727
139337.0,14077.0,139337.0,9382.0,139337.0,24541.0,-543.2801644355975,-270.5481962737516,-385.2505141292038
139337.0,14079.0,139337.0,9377.0,139337.0,24529.0,-549.9929082741448,-274.53089220237746,-392.09436931718426
139337.0,14073.0,139337.0,9365.0,139337.0,24516.0,-556.7178815085041,-278.5180150992711,-398.94162604711244
139337.0,14056.0,139337.0,9342.0,139337.0,24504.0,-563.4551288048463,-282.5098834291075,-405.7930988947845
139337.0,14047.0,139337.0,9358.0,139337.0,24506.0,-570.2045752962237,-286.50687317047027,-412.6497301955302
139348.0,14044.0,139348.0,9354.0,139348.0,24490.0,-576.9661091435582,-290.5095477107835,-419.51265205248296
139348.0,14041.0,139348.0,9362.0,139348.0,24506.0,-583.7396234347545,-294.51855491231356,-426.3831531449264
139348.0,14027.0,139348.0,9348.0,139348.0,24482.0,-590.5249648118946,-298.53442085152585,-433.2625705408474
139348.0,14013.0,139348.0,9331.0,139348.0,24464.0,-597.3219062089272,-302.55746484705617,-440.1522218280709
139348.0,14004.0,139348.0,9325.0,139348.0,24468.0,-604.1302307278103,-306.5879268291144,-447.05350704177545
139348.0,13999.0,139348.0,9335.0,139348.0,24467.0,-610.9498558326992,-310.626163356765,-453.968028569648
139358.0,13996.0,139358.0,9324.0,139358.0,24468.0,-617.7808825193811,-314.6726916903125,-460.8975124541671
139358.0,13989.0,139358.0,9341.0,139358.0,24458.0,-624.6235472042374,-318.72806976601635,-467.84360592150335
139358.0,13985.0,139358.0,9323.0,139358.0,24449.0,-631.4781329971566,-322.79272336386043,-474.8077332208769
139358.0,13968.0,139358.0,9308.0,139358.0,24437.0,-638.3449071374879,-326.8668479480589,-481.791076508512
139358.0,13960.0,139358.0,9305.0,139358.0,24424.0,-645.2241372042662,-330.9505025447186,-488.7946554253931
139358.0,13952.0,139358.0,9308.0,139358.0,24435.0,-652.1161759763817,-335.04378434674857,-495.81941628916263
139368.0,13952.0,139368.0,9311.0,139368.0,24426.0,-659.021519821615,-339.1468553645593,-502.8662013518027
139368.0,13937.0,139368.0,9294.0,139368.0,24409.0,-665.9407859651949,-343.25983326286257,-509.9356183328596
139368.0,13932.0,139368.0,9293.0,139368.0,24395.0,-672.8746754073461,-347.3827386335139,-517.0280186474148
139368.0,13914.0,139368.0,9277.0,139368.0,24398.0,-679.8239983741524,-351.51557358019215,-524.1436268102356
139368.0,13911.0,139368.0,9274.0,139368.0,24375.0,-686.7897582340686,-355.6584628086172,-531.2826530379963
139368.0,13915.0,139368.0,9284.0,139368.0,24389.0,-693.7732068361698,-359.8117560364616,-538.4453263086792
139379.0,13909.0,139379.0,9292.0,139379.0,24381.0,-700.7757660069824,-363.9759601780479,-545.6318438261095
139379.0,13903.0,139379.0,9274.0,139379.0,24371.0,-707.7988495724253,-368.15150736641965,-552.8422287910618
139379.0,13888.0,139379.0,9276.0,139379.0,24353.0,-714.8437376422315,-372.3385854563131,-560.0762401605866
139379.0,13883.0,139379.0,9244.0,139379.0,24342.0,-721.911569898002,-376.5371807524733,-567.3334598685877
139379.0,13873.0,139379.0,9244.0,139379.0,24340.0,-729.003397135209,-380.74730260243973,-574.6134624026762
139379.0,13877.0,139379.0,9275.0,139379.0,24335.0,-736.1201959099958,-384.96918950553436,-581.9159008072016
139389.0,13870.0,139389.0,9263.0,139389.0,24339.0,-743.2627895954514,-389.2031972277658,-589.2404484163102
139389.0,13847.0,139389.0,9251.0,139389.0,24319.0,-750.4317405781022,-393.44946807967483,-596.5866651378265
139389.0,13843.0,139389.0,9229.0,139389.0,24310.0,-757.6273633263428,-397.70782656714835,-603.9539319861865
139389.0,13821.0,139389.0,9232.0,139389.0,24279.0,-764.8498745045051,-401.97799045661384,-611.3415651860216
139389.0,13832.0,139389.0,9226.0,139389.0,24285.0,-772.0995425106071,-406.2598058450601,-618.7490754641858
139389.0,13813.0,139389.0,9235.0,139389.0,24294.0,-779.3767271508381,-410.55330184749755,-626.1763479195755
139399.0,13828.0,139399.0,9235.0,139399.0,24289.0,-786.681799325286,-414.8585689548198,-633.6235320210654
139399.0,13791.0,139399.0,9220.0,139399.0,24271.0,-794.0150236888381,-419.1755804628408,-641.0907793532867
139399.0,13785.0,139399.0,9196.0,139399.0,24249.0,-801.3765621282491,-423.5041593441906,-648.5781650468684
139399.0,13780.0,139399.0,9186.0,139399.0,24254.0,-808.7666405468718,-427.8442140116334,-656.0858515792778
139399.0,13766.0,139399.0,9216.0,139399.0,24264.0,-816.1857008654255,-432.19602846348755,-663.6142055539606
139399.0,13769.0,139399.0,9208.0,139399.0,24247.0,-823.6344329987156,-436.560238496657,-671.1636590115088
139410.0,13755.0,139410.0,9198.0,139410.0,24229.0,-831.1137414355634,-440.93753850117287,-678.734519659543
139410.0,13734.0,139410.0,9187.0,139410.0,24223.0,-838.6247273504775,-445.32851546748486,-686.3269971415557
139410.0,13733.0,139410.0,9168.0,139410.0,24199.0,-846.168773239357,-449.73375791823423,-693.9413886727694
139410.0,13731.0,139410.0,9166.0,139410.0,24199.0,-853.7476551672407,-454.1541001093867,-701.5782783288417
139410.0,13729.0,139410.0,9186.0,139410.0,24208.0,-861.363510568739,-458.590793037425,-709.2386467678242
139410.0,13723.0,139410.0,9184.0,139410.0,24207.0,-869.0186777357386,-463.04540187732164,-716.9237578023908
139420.0,13721.0,139420.0,9172.0,139420.0,24198.0,-876.7155263262006,-467.51951278538434,-724.6348744108117
139420.0,13702.0,139420.0,9165.0,139420.0,24169.0,-884.4563395340273,-472.0145647198592,-732.3730793760287
139420.0,13679.0,139420.0,9162.0,139420.0,24166.0,-892.2433247477719,-476.53188717980026,-740.1393644368603
139420.0,13680.0,139420.0,9161.0,139420.0,24171.0,-900.0787890524873,-481.07276573020295,-747.9348199493735
139420.0,13678.0,139420.0,9159.0,139420.0,24164.0,-907.9653034399979,-485.63842396660084,-755.7606457542051
139420.0,13679.0,139420.0,9165.0,139420.0,24146.0,-915.9056593526774,-490.2299299735562,-763.6180135717754
139430.0,13660.0,139430.0,9143.0,139430.0,24136.0,-923.9026903331784,-494.8480818799542,-771.5080298061038
139430.0,13650.0,139430.0,9135.0,139430.0,24119.0,-931.9591752304649,-499.49339794888374,-779.4318614566255
139430.0,13634.0,139430.0,9129.0,139430.0,24125.0,-940.0779038216704,-504.1662658173317,-787.3908874899874
139430.0,13644.0,139430.0,9123.0,139430.0,24111.0,-948.2617833380247,-508.8671152792508,-795.3867461164513
139430.0,13640.0,139430.0,9113.0,139430.0,24102.0,-956.5138016473156,-513.596517459797,-803.4212941167385
139430.0,13629.0,139430.0,9124.0,139430.0,24120.0,-964.8368308110942,-518.3552285793445,-811.4965409034425
139441.0,13613.0,139441.0,9114.0,139441.0,24086.0,-973.2334672236611,-523.1441499570783,-819.6145228567046
139441.0,13600.0,139441.0,9102.0,139441.0,24091.0,-981.7060499029826,-527.9642386340473,-827.7771907258649
139441.0,13595.0,139441.0,9125.0,139441.0,24078.0,-990.2567819734547,-532.8164556079798,-835.9864193146988
139441.0,13601.0,139441.0,9092.0,139441.0,24073.0,-998.8877812255054,-537.701694986715,-844.2440382031436
139441.0,13579.0,139441.0,9108.0,139441.0,24077.0,-1007.6009848040705,-542.6207001021423,-852.5517863080772
139441.0,13578.0,139441.0,9104.0,139441.0,24058.0,-1016.3980314059484,-547.5740232214112,-860.9112084393914
139451.0,13550.0,139451.0,9089.0,139451.0,24058.0,-1025.2802605618067,-552.561955979337,-869.3235605803632
139451.0,13561.0,139451.0,9074.0,139451.0,24045.0,-1034.2487985952707,-557.5845074166011,-877.7897764613604
139451.0,13542.0,139451.0,9078.0,139451.0,24025.0,-1043.304601698334,-562.6415388952645,-886.3104893171123
139451.0,13551.0,139451.0,9074.0,139451.0,24031.0,-1052.4483852571825,-567.7328899459862,-894.88610677439
139451.0,13524.0,139451.0,9071.0,139451.0,24032.0,-1061.6805001106513,-572.8583574381637,-903.5168356407501
139451.0,13530.0,139451.0,9085.0,139451.0,24040.0,-1071.0008548823794,-578.0175746241766,-912.2024987331434
139461.0,13505.0,139461.0,9059.0,139461.0,24000.0,-1080.4089025907083,-583.2098467305175,-920.9422550473213
139461.0,13496.0,139461.0,9055.0,139461.0,23973.0,-1089.9036773742923,-588.4340665566598,-929.7345834987332
139461.0,13490.0,139461.0,9056.0,139461.0,24006.0,-1099.4838752800692,-593.6887870067,-938.5775747848209
139461.0,13487.0,139461.0,9058.0,139461.0,23985.0,-1109.147892124955,-598.9722725029974,-947.4690619151021
139461.0,13488.0,139461.0,9054.0,139461.0,23979.0,-1118.8937233593597,-604.2823957637563,-956.4064194786087
139461.0,13472.0,139461.0,9055.0,139461.0,23980.0,-1128.71877050809,-609.6164751168396,-965.3863696814748
139472.0,13448.0,139472.0,9032.0,139472.0,23959.0,-1138.6197202007675,-614.9711738438631,-974.4049085710338
139472.0,13446.0,139472.0,9025.0,139472.0,23947.0,-1148.5926092056543,-620.3425466388155,-983.4572938671902
139472.0,13450.0,139472.0,9032.0,139472.0,23948.0,-1158.6329237957277,-625.7261907910403,-992.5381127449745
139472.0,13433.0,139472.0,9047.0,139472.0,23935.0,-1168.7355231088422,-631.1172573499774,-1001.6413265126206
139472.0,13431.0,139472.0,9035.0,139472.0,23928.0,-1178.8944655740079,-636.510200992034,-1010.7602296255311
139472.0,13422.0,139472.0,9011.0,139472.0,23912.0,-1189.1028883273361,-641.8985298085671,-1019.887424418114
139482.0,13388.0,139482.0,9001.0,139482.0,23910.0,-1199.3529681438717,-647.2748587541978,-1029.0148542693837
139482.0,13382.0,139482.0,8981.0,139482.0,23897.0,-1209.6360329141737,-652.6312183960188,-1038.1338347306873
139482.0,13387.0,139482.0,8992.0,139482.0,23892.0,-1219.9427530875196,-657.9593642113293,-1047.2350484735166
139482.0,13388.0,139482.0,9006.0,139482.0,23894.0,-1230.2631280172031,-663.2508620558356,-1056.3085002916075
139482.0,13363.0,139482.0,9001.0,139482.0,23883.0,-1240.5862472730796,-668.4968650724231,-1065.3434061519888
139482.0,13350.0,139482.0,8974.0,139482.0,23862.0,-1250.9001409228617,-673.6878231378798,-1074.328081379344
139493.0,13340.0,139493.0,8965.0,139493.0,23855.0,-1261.191852702061,-678.8134792867046,-1083.2499679602652
139493.0,13341.0,139493.0,8960.0,139493.0,23848.0,-1271.4475401594136,-683.8631291368239,-1092.0957628953443
139493.0,13331.0,139493.0,8978.0,139493.0,23849.0,-1281.65242815688,-688.8258016391184,-1100.8514699177947
139493.0,13315.0,139493.0,8964.0,139493.0,23852.0,-1291.7906829549129,-693.6901712661991,-1109.5022920368122
139493.0,13316.0,139493.0,8969.0,139493.0,23830.0,-1301.8453409274225,-698.4443456798082,-1118.0324361902954
139493.0,13298.0,139493.0,8939.0,139493.0,23823.0,-1311.7982802774818,-703.0757680438084,-1126.4250045276592
139503.0,13271.0,139503.0,8939.0,139503.0,23801.0,-1321.630232255492,-707.5713274594784,-1134.6620699735704
139503.0,13275.0,139503.0,8929.0,139503.0,23799.0,-1331.3209113901394,-711.9175868610025,-1142.724853646626
139503.0,13271.0,139503.0,8939.0,139503.0,23789.0,-1340.849143931035,-716.1009365398156,-1150.5938731696024
139503.0,13264.0,139503.0,8936.0,139503.0,23790.0,-1350.1928069525288,-720.1075664738223,-1158.2489875997799
139503.0,13257.0,139503.0,8929.0,139503.0,23770.0,-1359.3286617763067,-723.9233348029011,-1165.669367940956
139503.0,13239.0,139503.0,8904.0,139503.0,23770.0,-1368.2322544455535,-727.5337271751011,-1172.8334950745889
139513.0,13227.0,139513.0,8909.0,139513.0,23765.0,-1376.8779406675324,-730.9240207490011,-1179.7191959026964
139513.0,13230.0,139513.0,8930.0,139513.0,23766.0,-1385.2389793511516,-734.0794570198584,-1186.3036212605202
139513.0,13225.0,139513.0,8924.0,139513.0,23751.0,-1393.2875458131757,-736.9851365770038,-1192.5631582218439
139513.0,13216.0,139513.0,8921.0,139513.0,23744.0,-1400.99461897239,-739.6257334093067,-1198.473392888879
139513.0,13210.0,139513.0,8917.0,139513.0,23730.0,-1408.329868902786,-741.9853328006213,-1204.0091891896536
139513.0,13173.0,139513.0,8885.0,139513.0,23704.0,-1415.2616772266526,-744.0474924749143,-1209.1448804241782
139524.0,13179.0,139524.0,8881.0,139524.0,23711.0,-1421.7573459679143,-745.7955254810217,-1213.8545561559515
139524.0,13179.0,139524.0,8909.0,139524.0,23718.0,-1427.7833441068483,-747.2128434478273,-1218.1122813546347
139524.0,13169.0,139524.0,8889.0,139524.0,23706.0,-1433.3053601635534,-748.2830369513922,-1221.892078633196
139524.0,13158.0,139524.0,8888.0,139524.0,23718.0,-1438.2882408178152,-748.9897582875393,-1225.1677877462182
139524.0,13139.0,139524.0,8872.0,139524.0,23684.0,-1442.6960534489422,-749.3167593066391,-1227.9130035382366
139524.0,13137.0,139524.0,8862.0,139524.0,23677.0,-1446.4923020629144,-749.2481435258857,-1230.101210564089
139534.0,13116.0,139534.0,8863.0,139534.0,23664.0,-1449.6401884850059,-748.7686853098432,-1231.7061314224507
139534.0,13120.0,139534.0,8880.0,139534.0,23667.0,-1452.1028572586388,-747.8640506841481,-1232.702105497423
139534.0,13121.0,139534.0,8878.0,139534.0,23662.0,-1453.843574843512,-746.5207887301265,-1233.0643208656454
139534.0,13112.0,139534.0,8881.0,139534.0,23659.0,-1454.8257916850648,-744.726185090254,-1232.7689265030463
139534.0,13097.0,139534.0,8877.0,139534.0,23652.0,-1455.0131935741715,-742.468182415255,-1231.793136894992
139534.0,13082.0,139534.0,8868.0,139534.0,23656.0,-1454.3699215633837,-739.7354430418146,-1230.1153763642992
139544.0,13093.0,139544.0,8865.0,139544.0,23656.0,-1452.8609251830353,-736.5175380994759,-1227.7154132584124
139544.0,13090.0,139544.0,8878.0,139544.0,23649.0,-1450.4522295266156,-732.8051784140977,-1224.574458382498
139544.0,13096.0,139544.0,8883.0,139544.0,23668.0,-1447.1110222195011,-728.5903296917254,-1220.6752586859384
139544.0,13083.0,139544.0,8893.0,139544.0,23648.0,-1442.805694931687,-723.8661657353309,-1216.0021787125816
139544.0,13082.0,139544.0,8866.0,139544.0,23661.0,-1437.5059963188467,-718.6270279214668,-1210.541304773221
139544.0,13080.0,139544.0,8890.0,139544.0,23649.0,-1431.1833075285865,-712.8685692430271,-1204.2806350780056
139555.0,13086.0,139555.0,8889.0,139555.0,23661.0,-1423.810931964262,-706.587977865076,-1197.210311752768
139555.0,13096.0,139555.0,8923.0,139555.0,23684.0,-1415.3642990403991,-699.7840192717689,-1189.322777747484
139555.0,13093.0,139555.0,8914.0,139555.0,23687.0,-1405.8210827879311,-692.4568647139934,-1180.612755742594
139555.0,13102.0,139555.0,8917.0,139555.0,23689.0,-1395.1613251429198,-684.6079346775064,-1171.0771403628164
139555.0,13094.0,139555.0,8919.0,139555.0,23699.0,-1383.3676415374412,-676.2399536662094,-1160.7150143341737
139555.0,13127.0,139555.0,8933.0,139555.0,23706.0,-1370.4254689582722,-667.3571373277646,-1149.5277846347872
139565.0,13125.0,139565.0,8943.0,139565.0,23734.0,-1356.3232254884942,-657.9653094582811,-1137.5192787922545
139565.0,13155.0,139565.0,8968.0,139565.0,23745.0,-1341.0523413235837,-648.0718758928247,-1124.695706164037
139565.0,13158.0,139565.0,8979.0,139565.0,23763.0,-1324.6072506761848,-637.6856753288996,-1111.0655225256635
139565.0,13174.0,139565.0,8969.0,139565.0,23760.0,-1306.9854257919192,-626.8168282660304,-1096.639349542989
139565.0,13183.0,139565.0,8975.0,139565.0,23781.0,-1288.1874977738637,-615.4767962648289,-1081.4300520626405
139565.0,13205.0,139565.0,8998.0,139565.0,23806.0,-1268.2174420313977,-603.678630958042,-1065.4528716875618
139575.0,13246.0,139575.0,9038.0,139575.0,23832.0,-1247.0826927382172,-591.4370704308224,-1048.7254158697942
139575.0,13260.0,139575.0,9047.0,139575.0,23853.0,-1224.7940687904531,-578.768282197517,-1031.267473692652
139575.0,13281.0,139575.0,9058.0,139575.0,23875.0,-1201.365620301665,-565.6894910970982,-1013.1008014552617
139575.0,13310.0,139575.0,9062.0,139575.0,23892.0,-1176.8145875348487,-552.2188234751717,-994.2489786046576
139575.0,13334.0,139575.0,9060.0,139575.0,23910.0,-1151.161437410386,-538.3754257828178,-974.7373515237746
139575.0,13361.0,139575.0,9098.0,139575.0,23946.0,-1124.4298717945608,-524.1796951051895,-954.5930178645997
139586.0,13400.0,139586.0,9124.0,139586.0,23972.0,-1096.6468048781335,-509.65334779423756,-933.8447332284431
139586.0,13433.0,139586.0,9157.0,139586.0,24011.0,-1067.842278518208,-494.81915959832855,-912.5226765795007
139586.0,13456.0,139586.0,9171.0,139586.0,24012.0,-1038.0493207403335,-479.70053241283745,-890.6581807176912
139586.0,13505.0,139586.0,9168.0,139586.0,24040.0,-1007.3038354690865,-464.32119047475715,-868.2836211103797
139586.0,13531.0,139586.0,9182.0,139586.0,24079.0,-975.6445062256294,-448.7051873796066,-845.43245801963
139586.0,13571.0,139586.0,9204.0,139586.0,24101.0,-943.1126660817929,-432.87711387029947,-822.1391940996197
139596.0,13616.0,139596.0,9236.0,139596.0,24142.0,-909.7521629713499,-416.86219801064567,-798.4391715010797
139596.0,13663.0,139596.0,9263.0,139596.0,24157.0,-875.6091724727875,-400.68614111833796,-774.3683449775067
139596.0,13698.0,139596.0,9279.0,139596.0,24197.0,-840.7319181919632,-384.3748019683459,-749.9631128209153
139596.0,13725.0,139596.0,9285.0,139596.0,24209.0,-805.1704378850327,-367.9539591395992,-725.2602105334299
139596.0,13778.0,139596.0,9322.0,139596.0,24244.0,-768.9765050630994,-351.4492498307326,-700.2966640307012
139596.0,13819.0,139596.0,9333.0,139596.0,24278.0,-732.2035769617287,-334.8861345548414,-675.1097586873
139606.0,13869.0,139606.0,9351.0,139606.0,24317.0,-694.9066154173368,-318.28978771996594,-649.7369117184234
139606.0,13922.0,139606.0,9386.0,139606.0,24334.0,-657.1417991547803,-301.6849840999904,-624.2154385944307
139606.0,13960.0,139606.0,9400.0,139606.0,24364.0,-618.9661945123459,-285.09595407217125,-598.5823782205512
139606.0,13994.0,139606.0,9400.0,139606.0,24391.0,-580.4374859944639,-268.54622705614383,-572.8744525733501
139606.0,14029.0,139606.0,9406.0,139606.0,24418.0,-541.6138902735654,-252.05867890627584,-547.1280644777931
139606.0,14096.0,139606.0,9454.0,139606.0,24460.0,-502.55417284536514,-235.65575011307584,-521.3792432891252
139617.0,14143.0,139617.0,9477.0,139617.0,24494.0,-463.31750641335714,-219.35945563455778,-495.66348468188096
139617.0,14194.0,139617.0,9495.0,139617.0,24528.0,-423.96310231490895,-203.1910743246659,-470.01547933082963
139617.0,14228.0,139617.0,9496.0,139617.0,24533.0,-384.5498316339456,-187.1708612781119,-444.46887504175874
139617.0,14280.0,139617.0,9512.0,139617.0,24572.0,-345.13600002781106,-171.31804143892214,-419.05623715269996
139617.0,14320.0,139617.0,9542.0,139617.0,24593.0,-305.7792176970497,-155.650946202652,-393.8091352831912
139617.0,14372.0,139617.0,9552.0,139617.0,24646.0,-266.5362533273328,-140.18703739849633,-368.75812871721433
139627.0,14401.0,139627.0,9575.0,139627.0,24666.0,-227.46287013544008,-124.94280388901132,-343.9325563036104
139627.0,14468.0,139627.0,9585.0,139627.0,24694.0,-188.6136826528591,-109.93367188047182,-319.36025940105094
139627.0,14503.0,139627.0,9593.0,139627.0,24700.0,-150.04197172753118,-95.17399316745593,-295.0674554781245
139627.0,14541.0,139627.0,9597.0,139627.0,24733.0,-111.7994458547821,-80.67714318912687,-271.0788322948347
139627.0,14585.0,139627.0,9630.0,139627.0,24756.0,-73.93608472284757,-66.4556879544138,-247.41770396229646
139627.0,14619.0,139627.0,9655.0,139627.0,24797.0,-36.50008960422656,-52.521415003753475,-224.10603582299188
139637.0,14685.0,139637.0,9672.0,139637.0,24824.0,0.46219459410247055,-38.885120741271294,-201.16428882346713
139637.0,14711.0,139637.0,9688.0,139637.0,24843.0,36.906482300289326,-25.556325771449906,-178.6111899230716
139637.0,14748.0,139637.0,9679.0,139637.0,24860.0,72.79078367909494,-12.543142523912877,-156.463603938215
139637.0,14784.0,139637.0,9680.0,139637.0,24871.0,108.07549781459659,0.14759181491427853,-134.7365952567344
139637.0,14812.0,139637.0,9721.0,139637.0,24894.0,142.72337415584116,12.510026610593911,-113.44361816032847
139637.0,14862.0,139637.0,9731.0,139637.0,24932.0,176.69946898298645,24.53919758796178,-92.5966713401541
139648.0,14901.0,139648.0,9747.0,139648.0,24957.0,209.97119524371396,36.23121449198504,-72.20625021983142
139648.0,14930.0,139648.0,9750.0,139648.0,24958.0,242.50848510888068,47.58344939646548,-52.28117157114639
139648.0,14957.0,139648.0,9756.0,139648.0,24973.0,274.28391857473855,58.59453960532193,-32.8285614946825
139648.0,14983.0,139648.0,9757.0,139648.0,24997.0,305.272691594922,69.26424368429224,-13.854063139872437
139648.0,15021.0,139648.0,9777.0,139648.0,25016.0,335.4524974889697,79.59324983351996,4.637982965575475
139648.0,15048.0,139648.0,9789.0,139648.0,25046.0,364.8034600492265,89.5830701787537,22.644529849306082
139658.0,15087.0,139658.0,9804.0,139658.0,25059.0,393.3081615723663,99.23608369791373,40.16392572468317
139658.0,15095.0,139658.0,9798.0,139658.0,25075.0,420.9516936102277,108.5556184558601,57.196011067822496
139658.0,15134.0,139658.0,9803.0,139658.0,25077.0,447.72162779932603,117.54590712774177,73.74209989351482
139658.0,15155.0,139658.0,9802.0,139658.0,25100.0,473.6079274941394,126.21188332714968,89.80482702611539
139658.0,15179.0,139658.0,9832.0,139658.0,25107.0,498.60289775075694,134.55897240917187,105.3879685857047
139658.0,15217.0,139658.0,9837.0,139658.0,25138.0,522.7011861337999,142.59306682254805,120.49634489096809
139668.0,15232.0,139668.0,9844.0,139668.0,25138.0,545.8998325769062,150.32066357738722,135.13581780438938
139668.0,15237.0,139668.0,9844.0,139668.0,25161.0,568.1982996682596,157.7489491252524,149.31330344324192
139668.0,15257.0,139668.0,9838.0,139668.0,25163.0,589.5983215650499,164.88571002014152,163.03672924068258
139668.0,15269.0,139668.0,9848.0,139668.0,25174.0,610.103607988163,171.73911770037273,176.3149310903243
139668.0,15300.0,139668.0,9880.0,139668.0,25196.0,629.7196056208413,178.31757130215254,189.15752877353214
139668.0,15314.0,139668.0,9879.0,139668.0,25210.0,648.4534119138546,184.62979252070068,201.5748745034274
139679.0,15329.0,139679.0,9866.0,139679.0,25203.0,666.3137783920968,190.68502249378042,213.578072255096
139679.0,15342.0,139679.0,9865.0,139679.0,25220.0,683.3110777677985,196.492964252626,225.1788995830965
139679.0,15350.0,139679.0,9863.0,139679.0,25222.0,699.4571860133208,202.06346032583707,236.38960931121096
139679.0,15374.0,139679.0,9894.0,139679.0,25237.0,714.765333704062,207.40621886366625,247.22275440300552
139679.0,15390.0,139679.0,9901.0,139679.0,25245.0,729.2500233917958,212.5308267677238,257.69108621597115
139679.0,15377.0,139679.0,9890.0,139679.0,25261.0,742.9270004435639,217.44695642360904,267.80750954849395
139689.0,15398.0,139689.0,9904.0,139689.0,25266.0,755.8131068905161,222.16445812205387,277.58508192926104
139689.0,15402.0,139689.0,9898.0,139689.0,25250.0,767.92601778361,226.6932751214656,287.0369595973707
139689.0,15414.0,139689.0,9888.0,139689.0,25271.0,779.2840436765928,231.0433044824514,296.1761764276216
139689.0,15418.0,139689.0,9921.0,139689.0,25288.0,789.9060168847734,235.22424180736232,305.0153970416844
139689.0,15436.0,139689.0,9912.0,139689.0,25293.0,799.8111941507534,239.24553503868924,313.5668804642004
139689.0,15445.0,139689.0,9905.0,139689.0,25318.0,809.0192115397915,243.11645712401935,321.8426053492533
139699.0,15441.0,139699.0,9910.0,139699.0,25310.0,817.5500848752013,246.84605439823264,329.85439650948115
139699.0,15443.0,139699.0,9914.0,139699.0,25320.0,825.4241275888687,250.44296633843226,337.61396736614597
139699.0,15448.0,139699.0,9925.0,139699.0,25329.0,832.661742846497,253.91533294006945,345.13285163220564
139699.0,15472.0,139699.0,9926.0,139699.0,25334.0,839.2832491699332,257.27083193601754,352.4223189680233
139699.0,15472.0,139699.0,9939.0,139699.0,25342.0,845.3088906805788,260.51676464853176,359.4933389998623
139699.0,15486.0,139699.0,9941.0,139699.0,25340.0,850.7589685750768,263.6601537996261,366.3565366768412
139710.0,15479.0,139710.0,9931.0,139710.0,25336.0,855.6539312833588,266.7078105462932,373.0220718333711
139710.0,15470.0,139710.0,9935.0,139710.0,25342.0,860.0143234928132,269.66627944762297,379.49942440536677
139710.0,15472.0,139710.0,9940.0,139710.0,25370.0,863.8605690967252,272.54169150190535,385.79721247166344
139710.0,15482.0,139710.0,9950.0,139710.0,25396.0,867.2127108550883,275.3396889662688,391.9232755461985
139710.0,15494.0,139710.0,9949.0,139710.0,25377.0,870.090310508519,278.0654723563066,397.8850005833731
139710.0,15488.0,139710.0,9948.0,139710.0,25380.0,872.5125269151079,280.72385814066934,403.68950796125625
139720.0,15493.0,139720.0,9930.0,139720.0,25377.0,874.4981975407516,283.3192133990034,409.3434907861995
139720.0,15478.0,139720.0,9950.0,139720.0,25399.0,876.0657972153981,285.85525312449863,414.8529602573999
139720.0,15493.0,139720.0,9966.0,139720.0,25418.0,877.2333018814877,288.3349105001903,420.22320650903794
139720.0,15509.0,139720.0,9985.0,139720.0,25418.0,878.0181206621335,290.7605066876192,425.4590010475546
139720.0,15492.0,139720.0,9986.0,139720.0,25422.0,878.4372069753535,293.13413503668767,430.564811934605
139720.0,15495.0,139720.0,9958.0,139720.0,25421.0,878.5071700465126,295.45792370262336,435.5448413330496
139731.0,15482.0,139731.0,9959.0,139731.0,25428.0,878.2441960436108,297.73392161342224,440.4029318193608
139731.0,15485.0,139731.0,9969.0,139731.0,25429.0,877.663861274167,299.9637473582583,445.1424627535396
139731.0,15490.0,139731.0,9984.0,139731.0,25453.0,876.7809907274734,302.1484036551726,449.76631348791534
139731.0,15492.0,139731.0,10002.0,139731.0,25452.0,875.6096424116715,304.28842531798887,454.2769479494324
139731.0,15498.0,139731.0,9995.0,139731.0,25466.0,874.1632068906515,306.3841947459031,458.67657800648146
139731.0,15486.0,139731.0,9982.0,139731.0,25451.0,872.4545244295091,308.4361395731065,462.96726388181366
139741.0,15482.0,139741.0,9989.0,139741.0,25465.0,870.4959100363155,310.4446546159687,467.1508685699921
139741.0,15481.0,139741.0,9987.0,139741.0,25459.0,868.2990657502087,312.409899884839,471.2289289314099
139741.0,15486.0,139741.0,9998.0,139741.0,25479.0,865.8749971563839,314.33169726027677,475.2025688775368
139741.0,15495.0,139741.0,10017.0,139741.0,25482.0,863.2340592231631,316.20959059057145,479.07252543197546
139741.0,15490.0,139741.0,10019.0,139741.0,25495.0,860.3861270596533,318.04306314613314,482.83927346780365
139741.0,15475.0,139741.0,10000.0,139741.0,25492.0,857.340743528672,319.8317606661258,486.5031661266963
139751.0,15468.0,139751.0,9997.0,139751.0,25489.0,854.1070835231435,321.57546300199965,490.0644856728246
139751.0,15478.0,139751.0,10017.0,139751.0,25511.0,850.6937973353301,323.2738569879566,493.52340072502636
139751.0,15476.0,139751.0,10025.0,139751.0,25510.0,847.1089615056917,324.9264626753777,496.8799735449129
139751.0,15481.0,139751.0,10029.0,139751.0,25525.0,843.3602036571508,326.53282222430823,500.1342882080339
139751.0,15478.0,139751.0,10034.0,139751.0,25520.0,839.454881655485,328.0927329063164,503.2865944245773
139751.0,15468.0,139751.0,10019.0,139751.0,25521.0,835.4002116162224,329.6063501930796,506.3373637987348
139762.0,15468.0,139762.0,10012.0,139762.0,25529.0,831.2032999988971,331.07410224994214,509.28725244969337
139762.0,15477.0,139762.0,10030.0,139762.0,25541.0,826.8711443157188,332.49647856732884,512.1370752151832
139762.0,15461.0,139762.0,10041.0,139762.0,25543.0,822.4107094834183,333.87394568422405,514.8878885575097
139762.0,15461.0,139762.0,10049.0,139762.0,25551.0,817.8290148345634,335.2071296264645,517.5411254836298
139762.0,15457.0,139762.0,10035.0,139762.0,25548.0,813.1331364498917,336.49706469681314,520.0986853080477
139762.0,15445.0,139762.0,10033.0,139762.0,25534.0,808.3301751794243,337.7452475365065,522.5629154788636
139772.0,15441.0,139772.0,10028.0,139772.0,25544.0,803.4272103632729,338.9534782122082,524.9364510055797
139772.0,15442.0,139772.0,10039.0,139772.0,25561.0,798.4312349779501,340.12367244111186,527.2220551012163
139772.0,15439.0,139772.0,10049.0,139772.0,25555.0,793.3491509068776,341.2578189390785,529.4226532105326
139772.0,15429.0,139772.0,10054.0,139772.0,25564.0,788.1878301821138,342.358114211296,531.5414712942618
139772.0,15436.0,139772.0,10032.0,139772.0,25558.0,782.9541650744509,343.4271148479165,533.582094118157
139772.0,15421.0,139772.0,10014.0,139772.0,25544.0,777.6551068108411,344.46764417124075,535.5483989227654
139782.0,15423.0,139782.0,10031.0,139782.0,25557.0,772.2977048397067,345.4824329176567,537.4443744801332
139782.0,15426.0,139782.0,10046.0,139782.0,25563.0,766.8891443970161,346.47386016060193,539.2739589820197
139782.0,15409.0,139782.0,10049.0,139782.0,25575.0,761.4368165492473,347.44405747324333,541.0410686504973
139782.0,15412.0,139782.0,10055.0,139782.0,25576.0,755.9483739364473,348.3951900729604,542.7497724241628
139782.0,15398.0,139782.0,10045.0,139782.0,25577.0,750.4317153135022,349.3296396518809,544.4044506966878
139782.0,15388.0,139782.0,10039.0,139782.0,25565.0,744.8949249522739,350.25000180263163,546.0098307197022
139793.0,15383.0,139793.0,10040.0,139793.0,25571.0,739.3461706991596,351.15893641404034,547.5708782931603
139793.0,15403.0,139793.0,10045.0,139793.0,25584.0,733.7936454255176,352.05900856838673,549.0926710639958
139793.0,15405.0,139793.0,10071.0,139793.0,25580.0,728.245733742586,352.95268984918886,550.5804091020051
139793.0,15367.0,139793.0,10056.0,139793.0,25580.0,722.7113045533531,353.84256045186794,552.0395018798044
139793.0,15363.0,139793.0,10039.0,139793.0,25573.0,717.1997426396275,354.7314772658003,553.4755614984067
139793.0,15347.0,139793.0,10043.0,139793.0,25568.0,711.7206501925447,355.62244880879666,554.8942696065649
139803.0,15354.0,139803.0,10046.0,139803.0,25572.0,706.2835498765252,356.51836465525844,556.3011927137501
139803.0,15366.0,139803.0,10071.0,139803.0,25581.0,700.8978319667366,357.4219172246998,557.7016570218819
139803.0,15338.0,139803.0,10061.0,139803.0,25589.0,695.5729108512606,358.33578464557615,559.1007736665061
139803.0,15336.0,139803.0,10060.0,139803.0,25586.0,690.3183315590409,359.2628499745068,560.5035716991839
139803.0,15325.0,139803.0,10039.0,139803.0,25572.0,685.1436681597964,360.2062037189458,561.91506663093
139803.0,15317.0,139803.0,10040.0,139803.0,25569.0,680.0583553892873,361.16889921565013,563.3401308105646
139813.0,15315.0,139813.0,10063.0,139813.0,25594.0,675.0715746163906,362.15368944849945,564.783284878479
139813.0,15321.0,139813.0,10065.0,139813.0,25597.0,670.1922181343054,363.163022459671,566.2486934620225
139813.0,15326.0,139813.0,10060.0,139813.0,25607.0,665.428992191739,364.19925681589456,567.7404034187863
139813.0,15303.0,139813.0,10057.0,139813.0,25585.0,660.7906038359126,365.2647914690274,569.2625553387116
139813.0,15293.0,139813.0,10057.0,139813.0,25585.0,656.2858086765411,366.3620067247643,570.8193435415973
139813.0,15284.0,139813.0,10039.0,139813.0,25586.0,651.9232302464675,367.49311742909276,572.4147790786275
139824.0,15298.0,139824.0,10065.0,139824.0,25608.0,647.7111591211626,368.6600071047664,574.0525247606223
139824.0,15285.0,139824.0,10061.0,139824.0,25591.0,643.6575399638964,369.8641664158592,575.7359457707572
139824.0,15281.0,139824.0,10071.0,139824.0,25605.0,639.7700673051364,371.1068107784336,577.4682138480555
139824.0,15269.0,139824.0,10064.0,139824.0,25596.0,636.05619349943,372.38903136163214,579.2523131552745
139824.0,15263.0,139824.0,10050.0,139824.0,25601.0,632.5230162324506,373.71180944735426,581.0909902280498
139824.0,15257.0,139824.0,10063.0,139824.0,25594.0,629.1771303354285,375.0758738769397,582.986684338166
139834.0,15266.0,139834.0,10075.0,139834.0,25617.0,626.0245306999356,376.4815796422957,584.9414665167792
139834.0,15265.0,139834.0,10083.0,139834.0,25623.0,623.0706429829017,377.9290059237816,586.9571065600417
139834.0,15257.0,139834.0,10069.0,139834.0,25609.0,620.3204475053649,379.4181683301348,589.0352558085805
139834.0,15238.0,139834.0,10064.0,139834.0,25613.0,617.7785180824352,380.94906808805706,591.1775149401545
139834.0,15248.0,139834.0,10061.0,139834.0,25599.0,615.4488886043844,382.52151544629737,593.3852895850004
139834.0,15249.0,139834.0,10062.0,139834.0,25610.0,613.334919238642,384.13489931273733,595.6595713279332
139844.0,15250.0,139844.0,10086.0,139844.0,25623.0,611.4393321163195,385.7880872922872,598.0008100005973
139844.0,15244.0,139844.0,10092.0,139844.0,25628.0,609.7643293755651,387.4795573329925,600.4089784207314
139844.0,15236.0,139844.0,10074.0,139844.0,25620.0,608.3116295526255,389.2076497121235,602.8837344504034
139844.0,15228.0,139844.0,10066.0,139844.0,25616.0,607.0823777280859,390.9706196631032,605.4244537183166
139844.0,15236.0,139844.0,10070.0,139844.0,25613.0,606.0770002046197,392.7664036778182,608.0300763547215
139844.0,15235.0,139844.0,10074.0,139844.0,25631.0,605.2951331992464,394.59237274530614,610.6989296594095
139855.0,15237.0,139855.0,10093.0,139855.0,25635.0,604.7356680360717,396.4452931820543,613.4287088747889
139855.0,15228.0,139855.0,10106.0,139855.0,25639.0,604.3968116661135,398.321513353818,616.2166140964083
139855.0,15233.0,139855.0,10091.0,139855.0,25633.0,604.2760755305828,400.2172509217321,619.0594673325845
139855.0,15228.0,139855.0,10085.0,139855.0,25638.0,604.3702231821453,402.128719669348,621.9536984996482
139855.0,15230.0,139855.0,10102.0,139855.0,25650.0,604.6752313861793,404.0520171072449,624.895283429235
139855.0,15240.0,139855.0,10113.0,139855.0,25657.0,605.1862870688781,405.98305629884925,627.8797797122573
139865.0,15240.0,139865.0,10116.0,139865.0,25665.0,605.8978546460194,407.91772821621305,630.9024767002167
139865.0,15247.0,139865.0,10104.0,139865.0,25657.0,606.8038037692302,409.85210048065983,633.9585383844343
139865.0,15237.0,139865.0,10101.0,139865.0,25670.0,607.8975106482499,411.7824138217377,637.0430441906799
139865.0,15235.0,139865.0,10109.0,139865.0,25655.0,609.171852198353,413.7049148328311,640.1509460596693
139865.0,15242.0,139865.0,10103.0,139865.0,25661.0,610.6191073939643,415.6157214476638,643.2769682828957
139865.0,15252.0,139865.0,10124.0,139865.0,25682.0,612.2309056966814,417.51080625753775,646.4155048999648
139875.0,15253.0,139875.0,10115.0,139875.0,25680.0,613.9983158992617,419.3860755350546,649.5606625615778
139875.0,15251.0,139875.0,10138.0,139875.0,25680.0,615.9119764941662,421.23750766732053,652.7064166607441
139875.0,15264.0,139875.0,10090.0,139875.0,25691.0,617.9621605977786,423.06123375468223,655.8466906935398
139875.0,15258.0,139875.0,10110.0,139875.0,25680.0,620.1388162067781,424.8533824184454,658.9753489258502
139875.0,15264.0,139875.0,10111.0,139875.0,25697.0,622.4316124568204,426.6097739414127,662.0861713697891
139875.0,15270.0,139875.0,10137.0,139875.0,25693.0,624.8299638766566,428.3258281385472,665.1728396018647
139886.0,15284.0,139886.0,10142.0,139886.0,25724.0,627.3230896357834,429.9968095409311,668.2290085023984
139886.0,15275.0,139886.0,10123.0,139886.0,25704.0,629.900146577909,431.6181429089184,671.2484863813872
139886.0,15272.0,139886.0,10132.0,139886.0,25694.0,632.5503068704256,433.18550173866015,674.2253354898324
139886.0,15284.0,139886.0,10139.0,139886.0,25708.0,635.2626976479298,434.6947103831752,677.1537251488464
139886.0,15281.0,139886.0,10130.0,139886.0,25715.0,638.0263325185828,436.14170277435323,680.0277461335247
139886.0,15289.0,139886.0,10156.0,139886.0,25722.0,640.8301263531459,437.52257835613324,682.8414394670389
139896.0,15284.0,139896.0,10152.0,139896.0,25733.0,643.6629228826425,438.83372905176304,685.588964939673
139896.0,15299.0,139896.0,10129.0,139896.0,25718.0,646.5134990364899,440.07197870227947,688.2647435999613
139896.0,15296.0,139896.0,10133.0,139896.0,25711.0,649.3705949511296,441.2345124835797,690.8634428648359
139896.0,15292.0,139896.0,10125.0,139896.0,25723.0,652.2229558460886,442.3186004538036,693.3797841932144
139896.0,15304.0,139896.0,10142.0,139896.0,25727.0,655.0593153016886,443.32139055039784,695.8083859883834
139896.0,15314.0,139896.0,10152.0,139896.0,25741.0,657.868387085204,444.23992695401614,698.1438078468032
139906.0,15314.0,139906.0,10155.0,139906.0,25742.0,660.6389711228237,445.07136153214327,700.3807254979197
139906.0,15313.0,139906.0,10141.0,139906.0,25736.0,663.360080890611,445.8131702504957,702.5140848310398
139906.0,15318.0,139906.0,10134.0,139906.0,25728.0,666.0209711626403,446.46315810476756,704.5391056626718
139906.0,15310.0,139906.0,10149.0,139906.0,25736.0,668.6110927795152,447.01929110478596,706.4511354083753
139906.0,15332.0,139906.0,10144.0,139906.0,25757.0,671.1200496626486,447.4796022767645,708.245555187045
139906.0,15334.0,139906.0,10162.0,139906.0,25748.0,673.5376494829152,447.84227495996214,709.9178983827071
139917.0,15330.0,139917.0,10151.0,139917.0,25749.0,675.8540543902586,448.1058063222967,711.4640340815283
139917.0,15330.0,139917.0,10131.0,139917.0,25745.0,678.0598682114717,448.26908318377286,712.8801989897503
139917.0,15335.0,139917.0,10139.0,139917.0,25746.0,680.1460956743615,448.33123865435135,714.162908321551
139917.0,15329.0,139917.0,10132.0,139917.0,25750.0,682.1040832427487,448.29141104682094,715.3088773212202
139917.0,15335.0,139917.0,10152.0,139917.0,25769.0,683.9254803043848,448.1486479409533,716.3150425767762
139917.0,15332.0,139917.0,10157.0,139917.0,25747.0,685.6021987313671,447.9020282816109,717.1786933498206
139927.0,15330.0,139927.0,10143.0,139927.0,25743.0,687.1263731072431,447.5508912358812,717.8975288617834
139927.0,15338.0,139927.0,10133.0,139927.0,25750.0,688.4903198590371,447.09492899082807,718.4695181776378
139927.0,15337.0,139927.0,10130.0,139927.0,25749.0,689.6865279282011,446.53403220785583,718.89275501571
139927.0,15349.0,139927.0,10144.0,139927.0,25760.0,690.7077196790885,445.86809456379,719.1654734953777
139927.0,15353.0,139927.0,10141.0,139927.0,25743.0,691.5469802628256,445.09700303985073,719.2861378649
139927.0,15352.0,139927.0,10140.0,139927.0,25767.0,692.1979232901031,444.22076944050025,719.2534969850803
139937.0,15340.0,139937.0,10141.0,139937.0,25746.0,692.6547898245342,443.23963112857274,719.0666258782505
139937.0,15334.0,139937.0,10127.0,139937.0,25747.0,692.912377692009,442.1540622870778,718.7249483111925
139937.0,15340.0,139937.0,10116.0,139937.0,25731.0,692.9658599803381,440.96467950983583,718.228137232548
139937.0,15353.0,139937.0,10132.0,139937.0,25749.0,692.8106952699034,439.67206801494234,717.5759376062811
139937.0,15344.0,139937.0,10141.0,139937.0,25753.0,692.4427289137573,438.2767348813121,716.7681221195705
139937.0,15345.0,139937.0,10137.0,139937.0,25735.0,691.8583377811572,436.7793046408457,715.8046141767577
139948.0,15343.0,139948.0,10116.0,139948.0,25737.0,691.0544708655134,435.1807184092245,714.6855495060204
139948.0,15332.0,139948.0,10119.0,139948.0,25733.0,690.0286121804753,433.4821876159887,713.4111812657775
139948.0,15331.0,139948.0,10113.0,139948.0,25742.0,688.7786984217785,431.6850014651875,711.9818047098332
139948.0,15346.0,139948.0,10114.0,139948.0,25734.0,687.3030440928566,429.7904066500099,710.3978025890294
139948.0,15345.0,139948.0,10130.0,139948.0,25743.0,685.6004137966262,427.799628087012,708.6597424727262
139948.0,15341.0,139948.0,10131.0,139948.0,25728.0,683.6702235324085,425.7140447946831,706.7684551461036
139958.0,15317.0,139958.0,10105.0,139958.0,25723.0,681.5126403313132,423.5354136170331,704.7250394230329
139958.0,15308.0,139958.0,10093.0,139958.0,25717.0,679.1284244210522,421.26585944860153,702.530762991539
139958.0,15309.0,139958.0,10105.0,139958.0,25725.0,676.5186211723058,418.9076116666015,700.1869503238606
139958.0,15314.0,139958.0,10099.0,139958.0,25733.0,673.6843638634742,416.4628226397822,697.6950093890349
139958.0,15318.0,139958.0,10110.0,139958.0,25721.0,670.6269167488342,413.93362811675354,695.0566052188462
139958.0,15312.0,139958.0,10088.0,139958.0,25712.0,667.3478572061476,411.32228550246856,692.2737940973084
139969.0,15305.0,139969.0,10085.0,139969.0,25705.0,663.84922288002,408.63119567531754,689.3489766576017
139969.0,15289.0,139969.0,10070.0,139969.0,25685.0,660.1335185334677,405.8627576781154,686.2847204125817
139969.0,15295.0,139969.0,10071.0,139969.0,25696.0,656.2036068246589,403.01915941579887,683.0835528282081
139969.0,15290.0,139969.0,10084.0,139969.0,25695.0,652.0626245871546,400.1022661810748,679.747850328961
139969.0,15277.0,139969.0,10087.0,139969.0,25690.0,647.7139933267299,397.11372431300833,676.2799020787432
139969.0,15281.0,139969.0,10071.0,139969.0,25689.0,643.1614327648111,394.05519897763736,672.6820331072952
139979.0,15268.0,139979.0,10072.0,139979.0,25680.0,638.4089429129483,390.92850316826775,668.9566652828204
139979.0,15258.0,139979.0,10050.0,139979.0,25663.0,633.4607808647181,387.7355328730735,665.1062937929294
139979.0,15259.0,139979.0,10057.0,139979.0,25664.0,628.3214058660405,384.4781095367513,661.1333669125222
139979.0,15242.0,139979.0,10079.0,139979.0,25685.0,622.9954168097664,381.1579098660926,657.040202543199
139979.0,15243.0,139979.0,10055.0,139979.0,25654.0,617.4875103412005,377.7766266037634,652.82910334148
139979.0,15234.0,139979.0,10056.0,139979.0,25654.0,611.8024472823993,374.3361801028829,648.5024902481503
139989.0,15225.0,139989.0,10043.0,139989.0,25646.0,605.9450393641184,370.8387276803804,644.062841852033
139989.0,15222.0,139989.0,10036.0,139989.0,25650.0,599.9201419436774,367.28653544439425,639.5125933111019
139989.0,15222.0,139989.0,10048.0,139989.0,25647.0,593.7326626697951,363.68187847066906,634.854170813238
139989.0,15213.0,139989.0,10042.0,139989.0,25641.0,587.3876345039373,360.0270704403707,630.0901109033823
139989.0,15202.0,139989.0,10018.0,139989.0,25634.0,580.8903023436657,356.3245639768715,625.22315329171
139989.0,15189.0,139989.0,10019.0,139989.0,25623.0,574.2461218964412,352.5769050676596,620.2562524177952
140000.0,15182.0,140000.0,9998.0,140000.0,25606.0,567.4606686084198,348.78652125469097,615.1924975621017
140000.0,15171.0,140000.0,10005.0,140000.0,25607.0,560.5395333717704,344.9555114805166,610.0349616459908
140000.0,15171.0,140000.0,10017.0,140000.0,25607.0,553.4882655407034,341.0855731020417,604.7865899250492
140000.0,15172.0,140000.0,10026.0,140000.0,25606.0,546.3124075955596,337.17817730777165,599.4502438275805
140000.0,15162.0,140000.0,10009.0,140000.0,25591.0,539.017633414755,333.2349119315484,594.0288330586122
140000.0,15126.0,140000.0,9998.0,140000.0,25573.0,531.6098422404993,329.25768805297065,588.5253476686045
140009.0,15131.0,140009.0,9983.0,140009.0,25571.0,524.0950260175231,325.2486585508879,582.9427211847928
140009.0,15132.0,140009.0,9988.0,140009.0,25577.0,516.4790616915404,321.21000234973826,577.2836906526211
140009.0,15121.0,140009.0,9983.0,140009.0,25571.0,508.76771564045987,317.1437989224084,571.5508416973513
140009.0,15098.0,140009.0,9978.0,140009.0,25570.0,500.9667608842577,313.05204559624866,565.7467899460339
140009.0,15093.0,140009.0,9964.0,140009.0,25548.0,493.08194177752557,308.9366901001128,559.8743145644986
140009.0,15087.0,140009.0,9952.0,140009.0,25532.0,485.11883456490773,304.7995548401317,553.9363163275416
140019.0,15081.0,140019.0,9958.0,140019.0,25528.0,477.08279991261617,300.6421852204417,547.9356122735333
140019.0,15068.0,140019.0,9977.0,140019.0,25534.0,468.97903330496604,296.4658222976737,541.8747631502471
140019.0,15068.0,140019.0,9964.0,140019.0,25536.0,460.8126159914617,292.2716332828111,535.7561278373685
140019.0,15053.0,140019.0,9962.0,140019.0,25518.0,452.58855619442437,288.06101366453714,529.5820778777469
140019.0,15043.0,140019.0,9936.0,140019.0,25509.0,444.31182243330784,283.83568366272834,523.3551271677693
140019.0,15021.0,140019.0,9923.0,140019.0,25500.0,435.9873040420172,279.5975182529969,517.0778816119184
140030.0,15017.0,140030.0,9914.0,140030.0,25486.0,427.61967847951405,275.3482240353943,510.7529199628418
140030.0,15021.0,140030.0,9925.0,140030.0,25494.0,419.2133066972483,271.0890753793284,504.38271301879
140030.0,15001.0,140030.0,9942.0,140030.0,25482.0,410.77227783335763,266.82093037601845,497.9696397818019
140030.0,15001.0,140030.0,9919.0,140030.0,25471.0,402.3005201173393,262.54451643714924,491.51607216241604
140030.0,14982.0,140030.0,9906.0,140030.0,25454.0,393.8018463077393,258.26065564225246,485.0243824440535
140030.0,14970.0,140030.0,9906.0,140030.0,25440.0,385.27992543752634,253.9702011278266,478.4968046221297
140040.0,14970.0,140040.0,9884.0,140040.0,25463.0,376.73821919195814,249.67384436373692,471.93529120055166
140040.0,14965.0,140040.0,9909.0,140040.0,25434.0,368.17997791256363,245.37199768504166,465.34155560165135
140040.0,14965.0,140040.0,9896.0,140040.0,25445.0,359.60837098967534,241.0648390765921,458.71723738879086
140040.0,14943.0,140040.0,9890.0,140040.0,25415.0,351.0266645142137,236.75248276824314,452.06398382358054
140040.0,14916.0,140040.0,9877.0,140040.0,25413.0,342.4382558524608,232.4350671892385,445.3833971086617
140040.0,14911.0,140040.0,9865.0,140040.0,25396.0,333.8464759918813,228.11266111379825,438.6768998776387
140050.0,14906.0,140050.0,9876.0,140050.0,25407.0,325.25434168179817,223.78511953413357,431.94562613664743
140050.0,14900.0,140050.0,9880.0,140050.0,25398.0,316.66448796448753,219.4520815113742,425.19046105690575
140050.0,14897.0,140050.0,9887.0,140050.0,25393.0,308.07926683147656,215.11319095577147,418.4122032705168
140050.0,14876.0,140050.0,9857.0,140050.0,25381.0,299.50086620872906,210.76837035172173,411.6116998820112
140050.0,14868.0,140050.0,9846.0,140050.0,25374.0,290.9313378861733,206.4178600673143,404.78987928823835
140050.0,14857.0,140050.0,9846.0,140050.0,25361.0,282.3725282463834,202.0619949169296,397.94772022678364
140061.0,14851.0,140061.0,9844.0,140061.0,25355.0,273.826012909466,197.70100331335658,391.0861995187603
140061.0,14858.0,140061.0,9851.0,140061.0,25361.0,265.29313034663846,193.33502125208545,384.2062751365612
140061.0,14827.0,140061.0,9849.0,140061.0,25347.0,256.77510631334945,188.96426445494464,377.3089733687183
140061.0,14822.0,140061.0,9828.0,140061.0,25327.0,248.27311525222672,184.58920486285243,370.3954930278896
140061.0,14817.0,140061.0,9817.0,140061.0,25316.0,239.78820576901336,180.2105733803909,363.4671485787674
140061.0,14808.0,140061.0,9811.0,140061.0,25318.0,231.3212520380955,175.8291686182458,356.52520273815014
140071.0,14800.0,140071.0,9818.0,140071.0,25300.0,222.8730080022229,171.44568207652668,349.5707848041702
140071.0,14799.0,140071.0,9810.0,140071.0,25300.0,214.44418743370397,167.0607016405527,342.60490276750045
140071.0,14799.0,140071.0,9805.0,140071.0,25298.0,206.0355819705955,162.67481848806648,335.6284783356248
140071.0,14759.0,140071.0,9788.0,140071.0,25280.0,197.64819079185867,158.28866739439002,328.64241697678324
140071.0,14741.0,140071.0,9788.0,140071.0,25267.0,189.28314131712636,153.9028457741175,321.6476400968038
140071.0,14741.0,140071.0,9798.0,140071.0,25257.0,180.94136042300033,149.5178389317791,314.6449902734068
140081.0,14753.0,140081.0,9798.0,140081.0,25253.0,172.62336040836618,145.1341214927536,307.63510058399567
140081.0,14740.0,140081.0,9781.0,140081.0,25243.0,164.32938657097475,140.75237833176283,300.61834537381213
140081.0,14725.0,140081.0,9772.0,140081.0,25243.0,156.05969364750746,136.37359808651453,293.59487041865367
140081.0,14720.0,140081.0,9753.0,140081.0,25245.0,147.81465564099875,131.99894411706384,286.5646903246322
140081.0,14703.0,140081.0,9741.0,140081.0,25216.0,139.59472925965417,127.62949799340407,279.5278248243115
140081.0,14695.0,140081.0,9746.0,140081.0,25225.0,131.4003923747481,123.26600296933844,272.4843545653704
140092.0,14696.0,140092.0,9752.0,140092.0,25212.0,123.23210402596948,118.90876728268017,265.43440043512726
140092.0,14675.0,140092.0,9746.0,140092.0,25210.0,115.09032440673911,114.55779403976288,258.37816200405496
140092.0,14672.0,140092.0,9715.0,140092.0,25180.0,106.97555028981463,110.21292720534984,251.31596651222634
140092.0,14652.0,140092.0,9730.0,140092.0,25182.0,98.88828492657012,105.87378501527888,244.24818875330942
140092.0,14646.0,140092.0,9724.0,140092.0,25176.0,90.82895656719705,101.53962449921846,237.1751187447744
140092.0,14635.0,140092.0,9744.0,140092.0,25162.0,82.79783415273334,97.20942044481666,230.09693299685557
140102.0,14643.0,140102.0,9708.0,140102.0,25145.0,74.79500896925765,92.88210823170613,223.01370056264176
140102.0,14632.0,140102.0,9718.0,140102.0,25167.0,66.82050903501874,88.55670522075997,215.9253469601581
140102.0,14618.0,140102.0,9721.0,140102.0,25134.0,58.87447133558396,84.23227835010744,208.8317054789366
140102.0,14599.0,140102.0,9699.0,140102.0,25134.0,50.957191790701586,79.90796236251992,201.73262349079124
140102.0,14600.0,140102.0,9696.0,140102.0,25132.0,43.069022588977305,75.58298821831761,194.62797401156854
140102.0,14587.0,140102.0,9706.0,140102.0,25124.0,35.21027877565507,71.25662458180898,187.51767370109695
140112.0,14589.0,140112.0,9717.0,140112.0,25121.0,27.381257289437258,66.92824084682684,180.40179432166116
140112.0,14574.0,140112.0,9690.0,140112.0,25095.0,19.582323913261348,62.59756255185823,173.28064623079337
140112.0,14562.0,140112.0,9672.0,140112.0,25093.0,11.8139770582751,58.264793383065864,166.1547327168539
140112.0,14549.0,140112.0,9670.0,140112.0,25080.0,4.076819559199407,53.93041556594295,159.0246257578229
140112.0,14540.0,140112.0,9670.0,140112.0,25070.0,-3.6285413007019542,49.59492767449973,151.89087448993973
140112.0,14537.0,140112.0,9658.0,140112.0,25083.0,-11.301572465653976,45.25876471290741,144.75399898253613
140123.0,14519.0,140123.0,9671.0,140123.0,25060.0,-18.941830008092552,40.92234378932534,137.61459358306485
140123.0,14525.0,140123.0,9655.0,140123.0,25051.0,-26.548944677140753,36.58615644085711,130.47344874431104
140123.0,14512.0,140123.0,9648.0,140123.0,25035.0,-34.12257811253755,32.25085497653686,123.33152738969989
140123.0,14497.0,140123.0,9632.0,140123.0,25033.0,-41.6623558108455,27.917219491940955,116.18983828649408
140123.0,14484.0,140123.0,9641.0,140123.0,25016.0,-49.16788006795696,23.586027793719325,109.04934805408607
140123.0,14493.0,140123.0,9645.0,140123.0,25016.0,-56.63881279434872,19.258022484647483,101.91094796288644
140133.0,14475.0,140133.0,9636.0,140133.0,25022.0,-64.07486632143855,14.934060178304605,94.77548763238644
140133.0,14463.0,140133.0,9621.0,140133.0,25005.0,-71.47572245025901,10.615266752925152,87.64392416506962
140133.0,14460.0,140133.0,9614.0,140133.0,24980.0,-78.84103153387264,6.303012431681736,80.517449071476
140133.0,14433.0,140133.0,9610.0,140133.0,24987.0,-86.17048958322289,1.998769386375045,73.39741891197627
140133.0,14433.0,140133.0,9602.0,140133.0,24971.0,-93.46395293548346,-2.2959923542189244,66.28522722678747
140133.0,14433.0,140133.0,9601.0,140133.0,24964.0,-100.72154192707944,-6.579838359800021,59.182285676878564
140143.0,14441.0,140143.0,9604.0,140143.0,24950.0,-107.94357775224717,-10.851346832644651,52.090027328682254
140143.0,14414.0,140143.0,9580.0,140143.0,24948.0,-115.1303565547272,-15.109049505926293,45.00986525185567
140143.0,14393.0,140143.0,9570.0,140143.0,24935.0,-122.28204406735483,-19.351465972122753,37.94316709251848
140143.0,14402.0,140143.0,9565.0,140143.0,24919.0,-129.3988223353947,-23.577296248760092,30.89124152624379
140143.0,14391.0,140143.0,9573.0,140143.0,24923.0,-136.48102948495261,-27.78558747110526,23.85528999876135
140143.0,14391.0,140143.0,9581.0,140143.0,24920.0,-143.52909825573647,-31.975676430087105,16.836404657883918
140154.0,14374.0,140154.0,9569.0,140154.0,24910.0,-150.54342887944182,-36.14694643936201,9.835691359369093
140154.0,14370.0,140154.0,9554.0,140154.0,24906.0,-157.52434200138754,-40.298637355751225,2.8544185449272845
140154.0,14363.0,140154.0,9545.0,140154.0,24876.0,-164.47209139924848,-44.42988484001967,-4.105939589415584
140154.0,14356.0,140154.0,9550.0,140154.0,24881.0,-171.3868595905272,-48.53988162752643,-11.043798058611628
140154.0,14351.0,140154.0,9550.0,140154.0,24873.0,-178.2687160866028,-52.62792811002532,-17.957580909214585
140154.0,14341.0,140154.0,9545.0,140154.0,24872.0,-185.11756864665028,-56.69332166309857,-24.845706075135354
140164.0,14334.0,140164.0,9534.0,140164.0,24842.0,-191.93313181739825,-60.73523449955434,-31.70650008117252
140164.0,14307.0,140164.0,9514.0,140164.0,24833.0,-198.714957286659,-64.75273185298585,-38.53825513877598
140164.0,14312.0,140164.0,9512.0,140164.0,24825.0,-205.46256248900772,-68.7449507568486,-45.3394367849412
140164.0,14303.0,140164.0,9515.0,140164.0,24821.0,-212.17555831752856,-72.71129171784168,-52.108841772522396
140164.0,14305.0,140164.0,9504.0,140164.0,24832.0,-218.85363632260936,-76.65146546135304,-58.845570673925636
140164.0,14281.0,140164.0,9504.0,140164.0,24821.0,-225.49647207719948,-80.56544333826201,-65.54882535892352
140174.0,14290.0,140174.0,9507.0,140174.0,24805.0,-232.1036884059863,-84.45340651910936,-72.21767911232325
140174.0,14262.0,140174.0,9489.0,140174.0,24792.0,-238.6748825398372,-88.31568386058512,-78.8510197705765
140174.0,14256.0,140174.0,9474.0,140174.0,24770.0,-245.20969697321954,-92.15275736569214,-85.44769626669859
140174.0,14247.0,140174.0,9494.0,140174.0,24765.0,-251.70795427637995,-95.96538177378142,-92.00675326896305
140174.0,14261.0,140174.0,9495.0,140174.0,24766.0,-258.1697364760496,-99.75458756244672,-98.52761229051612
140174.0,14244.0,140174.0,9494.0,140174.0,24756.0,-264.59527544761784,-103.52143579784985,-105.01008799715203
140185.0,14229.0,140185.0,9463.0,140185.0,24741.0,-270.98479193253013,-107.26679193465066,-111.45431258784765
140185.0,14233.0,140185.0,9468.0,140185.0,24735.0,-277.3384774544114,-110.99137757058628,-117.8607342019501
140185.0,14212.0,140185.0,9463.0,140185.0,24739.0,-283.6565543713392,-114.69597061155827,-124.23016101970245
140185.0,14215.0,140185.0,9462.0,140185.0,24723.0,-289.93930680365156,-118.38148871722865,-130.56371950310643
140185.0,14215.0,140185.0,9472.0,140185.0,24728.0,-296.18707029018003,-122.04890945709622,-136.86274901521244
140185.0,14191.0,140185.0,9455.0,140185.0,24714.0,-302.4001680244214,-125.69911619330605,-143.12870968666778
140195.0,14179.0,140195.0,9436.0,140195.0,24703.0,-308.57891103839574,-129.33282144049593,-149.3631257512062
140195.0,14169.0,140195.0,9429.0,140195.0,24691.0,-314.72376553532024,-132.95071338362203,-155.56760882811636
140195.0,14169.0,140195.0,9441.0,140195.0,24694.0,-320.83553963077406,-136.55368791822013,-161.7439347965593
140195.0,14167.0,140195.0,9454.0,140195.0,24699.0,-326.91542151952194,-140.1428504910341,-167.89402243348866
140195.0,14176.0,140195.0,9434.0,140195.0,24677.0,-332.9648508306485,-143.71925331065256,-174.01977126302904
140195.0,14152.0,140195.0,9422.0,140195.0,24677.0,-338.98530813281116,-147.28369371458524,-180.12293057540984
140206.0,14143.0,140206.0,9413.0,140206.0,24661.0,-344.97820468240127,-150.83679627093488,-186.2051047914573
140206.0,14127.0,140206.0,9401.0,140206.0,24650.0,-350.9449816510769,-154.37924502482718,-192.2678263128157
140206.0,14133.0,140206.0,9406.0,140206.0,24648.0,-356.88728522362646,-157.91197159168627,-198.31264116758933
140206.0,14133.0,140206.0,9412.0,140206.0,24648.0,-362.8070070541048,-161.4361999123937,-204.34114264465182
140206.0,14128.0,140206.0,9407.0,140206.0,24638.0,-368.7061434837418,-164.95331728548803,-210.3548921576832
140206.0,14108.0,140206.0,9402.0,140206.0,24621.0,-374.58663536052507,-168.4646910390365,-216.35532847664285
140216.0,14103.0,140216.0,9387.0,140216.0,24605.0,-380.4503644631221,-171.97159674544167,-222.3438190816574
140216.0,14090.0,140216.0,9389.0,140216.0,24611.0,-386.29928016082556,-175.47528019850233,-228.32182121557634
140216.0,14098.0,140216.0,9386.0,140216.0,24617.0,-392.1354984001589,-178.97703573719514,-234.29092998351956
140216.0,14090.0,140216.0,9386.0,140216.0,24593.0,-397.96126974714196,-182.47819361986728,-240.25272643501796
140216.0,14101.0,140216.0,9394.0,140216.0,24599.0,-403.7788184433401,-185.98001033766946,-246.2086279526373
140216.0,14096.0,140216.0,9385.0,140216.0,24562.0,-409.59010097686087,-189.48349825412032,-252.15990279715925
140226.0,14055.0,140226.0,9356.0,140226.0,24568.0,-415.3966237381327,-192.98932202776933,-258.107824481595
140226.0,14054.0,140226.0,9351.0,140226.0,24553.0,-421.1995443335878,-196.49794392172652,-264.05386070042823
140226.0,14069.0,140226.0,9360.0,140226.0,24566.0,-426.9999452055599,-200.00991072144075,-269.99974094742834
140226.0,14053.0,140226.0,9375.0,140226.0,24562.0,-432.7988788256522,-203.52591999976318,-275.9473258752605
140226.0,14045.0,140226.0,9364.0,140226.0,24547.0,-438.59720264147325,-207.04656655061098,-281.8983795308284
140226.0,14037.0,140226.0,9357.0,140226.0,24543.0,-444.39551539803267,-210.5720563401124,-287.8544305931765
140237.0,14029.0,140237.0,9319.0,140237.0,24527.0,-450.1942150463916,-214.10218949392817,-293.8167832727446
140237.0,14013.0,140237.0,9332.0,140237.0,24525.0,-455.9935709653289,-217.63664064770808,-299.78658675818633
140237.0,14025.0,140237.0,9333.0,140237.0,24525.0,-461.79378822348906,-221.17524727450933,-305.76486603240664
140237.0,14009.0,140237.0,9338.0,140237.0,24519.0,-467.5949991160411,-224.71801053586177,-311.75245331139433
140237.0,13998.0,140237.0,9339.0,140237.0,24508.0,-473.3971961374875,-228.26486735060996,-317.74986459791546
140237.0,13986.0,140237.0,9311.0,140237.0,24487.0,-479.2002561437233,-231.81549879173667,-323.75726501053407
140247.0,13981.0,140247.0,9302.0,140247.0,24476.0,-485.00406784758616,-235.3693751644239,-329.7745997751002
140247.0,13965.0,140247.0,9305.0,140247.0,24481.0,-490.8086533720542,-238.9259993260133,-335.80178564118285
140247.0,13975.0,140247.0,9309.0,140247.0,24470.0,-496.61423934338484,-242.48506292030606,-341.8387745201752
140247.0,13973.0,140247.0,9318.0,140247.0,24481.0,-502.42122086077643,-246.04634352648674,-347.88544685151453
140247.0,13963.0,140247.0,9302.0,140247.0,24455.0,-508.229998100863,-249.60946415780785,-353.9414460063116
140247.0,13938.0,140247.0,9289.0,140247.0,24425.0,-514.040865658587,-253.17375594331077,-360.0061500368049
140257.0,13933.0,140257.0,9270.0,140257.0,24435.0,-519.8541246063737,-256.73836971496655,-366.07889816068234
140257.0,13931.0,140257.0,9269.0,140257.0,24428.0,-525.6702978638416,-260.3025555733753,-372.1592311785678
140257.0,13932.0,140257.0,9290.0,140257.0,24431.0,-531.4902100697888,-263.8658514222665,-378.2468706208931
140257.0,13938.0,140257.0,9282.0,140257.0,24421.0,-537.3148651580375,-267.42797610036484,-384.34153377947314
140257.0,13911.0,140257.0,9269.0,140257.0,24403.0,-543.1452491076172,-270.98856676420064,-390.4428052218532
140257.0,13908.0,140257.0,9242.0,140257.0,24397.0,-548.9822602103039,-274.54712277935937,-396.55015991601806
140268.0,13886.0,140268.0,9246.0,140268.0,24384.0,-554.8268376561539,-278.1032512482261,-402.66308536461327
140268.0,13897.0,140268.0,9247.0,140268.0,24378.0,-560.6801427011692,-281.65693694040624,-408.7811914622728
140268.0,13892.0,140268.0,9259.0,140268.0,24380.0,-566.5436082285482,-285.20856141175796,-414.904251429522
140268.0,13890.0,140268.0,9236.0,140268.0,24372.0,-572.4188161928776,-288.75871785869083,-421.0321455055355
140268.0,13872.0,140268.0,9246.0,140268.0,24352.0,-578.307348611284,-292.3080706150964,-427.16477014517363
140268.0,13863.0,140268.0,9233.0,140268.0,24338.0,-584.2107759744524,-295.85733617696496,-433.3020746240247
140278.0,13861.0,140278.0,9225.0,140278.0,24338.0,-590.1307607674908,-299.4073007391236,-439.4442311275901
140278.0,13859.0,140278.0,9229.0,140278.0,24334.0,-596.0691182009185,-302.9588560085395,-445.59174405009435
140278.0,13846.0,140278.0,9227.0,140278.0,24330.0,-602.0277733875645,-306.513008747789,-451.7453973126593
140278.0,13846.0,140278.0,9221.0,140278.0,24327.0,-608.0087059755934,-310.07080735721473,-457.90612265920606
140278.0,13833.0,140278.0,9223.0,140278.0,24298.0,-614.0139347940809,-313.633250223995,-464.0749164023895
140278.0,13826.0,140278.0,9197.0,140278.0,24301.0,-620.0455262592768,-317.2012587786044,-470.25289768305413
140288.0,13824.0,140288.0,9209.0,140288.0,24291.0,-626.1056183827851,-320.77574760723405,-476.4414414299541
140288.0,13821.0,140288.0,9203.0,140288.0,24295.0,-632.1964117469743,-324.35770659468926,-482.64220789750163
140288.0,13812.0,140288.0,9208.0,140288.0,24293.0,-638.3200970245356,-327.9481554324221,-488.8570221932724
140288.0,13804.0,140288.0,9187.0,140288.0,24277.0,-644.4787877794096,-331.5480291488769,-495.08770088335837
140288.0,13805.0,140288.0,9184.0,140288.0,24262.0,-650.6744969310772,-335.15817271789166,-501.33597537520905
140288.0,13782.0,140288.0,9169.0,140288.0,24249.0,-656.9091264599841,-338.779477095312,-507.60359297047717
140299.0,13772.0,140299.0,9170.0,140299.0,24252.0,-663.1845188593343,-342.41304939896764,-513.892482204703
140299.0,13773.0,140299.0,9173.0,140299.0,24250.0,-669.5025965803153,-346.06030185035786,-520.2047942120835
140299.0,13774.0,140299.0,9183.0,140299.0,24252.0,-675.865429537552,-349.72287646992146,-526.5427633903879
140299.0,13765.0,140299.0,9162.0,140299.0,24225.0,-682.2751314512851,-353.4024459563912,-532.9085208648461
140299.0,13740.0,140299.0,9149.0,140299.0,24221.0,-688.7337529294983,-357.10061533235506,-539.3040549590577
140299.0,13736.0,140299.0,9149.0,140299.0,24210.0,-695.2433594289159,-360.81904775027914,-545.7313287248957
140309.0,13740.0,140309.0,9150.0,140309.0,24211.0,-701.8061968906148,-364.5596221541033,-552.192376380898
140309.0,13728.0,140309.0,9168.0,140309.0,24201.0,-708.4247183270148,-368.32438799132615,-558.6892814580924
140309.0,13724.0,140309.0,9159.0,140309.0,24194.0,-715.1014874778715,-372.11530275042264,-565.2241013479279
140309.0,13710.0,140309.0,9136.0,140309.0,24170.0,-721.8391233783634,-375.9339748697584,-571.7988515150997
140309.0,13694.0,140309.0,9129.0,140309.0,24176.0,-728.6403444456417,-379.78167504101947,-578.4155938321143
140309.0,13696.0,140309.0,9113.0,140309.0,24169.0,-735.508079620006,-383.659589547606,-585.076511595674
140319.0,13698.0,140319.0,9128.0,140319.0,24164.0,-742.4455210022759,-387.5690565595312,-591.7838517600456
140319.0,13701.0,140319.0,9129.0,140319.0,24162.0,-749.4559903992312,-391.5115870204676,-598.5397930065648
140319.0,13690.0,140319.0,9105.0,140319.0,24158.0,-756.5426824116453,-395.48871258179724,-605.3463124336079
140319.0,13673.0,140319.0,9132.0,140319.0,24132.0,-763.7084822852377,-399.5018689794431,-612.2050852030442
140319.0,13666.0,140319.0,9097.0,140319.0,24113.0,-770.9559717522703,-403.55234516202245,-619.1175425518658
140319.0,13661.0,140319.0,9108.0,140319.0,24117.0,-778.2875317043687,-407.64125158021005,-626.0851022812215
140330.0,13650.0,140330.0,9105.0,140330.0,24117.0,-785.7053938816966,-411.7695339049635,-633.1093166875469
140330.0,13646.0,140330.0,9096.0,140330.0,24122.0,-793.2116313827454,-415.93795119091584,-640.1917496845099
140330.0,13638.0,140330.0,9079.0,140330.0,24114.0,-800.8081344684484,-420.1470407161273,-647.3336862777048
140330.0,13622.0,140330.0,9088.0,140330.0,24089.0,-808.4965918314941,-424.397186849584,-654.5359050496569
140330.0,13617.0,140330.0,9082.0,140330.0,24081.0,-816.2785157209406,-428.6886826248753,-661.7986775385071
140330.0,13599.0,140330.0,9087.0,140330.0,24072.0,-824.1553169386152,-433.02165044277297,-669.1219317515939
140340.0,13616.0,140340.0,9080.0,140340.0,24080.0,-832.1283507332269,-437.39588462989974,-676.5053450541802
140340.0,13614.0,140340.0,9070.0,140340.0,24061.0,-840.1987999817947,-441.81073120373173,-683.9482612027657
140340.0,13593.0,140340.0,9066.0,140340.0,24050.0,-848.3674057353018,-446.26506556412545,-691.4495752188792
140340.0,13571.0,140340.0,9062.0,140340.0,24039.0,-856.6343243660791,-450.75733170681303,-699.0077439764518
140340.0,13568.0,140340.0,9038.0,140340.0,24028.0,-864.9992650970337,-455.2855964499321,-706.620882065419
140340.0,13570.0,140340.0,9046.0,140340.0,24020.0,-873.461665061292,-459.84765717390604,-714.2868397721078
140350.0,13550.0,140350.0,9054.0,140350.0,24027.0,-882.0206813154145,-464.4411201641917,-722.0032085973908
140350.0,13564.0,140350.0,9041.0,140350.0,24014.0,-890.6750767255114,-469.06329380216255,-729.7672078377027
140350.0,13545.0,140350.0,9044.0,140350.0,24013.0,-899.4230827273227,-473.7109998926686,-737.5755008788626
140350.0,13527.0,140350.0,9026.0,140350.0,23983.0,-908.2622794767952,-478.3804873758408,-745.4240870029992
140350.0,13514.0,140350.0,9017.0,140350.0,23978.0,-917.1896249910709,-483.06747281224426,-753.3083619098629
140350.0,13519.0,140350.0,9017.0,140350.0,23987.0,-926.2015908601184,-487.7672571699584,-761.2232418491608
140361.0,13505.0,140361.0,9023.0,140361.0,23975.0,-935.2941860652207,-492.4747854862342,-769.1631228334771
140361.0,13514.0,140361.0,9013.0,140361.0,23966.0,-944.46282449674,-497.1845503937737,-777.1216892636643
140361.0,13501.0,140361.0,9001.0,140361.0,23958.0,-953.7021233216144,-501.8904651467326,-785.0917866646132
140361.0,13485.0,140361.0,8991.0,140361.0,23939.0,-963.0057213951302,-506.58587631813657,-793.065413378618
140361.0,13473.0,140361.0,8994.0,140361.0,23926.0,-972.366231221439,-511.2636758917432,-801.0337950221412
140361.0,13474.0,140361.0,8983.0,140361.0,23936.0,-981.7752983611025,-515.9163611844131,-808.9874832770864
140371.0,13461.0,140371.0,8990.0,140371.0,23924.0,-991.2236025800092,-520.5360023542705,-816.9163275219748
140371.0,13459.0,140371.0,8972.0,140371.0,23901.0,-1000.7007645831088,-525.114176425639,-824.8093418706703
140371.0,13439.0,140371.0,8956.0,140371.0,23884.0,-1010.1952557736365,-529.6419692739013,-832.6547188891927
140371.0,13423.0,140371.0,8957.0,140371.0,23878.0,-1019.6943983941925,-534.110114648928,-840.440038915484
140371.0,13425.0,140371.0,8966.0,140371.0,23889.0,-1029.1844543987258,-538.5091227932409,-848.1524183511812
140371.0,13419.0,140371.0,8961.0,140371.0,23878.0,-1038.6506597810878,-542.8292026536395,-855.7784070974184
140381.0,13396.0,140381.0,8956.0,140381.0,23869.0,-1048.0771440926446,-547.0600609666806,-863.3037549522567
140381.0,13392.0,140381.0,8940.0,140381.0,23844.0,-1057.4468934766228,-551.190797098257,-870.713304419789
140381.0,13377.0,140381.0,8928.0,140381.0,23838.0,-1066.7418184440126,-555.2099789677336,-877.9910974134459
140381.0,13353.0,140381.0,8928.0,140381.0,23833.0,-1075.9428540867993,-559.1058275550067,-885.1205526599823
140381.0,13358.0,140381.0,8929.0,140381.0,23841.0,-1085.030091288132,-562.8663464375879,-892.0845079003209
140381.0,13360.0,140381.0,8936.0,140381.0,23819.0,-1093.9828424060306,-566.4792793621119,-898.8650889733264
140392.0,13353.0,140392.0,8937.0,140392.0,23818.0,-1102.7794963666606,-569.9319184999556,-905.4435803788324
140392.0,13332.0,140392.0,8914.0,140392.0,23806.0,-1111.3972994265628,-573.2109094934092,-911.800411228297
140392.0,13324.0,140392.0,8917.0,140392.0,23800.0,-1119.8123031268478,-576.3022257216048,-917.9151863596485
140392.0,13317.0,140392.0,8901.0,140392.0,23780.0,-1127.99945993884,-579.1913041239566,-923.7667288465497
140392.0,13317.0,140392.0,8918.0,140392.0,23779.0,-1135.932677145881,-581.8631649469537,-929.3331790831344
140392.0,13297.0,140392.0,8904.0,140392.0,23772.0,-1143.584773106536,-584.3024025562387,-934.5921045830506
140402.0,13295.0,140402.0,8896.0,140402.0,23762.0,-1150.9274480473123,-586.4931226758399,-939.5205442979209
140402.0,13290.0,140402.0,8874.0,140402.0,23750.0,-1157.9313087145051,-588.4190147585024,-944.0950387732032
140402.0,13268.0,140402.0,8872.0,140402.0,23736.0,-1164.5658911361566,-590.0636166638576,-948.2917379508533
140402.0,13251.0,140402.0,8866.0,140402.0,23734.0,-1170.7997532736683,-591.4106183664705,-952.0865732103798
140402.0,13251.0,140402.0,8874.0,140402.0,23719.0,-1176.6006992576713,-592.4440372540333,-955.4554175167217
140402.0,13242.0,140402.0,8868.0,140402.0,23710.0,-1181.9359803959255,-593.148233161294,-958.3742263563937
140412.0,13234.0,140412.0,8866.0,140412.0,23715.0,-1186.7723687583648,-593.5078607942248,-960.8191804775207
140412.0,13222.0,140412.0,8860.0,140412.0,23698.0,-1191.0762076057179,-593.5078733784881,-962.7667826405427
140412.0,13214.0,140412.0,8849.0,140412.0,23696.0,-1194.8135287780917,-593.13361647885,-964.1939253383778
140412.0,13208.0,140412.0,8844.0,140412.0,23686.0,-1197.9502097977984,-592.371006403482,-965.0780111933292
140412.0,13205.0,140412.0,8870.0,140412.0,23685.0,-1200.4521090471703,-591.2066945027325,-965.3971045155901
140412.0,13198.0,140412.0,8865.0,140412.0,23682.0,-1202.285155837751,-589.628031634378,-965.1300520171254
140423.0,13196.0,140423.0,8849.0,140423.0,23687.0,-1203.4154227811177,-587.6229040570449,-964.2565470802601
140423.0,13179.0,140423.0,8837.0,140423.0,23668.0,-1203.8092301302931,-585.1797770981501,-962.7571645723882
140423.0,13171.0,140423.0,8842.0,140423.0,23673.0,-1203.4333418739047,-582.2880076981689,-960.6134619767638
140423.0,13177.0,140423.0,8853.0,140423.0,23670.0,-1202.2552344313926,-578.9381246671733,-957.8081535370859
140423.0,13173.0,140423.0,8853.0,140423.0,23672.0,-1200.2432993833386,-575.1218806936297,-954.3252467055031
140423.0,13180.0,140423.0,8854.0,140423.0,23674.0,-1197.3669185497683,-570.8321877141855,-950.1501110950547
140433.0,13168.0,140433.0,8844.0,140433.0,23653.0,-1193.5965055266893,-566.0631322108817,-945.2695715187994
140433.0,13152.0,140433.0,8842.0,140433.0,23662.0,-1188.903656328525,-560.8101435174623,-939.6721247482496
140433.0,13152.0,140433.0,8846.0,140433.0,23670.0,-1183.2614910377197,-555.0702485404346,-933.3482075598027
140433.0,13162.0,140433.0,8881.0,140433.0,23674.0,-1176.6450558324927,-548.8422207859414,-926.2903262078504
140433.0,13167.0,140433.0,8864.0,140433.0,23680.0,-1169.0315616230168,-542.1264841498273,-918.4930537021423
140433.0,13165.0,140433.0,8885.0,140433.0,23690.0,-1160.400466168649,-534.9249354311032,-909.9530226240151
140444.0,13179.0,140444.0,8875.0,140444.0,23694.0,-1150.7335602827184,-527.2409061405683,-900.6689318693234
140444.0,13200.0,140444.0,8888.0,140444.0,23689.0,-1140.0150486673626,-519.0792412820022,-890.641587662649
140444.0,13193.0,140444.0,8889.0,140444.0,23713.0,-1128.2315369210014,-510.4464059527056,-879.8740193569269
140444.0,13198.0,140444.0,8916.0,140444.0,23722.0,-1115.3720547442742,-501.3505467503453,-868.3715647562997
140444.0,13212.0,140444.0,8943.0,140444.0,23739.0,-1101.4282493392927,-491.80138028130386,-856.1418176051054
140444.0,13218.0,140444.0,8934.0,140444.0,23763.0,-1086.3946238817139,-481.8099044599603,-843.1944856381535
140454.0,13227.0,140454.0,8929.0,140454.0,23751.0,-1070.2687201440492,-471.38822167730837,-829.5412540612049
140454.0,13254.0,140454.0,8946.0,140454.0,23773.0,-1053.0512757977021,-460.5496839495727,-815.1957755700171
140454.0,13279.0,140454.0,8962.0,140454.0,23791.0,-1034.746285638047,-449.3091188306272,-800.1737804569332
140454.0,13307.0,140454.0,8998.0,140454.0,23817.0,-1015.3608817089114,-437.68280983473426,-784.493089823141
140454.0,13317.0,140454.0,9014.0,140454.0,23844.0,-994.9051333809743,-425.6881944617754,-768.17343020005
140454.0,13342.0,140454.0,9021.0,140454.0,23846.0,-973.391941191542,-413.3434756005235,-751.2361785209225
