c_ts,c_val,d_ts,d_val,e_ts,e_val,c_val_filtered,d_val_filtered,e_val_filtered
104575,8336,104575.0,36918.0,104575.0,34919.0,39.555913857691344,73.12045901961793,151.5938468758545
104575,8347,104575.0,36923.0,104575.0,34933.0,45.15446612482826,76.80750099007244,157.2156043941739
104575,8352,104575.0,36939.0,104575.0,34948.0,50.8303417384546,80.4734643044502,162.82592308873066
104575,8370,104575.0,36969.0,104575.0,34973.0,56.57102913252464,84.10629373597686,168.40720630057083
104575,8376,104575.0,36966.0,104575.0,34971.0,62.36397391196985,87.6945659135263,173.94241545794415
104575,8375,104575.0,36943.0,104575.0,34960.0,68.19673165836531,91.22781858142548,179.41533566923982
104586,8379,104586.0,36930.0,104586.0,34972.0,74.05701998618191,94.6964745836653,184.81057174965665
104586,8377,104586.0,36958.0,104586.0,34970.0,79.9326419204351,98.09144995574663,190.11339662869597
104586,8401,104586.0,36962.0,104586.0,34995.0,85.81139229883146,101.40394022409006,195.30969548390817
104586,8414,104586.0,36988.0,104586.0,35007.0,91.68110544421766,104.62559769948061,200.3861032162999
104586,8424,104586.0,36982.0,104586.0,35008.0,97.52988497637352,107.7488855341313,205.3302790582194
104586,8418,104586.0,36959.0,104586.0,34988.0,103.34634211530485,110.76729715677425,210.13108601638766
104596,8423,104596.0,36952.0,104596.0,34995.0,109.11965465350434,113.67521467126355,214.77847519964334
104596,8431,104596.0,36981.0,104596.0,34994.0,114.8394813684343,116.46755213846828,219.2632069348044
104596,8449,104596.0,37002.0,104596.0,35031.0,120.49592043188753,119.13966961780872,223.57672469785007
104596,8455,104596.0,36993.0,104596.0,35034.0,126.07961940855152,121.68769776994986,227.71135215273785
104596,8448,104596.0,36984.0,104596.0,35025.0,131.5819319304705,124.1088502117011,231.660647627812
104596,8451,104596.0,36960.0,104596.0,34993.0,136.9949331437578,126.40135340557501,235.41949938957714
104606,8451,104606.0,36945.0,104606.0,35005.0,142.3112780181501,128.56401845963745,238.98378585848272
104606,8454,104606.0,36988.0,104606.0,35010.0,147.5240363430955,130.59576452868828,242.34993889602836
104606,8479,104606.0,36991.0,104606.0,35019.0,152.6266179787722,132.49552288793427,245.51478873598148
104606,8472,104606.0,37001.0,104606.0,35031.0,157.61284727545336,134.26258242680285,248.47567853526573
104606,8479,104606.0,36985.0,104606.0,35024.0,162.47709580715096,135.89694554284137,251.23065234597783
104606,8479,104606.0,36960.0,104606.0,35025.0,167.214313745263,137.399338281322,253.77856683705363
104617,8485,104617.0,36963.0,104617.0,35012.0,171.81997624396402,138.77086864893096,256.11904790250975
104617,8498,104617.0,36993.0,104617.0,35019.0,176.2900603532311,140.01266497084936,258.25233064403216
104617,8493,104617.0,37000.0,104617.0,35029.0,180.62109105714117,141.12590507289985,260.1791304727376
104617,8504,104617.0,36979.0,104617.0,35036.0,184.81019787993486,142.11214316122812,261.9006849596266
104617,8501,104617.0,36970.0,104617.0,35022.0,188.8551275318621,142.97343450122312,263.4189056997163
104617,8493,104617.0,36963.0,104617.0,34976.0,192.7542005456743,143.712093923353,264.7363305200979
104627,8489,104627.0,36971.0,104627.0,35002.0,196.50616340891068,144.330377482501,265.8556958611467
104627,8508,104627.0,36981.0,104627.0,35013.0,200.10998279427952,144.83035837727812,266.7795036401141
104627,8514,104627.0,36990.0,104627.0,35020.0,203.5647843027236,145.21404360321327,267.5100378485889
104627,8505,104627.0,36988.0,104627.0,35013.0,206.86996206207724,145.4836138958397,268.049662834645
104627,8510,104627.0,36968.0,104627.0,35014.0,210.02523660080305,145.64157642950192,268.40100654472656
104627,8505,104627.0,36946.0,104627.0,35002.0,213.03056994918245,145.6906338993886,268.56695579194513
104637,8520,104637.0,36981.0,104637.0,35001.0,215.8860674956524,145.6333468082752,268.5505504846842
104637,8525,104637.0,37002.0,104637.0,35015.0,218.59198802360197,145.47204016157804,268.3548819557282
104637,8516,104637.0,36999.0,104637.0,35025.0,221.14883966459942,145.20919126241785,267.9831551674131
104637,8513,104637.0,36963.0,104637.0,35007.0,223.557399862092,144.8478472390195,267.43891266734363
104637,8518,104637.0,36957.0,104637.0,34991.0,225.81859457059622,144.39155010185726,266.72613686847353
104637,8511,104637.0,36961.0,104637.0,34987.0,227.93336213694394,143.8439048210389,265.84905649810736
104648,8525,104648.0,36955.0,104648.0,35007.0,229.90258480792403,143.2082598150517,264.8118938629123
104648,8528,104648.0,36976.0,104648.0,34989.0,231.72710402486817,142.48766163536845,263.6188401622131
104648,8540,104648.0,36983.0,104648.0,34985.0,233.40784376098858,141.68502302798075,262.2741494330165
104648,8539,104648.0,36960.0,104648.0,34986.0,234.9459973509994,140.80338689532906,260.78211826286963
104648,8514,104648.0,36941.0,104648.0,34976.0,236.34312802619007,139.84598655172016,259.1469997016761
104648,8517,104648.0,36945.0,104648.0,34972.0,237.60102931338116,138.81596456067598,257.37294230052123
104658,8531,104658.0,36972.0,104658.0,34981.0,238.72146060069915,137.71610420181045,255.4639440219703
104658,8536,104658.0,36970.0,104658.0,34986.0,239.70607756160936,136.54894178363207,253.4239018355246
104658,8531,104658.0,36971.0,104658.0,34985.0,240.55658571338202,135.31712614547124,251.2568054365181
104658,8536,104658.0,36957.0,104658.0,34959.0,241.2748742095753,134.0236549228048,248.96690496713882
104658,8524,104658.0,36929.0,104658.0,34962.0,241.86302862413632,132.67181142366408,246.55866035538838
104658,8522,104658.0,36933.0,104658.0,34972.0,242.32325302137957,131.26483844660933,244.0365834382178
104668,8528,104668.0,36937.0,104668.0,34934.0,242.65774779080454,129.8055877358367,241.40518116761658
104668,8539,104668.0,36955.0,104668.0,34955.0,242.8686706708012,128.2964444817841,238.6689026162408
104668,8536,104668.0,36951.0,104668.0,34949.0,242.95825779137166,126.73955308410706,235.8320451151139
104668,8526,104668.0,36939.0,104668.0,34936.0,242.92896705227875,125.13708506163164,232.8987731817925
104668,8510,104668.0,36916.0,104668.0,34922.0,242.78344341531312,123.49126774044962,229.8731347476326
104668,8520,104668.0,36938.0,104668.0,34942.0,242.52430400797388,121.8041696016456,226.75895717352378
104679,8521,104679.0,36942.0,104679.0,34934.0,242.15396151636048,120.07757208324664,223.55984148399432
104679,8533,104679.0,36940.0,104679.0,34958.0,241.67465375278346,118.31312609406541,220.27938825944653
104679,8524,104679.0,36951.0,104679.0,34941.0,241.0886125372488,116.51261104570426,216.9215356670377
104679,8525,104679.0,36915.0,104679.0,34908.0,240.39819980284372,114.67807778438315,213.49076666294485
104679,8517,104679.0,36917.0,104679.0,34915.0,239.6059258549731,112.81176203531254,209.99197476922146
104679,8532,104679.0,36940.0,104679.0,34914.0,238.71441851351466,110.91587150278774,206.43017850959345
104689,8523,104689.0,36943.0,104689.0,34909.0,237.72646245558565,108.99261082333842,202.81043849758674
104689,8520,104689.0,36937.0,104689.0,34907.0,236.64508641234423,107.04449489238738,199.13794463583008
104689,8516,104689.0,36914.0,104689.0,34914.0,235.47357670598797,105.0745599125323,195.41811541146853
104689,8514,104689.0,36911.0,104689.0,34879.0,234.21541500486535,103.08624947105343,191.65667471436132
104689,8506,104689.0,36897.0,104689.0,34870.0,232.8742110207864,101.08312125630403,187.859568388559
104689,8511,104689.0,36911.0,104689.0,34884.0,231.45364420269317,99.0686090554611,184.03270819001534
104700,8513,104700.0,36925.0,104700.0,34891.0,229.95744871359048,97.04600586541025,180.18188294354792
104700,8518,104700.0,36919.0,104700.0,34887.0,228.38949621165784,95.01869836106499,176.31299658062724
104700,8505,104700.0,36896.0,104700.0,34871.0,226.75392572058337,92.99040976591384,172.4323475236197
104700,8498,104700.0,36882.0,104700.0,34848.0,225.055180825927,90.96513733661956,168.54665375933888
104700,8485,104700.0,36881.0,104700.0,34856.0,223.29788525680635,88.94682076835636,164.6628355387517
104700,8489,104700.0,36896.0,104700.0,34858.0,221.4866396826971,86.9390793549718,160.7878327352727
104710,8497,104710.0,36898.0,104710.0,34866.0,219.62590552236668,84.94524848214697,156.92868127071688
104710,8487,104710.0,36907.0,104710.0,34841.0,217.72005656578176,82.96864248216369,153.0927350545943
104710,8496,104710.0,36867.0,104710.0,34821.0,215.77349910200437,81.01277256134236,149.28771750668966
104710,8474,104710.0,36867.0,104710.0,34808.0,213.79073291596603,79.08126065460216,145.5214627874605
104710,8477,104710.0,36878.0,104710.0,34821.0,211.77630646502007,77.17753409011519,141.80157112049392
104710,8486,104710.0,36898.0,104710.0,34818.0,209.7347288248593,75.30472997627547,138.13529972678162
104720,8483,104720.0,36893.0,104720.0,34807.0,207.67049813121338,73.46597919209032,134.52968912552848
104720,8475,104720.0,36877.0,104720.0,34793.0,205.58823625208623,71.66474405821444,130.99164731599484
104720,8464,104720.0,36845.0,104720.0,34792.0,203.49273121948147,69.90482507752193,127.5278600695583
104720,8465,104720.0,36842.0,104720.0,34783.0,201.38883465366274,68.18997794524176,124.14465460188794
104720,8453,104720.0,36841.0,104720.0,34770.0,199.28132937739758,66.52343414817088,120.84790545293785
104720,8459,104720.0,36876.0,104720.0,34789.0,197.17483991817156,64.90770954238866,117.64297225194997
104731,8459,104731.0,36866.0,104731.0,34787.0,195.0738100291033,63.34483841899042,114.53476429115634
104731,8452,104731.0,36859.0,104731.0,34772.0,192.9825551736446,61.83675977246648,111.52794589866318
104731,8435,104731.0,36828.0,104731.0,34753.0,190.9052845963755,60.385426673686865,108.62702138933324
104731,8436,104731.0,36832.0,104731.0,34745.0,188.8459815357919,58.99253547383871,105.83614361514299
104731,8447,104731.0,36854.0,104731.0,34766.0,186.808258819132,57.65921476180428,103.15887060222295
104731,8438,104731.0,36870.0,104731.0,34753.0,184.79537791661193,56.38608281283018,100.59815953267375
104741,8435,104741.0,36862.0,104741.0,34741.0,182.81036455523247,55.17365932462434,98.15651700682494
104741,8433,104741.0,36837.0,104741.0,34736.0,180.85604876942202,54.02269024605562,95.83601204962662
104741,8427,104741.0,36816.0,104741.0,34734.0,178.93503536065384,52.934037599216325,93.63814368404576
104741,8416,104741.0,36818.0,104741.0,34736.0,177.04965121960436,51.90823343316178,91.56376132847726
104741,8430,104741.0,36853.0,104741.0,34738.0,175.2018734743583,50.94514715036351,89.61310879929948
104741,8434,104741.0,36861.0,104741.0,34745.0,173.39334767000372,50.04414057857767,87.78596153399403
104751,8426,104751.0,36837.0,104751.0,34745.0,171.62555460227316,49.204532703347155,86.08182464412769
104751,8419,104751.0,36835.0,104751.0,34728.0,169.89995171028175,48.42583374512746,84.50010478209975
104751,8410,104751.0,36818.0,104751.0,34721.0,168.21794124735302,47.70758467860311,83.04011619821034
104751,8412,104751.0,36837.0,104751.0,34728.0,166.58073803606086,47.04909969653811,81.7009392194478
104751,8422,104751.0,36857.0,104751.0,34737.0,164.98930068376572,46.449431381870355,80.48136187552578
104751,8424,104751.0,36865.0,104751.0,34734.0,163.4444294287521,45.90767800859538,79.38002612399546
104762,8411,104762.0,36834.0,104762.0,34731.0,161.94694963572869,45.423386104996766,78.39563097995244
104762,8401,104762.0,36815.0,104762.0,34712.0,160.49776842247357,44.99659499159915,77.52699831420725
104762,8402,104762.0,36805.0,104762.0,34702.0,159.09774570206145,44.627426169570654,76.77293053044923
104762,8405,104762.0,36804.0,104762.0,34707.0,157.74755567503664,44.31556766511814,76.13194920366541
104762,8404,104762.0,36818.0,104762.0,34730.0,156.44768242835687,44.05998724470004,75.60216768440915
104762,8401,104762.0,36845.0,104762.0,34708.0,155.19849700253158,43.85899796113641,75.18143735351995
104772,8395,104772.0,36825.0,104772.0,34711.0,154.0003005583469,43.71060523283434,74.86753485885487
104772,8395,104772.0,36816.0,104772.0,34694.0,152.85330125073617,43.612791475015385,74.6581374365841
104772,8393,104772.0,36821.0,104772.0,34690.0,151.75757336866354,43.56348133196326,74.55063495715703
104772,8390,104772.0,36833.0,104772.0,34706.0,150.71304123217445,43.56041220670015,74.54195281152951
104772,8404,104772.0,36845.0,104772.0,34702.0,149.7195060572313,43.601223830867895,74.62853952545171
104772,8386,104772.0,36836.0,104772.0,34719.0,148.77672793196086,43.683724448302144,74.8065394372583
104782,8387,104782.0,36830.0,104782.0,34690.0,147.8844799369959,43.80607667334175,75.07198460679291
104782,8378,104782.0,36801.0,104782.0,34687.0,147.04248132588307,43.966718934511434,75.4207976343439
104782,8379,104782.0,36810.0,104782.0,34698.0,146.25027453183756,44.164042800560395,75.84860146970865
104782,8377,104782.0,36836.0,104782.0,34701.0,145.50714314910374,44.396113610074636,76.35060954511175
104782,8386,104782.0,36839.0,104782.0,34718.0,144.81210530739466,44.66076230053807,76.92176434180047
104782,8386,104782.0,36829.0,104782.0,34707.0,144.16400067539416,44.955931122667224,77.55699907219494
104793,8376,104793.0,36804.0,104793.0,34685.0,143.56161243570915,45.27981797078269,78.25138181536303
104793,8375,104793.0,36796.0,104793.0,34685.0,143.00369879657183,45.630623093710085,78.99997025150543
104793,8367,104793.0,36811.0,104793.0,34700.0,142.48890979414838,46.00614513985485,79.79754107633124
104793,8379,104793.0,36842.0,104793.0,34713.0,142.01569668256792,46.4036536021236,80.63855650140187
104793,8384,104793.0,36836.0,104793.0,34712.0,141.58233537843847,46.820201655300835,81.51742264900295
104793,8375,104793.0,36841.0,104793.0,34710.0,141.18706805630785,47.253075913232564,82.42877288657749
104803,8376,104803.0,36805.0,104803.0,34679.0,140.82821319390106,47.69997845261349,83.36752736061388
104803,8363,104803.0,36800.0,104803.0,34683.0,140.50414091270744,48.158805599568666,84.32865807185198
104803,8361,104803.0,36804.0,104803.0,34692.0,140.21315009475163,48.627211760896174,85.30685798207045
104803,8364,104803.0,36837.0,104803.0,34706.0,139.95332625399413,49.102371209898976,86.2964482301544
104803,8378,104803.0,36834.0,104803.0,34703.0,139.72250164128653,49.58117872672433,87.29157624616002
104803,8358,104803.0,36812.0,104803.0,34703.0,139.5183560951283,50.060607886173926,88.28645400336777
104813,8360,104813.0,36803.0,104813.0,34693.0,139.33848264388868,50.537757587757156,89.27544434110914
104813,8355,104813.0,36816.0,104813.0,34686.0,139.18030258174474,51.00958490113945,90.25298137717826
104813,8359,104813.0,36825.0,104813.0,34702.0,139.0409555665202,51.472739183570624,91.2134304250041
104813,8370,104813.0,36822.0,104813.0,34701.0,138.91730041204895,51.92367363219452,92.15106163529549
104813,8362,104813.0,36833.0,104813.0,34700.0,138.80603071438273,52.35884414924176,93.06016992310236
104813,8350,104813.0,36816.0,104813.0,34678.0,138.70377184644389,52.77483171095018,93.93513899229978
104824,8359,104824.0,36809.0,104824.0,34683.0,138.6070319325928,53.16832359400283,94.77029988587202
104824,8347,104824.0,36796.0,104824.0,34685.0,138.5120919079179,53.535913095771306,95.55971376192636
104824,8369,104824.0,36820.0,104824.0,34706.0,138.41497845924326,53.87384939891017,96.29712799676719
104824,8370,104824.0,36841.0,104824.0,34717.0,138.3115766316696,54.17803315463961,96.97620699188244
104824,8364,104824.0,36847.0,104824.0,34704.0,138.19784377625876,54.4443793279642,97.59089622325672
104824,8361,104824.0,36826.0,104824.0,34695.0,138.06995092942316,54.66925601759541,98.13562831745944
104834,8363,104834.0,36801.0,104834.0,34690.0,137.92427282735147,54.84956630270194,98.60523778172418
104834,8357,104834.0,36836.0,104834.0,34698.0,137.75734000621608,54.98246513721672,98.9947707490316
104834,8361,104834.0,36824.0,104834.0,34711.0,137.56581786399812,55.065170776638766,99.29944489381035
104834,8370,104834.0,36852.0,104834.0,34714.0,137.34652696170068,55.09511974724285,99.51483050776591
104834,8358,104834.0,36831.0,104834.0,34695.0,137.09652895522152,55.070254979586224,99.63708289524925
104834,8349,104834.0,36804.0,104834.0,34691.0,136.81317504971224,54.989133509897854,99.6629752874108
104844,8351,104844.0,36799.0,104844.0,34687.0,136.4940077899809,54.85066560906963,99.58971823186386
104844,8351,104844.0,36815.0,104844.0,34692.0,136.13662555340346,54.653687760049344,99.41478412385683
104844,8359,104844.0,36852.0,104844.0,34684.0,135.73866362768808,54.39686937965388,99.13585839305713
104844,8360,104844.0,36829.0,104844.0,34703.0,135.2978980218545,54.079090935351545,98.75088302431908
104844,8346,104844.0,36822.0,104844.0,34686.0,134.81236685178868,53.69984018351184,98.25816415337835
104844,8342,104844.0,36799.0,104844.0,34682.0,134.2803677104072,53.259191462302184,97.65645880568948
104855,8340,104855.0,36792.0,104855.0,34679.0,133.70031894277992,52.75744090863961,96.94492750296146
104855,8346,104855.0,36819.0,104855.0,34676.0,133.07064070794044,52.194755797558216,96.12301955932918
104855,8354,104855.0,36833.0,104855.0,34676.0,132.38978134914134,51.5711719103258,95.19041251713304
104855,8345,104855.0,36819.0,104855.0,34680.0,131.65636079059448,50.88694094916096,94.14702192922894
104855,8331,104855.0,36793.0,104855.0,34657.0,130.8692610165772,50.142778728648864,92.99303090432866
104855,8341,104855.0,36792.0,104855.0,34648.0,130.02755237152485,49.33969236246564,91.7288058517453
104865,8322,104865.0,36803.0,104865.0,34656.0,129.13036297387947,48.47863736325418,90.35467413520479
104865,8333,104865.0,36808.0,104865.0,34662.0,128.17679246010016,47.56041139244343,88.87079837565415
104865,8341,104865.0,36822.0,104865.0,34678.0,127.16589639569555,46.58584331743218,87.27732345539405
104865,8341,104865.0,36808.0,104865.0,34663.0,126.09681018761074,45.55607517612549,85.57468693434674
104865,8331,104865.0,36786.0,104865.0,34663.0,124.96893764858781,44.472688101338704,83.76385204687398
104865,8313,104865.0,36773.0,104865.0,34636.0,123.78198365382552,43.3375041978468,81.84631148192739
104875,8322,104875.0,36784.0,104875.0,34633.0,122.53578638625031,42.15220598265877,79.82387607985126
104875,8324,104875.0,36794.0,104875.0,34647.0,121.23016167052947,40.918137601524236,77.69842648541578
104875,8326,104875.0,36813.0,104875.0,34635.0,119.86493546484384,39.63646585559775,75.47185637950412
104875,8323,104875.0,36787.0,104875.0,34622.0,118.44008559037616,38.30852492915602,73.14615258817389
104875,8304,104875.0,36776.0,104875.0,34620.0,116.95581056760082,36.935978484179785,70.72336308940629
104875,8295,104875.0,36757.0,104875.0,34601.0,115.41241627798738,35.5206128942032,68.20543463908277
104886,8304,104886.0,36759.0,104886.0,34623.0,113.81008722773149,34.06394572352244,65.59407172890656
104886,8327,104886.0,36786.0,104886.0,34641.0,112.1488156062112,32.5669893814558,62.890802994555
104886,8314,104886.0,36797.0,104886.0,34632.0,110.42863991114265,31.030406678934852,60.09734608325641
104886,8301,104886.0,36794.0,104886.0,34630.0,108.6499300542739,29.45496718487273,57.21601998463291
104886,8300,104886.0,36763.0,104886.0,34596.0,106.81341133790743,27.841885445957487,54.24987489745908
104886,8285,104886.0,36753.0,104886.0,34590.0,104.91999609469919,26.19272736482469,51.20248086628581
104896,8291,104896.0,36764.0,104896.0,34572.0,102.9706192681781,24.509044570586866,48.07753496378757
104896,8300,104896.0,36792.0,104896.0,34587.0,100.96617909124052,22.79221433018779,44.87853582354339
104896,8294,104896.0,36776.0,104896.0,34593.0,98.90763949588481,21.043697441001612,41.6087257540525
104896,8274,104896.0,36742.0,104896.0,34584.0,96.79616268174105,19.26532348049477,38.271292225406256
104896,8272,104896.0,36734.0,104896.0,34562.0,94.63305122526938,17.45912981359365,34.869557442573154
104896,8269,104896.0,36727.0,104896.0,34544.0,92.41955028442752,15.626873699020877,31.406884721433812
104907,8274,104907.0,36736.0,104907.0,34560.0,90.15673448988917,13.769666697731992,27.88639060286056
104907,8289,104907.0,36778.0,104907.0,34577.0,87.84558673946188,11.887992389594132,24.31084912664508
104907,8275,104907.0,36760.0,104907.0,34554.0,85.48722636078796,9.982125574558921,20.682943989397586
104907,8259,104907.0,36737.0,104907.0,34543.0,83.08308423541249,8.052588668499325,17.00551839060236
104907,8254,104907.0,36732.0,104907.0,34534.0,80.63483056850515,6.100175777550689,13.281518918694246
104907,8248,104907.0,36737.0,104907.0,34522.0,78.14415239575274,4.1256638314334,9.513775043993775
104917,8249,104917.0,36749.0,104917.0,34540.0,75.61259731206121,2.129676205556308,5.704856969357479
104917,8255,104917.0,36743.0,104917.0,34531.0,73.04155824591177,0.11282427801192796,1.8571270991180882
104917,8246,104917.0,36744.0,104917.0,34521.0,70.4323688728544,-1.9240795196120644,-2.027083765396469
104917,8235,104917.0,36722.0,104917.0,34515.0,67.78639022185823,-3.979939551941669,-5.945390096912064
104917,8224,104917.0,36705.0,104917.0,34488.0,65.10495486438896,-6.053516825072137,-9.895444301257896
104917,8246,104917.0,36724.0,104917.0,34503.0,62.38924351897913,-8.143713960592848,-13.875127493404904
104927,8228,104927.0,36725.0,104927.0,34497.0,59.6403024704251,-10.249715945082983,-17.882666450166113
104927,8234,104927.0,36740.0,104927.0,34497.0,56.85918355064814,-12.370816698010557,-21.916559432866222
104927,8230,104927.0,36713.0,104927.0,34481.0,54.04704070027577,-14.506133858302832,-25.975442480877433
104927,8216,104927.0,36709.0,104927.0,34481.0,51.20516081343695,-16.654519420792013,-30.058064195634614
104927,8217,104927.0,36703.0,104927.0,34476.0,48.33493692159385,-18.81472089315527,-34.16332858698803
104927,8208,104927.0,36706.0,104927.0,34485.0,45.4377897451304,-20.985572425170915,-38.29027245897265
104938,8213,104938.0,36723.0,104938.0,34474.0,42.515118515863975,-23.166007506956262,-42.43793285065891
104938,8204,104938.0,36710.0,104938.0,34462.0,39.56831745077008,-25.354879108560823,-46.605215870592446
104938,8191,104938.0,36677.0,104938.0,34454.0,36.59879104799603,-27.55082407246202,-50.79090457150244
104938,8202,104938.0,36684.0,104938.0,34446.0,33.60790947121734,-29.75244095160528,-54.99377959378543
104938,8191,104938.0,36674.0,104938.0,34438.0,30.596980877167084,-31.958635628102527,-59.21273928936819
104938,8181,104938.0,36700.0,104938.0,34443.0,27.56727909160378,-34.16876846331883,-63.446862701157755
104948,8186,104948.0,36695.0,104948.0,34459.0,24.520029452014313,-36.3824957563472,-67.6953365098039
104948,8189,104948.0,36695.0,104948.0,34435.0,21.45639527263856,-38.59947147883655,-71.95721562471792
104948,8175,104948.0,36671.0,104948.0,34417.0,18.377560005248625,-40.81917643171113,-76.23125624788767
104948,8165,104948.0,36661.0,104948.0,34423.0,15.284779585913526,-43.04103066354578,-80.51602179196271
104948,8157,104948.0,36669.0,104948.0,34416.0,12.179279457833303,-45.26466976790812,-84.81004920366112
104948,8166,104948.0,36688.0,104948.0,34419.0,9.062109557435434,-47.490067353243646,-89.11184098829753
104958,8163,104958.0,36691.0,104958.0,34405.0,5.934135311144274,-49.71731751514287,-93.41976190867848
104958,8159,104958.0,36690.0,104958.0,34393.0,2.796160560396771,-51.94624730729784,-97.73200432995336
104958,8160,104958.0,36662.0,104958.0,34384.0,-0.35095118070154285,-54.17618503114464,-102.04668297652267
104958,8148,104958.0,36636.0,104958.0,34387.0,-3.506215851629122,-56.40609886691787,-106.36197416375182
104958,8142,104958.0,36676.0,104958.0,34386.0,-6.668532433120959,-58.63497837313166,-110.67614778707821
104958,8139,104958.0,36667.0,104958.0,34387.0,-9.836751029259403,-60.86198331199137,-114.98745367801777
104969,8145,104969.0,36675.0,104969.0,34381.0,-13.009720484131833,-63.086191864516024,-119.29395142922667
104969,8138,104969.0,36648.0,104969.0,34370.0,-16.18623057517331,-65.30633884203621,-123.59339100586203
104969,8127,104969.0,36629.0,104969.0,34343.0,-19.364921675870193,-67.52087783995262,-127.88324337075386
104969,8117,104969.0,36638.0,104969.0,34344.0,-22.544303588887658,-69.72830868706257,-132.16091762380012
104969,8112,104969.0,36640.0,104969.0,34337.0,-25.72289168931161,-71.92744441961705,-136.4240170050491
104969,8127,104969.0,36653.0,104969.0,34339.0,-28.8993086474768,-74.11737902811663,-140.6704415906999
104979,8117,104979.0,36652.0,104979.0,34345.0,-32.07221416714188,-76.2972369647155,-144.89831347499012
104979,8100,104979.0,36627.0,104979.0,34322.0,-35.240165994783666,-78.46595133697042,-149.10582771731657
104979,8100,104979.0,36603.0,104979.0,34311.0,-38.4016348541864,-80.62232985472653,-153.2912092288525
104979,8087,104979.0,36609.0,104979.0,34307.0,-41.55515514060386,-82.76543487236168,-157.45286065458345
104979,8092,104979.0,36631.0,104979.0,34316.0,-44.699445479081874,-84.89489912708589,-161.5895090554298
104979,8091,104979.0,36638.0,104979.0,34312.0,-47.833430387665004,-87.0108190036888,-165.70015109457188
104989,8084,104989.0,36635.0,104989.0,34305.0,-50.95617523003341,-89.11335080965904,-169.78387164821805
104989,8082,104989.0,36615.0,104989.0,34294.0,-54.06681341899457,-91.20241480546173,-173.8397342007458
104989,8065,104989.0,36599.0,104989.0,34281.0,-57.164548875295,-93.27773971611705,-177.8668240048878
104989,8069,104989.0,36616.0,104989.0,34283.0,-60.24873781829049,-95.33912630460554,-181.86437725573649
104989,8077,104989.0,36630.0,104989.0,34283.0,-63.318946705238915,-97.3865596744431,-185.8318566718542
104989,8072,104989.0,36635.0,104989.0,34289.0,-66.37486087063454,-99.41996591267824,-189.76887434674256
105000,8058,105000.0,36614.0,105000.0,34267.0,-69.41612887779866,-101.43885592285213,-193.67503069668618
105000,8053,105000.0,36584.0,105000.0,34263.0,-72.44234496688725,-103.44226524474593,-197.5498577256306
105000,8045,105000.0,36570.0,105000.0,34255.0,-75.45317163582851,-105.42912951390085,-201.39292126222728
105000,8050,105000.0,36589.0,105000.0,34245.0,-78.44845058872116,-107.39880214976293,-205.20395671428378
105000,8058,105000.0,36623.0,105000.0,34255.0,-81.42818468716703,-109.35120634952182,-208.98294121583552
105000,8042,105000.0,36606.0,105000.0,34250.0,-84.39239293476231,-111.2864574869449,-212.73005563035593
105009,8037,105009.0,36587.0,105009.0,34252.0,-87.34100241810961,-113.20442137702227,-216.44553641265856
105009,8030,105009.0,36579.0,105009.0,34234.0,-90.27389660509999,-115.10469814680047,-220.12953672572962
105009,8029,105009.0,36567.0,105009.0,34227.0,-93.1910228653642,-116.98693255602547,-223.78212430158976
105009,8032,105009.0,36586.0,105009.0,34240.0,-96.09242767535497,-118.85108043854365,-227.40336747349352
105009,8046,105009.0,36601.0,105009.0,34241.0,-98.97815879917837,-120.69739652257789,-230.99329891209123
105009,8019,105009.0,36597.0,105009.0,34226.0,-101.84806884929779,-122.52612744245431,-234.55171861448878
105019,8009,105019.0,36593.0,105019.0,34207.0,-104.70173878982044,-124.33716492582008,-238.07809720743393
105019,8014,105019.0,36549.0,105019.0,34190.0,-107.53863471682291,-126.12998092328317,-241.5717596831974
105019,7993,105019.0,36546.0,105019.0,34189.0,-110.35829960493567,-127.90396610780545,-245.032224114016
105019,7994,105019.0,36571.0,105019.0,34197.0,-113.16047480284351,-129.65890462730871,-248.45943430475978
105019,8009,105019.0,36584.0,105019.0,34213.0,-115.94517557606895,-131.39507312597584,-251.85370223976736
105019,7995,105019.0,36580.0,105019.0,34189.0,-118.7126255912003,-133.11288106860258,-255.21542508620973
105030,7988,105030.0,36550.0,105030.0,34177.0,-121.46311712538446,-134.8125380539244,-258.544900542108
105030,7990,105030.0,36555.0,105030.0,34176.0,-124.19699127270536,-136.49410832898255,-261.84242670083177
105030,7986,105030.0,36549.0,105030.0,34179.0,-126.91467945193801,-138.1577825062783,-265.10846786201745
105030,7994,105030.0,36564.0,105030.0,34179.0,-129.61666252207573,-139.80401637706075,-268.3436454567094
105030,7986,105030.0,36579.0,105030.0,34186.0,-132.30335154077073,-141.43340324840287,-271.54857835761254
105030,7985,105030.0,36564.0,105030.0,34183.0,-134.97496907750764,-143.0463708586179,-274.7236696954126
105040,7973,105040.0,36545.0,105040.0,34169.0,-137.63150594817273,-144.64298212825958,-277.8689292086656
105040,7957,105040.0,36510.0,105040.0,34147.0,-140.27279586328774,-146.22312305492514,-280.9839727772857
105040,7963,105040.0,36553.0,105040.0,34146.0,-142.898687752993,-147.78695430159067,-284.068245685393
105040,7969,105040.0,36557.0,105040.0,34143.0,-145.5091639946142,-149.33509828860022,-287.1212874901212
105040,7955,105040.0,36563.0,105040.0,34136.0,-148.10428717201478,-150.86832905574025,-290.142854353917
105040,7955,105040.0,36543.0,105040.0,34131.0,-150.6841109572722,-152.38717366783467,-293.13294135196725
105050,7949,105050.0,36520.0,105050.0,34119.0,-153.2486886794842,-153.89186428935403,-296.09182618544764
105050,7937,105050.0,36520.0,105050.0,34113.0,-155.79813505835375,-155.38264698313574,-299.0201707275778
105050,7936,105050.0,36542.0,105050.0,34125.0,-158.33271479264118,-156.86010319180122,-301.9191156342437
105050,7952,105050.0,36537.0,105050.0,34136.0,-160.85290133560903,-158.3251459306446,-304.7902121719064
105050,7934,105050.0,36550.0,105050.0,34116.0,-163.3592945451897,-159.77875138463287,-307.63517301448786
105050,7933,105050.0,36525.0,105050.0,34119.0,-165.85249635732237,-161.22172539301027,-310.45568278467493
105061,7921,105061.0,36498.0,105061.0,34095.0,-168.3331245755453,-162.6547375197068,-313.25342613681505
105061,7925,105061.0,36503.0,105061.0,34108.0,-170.8019182129063,-164.07867732367484,-316.030234165769
105061,7922,105061.0,36531.0,105061.0,34113.0,-173.2597927061592,-165.4950009143753,-318.78815278645095
105061,7914,105061.0,36538.0,105061.0,34103.0,-175.7078227176038,-166.90563873360432,-321.5293298155298
105061,7923,105061.0,36534.0,105061.0,34104.0,-178.14720915980087,-168.31256165594888,-324.2558542559653
105061,7915,105061.0,36523.0,105061.0,34091.0,-180.5792283860946,-169.7174546149833,-326.9697075908787
105071,7915,105071.0,36496.0,105071.0,34072.0,-183.00515136754439,-171.12173649406245,-329.6728452339325
105071,7905,105071.0,36513.0,105071.0,34072.0,-185.42619757561937,-172.5268371841468,-332.36739997656514
105071,7902,105071.0,36522.0,105071.0,34088.0,-187.84356198150368,-173.934407966119,-335.0558636832683
105071,7910,105071.0,36553.0,105071.0,34088.0,-190.25845442181964,-175.34616161278612,-337.7410184852214
105071,7906,105071.0,36519.0,105071.0,34089.0,-192.6720541545597,-176.76343929760975,-340.4256598909477
105071,7886,105071.0,36493.0,105071.0,34074.0,-195.0854240890718,-178.18699602214542,-343.11237076326574
105081,7885,105081.0,36483.0,105081.0,34064.0,-197.49955869265136,-179.6173161727372,-345.8034998775827
105081,7885,105081.0,36488.0,105081.0,34059.0,-199.91554530230792,-181.05515359805977,-348.50130855229736
105081,7888,105081.0,36511.0,105081.0,34062.0,-202.3346344136815,-182.50178621015272,-351.2081274246299
105081,7902,105081.0,36518.0,105081.0,34058.0,-204.75812986862786,-183.95882925554224,-353.92639377965725
105081,7887,105081.0,36501.0,105081.0,34058.0,-207.18716568575053,-185.4278541101262,-356.65858959404636
105081,7869,105081.0,36494.0,105081.0,34042.0,-209.6225637715791,-186.9101990794273,-359.4071894971469
105092,7864,105092.0,36479.0,105092.0,34030.0,-212.06494651723608,-188.40709964988724,-362.174721779303
105092,7869,105092.0,36491.0,105092.0,34047.0,-214.51497271219426,-189.9199337519006,-364.96391403494096
105092,7875,105092.0,36520.0,105092.0,34051.0,-216.97341545715875,-191.45027843551998,-367.77770277299305
105092,7870,105092.0,36505.0,105092.0,34053.0,-219.4410334853266,-192.99963423046773,-370.6189996503802
105092,7868,105092.0,36489.0,105092.0,34029.0,-221.91840586089148,-194.56909843893595,-373.49044089261764
105092,7842,105092.0,36469.0,105092.0,34010.0,-224.4058959772945,-196.1593961060722,-376.39440717735334
105102,7829,105102.0,36465.0,105102.0,34015.0,-226.90383388070524,-197.77124434795613,-379.33331187221904
105102,7850,105102.0,36482.0,105102.0,34022.0,-229.4128136958331,-199.40568978866438,-382.3098438712925
105102,7861,105102.0,36491.0,105102.0,34022.0,-231.93376615712174,-201.0641317120104,-385.3269281753918
105102,7842,105102.0,36491.0,105102.0,34023.0,-234.46770301669903,-202.7480511310537,-388.3875113863497
105102,7832,105102.0,36483.0,105102.0,34009.0,-237.0155056651663,-204.45872298178537,-391.49438856068906
105102,7831,105102.0,36459.0,105102.0,33996.0,-239.57799875722583,-206.19715626612927,-394.65018870501353
105112,7828,105112.0,36451.0,105112.0,33998.0,-242.15610846644506,-207.9643167439301,-397.8575087048867
105112,7844,105112.0,36484.0,105112.0,34016.0,-244.75087666201227,-209.7614135779233,-401.1189993008233
105112,7827,105112.0,36486.0,105112.0,34018.0,-247.36332085942553,-211.5898674159606,-404.4371925609647
105112,7822,105112.0,36494.0,105112.0,33981.0,-249.9943038341388,-213.45092142157665,-407.8142184982034
105112,7816,105112.0,36458.0,105112.0,33981.0,-252.64455857463105,-215.34530400141134,-411.25179525799206
105112,7809,105112.0,36415.0,105112.0,33963.0,-255.31480581229772,-217.27335603024076,-414.7515251875649
105123,7809,105123.0,36450.0,105123.0,33983.0,-258.0058467283047,-219.23560433469714,-418.31515674428175
105123,7810,105123.0,36490.0,105123.0,33984.0,-260.71859236276805,-221.23312168820567,-421.9445733899367
105123,7819,105123.0,36486.0,105123.0,33986.0,-263.4539932737253,-223.26713296546956,-425.6415417940927
105123,7806,105123.0,36466.0,105123.0,33951.0,-266.21288156027157,-225.33833085636482,-429.40748439489533
105123,7791,105123.0,36436.0,105123.0,33951.0,-268.99587497621536,-227.4466761888821,-433.2435433925541
105123,7802,105123.0,36438.0,105123.0,33960.0,-271.8034442945238,-229.59175367181362,-437.1508207775887
105133,7792,105133.0,36453.0,105133.0,33966.0,-274.6359981953122,-231.7731811739753,-441.13042199145394
105133,7796,105133.0,36460.0,105133.0,33974.0,-277.4938541205377,-233.99065364054937,-445.1831999745204
105133,7788,105133.0,36465.0,105133.0,33951.0,-280.37716793638936,-236.24365808461138,-449.3094363428472
105133,7780,105133.0,36442.0,105133.0,33956.0,-283.285907390252,-238.53118750836578,-453.50869644476137
105133,7778,105133.0,36425.0,105133.0,33929.0,-286.2198875713727,-240.8517310226431,-457.779886622053
105133,7763,105133.0,36423.0,105133.0,33922.0,-289.1788521865077,-243.20355638697177,-462.1214347647941
105144,7768,105144.0,36433.0,105144.0,33932.0,-292.1625703000711,-245.58500371988967,-466.5314970540806
105144,7779,105144.0,36435.0,105144.0,33942.0,-295.1708675977736,-247.99452330171468,-471.00798452269163
105144,7773,105144.0,36431.0,105144.0,33928.0,-298.2034930196592,-250.43051013935278,-475.5483325918653
105144,7761,105144.0,36443.0,105144.0,33910.0,-301.25992600325725,-252.89112355014998,-480.14929292677994
105144,7757,105144.0,36408.0,105144.0,33908.0,-304.3393327899112,-255.37418491004698,-484.80698042249173
105144,7743,105144.0,36418.0,105144.0,33903.0,-307.4406758595698,-257.8772345752385,-489.51703781305775
105154,7754,105154.0,36425.0,105154.0,33913.0,-310.562838907771,-260.3976832883651,-494.2746792296457
105154,7760,105154.0,36441.0,105154.0,33920.0,-313.7046277611701,-262.93277078041234,-499.0745318995934
105154,7744,105154.0,36423.0,105154.0,33895.0,-316.8646169124744,-265.47928713122246,-503.91037530524534
105154,7737,105154.0,36404.0,105154.0,33880.0,-320.0410339680359,-268.03339494081547,-508.7750390381529
105154,7731,105154.0,36386.0,105154.0,33873.0,-323.2318257393062,-270.5908033572643,-513.660585021069
105154,7729,105154.0,36380.0,105154.0,33881.0,-326.434786636243,-273.1471787314256,-518.5585375531964
105164,7738,105164.0,36419.0,105164.0,33885.0,-329.64759157843326,-275.6984318113916,-523.4598862082089
105164,7734,105164.0,36413.0,105164.0,33872.0,-332.8676909972475,-278.2405800801966,-528.3548881670006
105164,7731,105164.0,36405.0,105164.0,33853.0,-336.09214085954625,-280.769333101785,-533.2329313375672
105164,7704,105164.0,36384.0,105164.0,33839.0,-339.31753374208483,-283.2798786043852,-538.0826447599534
105164,7704,105164.0,36390.0,105164.0,33841.0,-342.5401403331902,-285.76701717392154,-542.8921554524736
105164,7713,105164.0,36396.0,105164.0,33851.0,-345.75612385810615,-288.225344178987,-547.6492229101057
105175,7715,105175.0,36413.0,105175.0,33858.0,-348.9615604165369,-290.649191726723,-552.3410937881439
105175,7704,105175.0,36413.0,105175.0,33832.0,-352.1522633327477,-293.032324753961,-556.954212757275
105175,7693,105175.0,36396.0,105175.0,33826.0,-355.32367068221254,-295.36762214412255,-561.474101597493
105175,7684,105175.0,36362.0,105175.0,33798.0,-358.47092564929704,-297.64704865564175,-565.8855324407231
105175,7681,105175.0,36358.0,105175.0,33808.0,-361.58904867728216,-299.86202717282697,-570.1728357549666
105175,7689,105175.0,36375.0,105175.0,33813.0,-364.6730416926783,-302.00390595350194,-574.3200865471422
105185,7690,105185.0,36389.0,105185.0,33820.0,-367.71782944937974,-304.064071881155,-578.3110073920532
105185,7691,105185.0,36381.0,105185.0,33817.0,-370.7180725583674,-306.03367154936666,-582.1286778467665
105185,7677,105185.0,36367.0,105185.0,33811.0,-373.6679960532827,-307.903331035922,-585.7552754128315
105185,7658,105185.0,36353.0,105185.0,33786.0,-376.56138544524595,-309.66317618950416,-589.1720003750945
105185,7657,105185.0,36350.0,105185.0,33784.0,-379.3917848568735,-311.3030909967499,-592.3592275925461
105185,7676,105185.0,36383.0,105185.0,33796.0,-382.15269303943086,-312.8129107893591,-595.2967259741002
105195,7676,105195.0,36378.0,105195.0,33798.0,-384.83749035005076,-314.1822834863109,-597.963673070405
105195,7675,105195.0,36372.0,105195.0,33772.0,-387.4391454695006,-315.4003186007519,-600.3384978148861
105195,7665,105195.0,36355.0,105195.0,33757.0,-389.94998337421555,-316.4554189738408,-602.3988981431437
105195,7646,105195.0,36329.0,105195.0,33737.0,-392.3616726427567,-317.33547165288417,-604.1221819184141
105195,7652,105195.0,36338.0,105195.0,33754.0,-394.665393894884,-318.02826472100526,-605.4856971290066
105195,7645,105195.0,36371.0,105195.0,33758.0,-396.8520196390375,-318.5217783389958,-606.4670282921396
105206,7648,105206.0,36347.0,105206.0,33756.0,-398.91217022256313,-318.8040731422235,-607.0438909873617
105206,7639,105206.0,36355.0,105206.0,33747.0,-400.8361907005893,-318.863025298454,-607.193970114377
105206,7644,105206.0,36324.0,105206.0,33729.0,-402.6141339229224,-318.6863153812586,-606.894949489955
105206,7623,105206.0,36318.0,105206.0,33738.0,-404.2357784834802,-318.2617139489694,-606.1247335049461
105206,7636,105206.0,36342.0,105206.0,33726.0,-405.6907000670852,-317.57744161548476,-604.8616854971478
105206,7633,105206.0,36336.0,105206.0,33747.0,-406.9683317646428,-316.6223024706636,-603.0847439148689
105216,7634,105216.0,36365.0,105216.0,33742.0,-408.05792060261433,-315.38551028067184,-600.7733947079436
105216,7633,105216.0,36321.0,105216.0,33709.0,-408.9484332455413,-313.85645877233685,-597.9076422866425
105216,7618,105216.0,36309.0,105216.0,33710.0,-409.62852454842306,-312.02478443065775,-594.4682468406788
105216,7608,105216.0,36335.0,105216.0,33712.0,-410.0866401459004,-309.88076667273583,-590.4371861630326
105216,7609,105216.0,36327.0,105216.0,33734.0,-410.3112413013507,-307.4156306301815,-585.7979540415301
105216,7621,105216.0,36348.0,105216.0,33722.0,-410.290982394876,-304.62150393377294,-580.5355541364268
105226,7618,105226.0,36363.0,105226.0,33733.0,-410.0146916664542,-301.4912018228303,-574.6364226030443
105226,7600,105226.0,36323.0,105226.0,33723.0,-409.47127902737304,-298.0180290412907,-568.0884762440135
105226,7592,105226.0,36314.0,105226.0,33710.0,-408.6498242656187,-294.1958820741764,-560.8813129363657
105226,7593,105226.0,36313.0,105226.0,33726.0,-407.53985612089696,-290.01975312380165,-553.0065363879565
105226,7606,105226.0,36347.0,105226.0,33736.0,-406.1315736623397,-285.4861907997424,-544.4580396098554
105226,7592,105226.0,36361.0,105226.0,33744.0,-404.41587471570733,-280.5932926988023,-535.232077379092
105237,7602,105237.0,36352.0,105237.0,33766.0,-402.384325220818,-275.34036557392204,-525.327192645379
105237,7593,105237.0,36353.0,105237.0,33751.0,-400.02919528347616,-269.72770646801945,-514.744140685696
105237,7594,105237.0,36325.0,105237.0,33751.0,-397.3435419567462,-263.7567436348324,-503.48596283107935
105237,7594,105237.0,36345.0,105237.0,33771.0,-394.32131471546177,-257.43043200132496,-491.5582603309312
105237,7602,105237.0,36368.0,105237.0,33789.0,-390.9574474197825,-250.75358337303703,-478.9694213585867
105237,7601,105237.0,36398.0,105237.0,33807.0,-387.247884345244,-243.73280141677836,-465.7305965770508
105247,7600,105247.0,36385.0,105247.0,33817.0,-383.1895809163141,-236.37609209464125,-451.85554441452314
105247,7606,105247.0,36373.0,105247.0,33812.0,-378.78054807996676,-228.69262491107293,-437.3605682963488
105247,7605,105247.0,36389.0,105247.0,33840.0,-374.01992220307545,-220.69289970336158,-422.26463038295634
105247,7607,105247.0,36423.0,105247.0,33866.0,-368.90803020058866,-212.38898274013505,-406.58946926720705
105247,7632,105247.0,36446.0,105247.0,33894.0,-363.44642361248873,-203.794368592119,-390.35948626399943
105247,7633,105247.0,36449.0,105247.0,33912.0,-357.6377925746712,-194.92353416787043,-373.60144208586246
105257,7640,105257.0,36444.0,105257.0,33927.0,-351.4857839184971,-185.79161148512304,-356.3441837010708
105257,7630,105257.0,36431.0,105257.0,33949.0,-344.9949155658602,-176.41444584214202,-338.61850776665364
105257,7635,105257.0,36453.0,105257.0,33979.0,-338.1706842399774,-166.80893771190887,-320.4570807779729
105257,7653,105257.0,36483.0,105257.0,34003.0,-331.01974289708244,-156.99329547811138,-301.8942813726102
105257,7665,105257.0,36500.0,105257.0,34040.0,-323.54993925585063,-146.9869131183553,-282.96593135214914
105257,7671,105257.0,36535.0,105257.0,34055.0,-315.7701808046436,-136.80995926530926,-263.7089729984383
105268,7684,105268.0,36531.0,105268.0,34085.0,-307.6902818588632,-126.48292796233017,-244.1611805704954
105268,7685,105268.0,36537.0,105268.0,34098.0,-299.3208834482024,-116.02636093216401,-224.36096954714887
105268,7685,105268.0,36543.0,105268.0,34127.0,-290.67345785853104,-105.46084795443817,-204.34729025092045
105268,7712,105268.0,36581.0,105268.0,34180.0,-281.76037724580715,-94.80712457653203,-184.15948116315968
105268,7719,105268.0,36598.0,105268.0,34192.0,-272.5949083365831,-84.08595483776125,-163.8369309153718
105268,7737,105268.0,36596.0,105268.0,34215.0,-263.1910599602785,-73.31781654974964,-143.41866910865235
105278,7740,105278.0,36597.0,105278.0,34221.0,-253.56340643098366,-62.522732494257866,-122.94317812716952
105278,7742,105278.0,36607.0,105278.0,34239.0,-243.72701584400943,-51.72039663086497,-102.44847122820158
105278,7760,105278.0,36625.0,105278.0,34281.0,-233.69749495761442,-40.930372055761296,-81.97222721774182
105278,7770,105278.0,36654.0,105278.0,34311.0,-223.49103886650963,-30.172107106762553,-61.55172548985797
105278,7792,105278.0,36686.0,105278.0,34343.0,-213.12437163253932,-19.464679936604483,-41.22351949771678
105278,7808,105278.0,36649.0,105278.0,34354.0,-202.6145773480066,-8.826440919002096,-21.023061964750525
105288,7818,105288.0,36671.0,105288.0,34373.0,-191.97888382654583,1.7250490561322351,-0.9845052873716895
105288,7815,105288.0,36682.0,105288.0,34387.0,-181.23451776924628,12.172746542310534,18.859293661996617
105288,7838,105288.0,36723.0,105288.0,34427.0,-170.39871382124468,22.499991847810406,38.476717217452006
105288,7857,105288.0,36739.0,105288.0,34461.0,-159.4887433952817,32.69077531189811,57.83749669094118
105288,7869,105288.0,36750.0,105288.0,34479.0,-148.5217947351709,42.730189569285244,76.91303984914401
105288,7881,105288.0,36734.0,105288.0,34471.0,-137.51477651405077,52.60470809620443,95.67671196752383
105299,7885,105299.0,36730.0,105299.0,34500.0,-126.48420428542626,62.30207195717162,114.10380020893189
105299,7898,105299.0,36733.0,105299.0,34508.0,-115.44619959571932,71.81087423655632,132.17128766141576
105299,7916,105299.0,36764.0,105299.0,34536.0,-104.41651825056147,81.12018051800467,149.85771508857232
105299,7931,105299.0,36790.0,105299.0,34561.0,-93.41049995487842,90.21949946254836,167.14320197159725
105299,7938,105299.0,36787.0,105299.0,34578.0,-82.44294083992878,99.0990815801677,184.00958706583896
105299,7945,105299.0,36789.0,105299.0,34570.0,-71.52800777996245,107.75018024060773,200.4405494796752
105309,7954,105309.0,36792.0,105309.0,34598.0,-60.679258778077696,116.16502632035031,216.4215327780637
105309,7970,105309.0,36798.0,105309.0,34613.0,-49.909702178825995,124.33664021663407,231.9395738277509
105309,7991,105309.0,36830.0,105309.0,34620.0,-39.23177891527618,132.25872230462465,246.98324327807723
105309,7985,105309.0,36831.0,105309.0,34650.0,-28.65725522620602,139.9257536075683,261.54266572083134
105309,7998,105309.0,36840.0,105309.0,34650.0,-18.19717114772888,147.33321176913637,275.6095510950513
105309,8004,105309.0,36832.0,105309.0,34659.0,-7.861919274992289,154.47766573107612,289.17720527892504
105319,8009,105319.0,36823.0,105319.0,34662.0,2.338643703749824,161.35663795837678,302.2404230011657
105319,8018,105319.0,36824.0,105319.0,34677.0,12.39510363285143,167.96828289530492,314.7952855531819
105319,8045,105319.0,36859.0,105319.0,34716.0,22.298438281071128,174.3110901801606,326.83905977512495
105319,8061,105319.0,36873.0,105319.0,34722.0,32.040121110022966,180.38390814505624,338.370356294987
105319,8048,105319.0,36876.0,105319.0,34707.0,41.612331142091904,186.18627550814386,349.3893710467397
105319,8063,105319.0,36863.0,105319.0,34721.0,51.008010167677696,191.71868083490426,359.89784989108637
105330,8059,105330.0,36850.0,105330.0,34709.0,60.220708857914985,196.98246646185345,369.8987783588482
105330,8074,105330.0,36875.0,105330.0,34737.0,69.24440617214233,201.9794922205548,379.39607371468287
105330,8095,105330.0,36897.0,105330.0,34747.0,78.07343786116326,206.71195759433476,388.3944573372345
105330,8104,105330.0,36885.0,105330.0,34754.0,86.7025889036729,211.1825684321533,396.89952550611247
105330,8099,105330.0,36886.0,105330.0,34756.0,95.12725494487412,215.3947344727083,404.91785452369334
105330,8097,105330.0,36856.0,105330.0,34759.0,103.34344422626495,219.35245760665163,412.45698214160427
105340,8109,105340.0,36864.0,105340.0,34736.0,111.34758373021475,223.05993100643025,419.5252387730559
105340,8116,105340.0,36881.0,105340.0,34761.0,119.13633406693131,226.52113232002944,426.1314464648575
105340,8139,105340.0,36908.0,105340.0,34775.0,126.70656904885107,229.73975482990443,432.28468166499533
105340,8138,105340.0,36919.0,105340.0,34780.0,134.05550184878655,232.7195493036446,437.9943200660216
105340,8148,105340.0,36900.0,105340.0,34770.0,141.18082832515302,235.46475464354074,443.2701952636261
105340,8170,105340.0,36891.0,105340.0,34768.0,148.0808187974696,237.9802185375753,448.1225653470141
105350,8158,105350.0,36907.0,105350.0,34786.0,154.75441703381193,240.2711836895275,452.5619215076946
105350,8177,105350.0,36915.0,105350.0,34795.0,161.20132019762838,242.3431138604128,456.59891153937497
105350,8166,105350.0,36926.0,105350.0,34793.0,167.4219628872583,244.2017922811006,460.24445884008026
105350,8176,105350.0,36918.0,105350.0,34790.0,173.41743361120854,245.8535384570677,463.50987217755187
105350,8173,105350.0,36889.0,105350.0,34789.0,179.18936011423716,247.3052578331097,466.40679813362317
105350,8171,105350.0,36893.0,105350.0,34778.0,184.7397736405344,248.56417233575246,468.94706240889957
105361,8187,105361.0,36896.0,105361.0,34799.0,190.07097636900335,249.6374197792893,471.1425007999188
105361,8185,105361.0,36926.0,105361.0,34802.0,195.18547469296016,250.53189831775165,473.00491708201514
105361,8201,105361.0,36912.0,105361.0,34798.0,200.08601065112202,251.2544589237816,474.54620384339194
105361,8206,105361.0,36894.0,105361.0,34797.0,204.77565297894182,251.81212592367365,475.7784437544568
105361,8186,105361.0,36887.0,105361.0,34776.0,209.257864719275,252.2119952633052,476.71383910949316
105361,8188,105361.0,36897.0,105361.0,34769.0,213.53639551523924,252.46091146492444,477.36446115698357
105371,8202,105371.0,36903.0,105371.0,34797.0,217.6150268077734,252.56529136512574,477.74196048839383
105371,8217,105371.0,36922.0,105371.0,34802.0,221.49746528234738,252.53123405153508,477.85753760855573
105371,8214,105371.0,36931.0,105371.0,34805.0,225.18748765400642,252.36483179369708,477.72222997596396
105371,8213,105371.0,36909.0,105371.0,34782.0,228.68910394351275,252.07250165678164,477.3471711175241
105371,8206,105371.0,36875.0,105371.0,34769.0,232.0065448451826,251.6610218985747,476.7435280203274
105371,8209,105371.0,36883.0,105371.0,34766.0,235.1441074607019,251.13712925897664,475.9221690586845
105382,8208,105382.0,36901.0,105382.0,34773.0,238.1059867587561,250.50706345709142,474.89334744360065
105382,8220,105382.0,36906.0,105382.0,34783.0,240.89618369166516,249.77652009023296,473.6666285275112
105382,8220,105382.0,36906.0,105382.0,34775.0,243.51852019122373,248.9509287622256,472.2510343266515
105382,8220,105382.0,36881.0,105382.0,34764.0,245.97670829860112,248.0356515121457,470.65518031907686
105382,8212,105382.0,36863.0,105382.0,34777.0,248.2743599770049,247.03585042587116,468.8872686369924
105382,8219,105382.0,36890.0,105382.0,34760.0,250.41489701360575,245.95613556324315,466.9550446319714
105392,8238,105392.0,36906.0,105392.0,34777.0,252.40149041316812,244.80043015983733,464.8658157108322
105392,8244,105392.0,36907.0,105392.0,34780.0,254.23719309444374,243.57227151690824,462.6265463579564
105392,8239,105392.0,36911.0,105392.0,34758.0,255.92520102689315,242.27524389257087,460.2440129174638
105392,8227,105392.0,36869.0,105392.0,34766.0,257.46898569520897,240.91316484074997,457.7248661304843
105392,8223,105392.0,36858.0,105392.0,34728.0,258.87217636470774,239.48985691195827,455.0755000229303
105392,8223,105392.0,36863.0,105392.0,34752.0,260.138319531212,238.00864018471714,452.30181192712064
105402,8239,105402.0,36893.0,105402.0,34765.0,261.2707259078519,236.47201703538337,449.4090800898464
105402,8226,105402.0,36908.0,105402.0,34755.0,262.2724918564395,234.88188295552044,446.4021509306634
105402,8235,105402.0,36884.0,105402.0,34759.0,263.1465777819317,233.2400346544324,443.28574757303943
105402,8227,105402.0,36857.0,105402.0,34742.0,263.8958199433432,231.54841076458865,440.0646100976476
105402,8229,105402.0,36856.0,105402.0,34725.0,264.5228937992012,229.80881819632452,436.7434309370278
105402,8238,105402.0,36881.0,105402.0,34744.0,265.0302895081399,228.02254073000267,433.3266783502323
105413,8246,105413.0,36902.0,105413.0,34728.0,265.42037437622923,226.19036405148427,429.8185021048313
105413,8241,105413.0,36906.0,105413.0,34753.0,265.69555633603784,224.31305563971966,426.2228365749129
105413,8236,105413.0,36880.0,105413.0,34729.0,265.8584107670844,222.3918623538666,422.5436060059767
105413,8224,105413.0,36850.0,105413.0,34717.0,265.91164510872096,220.4285723777062,418.7848476596084
105413,8225,105413.0,36843.0,105413.0,34716.0,265.85792951524326,218.42508279321152,414.9506231927203
105413,8233,105413.0,36876.0,105413.0,34723.0,265.699739175632,216.3829098525028,411.04486992047276
105423,8239,105423.0,36885.0,105423.0,34712.0,265.43935392128554,214.30316198691165,407.0714144419041
105423,8238,105423.0,36884.0,105423.0,34719.0,265.07900694756216,212.18696336261368,403.0340898139041
105423,8235,105423.0,36862.0,105423.0,34711.0,264.62103484313235,210.03583415684906,398.9368387733994
105423,8229,105423.0,36847.0,105423.0,34692.0,264.06792159681555,207.85168145915787,394.7837644325621
105423,8223,105423.0,36857.0,105423.0,34705.0,263.42223650615836,205.63651407652625,390.57908582114516
105423,8239,105423.0,36874.0,105423.0,34703.0,262.686552928188,203.39226973632782,386.3271054008831
105433,8227,105433.0,36883.0,105433.0,34705.0,261.86346314215325,201.12100151717877,382.0323341229622
105433,8231,105433.0,36859.0,105433.0,34688.0,260.955662933136,198.8252352377985,377.69966663157356
105433,8229,105433.0,36840.0,105433.0,34676.0,259.9659945081316,196.50808084890025,373.3344061186147
105433,8222,105433.0,36835.0,105433.0,34660.0,258.8974456334619,194.1729621568678,368.94209414961983
105433,8217,105433.0,36820.0,105433.0,34667.0,257.75311502059276,191.8232177459274,364.52827076220814
105433,8229,105433.0,36860.0,105433.0,34664.0,256.5361539832142,189.4618765501859,360.09835488988256
105444,8225,105444.0,36859.0,105444.0,34675.0,255.24978747559794,187.09179819959502,355.65772992994306
105444,8230,105444.0,36822.0,105444.0,34662.0,253.8974386947741,184.71602423803094,351.2119513072175
105444,8218,105444.0,36832.0,105444.0,34642.0,252.48284178955498,182.3378604979725,346.76688158084374
105444,8214,105444.0,36810.0,105444.0,34642.0,251.0100494738166,179.96061767869435,342.32861125317345
105444,8211,105444.0,36835.0,105444.0,34632.0,249.48334351831159,177.58738441061703,337.9032703253398
105444,8221,105444.0,36856.0,105444.0,34646.0,247.9071592953846,175.22109173635133,333.4969449181508
105454,8208,105454.0,36848.0,105454.0,34642.0,246.28611328255954,172.8648931922242,329.1157776859972
105454,8206,105454.0,36812.0,105454.0,34622.0,244.6250504095267,170.52252040695197,324.76614052179514
105454,8193,105454.0,36790.0,105454.0,34611.0,242.92898765280898,168.1981506820931,320.45465067302246
105454,8188,105454.0,36797.0,105454.0,34599.0,241.2029597936522,165.89586333609415,316.1879653041876
105454,8191,105454.0,36816.0,105454.0,34601.0,239.45185622255042,163.6192391807103,311.9725384519902
105454,8192,105454.0,36806.0,105454.0,34614.0,237.6803498155462,161.37140655951274,307.81454050854575
105464,8186,105464.0,36818.0,105464.0,34606.0,235.89293593885947,159.1553051536684,303.7200027599868
105464,8193,105464.0,36806.0,105464.0,34590.0,234.09399845842802,156.97388210736545,299.6950188111564
105464,8181,105464.0,36800.0,105464.0,34585.0,232.28785808659546,154.83016168710915,295.74576390126856
105464,8187,105464.0,36790.0,105464.0,34590.0,230.47880089985787,152.7271823075756,291.878376434351
105464,8188,105464.0,36830.0,105464.0,34576.0,228.67110307726432,150.6679242728996,288.09890592079995
105464,8179,105464.0,36819.0,105464.0,34582.0,226.86908612352232,148.6554891941442,284.4133392745772
105475,8179,105475.0,36823.0,105475.0,34566.0,225.07715589262008,146.69348241474717,280.8276142031295
105475,8169,105475.0,36776.0,105475.0,34547.0,223.29976860796828,144.78618954930724,277.34755473777955
105475,8158,105475.0,36752.0,105475.0,34532.0,221.54133183205158,142.93825560290733,273.97864371772613
105475,8158,105475.0,36758.0,105475.0,34551.0,219.80605036169237,141.15400819673857,270.72571906243934
105475,8171,105475.0,36783.0,105475.0,34547.0,218.09781202300613,139.4369569945597,267.5928749544753
105475,8165,105475.0,36790.0,105475.0,34549.0,216.42024477269703,137.78985572542223,264.5836244415001
105485,8153,105485.0,36777.0,105485.0,34536.0,214.77685188878817,136.2150959858326,261.7010804780747
105485,8145,105485.0,36765.0,105485.0,34527.0,213.17100252395275,134.7149348948841,258.9479751809139
105485,8151,105485.0,36747.0,105485.0,34527.0,211.60578155580524,133.29136629305168,256.3265455285325
105485,8152,105485.0,36770.0,105485.0,34548.0,210.08390302171455,131.94583778420514,253.83846957553672
105485,8152,105485.0,36781.0,105485.0,34531.0,208.60777001168114,130.67916770867242,251.48500286442678
105485,8158,105485.0,36789.0,105485.0,34535.0,207.1795979587554,129.4918077088553,249.26718141385425
105495,8139,105495.0,36771.0,105495.0,34525.0,205.80151018074042,128.3841999170632,247.185888869126
105495,8140,105495.0,36754.0,105495.0,34512.0,204.4755246519023,127.35687257362412,245.24178980394842
105495,8140,105495.0,36741.0,105495.0,34516.0,203.20344205480927,126.41018501642438,243.4351918808105
105495,8138,105495.0,36773.0,105495.0,34514.0,201.98677266075345,125.5439891576024,241.76592184605732
105495,8141,105495.0,36779.0,105495.0,34523.0,200.82675459802584,124.7576040872653,240.23332463175248
105495,8146,105495.0,36766.0,105495.0,34515.0,199.7244229849098,124.05011999883966,238.83637140397747
105506,8138,105506.0,36754.0,105506.0,34500.0,198.68070964925246,123.42060445197342,237.57373087023248
105506,8127,105506.0,36734.0,105506.0,34498.0,197.69649042775077,122.86794791739266,236.44367638482353
105506,8129,105506.0,36756.0,105506.0,34499.0,196.77250108965853,122.39053279357606,235.44389972633624
105506,8123,105506.0,36758.0,105506.0,34513.0,195.90920280614517,121.98607198968486,234.57143802374918
105506,8129,105506.0,36777.0,105506.0,34517.0,195.10671249480197,121.6517648599576,233.82280902102875
105506,8127,105506.0,36782.0,105506.0,34496.0,194.36481421516856,121.38464104413949,233.19421918580542
105516,8119,105516.0,36754.0,105516.0,34497.0,193.6829989950994,121.181851478223,232.68159990311239
105516,8119,105516.0,36725.0,105516.0,34495.0,193.06045416989645,121.04061525371468,232.28045366321223
105516,8128,105516.0,36761.0,105516.0,34508.0,192.49602046423885,120.95780825237665,231.98574715060897
105516,8134,105516.0,36770.0,105516.0,34513.0,191.98824636093747,120.9297137450547,231.79199708821548
105516,8125,105516.0,36779.0,105516.0,34513.0,191.5355478880047,120.95226694675792,231.69348019220095
105516,8123,105516.0,36789.0,105516.0,34501.0,191.13631197218217,121.02149616018254,231.68439337293063
105526,8123,105526.0,36759.0,105526.0,34491.0,190.78887055521722,121.13380243640432,231.7588227052717
105526,8113,105526.0,36736.0,105526.0,34511.0,190.49142647364832,121.28588562482891,231.91058409129568
105526,8123,105526.0,36756.0,105526.0,34515.0,190.24198782097073,121.47433514360938,232.1331887721885
105526,8130,105526.0,36780.0,105526.0,34518.0,190.03836549141045,121.69533889314866,232.42003102761151
105526,8126,105526.0,36783.0,105526.0,34521.0,189.8782886097541,121.94487874187595,232.76461815966812
105526,8121,105526.0,36768.0,105526.0,34499.0,189.75953268363625,122.21912938593472,233.16066690948333
105537,8111,105537.0,36750.0,105537.0,34493.0,189.67991079564334,122.51456894640195,233.6019875899883
105537,8104,105537.0,36749.0,105537.0,34491.0,189.6371218361852,122.82771845410721,234.08219863802978
105537,8115,105537.0,36759.0,105537.0,34514.0,189.6285671540341,123.15481591936798,234.59451463479672
105537,8126,105537.0,36797.0,105537.0,34517.0,189.6513056929671,123.49178127621997,235.13182251687596
105537,8121,105537.0,36793.0,105537.0,34524.0,189.7022084103973,123.83458767442048,235.68697131916966
105537,8120,105537.0,36770.0,105537.0,34520.0,189.77814207951425,124.17971747631248,236.25303890157397
105547,8114,105547.0,36768.0,105547.0,34513.0,189.8760166294928,124.5242457244701,236.82344029825776
105547,8107,105547.0,36760.0,105547.0,34530.0,189.99270826654725,124.86556738216046,237.39191838560856
105547,8122,105547.0,36782.0,105547.0,34527.0,190.12495763843617,125.20115294909074,237.95257088333506
105547,8129,105547.0,36782.0,105547.0,34529.0,190.2693848043159,125.52856121905714,238.49997055413348
105547,8117,105547.0,36769.0,105547.0,34518.0,190.42264944690805,125.84560605224044,239.0292452263828
105547,8119,105547.0,36762.0,105547.0,34509.0,190.581564181846,126.15039391963096,239.5360044864425
105557,8107,105557.0,36742.0,105557.0,34496.0,190.74304167185792,126.4411088437586,240.01611724647
105557,8107,105557.0,36750.0,105557.0,34503.0,190.90395255036816,126.7156722937057,240.4654273524925
105557,8124,105557.0,36786.0,105557.0,34522.0,191.06101972620394,126.97155129817787,240.8795975985651
105557,8125,105557.0,36788.0,105557.0,34516.0,191.21087868926037,127.20597185738069,241.25421584818056
105557,8131,105557.0,36784.0,105557.0,34511.0,191.35029380348908,127.4163859541393,241.58500150497025
105557,8114,105557.0,36750.0,105557.0,34515.0,191.47633641694097,127.6007004864147,241.86787367469168
105568,8110,105568.0,36756.0,105568.0,34504.0,191.58636906533556,127.75705368714705,242.0988973450981
105568,8123,105568.0,36766.0,105568.0,34521.0,191.67789859880037,127.88344265829397,242.27423318591025
105568,8120,105568.0,36790.0,105568.0,34531.0,191.7485168792656,127.97764325202114,242.3901943054331
105568,8131,105568.0,36803.0,105568.0,34538.0,191.79600603064517,128.03753366903146,242.443478892541
105568,8111,105568.0,36779.0,105568.0,34509.0,191.8184646348815,128.06153852179085,242.4314189866593
105568,8106,105568.0,36758.0,105568.0,34500.0,191.81428899965346,128.04876844633083,242.3519439461577
105578,8099,105578.0,36739.0,105578.0,34488.0,191.7819771800706,127.99867924883736,242.20322632246533
105578,8101,105578.0,36775.0,105578.0,34506.0,191.7198954446753,127.91057441357674,241.98331174373473
105578,8116,105578.0,36779.0,105578.0,34520.0,191.6261792526372,127.78346299450071,241.69003845202002
105578,8115,105578.0,36771.0,105578.0,34504.0,191.49883153111148,127.61632553130165,241.32124655778773
105578,8102,105578.0,36770.0,105578.0,34504.0,191.33589486530036,127.40835899234202,240.87496745122476
105578,8101,105578.0,36747.0,105578.0,34510.0,191.13548112651426,127.1589417391616,240.34942142183863
105589,8106,105589.0,36760.0,105589.0,34482.0,190.89566264816096,126.86741770012875,239.74294092422048
105589,8094,105589.0,36772.0,105589.0,34498.0,190.61439500330488,126.53293655004586,239.05385192750362
105589,8119,105589.0,36778.0,105589.0,34517.0,190.2895240633327,126.15454824193156,238.28038828072607
105589,8111,105589.0,36775.0,105589.0,34510.0,189.9188935931033,125.7314669211107,237.4208516379614
105589,8096,105589.0,36766.0,105589.0,34495.0,189.50049678645362,125.26324319011371,236.47387129034152
105589,8100,105589.0,36739.0,105589.0,34484.0,189.03247550984605,124.74969296887309,235.4384077835068
105599,8112,105599.0,36771.0,105599.0,34497.0,188.51301386387462,124.19064367666672,234.31353881414248
105599,8115,105599.0,36761.0,105599.0,34497.0,187.9403871818505,123.58578915871294,233.0983471875245
105599,8114,105599.0,36780.0,105599.0,34505.0,187.3131685467318,122.93482335621133,231.79203026509137
105599,8106,105599.0,36768.0,105599.0,34477.0,186.6303844370144,122.23767868848464,230.394048796246
105599,8096,105599.0,36745.0,105599.0,34476.0,185.8915062174318,121.49462428499152,228.90408243119296
105599,8091,105599.0,36741.0,105599.0,34476.0,185.09630179010827,120.70608847912287,227.32181014556105
105609,8095,105609.0,36748.0,105609.0,34478.0,184.24465872888203,119.87233305099252,225.64675843435816
105609,8102,105609.0,36782.0,105609.0,34491.0,183.33651854223743,118.99335157142939,223.8783488280545
105609,8091,105609.0,36760.0,105609.0,34490.0,182.37194635349132,118.06913957051373,222.01609617565788
105609,8100,105609.0,36755.0,105609.0,34483.0,181.35121660000283,117.10000261471475,220.05983628724312
105609,8075,105609.0,36722.0,105609.0,34442.0,180.27481760965546,116.08650766553197,218.0097623636059
105609,8068,105609.0,36724.0,105609.0,34465.0,179.14332242882188,115.02908782837439,215.86615486562619
105620,8081,105620.0,36737.0,105620.0,34462.0,177.9571602905453,113.9276384378163,213.62909016299713
105620,8078,105620.0,36755.0,105620.0,34467.0,176.7165032200775,112.78144647718742,211.2984477020512
105620,8077,105620.0,36759.0,105620.0,34472.0,175.42134871329694,111.58949381056398,208.87411855158163
105620,8085,105620.0,36746.0,105620.0,34459.0,174.07164265540666,110.35083473683484,206.3561967661966
105620,8067,105620.0,36727.0,105620.0,34450.0,172.6673595055689,109.0647180286281,203.74504833435577
105620,8061,105620.0,36728.0,105620.0,34460.0,171.20849117852188,107.73039277305074,201.04125163481777
105630,8077,105630.0,36777.0,105630.0,34446.0,169.69494057614943,106.34693599988239,198.24554902510758
105630,8073,105630.0,36751.0,105630.0,34459.0,168.12650797484807,104.9134785323964,195.35888846782672
105630,8079,105630.0,36757.0,105630.0,34447.0,166.503049195859,103.4296226690898,192.382506600016
105630,8061,105630.0,36720.0,105630.0,34435.0,164.8246274759799,101.89555186231279,189.31798440685796
105630,8060,105630.0,36731.0,105630.0,34414.0,163.09151130991114,100.31176966961327,186.167154035503
105630,8057,105630.0,36720.0,105630.0,34431.0,161.30405671196323,98.67876950750328,182.9318647932741
105640,8053,105640.0,36735.0,105640.0,34431.0,159.46260543040196,96.99688006405073,179.61386528392632
105640,8065,105640.0,36748.0,105640.0,34435.0,157.567473980959,95.26635313879838,176.21494732977803
105640,8062,105640.0,36745.0,105640.0,34414.0,155.6190496775697,93.4876392571155,172.73715734421432
105640,8041,105640.0,36713.0,105640.0,34411.0,153.6179126997621,91.66161832027791,169.18283224762803
105640,8052,105640.0,36727.0,105640.0,34404.0,151.56482430893558,89.7895323092873,165.55446997756343
105640,8043,105640.0,36718.0,105640.0,34395.0,149.4606277394574,87.87275965007619,161.85459034358843
105651,8050,105651.0,36739.0,105651.0,34413.0,147.30623375560228,85.91275701932753,158.08568328495488
105651,8031,105651.0,36721.0,105651.0,34390.0,145.10266453846057,83.91120092573746,154.25027480485613
105651,8030,105651.0,36705.0,105651.0,34380.0,142.85102230746912,81.8700902199748,150.3509931237003
105651,8025,105651.0,36698.0,105651.0,34381.0,140.55237050107206,79.79160710617617,146.39048116607933
105651,8021,105651.0,36678.0,105651.0,34363.0,138.20762664348115,77.67779527967653,142.37124231581788
105651,8030,105651.0,36709.0,105651.0,34370.0,135.8175356700328,75.53028380322066,138.2955407773232
105661,8027,105661.0,36713.0,105661.0,34366.0,133.382741894463,73.35028938535766,134.16536860476918
105661,8024,105661.0,36720.0,105661.0,34380.0,130.90392316542076,71.13893950535794,129.98253396527423
105661,8030,105661.0,36700.0,105661.0,34365.0,128.3819062403167,68.89762492624823,125.74886854542024
105661,8008,105661.0,36679.0,105661.0,34346.0,125.81772894897166,66.62805371323168,121.46637392836371
105661,8005,105661.0,36669.0,105661.0,34346.0,123.21260054967236,64.33196218942254,117.13714700636855
105661,8005,105661.0,36713.0,105661.0,34353.0,120.56775619648701,62.010800499291456,112.76322804684371
105671,8020,105671.0,36700.0,105671.0,34356.0,117.88438963728026,59.665811634484285,108.34663847414772
105671,8011,105671.0,36694.0,105671.0,34357.0,115.16379361975991,57.29840673552065,103.88961437060367
105671,7989,105671.0,36676.0,105671.0,34310.0,112.40752583054406,54.91034081524332,99.39477456847101
105671,7981,105671.0,36656.0,105671.0,34314.0,109.61733521678701,52.50352088727079,94.86496219901558
105671,7983,105671.0,36669.0,105671.0,34305.0,106.79490125661552,50.07966095787689,90.30286687148126
105671,7980,105671.0,36662.0,105671.0,34313.0,103.94166134880896,47.64005702442323,85.71080380368944
105682,7988,105682.0,36695.0,105682.0,34326.0,101.05882947819006,45.185641900399155,81.09079957373012
105682,7985,105682.0,36683.0,105682.0,34321.0,98.14753123208092,42.71729351549153,76.44488727737664
105682,7978,105682.0,36646.0,105682.0,34305.0,95.2089559640163,40.2361194075573,71.77540662565609
105682,7978,105682.0,36653.0,105682.0,34283.0,92.24443702205525,37.74336524841871,67.08505999520351
105682,7973,105682.0,36659.0,105682.0,34285.0,89.25546404845748,35.24009105137699,62.376700069128105
105682,7963,105682.0,36673.0,105682.0,34277.0,86.24367587540485,32.727096666356275,57.65309385129521
105692,7973,105692.0,36687.0,105692.0,34286.0,83.21084206261611,30.20520580851226,52.916861287088096
105692,7952,105692.0,36641.0,105692.0,34277.0,80.15885730769713,27.67560705784713,48.170576258757535
105692,7951,105692.0,36638.0,105692.0,34252.0,77.08971831561321,25.139859198143625,43.41686392401263
105692,7931,105692.0,36614.0,105692.0,34242.0,74.00540009363719,22.59949002682326,38.65829801251263
105692,7941,105692.0,36644.0,105692.0,34250.0,70.9076720823144,20.055571070609275,33.89715061198865
105692,7949,105692.0,36648.0,105692.0,34249.0,67.79802202800715,17.5086486203694,29.1352857768062
105702,7948,105702.0,36646.0,105702.0,34253.0,64.67779682005983,14.959024979624942,24.374298071078613
105702,7933,105702.0,36646.0,105702.0,34243.0,61.54842262944889,12.407074206159265,19.615730038906662
105702,7922,105702.0,36629.0,105702.0,34229.0,58.41145538535818,9.85336567652702,14.861192483160892
105702,7926,105702.0,36616.0,105702.0,34230.0,55.26844737589782,7.298581292545876,10.112334883422676
105702,7914,105702.0,36645.0,105702.0,34235.0,52.12082015196712,4.7433477346094435,5.370793393482387
105702,7933,105702.0,36655.0,105702.0,34222.0,48.96985701257134,2.1882852732400977,0.6382560002582238
105713,7912,105713.0,36643.0,105713.0,34213.0,45.816800858883255,-0.36563379221996684,-4.083448301608456
105713,7905,105713.0,36607.0,105713.0,34214.0,42.662933927115404,-2.916836000975735,-8.792363869946314
105713,7896,105713.0,36595.0,105713.0,34179.0,39.509499722253665,-5.463379301898229,-13.48650410965044
105713,7899,105713.0,36599.0,105713.0,34179.0,36.357541988545066,-8.003467029259852,-18.164050825177554
105713,7891,105713.0,36610.0,105713.0,34193.0,33.20782662183365,-10.535765744691176,-22.82359051135242
105713,7904,105713.0,36629.0,105713.0,34196.0,30.06087482219698,-13.059310462522475,-27.464106343610354
105723,7892,105723.0,36620.0,105723.0,34177.0,26.917075081367727,-15.573138963116975,-32.08472389145521
105723,7882,105723.0,36576.0,105723.0,34161.0,23.776786966139028,-18.07603771204309,-36.684578907022
105723,7881,105723.0,36578.0,105723.0,34150.0,20.64032335518698,-20.56673940298829,-41.26297923546403
105723,7871,105723.0,36601.0,105723.0,34163.0,17.507851591142114,-23.044341459117717,-45.81964231364674
105723,7888,105723.0,36606.0,105723.0,34185.0,14.379351150279234,-25.50837281958283,-50.35468043687382
105723,7883,105723.0,36606.0,105723.0,34171.0,11.254712819743503,-27.958460471290152,-54.86824880899076
105733,7865,105733.0,36586.0,105733.0,34141.0,8.133906527158018,-30.39403286685122,-59.36020445572913
105733,7871,105733.0,36571.0,105733.0,34125.0,5.0170255706939315,-32.81433951752648,-63.83018276767032
105733,7864,105733.0,36553.0,105733.0,34137.0,1.90421736747345,-35.218756424315444,-68.27797227863721
105733,7848,105733.0,36583.0,105733.0,34133.0,-1.2043677417663616,-37.60713047534881,-72.70372830605831
105733,7861,105733.0,36606.0,105733.0,34127.0,-4.308631897350551,-39.97978641612133,-77.10789998800789
105733,7860,105733.0,36603.0,105733.0,34146.0,-7.40854481809194,-42.33707497574329,-81.49106296624836
105744,7846,105744.0,36556.0,105744.0,34112.0,-10.504045741959004,-44.678923551037954,-85.85375484232614
105744,7834,105744.0,36564.0,105744.0,34101.0,-13.595000180865526,-47.00490751307629,-90.19643886150601
105744,7842,105744.0,36557.0,105744.0,34106.0,-16.681312678282893,-49.31466607569946,-94.51969497031064
105744,7838,105744.0,36572.0,105744.0,34112.0,-19.76301141614269,-51.60813657093479,-98.82437919692512
105744,7843,105744.0,36580.0,105744.0,34106.0,-22.840179204035707,-53.88545131451126,-103.11152670289223
105744,7834,105744.0,36572.0,105744.0,34105.0,-25.91281989475533,-56.14666705698062,-107.38215430648489
105754,7824,105754.0,36555.0,105754.0,34086.0,-28.980787719899112,-58.391579983973955,-111.63716481885828
105754,7818,105754.0,36528.0,105754.0,34082.0,-32.043838234823426,-60.619840779976656,-115.87740173159688
105754,7814,105754.0,36540.0,105754.0,34092.0,-35.10175028518415,-62.831325239437064,-120.10375708892278
105754,7818,105754.0,36567.0,105754.0,34094.0,-38.15440365080926,-65.02638604607182,-124.31713621748995
105754,7817,105754.0,36564.0,105754.0,34097.0,-41.20174761519297,-67.20567002307786,-128.51823071763653
105754,7812,105754.0,36555.0,105754.0,34080.0,-44.243696892582804,-69.36971333539856,-132.70727777750312
105764,7799,105764.0,36524.0,105764.0,34055.0,-47.28006824425748,-71.51879424780503,-136.8840223287968
105764,7787,105764.0,36531.0,105764.0,34058.0,-50.310652902732855,-73.6531729413874,-141.04793870217355
105764,7792,105764.0,36536.0,105764.0,34063.0,-53.33538635919881,-75.77340470235757,-145.19847906180894
105764,7799,105764.0,36553.0,105764.0,34060.0,-56.35443743317198,-77.88037434552652,-149.3350875758366
105764,7799,105764.0,36553.0,105764.0,34059.0,-59.36809722743068,-79.97502959406563,-153.45704105215287
105764,7789,105764.0,36531.0,105764.0,34039.0,-62.376581292811295,-82.0580906390164,-157.5633366450009
105775,7779,105775.0,36522.0,105775.0,34026.0,-65.37994736786393,-84.13002524270922,-161.65275617562042
105775,7764,105775.0,36516.0,105775.0,34024.0,-68.37819749450634,-86.19129341110084,-165.72408281510332
105775,7783,105775.0,36532.0,105775.0,34019.0,-71.37144713225169,-88.24257829817228,-169.77630017522188
105775,7779,105775.0,36534.0,105775.0,34027.0,-74.35994675650494,-90.28477059826864,-173.80863825650658
105775,7776,105775.0,36538.0,105775.0,34021.0,-77.3439154636605,-92.31874485552515,-177.82047640525485
105775,7772,105775.0,36529.0,105775.0,34009.0,-80.32338287766461,-94.34513205970981,-181.81121663426927
105785,7757,105785.0,36492.0,105785.0,33989.0,-83.29816684767573,-96.36429896954368,-185.78029327441953
105785,7739,105785.0,36503.0,105785.0,33997.0,-86.26799705560893,-98.37662723429864,-189.7273513562801
105785,7757,105785.0,36532.0,105785.0,34011.0,-89.23272989831813,-100.38280897932793,-193.65236101255817
105785,7775,105785.0,36527.0,105785.0,34003.0,-92.19239966392135,-102.38373588496447,-197.55546554148106
105785,7746,105785.0,36529.0,105785.0,33997.0,-95.14697446623234,-104.38009911344702,-201.43672098461536
105785,7736,105785.0,36515.0,105785.0,33978.0,-98.09616906535422,-106.37213515824115,-205.2960085142641
105795,7733,105795.0,36490.0,105795.0,33975.0,-101.0395877792711,-108.35967747058285,-209.13316212884348
105795,7734,105795.0,36489.0,105795.0,33966.0,-103.97695262610964,-110.3424551677613,-212.9481659523638
105795,7752,105795.0,36528.0,105795.0,33981.0,-106.90812124632271,-112.32036562445853,-216.74125924493183
105795,7736,105795.0,36509.0,105795.0,33974.0,-109.8328925906275,-114.29337085112405,-220.51286210464542
105795,7720,105795.0,36511.0,105795.0,33973.0,-112.75083513186317,-116.26116337162514,-224.26339268502988
105795,7720,105795.0,36479.0,105795.0,33968.0,-115.66135009970759,-118.22306301166228,-227.99312971968715
105806,7707,105806.0,36479.0,105806.0,33946.0,-118.56387261426516,-120.17825793734102,-231.70219926814923
105806,7718,105806.0,36492.0,105806.0,33950.0,-121.45800431770576,-122.12612081017721,-235.39069174623233
105806,7725,105806.0,36498.0,105806.0,33956.0,-124.34348847796545,-124.06627831113246,-239.05879186089425
105806,7712,105806.0,36495.0,105806.0,33948.0,-127.22003972081046,-125.99840774522141,-242.70675145443272
105806,7704,105806.0,36491.0,105806.0,33946.0,-130.08720648801003,-127.9220238241482,-246.3347639407425
105806,7692,105806.0,36453.0,105806.0,33923.0,-132.94442813014336,-129.83648229586476,-249.94293460389116
105816,7687,105816.0,36464.0,105816.0,33912.0,-135.79121986627405,-131.74125912467792,-253.53143377327387
105816,7696,105816.0,36478.0,105816.0,33926.0,-138.6273217064769,-133.6362664416721,-257.1007377562389
105816,7694,105816.0,36486.0,105816.0,33929.0,-141.45269397644608,-135.52183898746375,-260.6517025330293
105816,7687,105816.0,36480.0,105816.0,33930.0,-144.26739385641312,-137.39843354848045,-264.18537306031453
105816,7682,105816.0,36482.0,105816.0,33905.0,-147.07149483463178,-139.26637529231917,-267.7027689804459
105816,7673,105816.0,36451.0,105816.0,33903.0,-149.86511990527544,-141.12581895924865,-271.204897645746
105827,7671,105827.0,36454.0,105827.0,33900.0,-152.64853184482538,-142.97693704269588,-274.6929377618627
105827,7675,105827.0,36470.0,105827.0,33913.0,-155.42219759044386,-144.82017103087367,-278.16833458132083
105827,7680,105827.0,36478.0,105827.0,33923.0,-158.18674576331912,-146.65623202648956,-281.6326507830398
105827,7660,105827.0,36478.0,105827.0,33907.0,-160.94284565513965,-148.48581632760738,-285.0872620371953
105827,7656,105827.0,36451.0,105827.0,33893.0,-163.69118169845697,-150.30936379141284,-288.53316838673345
105827,7664,105827.0,36443.0,105827.0,33877.0,-166.4325578033565,-152.12713216279238,-291.97110151419514
105837,7659,105837.0,36437.0,105837.0,33871.0,-169.16793726173512,-153.93952259399467,-295.40182060432954
105837,7665,105837.0,36471.0,105837.0,33883.0,-171.89834129246898,-155.74731231259142,-298.82635190640497
105837,7653,105837.0,36458.0,105837.0,33878.0,-174.62472357336821,-157.55153538725725,-302.24600804855123
105837,7656,105837.0,36457.0,105837.0,33874.0,-177.34790774880534,-159.35317953597965,-305.6622477823025
105837,7637,105837.0,36431.0,105837.0,33858.0,-180.06860407340605,-161.15307940455705,-309.07659265396506
105837,7634,105837.0,36423.0,105837.0,33855.0,-182.78751326034148,-162.95212973139328,-312.49070376644687
105847,7651,105847.0,36448.0,105847.0,33860.0,-185.50544263313378,-164.75158766626916,-315.90650930158006
105847,7635,105847.0,36458.0,105847.0,33879.0,-188.22328075558895,-166.55309791920067,-319.3261763300045
105847,7637,105847.0,36449.0,105847.0,33859.0,-190.94187503621984,-168.35838201127586,-322.7518701834346
105847,7633,105847.0,36450.0,105847.0,33858.0,-193.66198227203617,-170.16893965632775,-326.18553000215843
105847,7630,105847.0,36425.0,105847.0,33847.0,-196.3842738923573,-171.98600709111335,-329.6288546671401
105847,7615,105847.0,36417.0,105847.0,33842.0,-199.10935135713842,-173.81075409292876,-333.0834140593901
105858,7615,105858.0,36437.0,105858.0,33834.0,-201.83782835213867,-175.64455976919808,-336.5507641678635
105858,7619,105858.0,36463.0,105858.0,33839.0,-204.5704332154577,-177.48903316593635,-340.0325295672117
105858,7612,105858.0,36464.0,105858.0,33836.0,-207.308014199732,-179.34561068287974,-343.530404645066
105858,7609,105858.0,36415.0,105858.0,33817.0,-210.0514799260913,-181.2151228485038,-347.04610590605455
105858,7589,105858.0,36395.0,105858.0,33809.0,-212.80181261575163,-183.0979051472826,-350.5814291003269
105858,7597,105858.0,36409.0,105858.0,33802.0,-215.5601945441928,-184.99440227825576,-354.1384475470963
105868,7603,105868.0,36439.0,105868.0,33822.0,-218.32810804907035,-186.90556764680386,-357.7196593405122
105868,7601,105868.0,36436.0,105868.0,33816.0,-221.107257274695,-188.83265332817305,-361.3278992115895
105868,7604,105868.0,36431.0,105868.0,33825.0,-223.89937636539113,-190.77674260013598,-364.9660716309393
105868,7598,105868.0,36402.0,105868.0,33800.0,-226.70607178644383,-192.73854915085445,-368.63692564879625
105868,7584,105868.0,36390.0,105868.0,33792.0,-229.52876145432842,-194.71863470828603,-372.3430433969074
105868,7582,105868.0,36388.0,105868.0,33802.0,-232.36873895751623,-196.71784269411697,-376.0869976424943
105878,7578,105878.0,36414.0,105878.0,33792.0,-235.22730413392395,-198.73758563452387,-379.87144153497076
105878,7588,105878.0,36423.0,105878.0,33801.0,-238.10581830225,-200.77972928541226,-383.6990333232674
105878,7585,105878.0,36427.0,105878.0,33790.0,-241.0056152987068,-202.84616854265408,-387.5723092866219
105878,7572,105878.0,36401.0,105878.0,33776.0,-243.92785934358997,-204.9384633976626,-391.4936181225392
105878,7569,105878.0,36382.0,105878.0,33776.0,-246.8735115934468,-207.05784450989,-395.46517944577334
105878,7558,105878.0,36402.0,105878.0,33775.0,-249.8434296265507,-209.20552156327184,-399.4891894208514
105889,7567,105889.0,36415.0,105889.0,33785.0,-252.83847638340015,-211.3828572420957,-403.56780548735475
105889,7578,105889.0,36444.0,105889.0,33800.0,-255.8594988975556,-213.59109513399187,-407.7029352302178
105889,7561,105889.0,36421.0,105889.0,33770.0,-258.9071484577456,-215.83081758278823,-411.8959203953624
105889,7554,105889.0,36378.0,105889.0,33753.0,-261.9817364525579,-218.10164748021336,-416.14740943115856
105889,7540,105889.0,36365.0,105889.0,33749.0,-265.08330598891314,-220.4025663439495,-420.45758041067506
105889,7541,105889.0,36390.0,105889.0,33762.0,-268.21183023044034,-222.73254311013292,-424.8264188494684
105899,7548,105899.0,36402.0,105899.0,33752.0,-271.3673371048115,-225.09078358000525,-429.25373066358173
105899,7547,105899.0,36399.0,105899.0,33758.0,-274.5498551466385,-227.47645079634472,-433.7389691925626
105899,7540,105899.0,36369.0,105899.0,33734.0,-277.7592553531712,-229.88835016327485,-438.28110699864345
105899,7530,105899.0,36356.0,105899.0,33727.0,-280.9951651169124,-232.32500836692523,-442.87867186041865
105899,7534,105899.0,36358.0,105899.0,33739.0,-284.2570028098389,-234.7850591150418,-447.5298862825819
105899,7538,105899.0,36374.0,105899.0,33739.0,-287.5439994665454,-237.26752087789234,-452.2326798648906
105909,7533,105909.0,36396.0,105909.0,33737.0,-290.8551043761762,-239.771683351517,-456.9844936394624
105909,7525,105909.0,36384.0,105909.0,33722.0,-294.1888616289931,-242.2966876726854,-461.78208286434256
105909,7504,105909.0,36361.0,105909.0,33709.0,-297.5434175263831,-244.8411869424128,-466.6215025161915
105909,7503,105909.0,36343.0,105909.0,33692.0,-300.9167013992615,-247.40342100251553,-471.4982816584203
105909,7493,105909.0,36342.0,105909.0,33686.0,-304.3066625173544,-249.98161241705128,-476.40769169544103
105909,7515,105909.0,36374.0,105909.0,33700.0,-307.7113830431205,-252.57425468405705,-481.3449427095745
105920,7502,105920.0,36385.0,105920.0,33727.0,-311.1289760283895,-255.17995072459533,-486.30508542305904
105920,7502,105920.0,36378.0,105920.0,33710.0,-314.55738386865454,-257.79690895648025,-491.2825723963617
105920,7486,105920.0,36356.0,105920.0,33688.0,-317.9942877446721,-260.422568529052,-496.27084289648565
105920,7495,105920.0,36341.0,105920.0,33674.0,-321.4371564513532,-263.0536532908494,-501.26232017248
105920,7481,105920.0,36343.0,105920.0,33678.0,-324.8832991002282,-265.6865048181085,-506.2486979042614
105920,7486,105920.0,36378.0,105920.0,33683.0,-328.3298651129462,-268.3172837928554,-511.2211113245981
105930,7490,105930.0,36383.0,105930.0,33688.0,-331.77380171149736,-270.94173224268206,-516.1700273363472
105930,7480,105930.0,36338.0,105930.0,33659.0,-335.2117528085625,-273.55472747229123,-521.0850299756044
105930,7475,105930.0,36333.0,105930.0,33659.0,-338.639966180682,-276.1502228006583,-525.9547787798612
105930,7457,105930.0,36315.0,105930.0,33654.0,-342.0543264092294,-278.72167443168485,-530.767154564586
105930,7467,105930.0,36344.0,105930.0,33666.0,-345.45049144936024,-281.2624588398268,-535.509335962333
105930,7458,105930.0,36348.0,105930.0,33628.0,-348.8239872513454,-283.7658963718938,-540.167736285429
105940,7462,105940.0,36345.0,105940.0,33659.0,-352.1701856962492,-286.22494603735953,-544.7279832613099
105940,7453,105940.0,36343.0,105940.0,33638.0,-355.4842347970317,-288.6319056191774,-549.1749279141211
105940,7443,105940.0,36313.0,105940.0,33627.0,-358.76103643003296,-290.9783541110124,-553.4925899671032
105940,7440,105940.0,36322.0,105940.0,33616.0,-361.99531020455265,-293.2553387545381,-557.6642001290718
105940,7446,105940.0,36342.0,105940.0,33628.0,-365.18167482855114,-295.45357219657336,-561.6723600180521
105940,7449,105940.0,36345.0,105940.0,33616.0,-368.3146135755507,-297.56332840221404,-565.4990936073261
105951,7449,105951.0,36324.0,105951.0,33626.0,-371.38830783778377,-299.5741347635731,-569.1257543288202
105951,7442,105951.0,36320.0,105951.0,33594.0,-374.39646036890906,-301.47466546461374,-572.5329503131424
105951,7434,105951.0,36314.0,105951.0,33590.0,-377.33222173476577,-303.2529113193608,-575.7006401482564
105951,7424,105951.0,36296.0,105951.0,33584.0,-380.18824648520774,-304.8964159819948,-578.6083937111694
105951,7431,105951.0,36304.0,105951.0,33604.0,-382.95680843800517,-306.392495941684,-581.235579919774
105951,7424,105951.0,36322.0,105951.0,33601.0,-385.6298559120861,-307.728361729613,-583.5612817157848
105961,7423,105961.0,36297.0,105961.0,33593.0,-388.19898287467015,-308.8910355139892,-585.5640603695517
105961,7408,105961.0,36286.0,105961.0,33566.0,-390.65541947205395,-309.86728608163094,-587.2218814372959
105961,7414,105961.0,36275.0,105961.0,33568.0,-392.99010292718583,-310.6438447084548,-588.5123406771968
105961,7412,105961.0,36287.0,105961.0,33576.0,-395.19374813839903,-311.2077384233231,-589.4129720730523
105961,7417,105961.0,36311.0,105961.0,33575.0,-397.2568191097823,-311.5463930120585,-589.901349295717
105961,7415,105961.0,36309.0,105961.0,33588.0,-399.16941770359716,-311.6473908283881,-589.9549752557961
105971,7397,105971.0,36281.0,105971.0,33572.0,-400.9212033522764,-311.49816714081794,-589.5511324894779
105971,7398,105971.0,36273.0,105971.0,33557.0,-402.50145333143155,-311.08605623378253,-588.6668711694587
105971,7389,105971.0,36253.0,105971.0,33547.0,-403.8992315479909,-310.3987099292301,-587.2792508267678
105971,7384,105971.0,36295.0,105971.0,33543.0,-405.10354881273577,-309.4245165700406,-585.3657393838996
105971,7384,105971.0,36284.0,105971.0,33549.0,-406.10348661643127,-308.1526707571545,-582.9045496506737
105971,7396,105971.0,36297.0,105971.0,33539.0,-406.8882564310496,-306.57293671228706,-579.8748290104836
105982,7387,105982.0,36280.0,105982.0,33537.0,-407.44713822445544,-304.67545369642255,-576.2568001356741
105982,7375,105982.0,36258.0,105982.0,33514.0,-407.7694078183602,-302.4508165438298,-572.0319991105542
105982,7377,105982.0,36259.0,105982.0,33529.0,-407.8444153335348,-299.89043770011875,-567.1836379054057
105982,7377,105982.0,36293.0,105982.0,33546.0,-407.66174423807377,-296.9869219097402,-561.6968975166894
105982,7384,105982.0,36301.0,105982.0,33554.0,-407.21127730193393,-293.73405920220176,-555.5589357747685
105982,7384,105982.0,36302.0,105982.0,33551.0,-406.483145508893,-290.1264768897722,-548.7587216011551
105992,7368,105992.0,36278.0,105992.0,33548.0,-405.46767762852824,-286.15941218724214,-541.286995640543
105992,7373,105992.0,36279.0,105992.0,33540.0,-404.155478261242,-281.8288768067405,-533.1364648803566
105992,7363,105992.0,36284.0,105992.0,33556.0,-402.53761240682593,-277.1320355925329,-524.3021182255516
105992,7368,105992.0,36299.0,105992.0,33574.0,-400.60577948231565,-272.0674573123727,-514.78144874582
105992,7374,105992.0,36304.0,105992.0,33575.0,-398.3524183875139,-266.6351162699248,-504.57446537755754
105992,7374,105992.0,36298.0,105992.0,33585.0,-395.7707236475105,-260.83630465651964,-493.6836378429334
106001,7367,106001.0,36304.0,106001.0,33587.0,-392.85463156338244,-254.67365396652667,-482.11394882365664
106001,7375,106001.0,36293.0,106001.0,33589.0,-389.5988777760817,-248.15129983639395,-469.87305735448706
106001,7367,106001.0,36319.0,106001.0,33610.0,-385.9991082247657,-241.27508498586616,-456.97150446485557
106001,7382,106001.0,36343.0,106001.0,33632.0,-382.05197081412484,-234.05260989553346,-443.42283129880457
106001,7399,106001.0,36371.0,106001.0,33666.0,-377.7551150760294,-226.49296710956713,-429.2434717564703
106001,7408,106001.0,36353.0,106001.0,33666.0,-373.10702303248786,-218.6063066514835,-414.4524718348429
106012,7382,106012.0,36353.0,106012.0,33680.0,-368.10680894968175,-210.40364105267838,-399.0712840543082
106012,7372,106012.0,36333.0,106012.0,33694.0,-362.7543158745351,-201.89708596657516,-383.1237820622534
106012,7395,106012.0,36388.0,106012.0,33734.0,-357.0505130274055,-193.100266854404,-366.63632270240504
106012,7408,106012.0,36420.0,106012.0,33758.0,-350.9977629998251,-184.02836517995874,-349.6376038349598
106012,7418,106012.0,36423.0,106012.0,33776.0,-344.5997280184355,-174.69763367942016,-332.15833729145464
106012,7413,106012.0,36420.0,106012.0,33787.0,-337.8611641146709,-165.12488007618077,-314.2309849542671
106022,7410,106022.0,36406.0,106022.0,33819.0,-330.7878944972193,-155.3274165529515,-295.8896743434623
106022,7422,106022.0,36433.0,106022.0,33836.0,-323.38697411490404,-145.3233772988828,-277.1701550475151
106022,7438,106022.0,36466.0,106022.0,33881.0,-315.6668387999969,-135.13194013701363,-258.10964716140217
106022,7458,106022.0,36482.0,106022.0,33909.0,-307.63725662676853,-124.7731440373932,-238.74653605356679
106022,7463,106022.0,36515.0,106022.0,33932.0,-299.30911359107347,-114.26743343753985,-219.1199648758552
106022,7477,106022.0,36474.0,106022.0,33933.0,-290.6942012644841,-103.63529501801695,-199.26953201966813
106033,7485,106033.0,36492.0,106033.0,33984.0,-281.805095115723,-92.89729792646588,-179.2352156996712
106033,7487,106033.0,36530.0,106033.0,34004.0,-272.65510692884,-82.07441536261646,-159.05730582227488
106033,7505,106033.0,36552.0,106033.0,34046.0,-263.2582926972368,-71.1880683101266,-138.7761293545262
106033,7524,106033.0,36572.0,106033.0,34065.0,-253.62944068420586,-60.259734909138444,-118.43166502925982
106033,7513,106033.0,36580.0,106033.0,34090.0,-243.7839865775967,-49.310515355980016,-98.06321809959866
106033,7532,106033.0,36562.0,106033.0,34096.0,-233.7379888243843,-38.36096126719056,-77.70925098937818
106043,7542,106043.0,36567.0,106043.0,34127.0,-223.50821018971266,-27.431263940370314,-57.40738678085046
106043,7568,106043.0,36605.0,106043.0,34150.0,-213.11212288461002,-16.54160656680594,-37.1944547752812
106043,7598,106043.0,36655.0,106043.0,34191.0,-202.56770922502147,-5.712179880691764,-17.106400843067775
106043,7608,106043.0,36648.0,106043.0,34215.0,-191.89309368502637,5.037319519686349,2.8219831509201185
106043,7610,106043.0,36646.0,106043.0,34230.0,-181.10619801852383,15.688200875728711,22.55738249158736
106043,7611,106043.0,36650.0,106043.0,34234.0,-170.22464552162728,26.22281796293629,42.068115866955225
106053,7626,106053.0,36660.0,106053.0,34253.0,-159.26589968980346,36.62429525398005,61.32402867105384
106053,7640,106053.0,36687.0,106053.0,34295.0,-148.24741206455707,46.87633877326755,80.29632068529202
106053,7669,106053.0,36695.0,106053.0,34328.0,-137.1866046620036,56.963281947492874,98.95762481710995
106053,7676,106053.0,36709.0,106053.0,34331.0,-126.10067832246773,66.87026174755061,117.28233985295981
106053,7681,106053.0,36704.0,106053.0,34342.0,-115.00640224391384,76.58332932815719,135.24685384170243
106053,7690,106053.0,36720.0,106053.0,34352.0,-103.9200602065545,86.0894086262357,152.82945049443947
106064,7703,106064.0,36714.0,106064.0,34377.0,-92.85752866075467,95.37616610647117,170.01008554945116
106064,7713,106064.0,36751.0,106064.0,34402.0,-81.83434044176653,104.43190945515514,186.77028879766414
106064,7750,106064.0,36781.0,106064.0,34423.0,-70.86564050448632,113.24569168680068,203.09326122717505
106064,7755,106064.0,36785.0,106064.0,34421.0,-59.96598258210307,121.8076999655562,218.96402622602602
106064,7760,106064.0,36769.0,106064.0,34428.0,-49.14907151276887,130.10961986437616,234.36940873189383
106064,7768,106064.0,36765.0,106064.0,34449.0,-38.42767337324938,138.14458479968863,249.2978185316099
106074,7766,106074.0,36767.0,106074.0,34461.0,-27.813723331454895,145.90677567143507,263.73905872598266
106074,7783,106074.0,36793.0,106074.0,34498.0,-17.31850128438262,153.3910574654343,277.6843236604824
106074,7807,106074.0,36823.0,106074.0,34498.0,-6.952733231603901,160.59295656891112,291.1263623692166
106074,7813,106074.0,36822.0,106074.0,34502.0,3.273487216512933,167.50898099057474,304.0596256834665
106074,7803,106074.0,36781.0,106074.0,34507.0,13.350821955095597,174.13687281402014,316.4801989160044
106074,7818,106074.0,36802.0,106074.0,34524.0,23.270613607377015,180.47537611167184,328.38558303865716
106084,7839,106084.0,36828.0,106084.0,34534.0,33.02470422516828,186.52379764420994,339.7745450690412
106084,7849,106084.0,36840.0,106084.0,34554.0,42.60542297547727,192.28195536325683,350.6471106047909
106084,7859,106084.0,36844.0,106084.0,34560.0,52.00573296042876,197.75048843321633,361.0046398598206
106084,7865,106084.0,36853.0,106084.0,34553.0,61.21934111863084,202.93111796233734,370.84986982762894
106084,7862,106084.0,36824.0,106084.0,34559.0,70.24068643985004,207.82668033318686,380.18679098781956
106084,7874,106084.0,36826.0,106084.0,34569.0,79.06482086421258,212.44089260295175,389.0204029926248
106095,7879,106095.0,36835.0,106095.0,34566.0,87.68726197370864,216.77795511918265,397.3565171771819
106095,7898,106095.0,36867.0,106095.0,34594.0,96.10392489617456,220.8423453859446,405.20166037653996
106095,7902,106095.0,36858.0,106095.0,34591.0,104.31116190119602,224.63898315803215,412.5630839120463
106095,7911,106095.0,36835.0,106095.0,34598.0,112.30584101496106,228.173442824247,419.4488370631244
106095,7908,106095.0,36821.0,106095.0,34593.0,120.08536461073885,231.45178186870112,425.86776110713515
106095,7933,106095.0,36833.0,106095.0,34594.0,127.64762200633038,234.48004796830685,431.82934700490546
106105,7921,106105.0,36857.0,106105.0,34602.0,134.99096519759752,237.26394213307418,437.34354346863597
106105,7947,106105.0,36875.0,106105.0,34619.0,142.1142219640343,239.80893518388842,442.42065069778016
106105,7955,106105.0,36873.0,106105.0,34624.0,149.01674032971272,242.12067750973733,447.07138648324224
106105,7940,106105.0,36859.0,106105.0,34608.0,155.69846644184332,244.20530729917027,451.3070049484743
106105,7943,106105.0,36840.0,106105.0,34599.0,162.15989399178534,246.06939195364765,455.13921461690734
106105,7951,106105.0,36853.0,106105.0,34611.0,168.40182851868565,247.7195814102476,458.57987520737254
106115,7954,106115.0,36855.0,106115.0,34616.0,174.42518514476285,249.16230707846785,461.6407540793102
106115,7983,106115.0,36882.0,106115.0,34632.0,180.2309654273452,250.40377307323155,464.33353015374007
106115,7979,106115.0,36880.0,106115.0,34627.0,185.82040115741785,251.4502132285325,466.66995588723523
106115,7981,106115.0,36854.0,106115.0,34621.0,191.1951355541504,252.30815060604954,468.6619785967288
106115,7974,106115.0,36848.0,106115.0,34630.0,196.35724146720446,252.98433752451103,470.32171552148975
106115,7983,106115.0,36851.0,106115.0,34620.0,201.3090643922912,253.48540625576283,471.66136318505096
106126,8001,106126.0,36884.0,106126.0,34633.0,206.05309260696055,253.8176490819361,472.6931418531086
106126,8006,106126.0,36899.0,106126.0,34621.0,210.59201422653848,253.98723308231382,473.42927469440565
106126,8003,106126.0,36864.0,106126.0,34619.0,214.92888015176612,254.00065112039857,473.88195065801494
106126,7994,106126.0,36856.0,106126.0,34617.0,219.06714414119142,253.86487051985273,474.06322210429425
106126,8002,106126.0,36828.0,106126.0,34606.0,223.01051110409344,253.58697279940475,473.98485905842074
106126,8008,106126.0,36849.0,106126.0,34617.0,226.76276147314064,253.17362220619657,473.6582143398666
106136,8008,106136.0,36891.0,106136.0,34631.0,230.32769522370484,252.63085256356567,473.0941922803802
106136,8014,106136.0,36891.0,106136.0,34626.0,233.70914685061837,251.96443125557852,472.30340566017935
106136,8015,106136.0,36851.0,106136.0,34622.0,236.91099023205066,251.1804176677287,471.29638491962135
106136,8023,106136.0,36847.0,106136.0,34602.0,239.93714337591592,250.285233900536,470.083608598511
106136,8020,106136.0,36853.0,106136.0,34614.0,242.79158911401754,249.2852677962705,468.67534049647463
106136,8026,106136.0,36870.0,106136.0,34620.0,245.47838733338693,248.18661114147466,467.0814958264335
106146,8027,106146.0,36870.0,106146.0,34604.0,248.00166849820198,246.9951878297622,465.3116817385586
106146,8032,106146.0,36863.0,106146.0,34611.0,250.36563464016098,245.71702084694056,463.3752661874072
106146,8034,106146.0,36848.0,106146.0,34588.0,252.57458185050632,244.35833230357866,461.28132710085254
106146,8020,106146.0,36822.0,106146.0,34590.0,254.6328975931504,242.92535894406154,459.03850380975894
106146,8030,106146.0,36824.0,106146.0,34586.0,256.5449679423713,241.42394971644978,456.65482127775203
106146,8035,106146.0,36838.0,106146.0,34594.0,258.3150634114065,239.85920424199315,454.13760220598965
106157,8028,106157.0,36829.0,106157.0,34593.0,259.9473206076217,238.23539889331363,451.49353151402113
106157,8025,106157.0,36847.0,106157.0,34593.0,261.4457406527786,236.5561335353205,448.7288021298766
106157,8028,106157.0,36841.0,106157.0,34580.0,262.81409900293227,234.8245247499686,445.84922247294423
106157,8028,106157.0,36835.0,106157.0,34580.0,264.0558434415245,233.04337257254593,442.86021257484174
106157,8031,106157.0,36847.0,106157.0,34575.0,265.17405905046695,231.2152459959081,439.7667311489633
106157,8048,106157.0,36851.0,106157.0,34584.0,266.17151016760687,229.34256000464995,436.57324878620466
106167,8060,106167.0,36852.0,106167.0,34595.0,267.0508138708942,227.4277533349658,433.28386020791794
106167,8045,106167.0,36848.0,106167.0,34584.0,267.8147104949104,225.47348188401654,429.90252733544486
106167,8045,106167.0,36820.0,106167.0,34575.0,268.46620848416075,223.48265971970955,426.4332790019759
106167,8031,106167.0,36797.0,106167.0,34578.0,269.00848611814877,221.45821606382788,422.88023158779816
106167,8038,106167.0,36818.0,106167.0,34578.0,269.4446795303028,219.4026450592028,419.2475538948108
106167,8045,106167.0,36840.0,106167.0,34577.0,269.77774107912137,217.31777118766703,415.53952588218425
106177,8038,106177.0,36838.0,106177.0,34561.0,270.01044487386304,215.20500143831512,411.76062636948404
106177,8046,106177.0,36836.0,106177.0,34553.0,270.14545436438607,213.06576263159698,407.9155058849487
106177,8045,106177.0,36813.0,106177.0,34545.0,270.1853689331893,210.9017029164402,404.00883034894423
106177,8038,106177.0,36808.0,106177.0,34546.0,270.132757498303,208.71456834838023,400.04511889109006
106177,8049,106177.0,36835.0,106177.0,34546.0,269.9901669008408,206.50598722343798,396.02868898062087
106177,8046,106177.0,36829.0,106177.0,34547.0,269.7601353502815,204.27749602606943,391.9637228908262
106188,8049,106188.0,36825.0,106188.0,34549.0,269.4452594143937,202.03079479595584,387.85440678859084
106188,8045,106188.0,36810.0,106188.0,34535.0,269.04826185501736,199.7678918780017,383.7050694583392
106188,8034,106188.0,36787.0,106188.0,34511.0,268.57198737193994,197.49096598346335,379.5201910061759
106188,8041,106188.0,36815.0,106188.0,34526.0,268.0193160489801,195.20208311150387,375.3042267643781
106188,8043,106188.0,36821.0,106188.0,34526.0,267.3930854789283,192.9031001527916,371.0614688618167
106188,8049,106188.0,36822.0,106188.0,34523.0,266.6961307560177,190.5959129588541,366.7961416180198
106198,8036,106198.0,36827.0,106198.0,34521.0,265.9313916514966,188.28280192133727,362.5125889613721
106198,8034,106198.0,36801.0,106198.0,34513.0,265.1019351017026,185.9666119131967,358.2153796936802
106198,8041,106198.0,36769.0,106198.0,34493.0,264.2108787477929,183.6506329504632,353.90929807987345
106198,8034,106198.0,36787.0,106198.0,34502.0,263.26134899413194,181.33817946111756,349.59922568634937
106198,8044,106198.0,36813.0,106198.0,34511.0,262.25652205458437,179.03227482584447,345.290066093274
106198,8038,106198.0,36808.0,106198.0,34499.0,261.19969729282826,176.73583368692275,340.9868701730207
106208,8027,106208.0,36802.0,106208.0,34490.0,260.0943440658761,174.45208086686205,336.6950079728142
106208,8009,106208.0,36749.0,106208.0,34470.0,258.94401066011227,172.18465634858774,332.4201462148635
106208,8021,106208.0,36747.0,106208.0,34477.0,257.75208306733043,169.93719574570437,328.1680575488649
106208,8035,106208.0,36776.0,106208.0,34467.0,256.52163431105504,167.71274434776765,323.94446172338365
106208,8029,106208.0,36792.0,106208.0,34466.0,255.25554837348852,165.51363198008136,319.75499158223374
106208,8023,106208.0,36791.0,106208.0,34468.0,253.95673648879472,163.3419016721598,315.60522703791
106219,8028,106219.0,36756.0,106219.0,34462.0,252.62821095681278,161.19972743910336,311.5007624361835
106219,8022,106219.0,36763.0,106219.0,34444.0,251.2730689984947,159.08939207818335,307.44725856152337
106219,8012,106219.0,36744.0,106219.0,34436.0,249.89447357554957,157.01297466442992,303.4503617266821
106219,8025,106219.0,36772.0,106219.0,34436.0,248.49560476665897,154.9721220618281,299.51551404902233
106219,8030,106219.0,36797.0,106219.0,34443.0,247.07966659463796,152.96814925439634,295.6478490095458
106219,8024,106219.0,36774.0,106219.0,34432.0,245.65003217374766,151.00246237132262,291.85225913940315
106229,8008,106229.0,36762.0,106229.0,34430.0,244.21036112785748,149.0769056870518,288.1335041259883
106229,8014,106229.0,36741.0,106229.0,34412.0,242.7645292961849,147.19366625500433,284.4962114481606
106229,7989,106229.0,36715.0,106229.0,34410.0,241.31644751042018,145.35483325448683,280.94475522064386
106229,7998,106229.0,36754.0,106229.0,34429.0,239.86986241140414,143.56192970862344,277.48314666422004
106229,8015,106229.0,36778.0,106229.0,34420.0,238.42823024902464,141.81582732478176,274.1151181951275
106229,7997,106229.0,36772.0,106229.0,34403.0,236.99479103972223,140.1172083298611,270.84431398329696
106239,7997,106239.0,36746.0,106239.0,34400.0,235.57270535705834,138.46707643341873,267.67430353697625
106239,8006,106239.0,36726.0,106239.0,34387.0,234.16506342046284,136.8667623936554,264.60840402958763
106239,7998,106239.0,36733.0,106239.0,34384.0,232.7748837547954,135.3175152203924,261.6494873184014
106239,8000,106239.0,36763.0,106239.0,34405.0,231.40517822179106,133.82020716486065,258.7998889253614
106239,7984,106239.0,36768.0,106239.0,34388.0,230.0589639263571,132.3755086326338,256.06149983677074
106239,7997,106239.0,36737.0,106239.0,34402.0,228.73918952112925,130.98429621512716,253.43596212011215
106250,7979,106250.0,36730.0,106250.0,34377.0,227.44866080857395,129.64775348253806,250.92478616038795
106250,7970,106250.0,36714.0,106250.0,34369.0,226.18995947558378,128.36705320454632,248.5293004177681
106250,7984,106250.0,36730.0,106250.0,34379.0,224.96530225499026,127.1429791608783,246.2504721088189
106250,7988,106250.0,36750.0,106250.0,34387.0,223.7764820921881,125.97582546843309,244.08881935468528
106250,7991,106250.0,36765.0,106250.0,34394.0,222.6250146922099,124.86568065722632,242.0445786862219
106250,7978,106250.0,36719.0,106250.0,34370.0,221.51232646709371,123.81283542339112,240.11795384798478
106260,7974,106260.0,36715.0,106260.0,34362.0,220.43978348500517,122.81781621852704,238.30915042856142
106260,7974,106260.0,36719.0,106260.0,34362.0,219.4085775643487,121.88100014391733,236.6181639306235
106260,7983,106260.0,36736.0,106260.0,34370.0,218.41963946172606,121.0023251593737,235.04458638257393
106260,7989,106260.0,36749.0,106260.0,34375.0,217.47370661009333,120.18140927306297,233.5876318413681
106260,7984,106260.0,36738.0,106260.0,34374.0,216.57150287827523,119.41789455515504,232.2463160407135
106260,7974,106260.0,36734.0,106260.0,34349.0,215.71386235787102,118.71168207121795,231.01957974182986
106271,7961,106271.0,36705.0,106271.0,34344.0,214.90166561155263,118.0628735856716,229.90617368310473
106271,7967,106271.0,36714.0,106271.0,34349.0,214.13563287840645,117.47146860841558,228.90437599422427
106271,7960,106271.0,36725.0,106271.0,34366.0,213.41614420236905,116.93707582005263,228.01184769874158
106271,7962,106271.0,36736.0,106271.0,34359.0,212.74316741163233,116.45891208019066,227.2257680222285
106271,7978,106271.0,36732.0,106271.0,34348.0,212.1162757246562,116.03605058097531,226.54303101926345
106271,7973,106271.0,36708.0,106271.0,34357.0,211.53477724438704,115.66759842195358,225.96027290500308
106281,7966,106281.0,36706.0,106281.0,34348.0,210.99788552292048,115.35257697839515,225.47380304450587
106281,7970,106281.0,36714.0,106281.0,34346.0,210.50477134374188,115.08963461093677,225.07956215546307
106281,7973,106281.0,36733.0,106281.0,34377.0,210.05453419664744,114.87693578196712,224.77313617602363
106281,7978,106281.0,36755.0,106281.0,34360.0,209.6462432267523,114.71240268663789,224.5499169953738
106281,7967,106281.0,36727.0,106281.0,34362.0,209.2790335202275,114.59413743886103,224.4053312624241
106281,7970,106281.0,36709.0,106281.0,34334.0,208.95213835690294,114.52060394231674,224.33485814700697
106291,7960,106291.0,36687.0,106291.0,34346.0,208.66482710169083,114.49032058920778,224.33379167931702
106291,7957,106291.0,36709.0,106291.0,34355.0,208.4162953058908,114.50133097025386,224.3970108990207
106291,7964,106291.0,36731.0,106291.0,34355.0,208.20555358899034,114.55096060157683,224.51898664822562
106291,7960,106291.0,36740.0,106291.0,34364.0,208.0313821110302,114.63606817728038,224.693958391467
106291,7958,106291.0,36730.0,106291.0,34355.0,207.8923506682902,114.75350001637804,224.91609303392482
106291,7948,106291.0,36699.0,106291.0,34350.0,207.7867992189101,114.90027829934353,225.17953485499282
106302,7950,106302.0,36702.0,106302.0,34352.0,207.71273233984758,115.07335117823767,225.4783366261832
106302,7966,106302.0,36727.0,106302.0,34365.0,207.66773492686804,115.26922662940422,225.80638947857864
106302,7977,106302.0,36742.0,106302.0,34373.0,207.64907514719698,115.48396774728977,226.1575115854621
106302,7966,106302.0,36745.0,106302.0,34373.0,207.65397246055517,115.71358197151976,226.52567764296992
106302,7961,106302.0,36717.0,106302.0,34364.0,207.6797758060168,115.95437534301885,226.90520721130883
106302,7954,106302.0,36712.0,106302.0,34346.0,207.72390633513007,116.20291978817264,227.29074616446317
106312,7950,106312.0,36704.0,106312.0,34346.0,207.78367405795754,116.45570640405171,227.67702726627584
106312,7964,106312.0,36732.0,106312.0,34369.0,207.85613443208277,116.70885115150861,228.05862456214774
106312,7970,106312.0,36747.0,106312.0,34364.0,207.93810640608888,116.95815258227728,228.42996484179284
106312,7961,106312.0,36733.0,106312.0,34369.0,208.026333799132,117.19944506085741,228.78553968447932
106312,7969,106312.0,36730.0,106312.0,34357.0,208.11761405466888,117.42886715512326,229.1200470868499
106312,7950,106312.0,36711.0,106312.0,34362.0,208.208799357504,117.64280248143592,229.42837178228928
106322,7965,106322.0,36739.0,106322.0,34361.0,208.29671676284963,117.83765907355159,229.70550965584084
106322,7971,106322.0,36752.0,106322.0,34377.0,208.3781248152741,118.00983547276815,229.94656796170568
106322,7978,106322.0,36747.0,106322.0,34379.0,208.44982818298286,118.15599305429278,230.14690626325853
106322,7961,106322.0,36732.0,106322.0,34361.0,208.50886339113038,118.27332912254106,230.3023170659613
106322,7960,106322.0,36712.0,106322.0,34360.0,208.5525311233592,118.35951494391773,230.40903582478157
106322,7972,106322.0,36716.0,106322.0,34339.0,208.57828328159877,118.4123453537413,230.463527845351
106333,7958,106333.0,36737.0,106333.0,34377.0,208.58366523980303,118.42944000014033,230.4622505263874
106333,7971,106333.0,36747.0,106333.0,34361.0,208.56634170663676,118.40829176162852,230.40163997672516
106333,7971,106333.0,36750.0,106333.0,34361.0,208.52413747009896,118.34660372667332,230.27828367071757
106333,7967,106333.0,36737.0,106333.0,34363.0,208.45510928835375,118.24259101832065,230.0890101014952
106333,7958,106333.0,36711.0,106333.0,34352.0,208.35758423732756,118.09498849887595,229.83084697156187
106333,7950,106333.0,36720.0,106333.0,34355.0,208.23006136821155,117.90275226974089,229.50094920862378
106343,7958,106343.0,36743.0,106343.0,34368.0,208.0710354177545,117.6647727331271,229.0965535669712
106343,7964,106343.0,36749.0,106343.0,34371.0,207.8789105899018,117.37995542580465,228.61506513923484
106343,7962,106343.0,36761.0,106343.0,34363.0,207.65207528821912,117.04760490022738,228.05425158138956
106343,7958,106343.0,36717.0,106343.0,34359.0,207.38901642706287,116.6677231310501,227.41234680824147
106343,7957,106343.0,36711.0,106343.0,34335.0,207.0883438545028,116.24089664812863,226.68795494924723
106343,7945,106343.0,36693.0,106343.0,34347.0,206.74872493526084,115.76780275268956,225.87980723908652
106353,7960,106353.0,36727.0,106353.0,34371.0,206.3687900504992,115.24874561736522,224.98660461696824
106353,7971,106353.0,36755.0,106353.0,34358.0,205.9471365520983,114.68365127990894,224.00716868522142
106353,7956,106353.0,36725.0,106353.0,34345.0,205.4824939501476,114.07250937867408,222.94069262428357
106353,7943,106353.0,36705.0,106353.0,34338.0,204.97383181607165,113.41569093987941,221.7867278309443
106353,7948,106353.0,36696.0,106353.0,34330.0,204.42022830708817,112.7137233051766,220.54494475573838
106353,7936,106353.0,36703.0,106353.0,34340.0,203.82065719598074,111.9668277697114,219.2149229435978
106364,7952,106364.0,36718.0,106364.0,34354.0,203.1738775960588,111.1747015620804,217.79613421101408
106364,7956,106364.0,36740.0,106364.0,34342.0,202.4784709373915,110.33668379764447,216.28813111499883
106364,7967,106364.0,36736.0,106364.0,34356.0,201.733035351996,109.45217589481841,214.69077275966927
106364,7950,106364.0,36712.0,106364.0,34330.0,200.93642823033258,108.52099469963254,213.00433617258994
106364,7929,106364.0,36686.0,106364.0,34333.0,200.0878202168769,107.54331834958118,211.22947884993698
106364,7937,106364.0,36710.0,106364.0,34313.0,199.18646961374583,106.51927952323314,209.3670646033095
106374,7952,106374.0,36731.0,106374.0,34341.0,198.23148637500094,105.44872009631102,207.41798422966136
106374,7958,106374.0,36733.0,106374.0,34326.0,197.22189939297328,104.33143504360682,205.38315513532706
106374,7946,106374.0,36710.0,106374.0,34329.0,196.15692794242216,103.16757774732108,203.2636675050523
106374,7931,106374.0,36702.0,106374.0,34318.0,195.0361092320864,101.95774102275975,201.06087056544126
106374,7936,106374.0,36697.0,106374.0,34303.0,193.85916673526543,100.7027037358497,198.77630783842963
106374,7941,106374.0,36706.0,106374.0,34305.0,192.62584192339614,99.4031728607668,196.41154586265904
106384,7941,106384.0,36726.0,106384.0,34317.0,191.33589987891892,98.05976987155769,193.9680379939386
106384,7941,106384.0,36733.0,106384.0,34323.0,189.98925213148527,96.67330596583211,191.44720536840995
106384,7925,106384.0,36697.0,106384.0,34301.0,188.58602875520666,95.24511944097641,188.8506661733386
106384,7933,106384.0,36679.0,106384.0,34297.0,187.12653092218125,93.77706235487994,186.1803197376722
106384,7910,106384.0,36672.0,106384.0,34278.0,185.6111124771565,92.271051432145,183.4381801551505
106384,7927,106384.0,36687.0,106384.0,34291.0,184.04005528344015,90.72859802165756,180.62613544231405
106395,7921,106395.0,36686.0,106395.0,34285.0,182.41350915964313,89.15067726973061,177.74583656299623
106395,7927,106395.0,36709.0,106395.0,34293.0,180.73155508590628,87.53791015329824,174.79876685170547
106395,7920,106395.0,36682.0,106395.0,34276.0,178.99432286721725,85.89084584914978,171.78637440534865
106395,7912,106395.0,36679.0,106395.0,34276.0,177.20204385019474,84.21009549861893,168.71011966175766
106395,7914,106395.0,36681.0,106395.0,34288.0,175.35501035580631,82.49622628053461,165.57145835331647
106395,7917,106395.0,36701.0,106395.0,34277.0,173.453526816098,80.74966873652792,162.3719095417077
106405,7920,106405.0,36711.0,106405.0,34273.0,171.49795783819448,78.97090446034498,159.1131864237547
106405,7910,106405.0,36685.0,106405.0,34249.0,169.4888428287417,77.16080866380625,155.79719760399462
106405,7900,106405.0,36673.0,106405.0,34241.0,167.42693550523154,75.3207651179411,152.42584390057715
106405,7900,106405.0,36636.0,106405.0,34246.0,165.31310958804627,73.45236321020363,149.0007401417634
106405,7896,106405.0,36670.0,106405.0,34251.0,163.14823385855107,71.55689563739631,145.52309057336686
106405,7900,106405.0,36668.0,106405.0,34264.0,160.93312785993794,69.63509583398167,141.99382912943787
106415,7904,106415.0,36692.0,106415.0,34258.0,158.668616426075,67.68732556256955,138.41392536241932
106415,7901,106415.0,36673.0,106415.0,34239.0,156.35565670207012,65.7139738424255,134.784635412576
106415,7892,106415.0,36654.0,106415.0,34234.0,153.99545465527268,63.71567662229983,131.1075117996927
106415,7876,106415.0,36653.0,106415.0,34217.0,151.58945164458976,61.69318921355382,127.38420842145234
106415,7890,106415.0,36673.0,106415.0,34230.0,149.13918707970353,59.64715228508494,123.61627700964985
106415,7892,106415.0,36684.0,106415.0,34238.0,146.64623342418915,57.5781419735445,119.80513914966909
106426,7878,106426.0,36683.0,106426.0,34226.0,144.11229860710878,55.487024323687606,115.95227428644921
106426,7873,106426.0,36643.0,106426.0,34218.0,141.5393015141856,53.375231553893215,112.05941320145809
106426,7865,106426.0,36629.0,106426.0,34204.0,138.92928491320137,51.244599894565724,108.12853049085793
106426,7850,106426.0,36631.0,106426.0,34188.0,136.28424670023077,49.09686204541936,104.1616622956519
106426,7866,106426.0,36645.0,106426.0,34197.0,133.60598249289774,46.93326976993474,100.16067873895513
106426,7866,106426.0,36659.0,106426.0,34200.0,130.8960568825238,44.75464001347038,96.12718302148406
106436,7865,106436.0,36659.0,106436.0,34207.0,128.1559579266857,42.561701057173465,92.06264639524525
106436,7853,106436.0,36637.0,106436.0,34185.0,125.38726483716846,40.355410835014354,87.96864337192406
106436,7848,106436.0,36614.0,106436.0,34169.0,122.59166286792777,38.136949900216706,83.84691593714695
106436,7837,106436.0,36631.0,106436.0,34172.0,119.77082963533039,35.90740722292958,79.69919386402
106436,7852,106436.0,36657.0,106436.0,34183.0,116.9263203104415,33.667589834002484,75.52703212893834
106436,7845,106436.0,36646.0,106436.0,34175.0,114.05958114709307,31.418263885162204,71.33189607725606
106446,7839,106446.0,36624.0,106446.0,34172.0,111.17206903358505,29.160505325847993,67.11536679256218
106446,7831,106446.0,36609.0,106446.0,34148.0,108.26530702737223,26.895680548097047,62.87921770202527
106446,7821,106446.0,36596.0,106446.0,34144.0,105.34080701787664,24.625073153744538,58.625285463399536
106446,7836,106446.0,36620.0,106446.0,34139.0,102.39996672483989,22.349523095576117,54.35524840453937
106446,7826,106446.0,36628.0,106446.0,34147.0,99.44408061957382,20.069391829861118,50.07050673380277
106446,7827,106446.0,36635.0,106446.0,34155.0,96.47445460432705,17.784875713905777,45.77227577135645
106457,7825,106457.0,36641.0,106457.0,34137.0,93.49249893551902,15.496418715544493,41.461817276192534
106457,7799,106457.0,36598.0,106457.0,34129.0,90.49973054028816,13.204951221034833,37.140584193642496
106457,7805,106457.0,36591.0,106457.0,34129.0,87.49764825311809,10.911752551975042,32.810173546137065
106457,7801,106457.0,36611.0,106457.0,34115.0,84.48755377789301,8.618054537704609,28.472227055306178
106457,7810,106457.0,36615.0,106457.0,34136.0,81.47050653327899,6.324869772386677,24.12841503216515
106457,7806,106457.0,36636.0,106457.0,34116.0,78.44744674208292,4.033244865692808,19.780535860521212
106467,7788,106467.0,36599.0,106467.0,34107.0,75.41932685485776,1.7446310468104116,15.430633878753724
106467,7775,106467.0,36573.0,106467.0,34086.0,72.38706711727134,-0.5390609915791345,11.080939299478246
106467,7785,106467.0,36562.0,106467.0,34083.0,69.35134941616761,-2.815885977633144,6.733619982009202
106467,7793,106467.0,36582.0,106467.0,34085.0,66.31251448206999,-5.084406485846273,2.3905493822504695
106467,7788,106467.0,36600.0,106467.0,34098.0,63.270708133482444,-7.343834890488694,-1.9467191596397413
106467,7784,106467.0,36568.0,106467.0,34081.0,60.2260964390517,-9.593772868279217,-6.276767807931634
106477,7777,106477.0,36576.0,106477.0,34073.0,57.17895551298025,-11.834017979736075,-10.598143981864098
106477,7762,106477.0,36560.0,106477.0,34053.0,54.129623793734865,-14.064655905927822,-14.909406888494289
106477,7761,106477.0,36580.0,106477.0,34061.0,51.07836334210944,-16.286197525664576,-19.209326126684545
106477,7778,106477.0,36604.0,106477.0,34071.0,48.025251571256206,-18.499485605003372,-23.49698349159172
106477,7769,106477.0,36609.0,106477.0,34068.0,44.97026529725399,-20.705284065695707,-27.771624217639953
106477,7760,106477.0,36587.0,106477.0,34055.0,41.91347008620592,-22.903784561914534,-32.032407447351176
106488,7754,106488.0,36549.0,106488.0,34043.0,38.855074073918416,-25.09448973007352,-36.27832106098239
106488,7744,106488.0,36551.0,106488.0,34025.0,35.79532399351156,-27.276618814555093,-40.508323631615326
106488,7748,106488.0,36541.0,106488.0,34014.0,32.73438101679167,-29.44966534182049,-44.72161639972654
106488,7758,106488.0,36586.0,106488.0,34041.0,29.672297824680527,-31.613639384526692,-48.91786721183175
106488,7745,106488.0,36569.0,106488.0,34044.0,26.609141422375075,-33.768844674505516,-53.097137531300035
106488,7737,106488.0,36575.0,106488.0,34032.0,23.545118011689823,-35.9154597212586,-57.259528724070634
106498,7738,106498.0,36540.0,106498.0,34012.0,20.480554208803767,-38.053347911210835,-61.404936175404714
106498,7730,106498.0,36547.0,106498.0,34008.0,17.415819595645985,-40.18222610255292,-65.5331358705499
106498,7733,106498.0,36571.0,106498.0,34028.0,14.351301898327847,-42.30189625757001,-69.6439605982672
106498,7724,106498.0,36558.0,106498.0,34016.0,11.287420614186573,-44.4121900176669,-73.73724806145967
106498,7725,106498.0,36561.0,106498.0,34006.0,8.224642647094015,-46.512717295698025,-77.81263982671041
106498,7725,106498.0,36545.0,106498.0,34003.0,5.163501959901566,-48.60275078325357,-81.86951241735136
106509,7698,106509.0,36541.0,106509.0,33987.0,2.10460299066051,-50.68131114638702,-85.90706484846629
106509,7704,106509.0,36523.0,106509.0,33974.0,-0.9514832523682912,-52.747359842312164,-89.92446953338967
106509,7697,106509.0,36539.0,106509.0,33986.0,-4.00439805647116,-54.800012567065764,-93.92104611244332
106509,7718,106509.0,36548.0,106509.0,33981.0,-7.054042429816036,-56.8386033738322,-97.8963226409333
106509,7715,106509.0,36540.0,106509.0,33983.0,-10.100391912989693,-58.862516518340016,-101.84991940024781
106509,7693,106509.0,36515.0,106509.0,33970.0,-13.14324270386868,-60.871028900637086,-105.78140510439997
106519,7683,106519.0,36516.0,106519.0,33959.0,-16.182178491220157,-62.8634322789153,-109.69027324822429
106519,7699,106519.0,36531.0,106519.0,33967.0,-19.21675598144148,-64.8392754048335,-113.57602444689013
106519,7692,106519.0,36528.0,106519.0,33961.0,-22.246583313610415,-66.7983861178306,-117.43820705252978
106519,7695,106519.0,36566.0,106519.0,33978.0,-25.271190191704022,-68.74061067858014,-121.27630880867997
106519,7682,106519.0,36508.0,106519.0,33951.0,-28.289894143773495,-70.66546867481296,-125.08956431828477
106519,7658,106519.0,36498.0,106519.0,33920.0,-31.301830893774223,-72.57210801432046,-128.8769232144977
106529,7658,106529.0,36483.0,106529.0,33919.0,-34.30618529526794,-74.45975227392432,-132.63736726508967
106529,7661,106529.0,36502.0,106529.0,33935.0,-37.30246500330992,-76.32823163721957,-136.37030931162894
106529,7669,106529.0,36530.0,106529.0,33937.0,-40.29057001564598,-78.17808746504704,-140.07564099868324
106529,7671,106529.0,36527.0,106529.0,33943.0,-43.27062571969586,-80.0101978867321,-143.753445502016
106529,7655,106529.0,36513.0,106529.0,33929.0,-46.2427676566291,-81.82530283388303,-147.4036909628311
106529,7648,106529.0,36496.0,106529.0,33913.0,-49.20708037320213,-83.62385954522784,-151.02612116777544
106540,7644,106540.0,36503.0,106540.0,33918.0,-52.163714643350005,-85.40624066379306,-154.6203596681105
106540,7655,106540.0,36515.0,106540.0,33904.0,-55.11299889880385,-87.1729167134373,-158.1860614023949
106540,7659,106540.0,36531.0,106540.0,33924.0,-58.055370824510305,-88.92434569299994,-161.72295196064897
106540,7650,106540.0,36515.0,106540.0,33917.0,-60.99116756060627,-90.66064667587833,-165.2307120042526
106540,7650,106540.0,36479.0,106540.0,33891.0,-63.92046068178874,-92.38143583852093,-168.70881815673653
106540,7632,106540.0,36505.0,106540.0,33880.0,-66.84303915564666,-94.0860455010031,-172.15659941384985
106550,7628,106550.0,36470.0,106550.0,33891.0,-69.75852004177017,-95.77385906012793,-175.57350908980726
106550,7626,106550.0,36476.0,106550.0,33874.0,-72.66651408429004,-97.44453112977655,-178.95930269163807
106550,7635,106550.0,36507.0,106550.0,33897.0,-75.5667106203488,-99.09810504750305,-182.31401245751715
106550,7616,106550.0,36497.0,106550.0,33885.0,-78.45882920035831,-100.73488205073718,-185.63780154025477
106550,7620,106550.0,36488.0,106550.0,33868.0,-81.34257351990365,-102.35510890600145,-188.93080914214806
106550,7610,106550.0,36475.0,106550.0,33867.0,-84.21767469326349,-103.95887860902613,-192.1931626615049
106560,7613,106560.0,36473.0,106560.0,33872.0,-87.08394697762876,-105.54631093230779,-195.42511232578573
106560,7616,106560.0,36519.0,106560.0,33878.0,-89.94127905596147,-107.11767080860662,-198.62703331946
106560,7614,106560.0,36484.0,106560.0,33875.0,-92.78954469592978,-108.67315944024122,-201.7992468306174
106560,7601,106560.0,36480.0,106560.0,33852.0,-95.62849957306307,-110.21263513955256,-204.94186237827125
106560,7592,106560.0,36460.0,106560.0,33845.0,-98.45779378176275,-111.73568887695512,-208.05483973669993
106560,7597,106560.0,36461.0,106560.0,33845.0,-101.27709801906633,-113.24198954479297,-211.13822188412553
106571,7596,106571.0,36454.0,106571.0,33831.0,-104.08617953133984,-114.73158324750247,-214.1923264855888
106571,7596,106571.0,36484.0,106571.0,33837.0,-106.88484486236402,-116.20499484658785,-217.21783721894343
106571,7591,106571.0,36478.0,106571.0,33846.0,-109.67283643139663,-117.663062951997,-220.21580909929446
106571,7590,106571.0,36485.0,106571.0,33838.0,-112.44976996921187,-119.10661357854127,-223.18754123513668
106571,7573,106571.0,36449.0,106571.0,33829.0,-115.2151371068006,-120.53626993035724,-226.13442019428038
106571,7571,106571.0,36449.0,106571.0,33843.0,-117.96839741438976,-121.95259661316186,-229.05786750499897
106581,7576,106581.0,36484.0,106581.0,33828.0,-120.70910729030993,-123.3563718344154,-231.9593042302762
106581,7567,106581.0,36492.0,106581.0,33833.0,-123.43696024635994,-124.74851604651326,-234.840073883145
106581,7572,106581.0,36469.0,106581.0,33833.0,-126.15173860419833,-126.1296729617244,-237.7013823266065
106581,7567,106581.0,36447.0,106581.0,33804.0,-128.8532555387283,-127.50001157715232,-240.5442829483701
