c_ts,c_val,d_ts,d_val,e_ts,e_val,c_val_filtered,d_val_filtered,e_val_filtered
172482.0,3739.0,172482.0,15632.0,172482.0,38833.0,146.61470569157146,52.06673468935104,162.0727460125076
172482.0,3730.0,172482.0,15588.0,172482.0,38784.0,144.4541287086731,50.79347731547287,157.48089195254303
172493.0,3726.0,172493.0,15640.0,172493.0,38773.0,142.17691339040712,49.48594001881787,152.79766866536679
172493.0,3760.0,172493.0,15656.0,172493.0,38833.0,139.78319306608012,48.145554180868146,148.0339446741546
172493.0,3753.0,172493.0,15640.0,172493.0,38785.0,137.2734890258805,46.77378063717044,143.19984137710918
172493.0,3721.0,172493.0,15613.0,172493.0,38786.0,134.64903594656982,45.37249028073664,138.30503924011322
172493.0,3706.0,172493.0,15598.0,172493.0,38758.0,131.9117628259473,43.943795104597186,133.3587642283515
172493.0,3710.0,172493.0,15597.0,172493.0,38772.0,129.06389498178268,42.48954008987404,128.36949058770767
172503.0,3709.0,172503.0,15611.0,172503.0,38765.0,126.10762429594148,41.01093144861601,123.3447684678536
172503.0,3723.0,172503.0,15617.0,172503.0,38769.0,123.04509047970166,39.50851567928569,118.29127932171312
172503.0,3717.0,172503.0,15646.0,172503.0,38802.0,119.87857412641067,37.98246082642016,113.21506621739948
172503.0,3693.0,172503.0,15649.0,172503.0,38736.0,116.61067482261515,36.43302457021245,108.12184777331893
172503.0,3681.0,172503.0,15621.0,172503.0,38760.0,113.24423948962881,34.86099461950474,103.017111957918
172503.0,3671.0,172503.0,15602.0,172503.0,38744.0,109.78204491820699,33.267751291163236,97.90591266408967
172513.0,3700.0,172513.0,15599.0,172513.0,38776.0,106.22653796306918,31.654895584701393,92.79278981178251
172513.0,3700.0,172513.0,15641.0,172513.0,38764.0,102.57992067568668,30.023904116903495,87.68203137390307
172513.0,3694.0,172513.0,15622.0,172513.0,38732.0,98.84450541597772,28.376229775856995,82.57797968748756
172513.0,3670.0,172513.0,15594.0,172513.0,38722.0,95.0229553604851,26.713584962610742,77.48499335283358
172513.0,3664.0,172513.0,15585.0,172513.0,38725.0,91.11818974286017,25.03784680209136,72.4071111233314
172513.0,3667.0,172513.0,15590.0,172513.0,38724.0,87.13312980239374,23.350632837298903,67.34782845953653
172524.0,3658.0,172524.0,15612.0,172524.0,38703.0,83.07055652465094,21.653059148884523,62.3100958980266
172524.0,3654.0,172524.0,15635.0,172524.0,38717.0,78.93310234092229,19.94594393218396,57.29632663028234
172524.0,3676.0,172524.0,15618.0,172524.0,38701.0,74.72330181776326,18.230296618707477,52.30837676713912
172524.0,3652.0,172524.0,15589.0,172524.0,38713.0,70.4437437465785,16.50763717360921,47.34759332227722
172524.0,3638.0,172524.0,15589.0,172524.0,38700.0,66.09720514843428,14.779833879921568,42.414915685672725
172524.0,3651.0,172524.0,15573.0,172524.0,38704.0,61.686584973040155,13.048676098389102,37.510975899111145
172534.0,3649.0,172534.0,15624.0,172534.0,38710.0,57.214829653074275,11.31562716303602,32.63620174682538
172534.0,3647.0,172534.0,15610.0,172534.0,38687.0,52.685054813439905,9.582004249448708,27.79093680238978
172534.0,3612.0,172534.0,15596.0,172534.0,38669.0,48.10065864225362,7.849374699378998,22.975445873066462
172534.0,3610.0,172534.0,15582.0,172534.0,38680.0,43.46516980872873,6.119672944352814,18.189716784703307
172534.0,3609.0,172534.0,15571.0,172534.0,38657.0,38.781935051157305,4.3949327421515605,13.43325682253439
172534.0,3598.0,172534.0,15561.0,172534.0,38655.0,34.053929642461156,2.6769139379499194,8.704989061393974
172544.0,3596.0,172544.0,15581.0,172544.0,38638.0,29.283718958042783,0.9668341545420915,4.003119083647732
172544.0,3604.0,172544.0,15536.0,172544.0,38689.0,24.47346783956675,-0.7347521441764187,-0.6749449087984374
172544.0,3603.0,172544.0,15589.0,172544.0,38665.0,19.625044214798635,-2.428024392627222,-5.332355450183854
172544.0,3582.0,172544.0,15573.0,172544.0,38655.0,14.740184520690292,-4.11385779622929,-9.972422310703848
172544.0,3589.0,172544.0,15580.0,172544.0,38649.0,9.820544802537682,-5.793573124179986,-14.598479167059253
172544.0,3604.0,172544.0,15625.0,172544.0,38673.0,4.867700165158681,-7.468599868645114,-19.21395760690126
172555.0,3574.0,172555.0,15601.0,172555.0,38652.0,-0.11672129863336522,-9.140052733944465,-23.822300045977215
172555.0,3574.0,172555.0,15563.0,172555.0,38651.0,-5.130923958691142,-10.8083873609011,-28.42677216234921
172555.0,3558.0,172555.0,15553.0,172555.0,38630.0,-10.173043809228147,-12.473596661154623,-33.030449964953334
172555.0,3551.0,172555.0,15549.0,172555.0,38627.0,-15.241342001404718,-14.135820251121267,-37.636393536132175
172555.0,3553.0,172555.0,15565.0,172555.0,38638.0,-20.33434912290653,-15.79577807922378,-42.24781914333866
172555.0,3548.0,172555.0,15532.0,172555.0,38671.0,-25.45090968770853,-17.45487038694055,-46.86801665811882
172565.0,3561.0,172565.0,15593.0,172565.0,38643.0,-30.590096529144972,-19.115136231491597,-51.499937304763165
172565.0,3557.0,172565.0,15604.0,172565.0,38626.0,-35.75100727912127,-20.778973388651806,-56.145836145032916
172565.0,3536.0,172565.0,15584.0,172565.0,38621.0,-40.93255224856341,-22.448540650729278,-60.80733550185951
172565.0,3531.0,172565.0,15575.0,172565.0,38604.0,-46.13342194798477,-24.125334212550456,-65.48573116469072
172565.0,3516.0,172565.0,15579.0,172565.0,38598.0,-51.35225249909968,-25.810239615159908,-70.18226205024678
172565.0,3530.0,172565.0,15606.0,172565.0,38652.0,-56.58779065610281,-27.50365041078539,-74.8981955447243
172575.0,3514.0,172575.0,15565.0,172575.0,38614.0,-61.83891074955753,-29.205354011317077,-79.6345524259221
172575.0,3514.0,172575.0,15545.0,172575.0,38592.0,-67.10453823498634,-30.91451862138544,-84.3917506026169
172575.0,3503.0,172575.0,15569.0,172575.0,38602.0,-72.38361547377806,-32.63003422697187,-89.16966345333034
172575.0,3482.0,172575.0,15532.0,172575.0,38589.0,-77.67516644723887,-34.35086970342688,-93.96789442967068
172575.0,3498.0,172575.0,15467.0,172575.0,38566.0,-82.97843210693145,-36.076413694746684,-98.78592592069279
172575.0,3481.0,172575.0,15606.0,172575.0,38587.0,-88.2929509229001,-37.80697130766829,-103.62324762335868
172586.0,3484.0,172586.0,15577.0,172586.0,38587.0,-93.61851989633149,-39.54369417116281,-108.47941384402708
172586.0,3487.0,172586.0,15573.0,172586.0,38566.0,-98.95511497843594,-41.28769291432988,-113.35390630275282
172586.0,3489.0,172586.0,15551.0,172586.0,38566.0,-104.30276281037442,-43.03942888783912,-118.24604328058624
172586.0,3468.0,172586.0,15543.0,172586.0,38554.0,-109.66137188366312,-44.798866745116854,-123.15507881308932
172586.0,3476.0,172586.0,15546.0,172586.0,38572.0,-115.03066276023566,-46.565847538024826,-128.08029565400545
172586.0,3501.0,172586.0,15560.0,172586.0,38579.0,-120.41011640986582,-48.340275558645715,-133.02089573491864
172596.0,3451.0,172596.0,15562.0,172596.0,38555.0,-125.79877270923416,-50.12202988728157,-137.97573266961643
172596.0,3443.0,172596.0,15519.0,172596.0,38547.0,-131.1951563717979,-51.91081314092736,-142.94317774920097
172596.0,3422.0,172596.0,15502.0,172596.0,38511.0,-136.59760354245154,-53.70634621759061,-147.92131779252574
172596.0,3412.0,172596.0,15509.0,172596.0,38522.0,-142.00473411457642,-55.50892523344211,-152.90836348162162
172596.0,3430.0,172596.0,15560.0,172596.0,38546.0,-147.4157480486271,-57.319767945657475,-157.9029242103214
172596.0,3431.0,172596.0,15556.0,172596.0,38535.0,-152.83041621684274,-59.14070443197048,-162.90387225468848
172606.0,3442.0,172606.0,15572.0,172606.0,38537.0,-158.24878603890394,-60.97349126443086,-167.90998249534903
172606.0,3443.0,172606.0,15533.0,172606.0,38539.0,-163.67078405572198,-62.81933802776382,-172.91969176627092
172606.0,3419.0,172606.0,15522.0,172606.0,38509.0,-169.0959097234824,-64.67893552360667,-177.93102239717683
172606.0,3406.0,172606.0,15566.0,172606.0,38506.0,-174.5231843569416,-66.55276301448032,-182.94167607504625
172606.0,3418.0,172606.0,15561.0,172606.0,38510.0,-179.95132488515355,-68.44111391524328,-187.94925761532824
172606.0,3405.0,172606.0,15544.0,172606.0,38491.0,-185.37885508430924,-70.3437589688395,-192.95142027485818
172617.0,3387.0,172617.0,15528.0,172617.0,38511.0,-190.80408754690166,-72.25979735046826,-197.94588006737334
172617.0,3362.0,172617.0,15532.0,172617.0,38458.0,-196.2252395183998,-74.18788998636869,-202.93043070070925
172617.0,3399.0,172617.0,15492.0,172617.0,38472.0,-201.6406927743634,-76.12660393729168,-207.90311301291868
172617.0,3371.0,172617.0,15485.0,172617.0,38452.0,-207.04905963471663,-78.07481931637392,-212.8625288599984
172617.0,3364.0,172617.0,15548.0,172617.0,38495.0,-212.44904707332466,-80.03209759697494,-217.80800203131625
172617.0,3366.0,172617.0,15563.0,172617.0,38498.0,-217.839434669355,-81.99849529723056,-222.7393292274694
172627.0,3365.0,172627.0,15515.0,172627.0,38486.0,-223.21913204130146,-83.97386555722633,-227.65626076428384
172627.0,3355.0,172627.0,15521.0,172627.0,38460.0,-228.5871316468656,-85.95750971667026,-232.55817647186672
172627.0,3344.0,172627.0,15505.0,172627.0,38471.0,-233.94245817152745,-87.948448056893,-237.44417941178403
172627.0,3360.0,172627.0,15529.0,172627.0,38480.0,-239.2841873941465,-89.94573904189417,-242.31326745095043
172627.0,3369.0,172627.0,15536.0,172627.0,38481.0,-244.61135242914912,-91.94846662961109,-247.1642326200165
172627.0,3335.0,172627.0,15495.0,172627.0,38440.0,-249.9226928568242,-93.95554543900687,-251.9954643547881
172637.0,3325.0,172637.0,15503.0,172637.0,38420.0,-255.21657259488995,-95.96574247612696,-256.8050897376257
172637.0,3317.0,172637.0,15518.0,172637.0,38428.0,-260.4912244038548,-97.97792759700701,-261.59146698060164
172637.0,3307.0,172637.0,15503.0,172637.0,38402.0,-265.74505394789065,-99.99115609825044,-266.3536234170765
172637.0,3302.0,172637.0,15504.0,172637.0,38436.0,-270.9768193080183,-102.00457740023964,-271.09142353748956
172637.0,3312.0,172637.0,15521.0,172637.0,38477.0,-276.18570016375816,-104.01739043953035,-275.80538210455023
172637.0,3316.0,172637.0,15541.0,172637.0,38423.0,-281.37121013863543,-106.02869806914143,-280.4961041443968
172648.0,3297.0,172648.0,15501.0,172648.0,38424.0,-286.53298674196265,-108.03719573735809,-285.1638820181006
172648.0,3288.0,172648.0,15497.0,172648.0,38398.0,-291.67068962967045,-110.04107493610891,-289.8088785879759
172648.0,3285.0,172648.0,15469.0,172648.0,38399.0,-296.78410433678386,-112.038355976108,-294.43156255717327
172648.0,3301.0,172648.0,15486.0,172648.0,38441.0,-301.87323697976177,-114.02736682424974,-299.0329183782659
172648.0,3289.0,172648.0,15509.0,172648.0,38402.0,-306.9382056600046,-116.0069673671047,-303.6142688182384
172648.0,3266.0,172648.0,15490.0,172648.0,38413.0,-311.9790823729475,-117.97638558739712,-308.17699144756676
172658.0,3277.0,172658.0,15476.0,172658.0,38381.0,-316.99593029095234,-119.93499555746217,-312.7225155445407
172658.0,3270.0,172658.0,15472.0,172658.0,38384.0,-321.98892511476254,-121.8824055929989,-317.25256294555027
172658.0,3266.0,172658.0,15459.0,172658.0,38405.0,-326.9583500257082,-123.81875135417717,-321.769351498589
172658.0,3238.0,172658.0,15496.0,172658.0,38386.0,-331.9045816091953,-125.74488427615871,-326.2755566686938
172658.0,3261.0,172658.0,15523.0,172658.0,38405.0,-336.8282084010866,-127.6621942646265,-330.7741061032509
172658.0,3262.0,172658.0,15499.0,172658.0,38395.0,-341.7300857449441,-129.57206258493312,-335.2679952801737
172668.0,3256.0,172668.0,15465.0,172668.0,38376.0,-346.6111529029978,-131.4754832145506,-339.76018283641946
172668.0,3242.0,172668.0,15457.0,172668.0,38371.0,-351.4722269099264,-133.3733120015776,-344.2536565502845
172668.0,3239.0,172668.0,15495.0,172668.0,38377.0,-356.3139997984019,-135.26676718500875,-348.75163143195044
172668.0,3260.0,172668.0,15507.0,172668.0,38391.0,-361.1370975119935,-137.1574790166186,-353.2576046007256
172668.0,3222.0,172668.0,15511.0,172668.0,38408.0,-365.94201025517594,-139.04701761527204,-357.7751110206696
172668.0,3216.0,172668.0,15472.0,172668.0,38371.0,-370.7290723484004,-140.93646362245593,-362.30734997813636
172679.0,3207.0,172679.0,15451.0,172679.0,38327.0,-375.49868989679175,-142.82650528092006,-366.857139551814
172679.0,3218.0,172679.0,15447.0,172679.0,38364.0,-380.2515936517588,-144.71799511834908,-371.42737908361306
172679.0,3180.0,172679.0,15507.0,172679.0,38377.0,-384.9889268213172,-146.61238540258336,-376.0214205374788
172679.0,3212.0,172679.0,15486.0,172679.0,38386.0,-389.7123054169892,-148.5115445033956,-380.6428245086929
172679.0,3214.0,172679.0,15498.0,172679.0,38373.0,-394.4238126500467,-150.417211127745,-385.2948427868451
172679.0,3203.0,172679.0,15453.0,172679.0,38362.0,-399.12576947707674,-152.33072789147843,-389.9801535299958
172689.0,3188.0,172689.0,15477.0,172689.0,38331.0,-403.82051598180436,-154.25322214346056,-394.7009683494496
172689.0,3196.0,172689.0,15475.0,172689.0,38346.0,-408.51043827218007,-156.18586972985807,-399.45936955904807
172689.0,3197.0,172689.0,15498.0,172689.0,38362.0,-413.1980384472287,-158.12987536805662,-404.25754360244815
172689.0,3203.0,172689.0,15478.0,172689.0,38350.0,-417.8858310200299,-160.08621006718698,-409.09766167365603
172689.0,3184.0,172689.0,15464.0,172689.0,38341.0,-422.5761567851133,-162.0554516144024,-413.9816361417249
172689.0,3184.0,172689.0,15453.0,172689.0,38348.0,-427.2711103520727,-164.03794261114646,-418.9110582943546
172699.0,3161.0,172699.0,15451.0,172699.0,38300.0,-431.9726379354007,-166.0341304507065,-423.8873051986805
172699.0,3172.0,172699.0,15433.0,172699.0,38279.0,-436.68271426542447,-168.04486863731432,-428.9118743151045
172699.0,3154.0,172699.0,15435.0,172699.0,38323.0,-441.40347915687926,-170.07166121473844,-433.98689927045405
172699.0,3171.0,172699.0,15468.0,172699.0,38299.0,-446.13727295874065,-172.11679765703735,-439.11536104656045
172699.0,3159.0,172699.0,15487.0,172699.0,38337.0,-450.8865708163278,-174.18313330305864,-444.3008265455849
172699.0,3157.0,172699.0,15461.0,172699.0,38327.0,-455.65387233548756,-176.27356788096864,-449.54702609200666
172710.0,3144.0,172710.0,15483.0,172710.0,38316.0,-460.441659898712,-178.39066927776122,-454.85748630000086
172710.0,3167.0,172710.0,15451.0,172710.0,38324.0,-465.2524154352074,-180.53661448127266,-460.2353497337591
172710.0,3149.0,172710.0,15467.0,172710.0,38317.0,-470.0885397398742,-182.71327964567996,-465.6833448241702
172710.0,3143.0,172710.0,15481.0,172710.0,38289.0,-474.95221068955857,-184.9223031468541,-471.2037926146571
172710.0,3129.0,172710.0,15425.0,172710.0,38274.0,-479.84538872329523,-187.16506287891835,-476.7987858371342
172710.0,3123.0,172710.0,15416.0,172710.0,38291.0,-484.76998368257324,-189.44286927164896,-482.4705341704316
172720.0,3110.0,172720.0,15414.0,172720.0,38262.0,-489.7280534290911,-191.7575318303171,-488.2215841957814
172720.0,3118.0,172720.0,15473.0,172720.0,38275.0,-494.72195929860385,-194.1117446521289,-494.0548735015838
172720.0,3136.0,172720.0,15446.0,172720.0,38299.0,-499.754367018648,-196.50882742690618,-499.97369373239815
172720.0,3124.0,172720.0,15488.0,172720.0,38304.0,-504.828012066146,-198.95212944227993,-505.9813985689388
172720.0,3103.0,172720.0,15452.0,172720.0,38259.0,-509.94544794291926,-201.44456801891332,-512.0809840318315
172720.0,3085.0,172720.0,15435.0,172720.0,38254.0,-515.1091010776923,-203.98849352704974,-518.2750469343122
172731.0,3100.0,172731.0,15448.0,172731.0,38271.0,-520.3215654893411,-206.58590112953965,-524.5661112702387
172731.0,3105.0,172731.0,15488.0,172731.0,38289.0,-525.5857465538187,-209.23860466866898,-530.9567295041536
172731.0,3118.0,172731.0,15464.0,172731.0,38266.0,-530.9046615371008,-211.9479597942517,-537.449166429357
172731.0,3094.0,172731.0,15438.0,172731.0,38259.0,-536.2810971503916,-214.71449852210094,-544.0451087086184
172731.0,3073.0,172731.0,15421.0,172731.0,38226.0,-541.7174761602306,-217.53805801180874,-550.7457400121118
172731.0,3087.0,172731.0,15416.0,172731.0,38203.0,-547.2160321273061,-220.41829831235776,-557.5521392000799
172741.0,3083.0,172741.0,15405.0,172741.0,38218.0,-552.7789825664488,-223.35516992920475,-564.4657869938885
172741.0,3081.0,172741.0,15439.0,172741.0,38278.0,-558.4084677271655,-226.34912277522585,-571.4887277839179
172741.0,3064.0,172741.0,15474.0,172741.0,38252.0,-564.1064309863953,-229.4009047263104,-578.6230485660544
172741.0,3089.0,172741.0,15434.0,172741.0,38211.0,-569.8745844693689,-232.5109801262483,-585.8702071842492
172741.0,3056.0,172741.0,15434.0,172741.0,38203.0,-575.7143525801739,-235.67910855514594,-593.2310152569369
172741.0,3046.0,172741.0,15414.0,172741.0,38211.0,-581.6268439803425,-238.90445014388672,-600.7061057505268
172751.0,3051.0,172751.0,15433.0,172751.0,38238.0,-587.612999700325,-242.18587162468947,-608.2961242542897
172751.0,3062.0,172751.0,15421.0,172751.0,38197.0,-593.6737109280169,-245.52206863674263,-616.0014698956143
172751.0,3040.0,172751.0,15447.0,172751.0,38199.0,-599.8097020480641,-248.91146789522182,-623.8220695446414
172751.0,3038.0,172751.0,15397.0,172751.0,38207.0,-606.0213974650769,-252.352075211495,-631.7574281443352
172751.0,3019.0,172751.0,15390.0,172751.0,38145.0,-612.3089806309761,-255.84156083143074,-639.8067588689493
172751.0,3019.0,172751.0,15396.0,172751.0,38175.0,-618.6725622900155,-259.3776469137501,-647.9692072916031
172762.0,3014.0,172762.0,15411.0,172762.0,38207.0,-625.1123142499046,-262.95838640610714,-656.2440380426333
172762.0,3018.0,172762.0,15400.0,172762.0,38209.0,-631.6284897488586,-266.58206828316855,-664.6303003189996
172762.0,3031.0,172762.0,15413.0,172762.0,38209.0,-638.2212919622957,-270.24698193741153,-673.1261098864716
172762.0,3033.0,172762.0,15402.0,172762.0,38175.0,-644.890582548238,-273.95125124719897,-681.7281749655556
172762.0,3007.0,172762.0,15389.0,172762.0,38157.0,-651.6355617701752,-277.6927667122195,-690.431825104412
172762.0,2996.0,172762.0,15416.0,172762.0,38148.0,-658.4546853120705,-281.46920155240304,-699.2313792255445
172772.0,3002.0,172772.0,15419.0,172772.0,38158.0,-665.345834002215,-285.2779216104254,-708.1204846779567
172772.0,2987.0,172772.0,15408.0,172772.0,38153.0,-672.3064531745479,-289.11569604438233,-717.0921603448364
172772.0,2984.0,172772.0,15371.0,172772.0,38145.0,-679.3335645958222,-292.97854483547394,-726.1386290077903
172772.0,2965.0,172772.0,15387.0,172772.0,38112.0,-686.4237987712372,-296.8619721334604,-735.2512326337466
172772.0,2976.0,172772.0,15350.0,172772.0,38087.0,-693.5734841508252,-300.761354862846,-744.420651421761
172772.0,2957.0,172772.0,15381.0,172772.0,38097.0,-700.7786921587647,-304.67221757669734,-753.6373439149012
172782.0,2968.0,172782.0,15378.0,172782.0,38095.0,-708.0352037604816,-308.5902925182138,-762.8918381346615
172782.0,2973.0,172782.0,15366.0,172782.0,38092.0,-715.3383976948828,-312.5113690814596,-772.1746817903268
172782.0,2945.0,172782.0,15368.0,172782.0,38096.0,-722.6830706282565,-316.43115744301645,-781.4762319807498
172782.0,2950.0,172782.0,15368.0,172782.0,38079.0,-730.0633472307786,-320.3452899490257,-790.7864688552131
172782.0,2925.0,172782.0,15359.0,172782.0,38095.0,-737.4727714117307,-324.2493288558312,-800.0948598567838
172782.0,2935.0,172782.0,15402.0,172782.0,38087.0,-744.9044473609473,-328.1386712854672,-809.390206069053
172793.0,2932.0,172793.0,15379.0,172793.0,38080.0,-752.3510869197656,-332.00826452209355,-818.6604366069014
172793.0,2920.0,172793.0,15379.0,172793.0,38084.0,-759.8049311241425,-335.8522552487518,-827.8924404602313
172793.0,2915.0,172793.0,15341.0,172793.0,38052.0,-767.2576655550603,-339.66392906559946,-837.0719989189047
172793.0,2900.0,172793.0,15326.0,172793.0,38054.0,-774.7004430755346,-343.4360619021563,-846.1838493601522
172793.0,2902.0,172793.0,15354.0,172793.0,38015.0,-782.1239676771976,-347.16140831164853,-855.2119051419994
172793.0,2908.0,172793.0,15331.0,172793.0,38034.0,-789.5185162749169,-350.83292820372367,-864.1395491215792
172803.0,2910.0,172803.0,15365.0,172803.0,38072.0,-796.8737975641434,-354.44368141684055,-872.9497179956077
172803.0,2895.0,172803.0,15376.0,172803.0,38011.0,-804.1787130157977,-357.9865340427123,-881.6245958663293
172803.0,2897.0,172803.0,15332.0,172803.0,38035.0,-811.4212045019241,-361.45379815438355,-890.1453243544033
172803.0,2860.0,172803.0,15331.0,172803.0,38005.0,-818.5882759322942,-364.8371532515737,-898.4920698222894
172803.0,2866.0,172803.0,15363.0,172803.0,38019.0,-825.6661852436988,-368.12789419475405,-906.644175117187
172803.0,2887.0,172803.0,15365.0,172803.0,38028.0,-832.6406310964653,-371.3169453273807,-914.5801394627241
172813.0,2881.0,172813.0,15374.0,172813.0,38015.0,-839.4966352110278,-374.394469052884,-922.2774210969501
172813.0,2878.0,172813.0,15328.0,172813.0,37971.0,-846.218189614387,-377.3495427130053,-929.7123021525422
172813.0,2842.0,172813.0,15326.0,172813.0,37968.0,-852.7880699793152,-380.17028657089514,-936.8601483981805
172813.0,2840.0,172813.0,15299.0,172813.0,37971.0,-859.1880037809208,-382.8443623021832,-943.6958986605528
172813.0,2845.0,172813.0,15304.0,172813.0,37958.0,-865.398985382959,-385.3595104829731,-950.1943455724713
172813.0,2830.0,172813.0,15354.0,172813.0,37996.0,-871.4014290126022,-387.70380164903804,-956.3301113157169
172824.0,2836.0,172824.0,15327.0,172824.0,37974.0,-877.1751541642213,-389.86540906697854,-962.0774061935808
172824.0,2826.0,172824.0,15314.0,172824.0,37971.0,-882.6993578667385,-391.8322273994605,-967.4097448965904
172824.0,2806.0,172824.0,15309.0,172824.0,37925.0,-887.9526372018836,-393.5918739346902,-972.2999572349222
172824.0,2813.0,172824.0,15292.0,172824.0,37914.0,-892.9131113140729,-395.1320181316802,-976.7206419245724
172824.0,2805.0,172824.0,15315.0,172824.0,37974.0,-897.5585727718994,-396.4406796573113,-980.6446980082644
172824.0,2817.0,172824.0,15353.0,172824.0,37958.0,-901.866515184341,-397.5062322278543,-984.0453357727552
172834.0,2806.0,172834.0,15334.0,172834.0,37962.0,-905.8140398124922,-398.3170043622588,-986.8956206551637
172834.0,2780.0,172834.0,15287.0,172834.0,37926.0,-909.3778139202832,-398.86092466822146,-989.1682309763588
172834.0,2770.0,172834.0,15277.0,172834.0,37904.0,-912.5342779039269,-399.1258171314103,-990.8357582163499
172834.0,2780.0,172834.0,15281.0,172834.0,37909.0,-915.260023026144,-399.10014847056004,-991.8713361977841
172834.0,2778.0,172834.0,15280.0,172834.0,37923.0,-917.5320187413893,-398.77357428389695,-992.249166981062
172834.0,2783.0,172834.0,15326.0,172834.0,37954.0,-919.3275952505348,-398.1370273405888,-991.94460030178
172844.0,2778.0,172844.0,15349.0,172844.0,37961.0,-920.6243560677173,-397.18235442134346,-990.933789643891
172844.0,2780.0,172844.0,15325.0,172844.0,37905.0,-921.4001447788518,-395.9016861640023,-989.1933588235479
172844.0,2759.0,172844.0,15314.0,172844.0,37905.0,-921.6331071897187,-394.2870805165265,-986.700624235905
172844.0,2761.0,172844.0,15307.0,172844.0,37941.0,-921.3018920758648,-392.33072539947796,-983.4342399523106
172844.0,2776.0,172844.0,15310.0,172844.0,37934.0,-920.385900170061,-390.02536894392057,-979.3745419047347
172844.0,2754.0,172844.0,15360.0,172844.0,37939.0,-918.8654141052366,-387.3645262641659,-974.5034785140454
172855.0,2763.0,172855.0,15300.0,172855.0,37951.0,-916.721686876409,-384.3423597873251,-968.8045736130193
172855.0,2766.0,172855.0,15324.0,172855.0,37930.0,-913.9371088550058,-380.9536320204052,-962.2630558120653
172855.0,2766.0,172855.0,15318.0,172855.0,37902.0,-910.4953467014301,-377.1939859305969,-954.8662013825399
172855.0,2782.0,172855.0,15319.0,172855.0,37954.0,-906.3813920068008,-373.06024145280946,-946.6039194603534
172855.0,2792.0,172855.0,15347.0,172855.0,37992.0,-901.5815363793022,-368.55049981842814,-937.4690841633914
172855.0,2802.0,172855.0,15347.0,172855.0,38027.0,-896.0832592932638,-363.6640861614312,-927.4571667037263
172865.0,2791.0,172865.0,15364.0,172865.0,38001.0,-889.8751303294683,-358.40137296115205,-916.5655805650032
172865.0,2811.0,172865.0,15377.0,172865.0,38040.0,-882.9468577519801,-352.76359362560476,-904.7934056984521
172865.0,2803.0,172865.0,15346.0,172865.0,38033.0,-875.2894331957784,-346.75275548543254,-892.1415019424667
172865.0,2820.0,172865.0,15381.0,172865.0,38068.0,-866.8952695847224,-340.3717553679301,-878.6126494486664
172865.0,2834.0,172865.0,15396.0,172865.0,38077.0,-857.7582981637968,-333.62454590567864,-864.2115865651175
172865.0,2823.0,172865.0,15392.0,172865.0,38083.0,-847.874024887127,-326.5160772587243,-848.9450240085297
172875.0,2837.0,172875.0,15391.0,172875.0,38092.0,-837.2396536109986,-319.05219625561443,-832.8217748049002
172875.0,2840.0,172875.0,15386.0,172875.0,38091.0,-825.8543308726922,-311.2398002780903,-815.853070606784
172875.0,2848.0,172875.0,15395.0,172875.0,38164.0,-813.7193990115928,-303.087164748548,-798.0528779134627
172875.0,2863.0,172875.0,15422.0,172875.0,38164.0,-800.838600989639,-294.6041950751325,-779.4378940779995
172875.0,2915.0,172875.0,15482.0,172875.0,38190.0,-787.2181559133726,-285.8023336288797,-760.0272853812417
172875.0,2940.0,172875.0,15472.0,172875.0,38235.0,-772.8665108567808,-276.6940283423359,-739.8425106635561
172886.0,2931.0,172886.0,15486.0,172886.0,38252.0,-757.79388818317,-267.2921551651365,-718.9071995385846
172886.0,2945.0,172886.0,15469.0,172886.0,38286.0,-742.0120996197851,-257.6098655046833,-697.2469549765117
172886.0,2969.0,172886.0,15458.0,172886.0,38311.0,-725.5347340104793,-247.66089061565148,-674.8891948435496
172886.0,3002.0,172886.0,15518.0,172886.0,38354.0,-708.3773196883386,-237.45998680877614,-651.8630356159704
172886.0,3014.0,172886.0,15551.0,172886.0,38374.0,-690.5572404388917,-227.02299891050765,-628.1991283372099
172886.0,3044.0,172886.0,15551.0,172886.0,38396.0,-672.09357049302,-216.36636947888817,-603.9295187285079
172896.0,3067.0,172896.0,15517.0,172896.0,38440.0,-653.006961550616,-205.50673275960946,-579.0876195032275
172896.0,3080.0,172896.0,15556.0,172896.0,38445.0,-633.3195609789717,-194.4611190181759,-553.7082290863381
172896.0,3115.0,172896.0,15578.0,172896.0,38451.0,-613.0549686101206,-183.24734372741972,-527.8276462466567
172896.0,3129.0,172896.0,15576.0,172896.0,38550.0,-592.2382192752013,-171.88404477008328,-501.4838977238742
172896.0,3166.0,172896.0,15638.0,172896.0,38559.0,-570.8957356687054,-160.39047433411807,-474.71667090396255
172896.0,3197.0,172896.0,15671.0,172896.0,38595.0,-549.0552223975517,-148.7861177527463,-447.56687745668194
172906.0,3207.0,172906.0,15622.0,172906.0,38624.0,-526.7455145237052,-137.09016902640002,-420.07636472235515
172906.0,3238.0,172906.0,15645.0,172906.0,38673.0,-503.996499100835,-125.32141082653885,-392.2878686389306
172906.0,3305.0,172906.0,15688.0,172906.0,38719.0,-480.83906627139356,-113.49857526128469,-364.2448709174422
172906.0,3316.0,172906.0,15731.0,172906.0,38782.0,-457.30482384860437,-101.64039351968012,-335.9912153984825
172906.0,3329.0,172906.0,15696.0,172906.0,38793.0,-433.42570997239005,-89.76514558156583,-307.5705894412695
172906.0,3356.0,172906.0,15706.0,172906.0,38810.0,-409.2339197014373,-77.89044399698679,-279.0261987946092
172917.0,3388.0,172917.0,15732.0,172917.0,38836.0,-384.7620756989906,-66.03352839277608,-250.4008814293801
172917.0,3405.0,172917.0,15720.0,172917.0,38886.0,-360.0433262658712,-54.21159253612416,-221.7374181077223
172917.0,3439.0,172917.0,15777.0,172917.0,38955.0,-335.1113615644295,-42.44187828521325,-193.0785606999941
172917.0,3488.0,172917.0,15800.0,172917.0,38971.0,-310.0003833828837,-30.741519677778456,-164.46663924876668
172917.0,3528.0,172917.0,15843.0,172917.0,39042.0,-284.7448836631215,-19.12705767621975,-135.94304388330613
172917.0,3552.0,172917.0,15795.0,172917.0,39044.0,-259.37924485036046,-7.613906315773534,-107.54784127687253
172927.0,3561.0,172927.0,15816.0,172927.0,39077.0,-233.9374584350561,3.7836939910253022,-79.31960728160425
172927.0,3593.0,172927.0,15828.0,172927.0,39106.0,-208.4531588975491,15.052254706541305,-51.295512893580394
172927.0,3647.0,172927.0,15871.0,172927.0,39158.0,-182.9597594617452,26.178752509664093,-23.511461947797443
172927.0,3658.0,172927.0,15862.0,172927.0,39169.0,-157.4903728651392,37.15075744053689,3.9979432730744975
172927.0,3701.0,172927.0,15880.0,172927.0,39211.0,-132.077592961562,47.95664235823989,31.199484211930894
172927.0,3717.0,172927.0,15888.0,172927.0,39233.0,-106.75336881017188,58.585596864382296,58.061307360435876
172938.0,3750.0,172938.0,15894.0,172938.0,39244.0,-81.54897626472768,69.0275310656404,84.55282200090198
172938.0,3785.0,172938.0,15884.0,172938.0,39291.0,-56.495001029823584,79.27292821551623,110.6445174268066
172938.0,3825.0,172938.0,15937.0,172938.0,39330.0,-31.621239077560517,89.31265061299786,136.30783420286468
172938.0,3852.0,172938.0,15957.0,172938.0,39404.0,-6.956470934399931,99.13796417582444,161.51536160169985
172938.0,3866.0,172938.0,15921.0,172938.0,39445.0,17.471749467458494,108.74082043541222,186.24143701883986
172938.0,3896.0,172938.0,15954.0,172938.0,39421.0,41.63712636274249,118.11390852040091,210.46279409888257
172948.0,3917.0,172948.0,15982.0,172948.0,39418.0,65.51451956671474,127.25044298687152,234.15860876382578
172948.0,3971.0,172948.0,16036.0,172948.0,39517.0,89.07990690950908,136.1442887764868,257.3099519942557
172948.0,3995.0,172948.0,16018.0,172948.0,39551.0,112.31055619252788,144.79054291991372,279.89961535599434
172948.0,4001.0,172948.0,15993.0,172948.0,39548.0,135.18528804719085,153.1859417805959,301.91262963601537
172948.0,4022.0,172948.0,15998.0,172948.0,39555.0,157.68451878127576,161.32860627967256,323.33660087620626
172948.0,4046.0,172948.0,15990.0,172948.0,39560.0,179.7900474750245,169.21739638931405,344.1613725271193
172958.0,4064.0,172958.0,16004.0,172958.0,39593.0,201.48484295490084,176.8513748216542,364.37843708571836
172958.0,4088.0,172958.0,16019.0,172958.0,39625.0,222.75292837929328,184.2295297141058,383.9805731285518
172958.0,4129.0,172958.0,16030.0,172958.0,39664.0,243.57934375615332,191.35072801525575,402.9618517078719
172958.0,4138.0,172958.0,16093.0,172958.0,39682.0,263.95022536457896,198.21391377187882,421.3178868775144
172958.0,4178.0,172958.0,16072.0,172958.0,39659.0,283.8529459034445,204.81856956509154,439.0459865101677
172958.0,4200.0,172958.0,16056.0,172958.0,39703.0,303.27624498777607,211.16511733089027,456.14492630080304
172969.0,4214.0,172969.0,16055.0,172969.0,39732.0,322.2103645692248,217.25479110106363,472.6146020369222
172969.0,4238.0,172969.0,16096.0,172969.0,39776.0,340.64712286446274,223.08921033242558,488.4560499197718
172969.0,4253.0,172969.0,16104.0,172969.0,39777.0,358.57988663588196,228.67028721155503,503.67179851590095
172969.0,4267.0,172969.0,16072.0,172969.0,39785.0,376.0035048283338,234.0004355059998,518.2661030404199
172969.0,4284.0,172969.0,16115.0,172969.0,39778.0,392.91421187621677,239.08258509030952,532.2447947602216
172969.0,4299.0,172969.0,16094.0,172969.0,39788.0,409.30950287653184,243.92001421189718,545.6148303803623
172979.0,4313.0,172979.0,16092.0,172979.0,39806.0,425.1880171820776,248.51623010774773,558.3838022922034
172979.0,4326.0,172979.0,16106.0,172979.0,39857.0,440.54942645390315,252.8747926362579,570.5596988586285
172979.0,4361.0,172979.0,16142.0,172979.0,39875.0,455.39435353056444,256.99918402335993,582.1510885353332
172979.0,4385.0,172979.0,16153.0,172979.0,39893.0,469.72443950440436,260.8930322137427,593.1675555545746
172979.0,4369.0,172979.0,16114.0,172979.0,39893.0,483.54251446560477,264.5604731992246,603.6200003619974
172979.0,4364.0,172979.0,16123.0,172979.0,39892.0,496.85252580830183,268.00611996795965,613.5206102186582
172989.0,4421.0,172989.0,16128.0,172989.0,39938.0,509.65916734800885,271.2346541316921,622.8826493722713
172989.0,4434.0,172989.0,16169.0,172989.0,39912.0,521.9677251762892,274.25059256021166,631.7203436326192
172989.0,4424.0,172989.0,16159.0,172989.0,39942.0,533.7842979554227,277.05848791027734,640.0488386891425
172989.0,4442.0,172989.0,16139.0,172989.0,39912.0,545.1158936506795,279.6632047048316,647.884011129297
172989.0,4452.0,172989.0,16137.0,172989.0,39905.0,555.9702426319009,282.0698215495288,655.242048701271
172989.0,4469.0,172989.0,16146.0,172989.0,39932.0,566.3556405978416,284.2832463507317,662.1388802640986
173000.0,4463.0,173000.0,16177.0,173000.0,39928.0,576.2809000031752,286.3080057820339,668.5897402548676
173000.0,4477.0,173000.0,16227.0,173000.0,39984.0,585.755247827331,288.1485164475961,674.609095845113
173000.0,4499.0,173000.0,16185.0,173000.0,39967.0,594.7881774994969,289.80972224109223,680.210871538231
173000.0,4497.0,173000.0,16195.0,173000.0,39971.0,603.3894024169322,291.29752908718183,685.4086853956669
173000.0,4521.0,173000.0,16143.0,173000.0,39985.0,611.5688945634872,292.61862204003387,690.2158252635263
173000.0,4528.0,173000.0,16151.0,173000.0,39988.0,619.3369269681707,293.7798325188477,694.6450819357983
173009.0,4540.0,173009.0,16217.0,173009.0,40021.0,626.7041399203242,294.7875958037348,698.7087100052181
173009.0,4521.0,173009.0,16170.0,173009.0,40026.0,633.6815537100131,295.64798629284144,702.4185767014171
173009.0,4541.0,173009.0,16206.0,173009.0,40025.0,640.2803980349431,296.3670753259296,705.7863789208739
173009.0,4540.0,173009.0,16168.0,173009.0,40009.0,646.5118568842622,296.95103461723795,708.8236730761969
173009.0,4528.0,173009.0,16154.0,173009.0,40008.0,652.3868661545885,297.4059041520426,711.5415858470085
173009.0,4549.0,173009.0,16178.0,173009.0,40020.0,657.9158988838128,297.73718017665055,713.9503956929295
173019.0,4575.0,173019.0,16183.0,173019.0,40046.0,663.1088146556956,297.94953676767216,716.0593065460575
173019.0,4579.0,173019.0,16213.0,173019.0,40076.0,667.9749853302881,298.04695400782566,717.8766015601134
173019.0,4590.0,173019.0,16208.0,173019.0,40105.0,672.5235733358413,298.0331069088363,719.4101422145627
173019.0,4595.0,173019.0,16213.0,173019.0,40077.0,676.7637052067296,297.91172150997943,720.6679413233692
173019.0,4586.0,173019.0,16163.0,173019.0,40058.0,680.7044955491924,297.6866430415817,721.6583503053994
173019.0,4606.0,173019.0,16229.0,173019.0,40053.0,684.3549656631956,297.3615856767792,722.3896641568147
173030.0,4615.0,173030.0,16250.0,173030.0,40121.0,687.723979975247,296.94007574868516,722.8696416940033
173030.0,4603.0,173030.0,16206.0,173030.0,40066.0,690.8202870129553,296.4258857986026,723.1055033977798
173030.0,4602.0,173030.0,16169.0,173030.0,40081.0,693.6524946452444,295.8232409200141,723.1041010297818
173030.0,4594.0,173030.0,16170.0,173030.0,40058.0,696.2288437197931,295.13624277873305,722.8717103628949
173030.0,4607.0,173030.0,16189.0,173030.0,40087.0,698.5569174370701,294.36810817476817,722.4136309656335
173030.0,4613.0,173030.0,16204.0,173030.0,40080.0,700.6434764294613,293.5209343695745,721.733997586063
173040.0,4638.0,173040.0,16215.0,173040.0,40089.0,702.4945043006664,292.59596679439574,720.8358049920403
173040.0,4621.0,173040.0,16241.0,173040.0,40132.0,704.1154006733693,291.59404122807115,719.7210449497006
173040.0,4633.0,173040.0,16200.0,173040.0,40136.0,705.5111171567307,290.515969695172,718.3910544040398
173040.0,4635.0,173040.0,16213.0,173040.0,40118.0,706.6861449923849,289.3626373257218,716.8469796788538
173040.0,4639.0,173040.0,16193.0,173040.0,40101.0,707.6444837382089,288.13477169884385,715.0899053607516
173040.0,4657.0,173040.0,16238.0,173040.0,40177.0,708.3896900087161,286.8327226042802,713.1206721138378
173050.0,4651.0,173050.0,16187.0,173050.0,40140.0,708.9250000729664,285.4564768333168,710.9399803868425
173050.0,4655.0,173050.0,16219.0,173050.0,40145.0,709.2534513180897,284.00569752287447,708.5487637952515
173050.0,4646.0,173050.0,16215.0,173050.0,40120.0,709.3778911701929,282.4796585359365,705.9482311113507
173050.0,4645.0,173050.0,16182.0,173050.0,40113.0,709.3008592104362,280.8771932892472,703.1394918367084
173050.0,4656.0,173050.0,16235.0,173050.0,40142.0,709.02443953588,279.1966256737107,700.123153876463
173050.0,4669.0,173050.0,16228.0,173050.0,40157.0,708.5502330414303,277.435802505303,696.8992514824979
173061.0,4685.0,173061.0,16251.0,173061.0,40165.0,707.8795426482825,275.5924400494536,693.467574277845
173061.0,4686.0,173061.0,16248.0,173061.0,40162.0,707.0136965490485,273.66457219449615,689.8280816590807
173061.0,4669.0,173061.0,16236.0,173061.0,40147.0,705.954296935304,271.65082511764956,685.9810848566904
173061.0,4659.0,173061.0,16232.0,173061.0,40148.0,704.7031897684634,269.5504436259359,681.9271521310718
173061.0,4695.0,173061.0,16269.0,173061.0,40206.0,703.2622567297017,267.36320885204594,677.6670163677773
173061.0,4697.0,173061.0,16289.0,173061.0,40159.0,701.6334259402627,265.0896277874136,673.2018128961079
173071.0,4683.0,173071.0,16236.0,173071.0,40180.0,699.818960080316,262.73138453827374,668.5334087070729
173071.0,4681.0,173071.0,16231.0,173071.0,40162.0,697.82161912413,260.2914421229005,663.664428407736
173071.0,4661.0,173071.0,16221.0,173071.0,40174.0,695.6445134604808,257.77358428893524,658.5981225582268
173071.0,4662.0,173071.0,16193.0,173071.0,40146.0,693.2908071855882,255.18184045353428,653.3382685377146
173071.0,4681.0,173071.0,16216.0,173071.0,40168.0,690.7634799158652,252.52005066372254,647.8890411015179
173071.0,4689.0,173071.0,16213.0,173071.0,40174.0,688.0653514175885,249.7916311648073,642.2549395291895
173081.0,4690.0,173081.0,16250.0,173081.0,40182.0,685.199360863461,246.9996760446378,636.4409391976576
173081.0,4683.0,173081.0,16212.0,173081.0,40152.0,682.168833493015,244.14729365648793,630.4527176779588
173081.0,4675.0,173081.0,16235.0,173081.0,40145.0,678.9775483982498,241.23783975665617,624.2966212801476
173081.0,4659.0,173081.0,16183.0,173081.0,40165.0,675.6296113747036,238.27485500068087,617.9794001959104
173081.0,4687.0,173081.0,16227.0,173081.0,40163.0,672.1292662835504,235.26180585219493,611.508098565309
173081.0,4680.0,173081.0,16217.0,173081.0,40154.0,668.4808754985272,232.20192627844102,604.8901943655633
173092.0,4679.0,173092.0,16219.0,173092.0,40180.0,664.6891016812608,229.09833011401838,598.1337561661094
173092.0,4656.0,173092.0,16216.0,173092.0,40144.0,660.7590134948556,225.95418149756432,591.2475537709518
173092.0,4650.0,173092.0,16174.0,173092.0,40119.0,656.6959309474528,222.77265007797212,584.2410172532138
173092.0,4673.0,173092.0,16187.0,173092.0,40111.0,652.5051822202329,219.5565901773898,577.1238397047831
173092.0,4674.0,173092.0,16227.0,173092.0,40153.0,648.1920956054023,216.3082311795185,569.9055249345096
173092.0,4684.0,173092.0,16217.0,173092.0,40121.0,643.7622810230109,213.029328318027,562.5953634737291
173102.0,4669.0,173102.0,16221.0,173102.0,40142.0,639.2219398830398,209.7216321312527,555.2026868280876
173102.0,4665.0,173102.0,16204.0,173102.0,40114.0,634.5779885947534,206.38715237966653,547.7369949303911
173102.0,4644.0,173102.0,16198.0,173102.0,40105.0,629.8379651661261,203.0280949429943,540.207873518685
173102.0,4648.0,173102.0,16222.0,173102.0,40126.0,625.0098016439035,199.64670638252625,532.6248124371449
173102.0,4654.0,173102.0,16255.0,173102.0,40131.0,620.101638217169,196.24537215300415,524.997177515587
173102.0,4654.0,173102.0,16209.0,173102.0,40129.0,615.1218325331475,192.8270392193985,517.3344591667021
173112.0,4627.0,173112.0,16207.0,173112.0,40078.0,610.0790607536688,189.39546313972244,509.64645336452327
173112.0,4625.0,173112.0,16178.0,173112.0,40091.0,604.9822469996188,185.95493143752702,501.9430225694001
173112.0,4611.0,173112.0,16169.0,173112.0,40104.0,599.840300667563,182.5097221809097,494.23369127306614
173112.0,4611.0,173112.0,16172.0,173112.0,40063.0,594.66185965766,179.06361738310443,486.5274988050604
173112.0,4630.0,173112.0,16224.0,173112.0,40090.0,589.4551889835551,175.61972608051516,478.83297148254223
173112.0,4625.0,173112.0,16252.0,173112.0,40095.0,584.2283093640646,172.18090838192137,471.1580741760147
173123.0,4607.0,173123.0,16187.0,173123.0,40095.0,578.989226010829,168.75054944192235,463.51036159902856
173123.0,4594.0,173123.0,16146.0,173123.0,40087.0,573.745953793834,165.33275842110388,455.8972460899978
173123.0,4598.0,173123.0,16189.0,173123.0,40024.0,568.5063041230376,161.9317069778067,448.32598701459426
173123.0,4619.0,173123.0,16208.0,173123.0,40101.0,563.2777510122219,158.55108866514752,440.8033347669302
173123.0,4593.0,173123.0,16183.0,173123.0,40113.0,558.0675602320482,155.1943203838229,433.3354322035274
173123.0,4592.0,173123.0,16170.0,173123.0,40046.0,552.882942511922,151.86484830116078,425.9282667301095
173133.0,4580.0,173133.0,16156.0,173133.0,40068.0,547.7309877092416,148.56598946011076,418.58789370887314
173133.0,4588.0,173133.0,16136.0,173133.0,40028.0,542.6185072075441,145.30049312601489,411.32005053262276
173133.0,4583.0,173133.0,16186.0,173133.0,40096.0,537.5519846638088,142.07019008473037,404.1297945946601
173133.0,4568.0,173133.0,16173.0,173133.0,40022.0,532.5376045302119,138.87602324560515,397.0215332884793
173133.0,4568.0,173133.0,16213.0,173133.0,40101.0,527.5812104101328,135.7184736552922,389.99920100464533
173133.0,4588.0,173133.0,16141.0,173133.0,40035.0,522.6882375709077,132.59797714421558,383.0664028693973
173144.0,4561.0,173144.0,16198.0,173144.0,40072.0,517.8637853693383,129.51496934025906,376.22651700019037
173144.0,4540.0,173144.0,16157.0,173144.0,40038.0,513.1126634696561,126.46971688356481,369.48267421153395
173144.0,4565.0,173144.0,16199.0,173144.0,40032.0,508.4391991996665,123.46228897896123,362.8376029192405
173144.0,4544.0,173144.0,16210.0,173144.0,40099.0,503.84705480841245,120.49276439174724,356.29352330120304
173144.0,4561.0,173144.0,16170.0,173144.0,40035.0,499.3392588826539,117.56155852994519,349.852337519306
173144.0,4548.0,173144.0,16155.0,173144.0,40034.0,494.9183081205093,114.66948407766657,343.51585284584763
173154.0,4562.0,173154.0,16168.0,173154.0,40024.0,490.58626043849154,111.81736707907058,337.28554991639476
173154.0,4536.0,173154.0,16151.0,173154.0,40009.0,486.34481325880364,109.00565557253299,331.1621166374105
173154.0,4538.0,173154.0,16151.0,173154.0,40009.0,482.1952738189871,106.23425752767835,325.1451038798702
173154.0,4543.0,173154.0,16202.0,173154.0,40043.0,478.13843156818984,103.50253117247149,319.23276162894587
173154.0,4556.0,173154.0,16187.0,173154.0,40058.0,474.1745390278556,100.80957341991899,313.4222316687543
173154.0,4540.0,173154.0,16161.0,173154.0,40026.0,470.3034779924946,98.15464653769652,307.7100118597327
173164.0,4537.0,173164.0,16170.0,173164.0,40060.0,466.5248924999731,95.5372310858694,302.09224485473345
173164.0,4539.0,173164.0,16160.0,173164.0,40013.0,462.8381529850345,92.95675776180323,296.5647180347531
173164.0,4536.0,173164.0,16161.0,173164.0,40058.0,459.2422872164601,90.41240874791987,291.12277311151433
173164.0,4564.0,173164.0,16172.0,173164.0,40038.0,455.73603791209723,87.90305738960816,285.76128135950586
173164.0,4569.0,173164.0,16175.0,173164.0,40056.0,452.3181280105183,85.42732194607079,280.47476152881507
173164.0,4527.0,173164.0,16141.0,173164.0,40036.0,448.98758792923275,82.98365047760583,275.25751715650944
173175.0,4522.0,173175.0,16143.0,173175.0,40032.0,445.74373605748315,80.57018394954487,270.1036173890556
173175.0,4537.0,173175.0,16135.0,173175.0,40059.0,442.5858023968766,78.18439558134284,265.00678221108706
173175.0,4527.0,173175.0,16197.0,173175.0,40031.0,439.5126830905531,75.8229112472397,259.96036857298526
173175.0,4525.0,173175.0,16216.0,173175.0,40059.0,436.52295336310647,73.48190361138913,254.95745154918734
173175.0,4524.0,173175.0,16148.0,173175.0,40072.0,433.61487784904466,71.1578030897512,249.9909420529711
173175.0,4516.0,173175.0,16180.0,173175.0,40050.0,430.78634752611816,68.84753043547786,245.0538081115588
173185.0,4523.0,173185.0,16162.0,173185.0,40054.0,428.0348141402665,66.54817415860572,240.13922386478527
173185.0,4531.0,173185.0,16184.0,173185.0,40071.0,425.3572849262697,64.25676654086638,235.240521042274
173185.0,4536.0,173185.0,16240.0,173185.0,40104.0,422.7504444888158,61.970478088335355,230.351279074935
173185.0,4523.0,173185.0,16164.0,173185.0,40058.0,420.21083310915054,59.68710302129665,225.46568154805817
173185.0,4526.0,173185.0,16144.0,173185.0,40067.0,417.734911590583,57.40522472636985,220.57869600617744
173185.0,4503.0,173185.0,16149.0,173185.0,40025.0,415.31896013734587,55.1236382853311,215.68579195247025
173195.0,4505.0,173195.0,16154.0,173195.0,40035.0,412.9588579280632,52.840655459905605,210.7824117218367
173195.0,4520.0,173195.0,16160.0,173195.0,40036.0,410.6498669534977,50.55390131716952,205.86351008008103
173195.0,4532.0,173195.0,16192.0,173195.0,40055.0,408.3866388152683,48.26048720211952,200.92338733441483
173195.0,4535.0,173195.0,16197.0,173195.0,40048.0,406.163485112648,45.957402282340965,195.95582421545936
173195.0,4514.0,173195.0,16172.0,173195.0,40060.0,403.9746444571408,43.641949713179415,190.9542961050243
173195.0,4525.0,173195.0,16143.0,173195.0,40057.0,401.8143115448306,41.31181670175248,185.91212312383692
173206.0,4525.0,173206.0,16162.0,173206.0,40054.0,399.67653168114146,38.96467939420454,180.82255628717695
173206.0,4551.0,173206.0,16163.0,173206.0,40091.0,397.5552341473036,36.5978141900563,175.67886470119794
173206.0,4504.0,173206.0,16184.0,173206.0,40081.0,395.44440460046116,34.20809399736264,170.47456972281987
173206.0,4532.0,173206.0,16172.0,173206.0,40083.0,393.33810933494146,31.79224202331489,165.2037797512225
173206.0,4514.0,173206.0,16152.0,173206.0,40031.0,391.2303351719868,29.346997143828652,159.86126765922614
173206.0,4508.0,173206.0,16150.0,173206.0,40052.0,389.11485361372127,26.86897644266864,154.44210689605248
173216.0,4534.0,173216.0,16157.0,173216.0,40064.0,386.98514790816137,24.354378710521473,148.9412286788163
173216.0,4523.0,173216.0,16192.0,173216.0,40046.0,384.83444977287866,21.798905426883337,143.35332136862164
173216.0,4542.0,173216.0,16180.0,173216.0,40086.0,382.65593050872343,19.198053150178545,137.67297910617276
173216.0,4535.0,173216.0,16190.0,173216.0,40065.0,380.442917202157,16.54752043996656,131.89490964717984
173216.0,4525.0,173216.0,16142.0,173216.0,40026.0,378.18902292964185,13.84335101756588,126.0140578856012
173216.0,4534.0,173216.0,16155.0,173216.0,40041.0,375.8881446323134,11.081675689943815,120.02536393838295
173226.0,4531.0,173226.0,16206.0,173226.0,40077.0,373.5344057679763,8.258405293173382,113.92340892137159
173226.0,4560.0,173226.0,16205.0,173226.0,40067.0,371.1222220242844,5.369443445985148,107.70252736414542
173226.0,4535.0,173226.0,16207.0,173226.0,40040.0,368.64652063727203,2.4113241279986113,101.35717192405727
173226.0,4518.0,173226.0,16151.0,173226.0,40027.0,366.102870647527,-0.618442186337063,94.88189310946757
173226.0,4511.0,173226.0,16187.0,173226.0,40028.0,363.48727938740313,-3.721611216224872,88.27092812017415
173226.0,4499.0,173226.0,16131.0,173226.0,40053.0,360.79578688611593,-6.8996720346428475,81.51789479457915
173237.0,4510.0,173237.0,16171.0,173237.0,40060.0,358.02414569379056,-10.154208772332964,74.61589643323254
173237.0,4520.0,173237.0,16159.0,173237.0,40068.0,355.1677238689863,-13.487077887580071,67.55792032831175
173237.0,4513.0,173237.0,16215.0,173237.0,40112.0,352.22162722071164,-16.90025928865583,60.33732582057847
173237.0,4518.0,173237.0,16209.0,173237.0,40048.0,349.1808750085364,-20.395320540513573,52.948324964583975
173237.0,4513.0,173237.0,16156.0,173237.0,40041.0,346.0404875964563,-23.97287658055098,45.38611804972683
173237.0,4527.0,173237.0,16163.0,173237.0,40030.0,342.79554085961377,-27.63261356238989,37.64646964910487
173247.0,4546.0,173247.0,16188.0,173247.0,40074.0,339.4413291626727,-31.373723006282837,29.725259615053744
173247.0,4525.0,173247.0,16171.0,173247.0,40084.0,335.9736653977395,-35.19505010567135,21.618610204668684
173247.0,4530.0,173247.0,16149.0,173247.0,40042.0,332.3891077633517,-39.09498049844636,13.323389119209125
173247.0,4498.0,173247.0,16156.0,173247.0,40061.0,328.6849191401237,-43.071549207589634,4.837445036125629
173247.0,4508.0,173247.0,16155.0,173247.0,40039.0,324.85881786169875,-47.12269287757885,-3.8405355733861057
173247.0,4508.0,173247.0,16156.0,173247.0,40054.0,320.9087324616499,-51.246333716156805,-12.711171837581965
173257.0,4510.0,173257.0,16127.0,173257.0,40011.0,316.8327466540095,-55.44037817906112,-21.774453120056855
173257.0,4522.0,173257.0,16193.0,173257.0,40048.0,312.62922854340593,-59.702745816454666,-31.029864513369354
173257.0,4492.0,173257.0,16141.0,173257.0,40033.0,308.29698829866163,-64.03123002576143,-40.47645176792593
173257.0,4495.0,173257.0,16120.0,173257.0,40020.0,303.8352842296489,-68.42333446382821,-50.11272043964707
173257.0,4488.0,173257.0,16117.0,173257.0,39987.0,299.2436550441365,-72.87654457342738,-59.936654632536694
173257.0,4494.0,173257.0,16203.0,173257.0,40020.0,294.52178270444585,-77.38865789210203,-69.94599299662255
173268.0,4507.0,173268.0,16143.0,173268.0,40021.0,289.6695397015281,-81.95745682871637,-80.13836135007281
173268.0,4492.0,173268.0,16110.0,173268.0,39999.0,284.6871843283635,-86.58021776828849,-90.51106165076473
173268.0,4480.0,173268.0,16149.0,173268.0,39967.0,279.5755096771117,-91.25387011389952,-101.06095654215103
173268.0,4477.0,173268.0,16117.0,173268.0,39962.0,274.3357824282606,-95.97538846868406,-111.78477942731324
173268.0,4462.0,173268.0,16091.0,173268.0,39986.0,268.96955842527257,-100.74194855213867,-122.67953423387954
173268.0,4470.0,173268.0,16117.0,173268.0,39965.0,263.4785287971145,-105.55115252569931,-133.7425458265636
173278.0,4476.0,173278.0,16117.0,173278.0,39988.0,257.86448562265394,-110.40124084380832,-144.97122997020548
173278.0,4465.0,173278.0,16156.0,173278.0,40028.0,252.1294414846023,-115.29089810656316,-156.3627245939536
173278.0,4463.0,173278.0,16127.0,173278.0,39968.0,246.2757713112229,-120.21876225431996,-167.91335209152555
173278.0,4463.0,173278.0,16133.0,173278.0,39951.0,240.30625906244734,-125.18304391941268,-179.6183276191078
173278.0,4437.0,173278.0,16103.0,173278.0,39954.0,234.2240795371785,-130.18149680624907,-191.4720615924644
173278.0,4440.0,173278.0,16115.0,173278.0,39976.0,228.03269497374995,-135.2116399969945,-203.46851013439002
173288.0,4446.0,173288.0,16099.0,173288.0,39930.0,221.73571491016247,-140.27098738411462,-215.60111629177914
173288.0,4436.0,173288.0,16134.0,173288.0,39949.0,215.3368972789778,-145.3571102682219,-227.86268624929977
173288.0,4420.0,173288.0,16083.0,173288.0,39911.0,208.84022990772272,-150.4675332009009,-240.24548204979547
173288.0,4413.0,173288.0,16085.0,173288.0,39889.0,202.2498737406405,-155.59974040047695,-252.7414622476231
173288.0,4405.0,173288.0,16094.0,173288.0,39902.0,195.5699838420382,-160.75142638539714,-265.34262217373686
173288.0,4412.0,173288.0,16096.0,173288.0,39891.0,188.8045841103669,-165.92065294443466,-278.04123169779155
173299.0,4414.0,173299.0,16123.0,173299.0,39941.0,181.95760484928147,-171.10567169533635,-290.82970159093
173299.0,4399.0,173299.0,16093.0,173299.0,39911.0,175.03304056580106,-176.3045802651119,-303.7000908848031
173299.0,4383.0,173299.0,16069.0,173299.0,39888.0,168.03502954157392,-181.51516630247264,-316.6436278426478
173299.0,4386.0,173299.0,16086.0,173299.0,39832.0,160.96774981280657,-186.73512354367563,-329.6507649000201
173299.0,4376.0,173299.0,16117.0,173299.0,39863.0,153.83528522674598,-191.96224537803195,-342.711761787789
173299.0,4395.0,173299.0,16122.0,173299.0,39886.0,146.64163547881245,-197.19412648554606,-355.817084794484
173309.0,4366.0,173309.0,16106.0,173309.0,39871.0,139.39085987820624,-202.42760332536977,-368.957142859906
173309.0,4373.0,173309.0,16057.0,173309.0,39833.0,132.0871928125979,-207.6585507916695,-382.12183638392435
173309.0,4344.0,173309.0,16068.0,173309.0,39823.0,124.73500530770181,-212.88226179754898,-395.3005848675616
173309.0,4354.0,173309.0,16033.0,173309.0,39790.0,117.33866313654275,-218.09405779019204,-408.48277704984804
173309.0,4344.0,173309.0,16047.0,173309.0,39801.0,109.90241894969117,-223.2897539311381,-421.65824115946737
173309.0,4370.0,173309.0,16117.0,173309.0,39813.0,102.43047184996064,-228.46575445463284,-434.817456346927
173319.0,4341.0,173319.0,16109.0,173319.0,39793.0,94.92720843752411,-233.61850918561757,-447.9514165806641
173319.0,4318.0,173319.0,16070.0,173319.0,39814.0,87.39736615021741,-238.74368144338192,-461.0513496886916
173319.0,4324.0,173319.0,16037.0,173319.0,39769.0,79.8458880508523,-243.8359502680326,-474.108530639478
173319.0,4315.0,173319.0,16074.0,173319.0,39779.0,72.27768342171427,-248.88951794315673,-487.11427839262126
173319.0,4334.0,173319.0,16050.0,173319.0,39788.0,64.69761375384653,-253.89851147377087,-500.06004553585376
173319.0,4303.0,173319.0,16086.0,173319.0,39801.0,57.1106695680858,-258.85692202904056,-512.9372933855807
173330.0,4294.0,173330.0,16035.0,173330.0,39769.0,49.522064706281526,-263.75839823870797,-525.7371285458719
173330.0,4287.0,173330.0,16000.0,173330.0,39749.0,41.937102221599474,-268.59633673215944,-538.4501302337335
173330.0,4283.0,173330.0,16010.0,173330.0,39721.0,34.36098169096854,-273.3644482102526,-551.0666155538412
173330.0,4270.0,173330.0,16024.0,173330.0,39738.0,26.798713723406905,-278.0573418976055,-563.5770920846189
173330.0,4268.0,173330.0,16030.0,173330.0,39729.0,19.255080784780375,-282.67059633552856,-575.9724933416146
173330.0,4280.0,173330.0,16064.0,173330.0,39764.0,11.734634057524318,-287.2003956134746,-588.244033502103
173340.0,4273.0,173340.0,16025.0,173340.0,39719.0,4.241831411710052,-291.64306307527204,-600.3828395361141
173340.0,4245.0,173340.0,16020.0,173340.0,39711.0,-3.2187808012350274,-295.99483666084825,-612.3797455382677
173340.0,4245.0,173340.0,16018.0,173340.0,39709.0,-10.64259524375126,-300.25204183116364,-624.2254478742036
173340.0,4238.0,173340.0,16044.0,173340.0,39701.0,-18.025140050352036,-304.4113080471957,-635.9107381176827
173340.0,4244.0,173340.0,16042.0,173340.0,39689.0,-25.362175243663557,-308.4694545333249,-647.4265874214939
173340.0,4248.0,173340.0,16032.0,173340.0,39711.0,-32.64959009140398,-312.4231891188198,-658.7641494010626
173350.0,4229.0,173350.0,16015.0,173350.0,39677.0,-39.88320677723067,-316.26899667405826,-669.9146919420402
173350.0,4223.0,173350.0,16011.0,173350.0,39669.0,-47.05867872748331,-320.003328553397,-680.8695674993193
173350.0,4199.0,173350.0,15987.0,173350.0,39641.0,-54.17159098838516,-323.62293733013803,-691.6204326361028
173350.0,4192.0,173350.0,15981.0,173350.0,39648.0,-61.21770613049671,-327.1252557477247,-702.159634107672
173350.0,4200.0,173350.0,16035.0,173350.0,39673.0,-68.19320404299197,-330.50866416087194,-712.4804278427083
173350.0,4205.0,173350.0,16016.0,173350.0,39677.0,-75.09472147693077,-333.7723409659578,-722.5767861983734
173361.0,4200.0,173361.0,16031.0,173361.0,39653.0,-81.9191550352756,-336.9158053553723,-732.4429778676072
173361.0,4174.0,173361.0,15989.0,173361.0,39625.0,-88.66347056747907,-339.9386684738697,-742.0734285900813
173361.0,4169.0,173361.0,16030.0,173361.0,39651.0,-95.32475787055913,-342.84073870293486,-751.4629863004009
173361.0,4171.0,173361.0,16039.0,173361.0,39654.0,-101.9004457998212,-345.622088485327,-760.607121390552
173361.0,4166.0,173361.0,16031.0,173361.0,39644.0,-108.38841277618462,-348.2828034235587,-769.5017809550575
173361.0,4166.0,173361.0,15994.0,173361.0,39617.0,-114.78693408550899,-350.8227637544062,-778.1432411974016
173371.0,4155.0,173371.0,16004.0,173371.0,39627.0,-121.09459960521309,-353.24186698795074,-786.5282657338582
173371.0,4152.0,173371.0,15977.0,173371.0,39622.0,-127.3102890359379,-355.5405035066762,-794.6543614710589
173371.0,4148.0,173371.0,15994.0,173371.0,39624.0,-133.43319456710282,-357.7199451377167,-802.5198650287965
173371.0,4140.0,173371.0,16025.0,173371.0,39612.0,-139.4628444683999,-359.78248073527016,-810.1239265691788
173371.0,4145.0,173371.0,16040.0,173371.0,39658.0,-145.39910537357866,-361.7311449279547,-817.4664598917568
173371.0,4136.0,173371.0,16028.0,173371.0,39663.0,-151.2421511308142,-363.5691836439121,-824.5478584759076
173382.0,4137.0,173382.0,16016.0,173382.0,39619.0,-156.99240429690298,-365.2997339175755,-831.3685462832864
173382.0,4134.0,173382.0,16008.0,173382.0,39644.0,-162.65048062741806,-366.92592834287376,-837.92885102676
173382.0,4134.0,173382.0,16027.0,173382.0,39638.0,-168.2171284565137,-368.45116705884027,-844.2291998935709
173382.0,4131.0,173382.0,16067.0,173382.0,39639.0,-173.69314878275986,-369.87913825466,-850.2702026123121
173382.0,4122.0,173382.0,16055.0,173382.0,39658.0,-179.07933044229054,-371.21341709220087,-856.0525672075728
173382.0,4105.0,173382.0,16039.0,173382.0,39622.0,-184.37647319893847,-372.4570152939276,-861.5770163908426
173392.0,4111.0,173392.0,16048.0,173392.0,39613.0,-189.5855230111328,-373.61232245453095,-866.8443907457826
173392.0,4103.0,173392.0,16021.0,173392.0,39600.0,-194.7077040976116,-374.68134791246734,-871.8560580807282
173392.0,4088.0,173392.0,16019.0,173392.0,39640.0,-199.74457896449394,-375.6660404921886,-876.6143375004151
173392.0,4106.0,173392.0,16030.0,173392.0,39607.0,-204.6981011128209,-376.56862533512214,-881.1225920914437
173392.0,4117.0,173392.0,16082.0,173392.0,39657.0,-209.57056930967036,-377.39169264505796,-885.3850872820157
173392.0,4116.0,173392.0,16021.0,173392.0,39647.0,-214.364349797116,-378.1378986383435,-889.4067726170451
173402.0,4088.0,173402.0,16016.0,173402.0,39640.0,-219.08158493022916,-378.80981692422114,-893.1930272870497
173402.0,4080.0,173402.0,16075.0,173402.0,39624.0,-223.72421803703037,-379.4102235495261,-896.7496120982759
173402.0,4103.0,173402.0,16068.0,173402.0,39684.0,-228.29423527033708,-379.9421518444101,-900.082829733037
173402.0,4091.0,173402.0,16052.0,173402.0,39672.0,-232.7937297636522,-380.4085004413222,-903.1994296819632
173402.0,4070.0,173402.0,16061.0,173402.0,39665.0,-237.22478600320198,-380.8118358886154,-906.1062374074876
173402.0,4090.0,173402.0,16039.0,173402.0,39655.0,-241.58948993053582,-381.1545719006408,-908.8100336875436
173413.0,4059.0,173413.0,16039.0,173413.0,39662.0,-245.89004244841715,-381.43926005243554,-911.3177992703181
173413.0,4068.0,173413.0,16063.0,173413.0,39673.0,-250.12885281582885,-381.6688481523537,-913.6369623722047
173413.0,4056.0,173413.0,16038.0,173413.0,39639.0,-254.3086584055897,-381.84677871182504,-915.775519270642
173413.0,4089.0,173413.0,16075.0,173413.0,39730.0,-258.43256956054506,-381.9769537224025,-917.7420925062942
173413.0,4064.0,173413.0,16078.0,173413.0,39706.0,-262.5039038719175,-382.0636243157968,-919.5456957313008
173413.0,4063.0,173413.0,16085.0,173413.0,39700.0,-266.5259858450338,-382.11114447036437,-921.1952373057026
173423.0,4058.0,173423.0,16090.0,173423.0,39705.0,-270.5021445751767,-382.12370802797864,-922.6993370884771
173423.0,4059.0,173423.0,16099.0,173423.0,39725.0,-274.4358202840301,-382.10519637696984,-924.0664885154655
173423.0,4067.0,173423.0,16099.0,173423.0,39760.0,-278.33058128529456,-382.0590739320491,-925.3050273755077
173423.0,4067.0,173423.0,16092.0,173423.0,39741.0,-282.1900128184451,-381.988331286331,-926.4227855865518
173423.0,4051.0,173423.0,16095.0,173423.0,39751.0,-286.0175788230441,-381.89554675276196,-927.4268020670149
173423.0,4060.0,173423.0,16085.0,173423.0,39706.0,-289.8165921288558,-381.78304393549786,-928.3234182916169
173433.0,4044.0,173433.0,16083.0,173433.0,39721.0,-293.5902787851219,-381.6530926278273,-929.1187562767279
173433.0,4066.0,173433.0,16096.0,173433.0,39726.0,-297.3418109520353,-381.5081064119852,-929.8192772484044
173433.0,4054.0,173433.0,16121.0,173433.0,39793.0,-301.0742353970255,-381.35068308166655,-930.4319573558879
173433.0,4063.0,173433.0,16132.0,173433.0,39764.0,-304.790325827076,-381.1833562666419,-930.9639061780961
173433.0,4060.0,173433.0,16117.0,173433.0,39780.0,-308.4924459809466,-381.0082301930835,-931.4218811107938
173433.0,4035.0,173433.0,16094.0,173433.0,39768.0,-312.1824982716276,-380.8268840297156,-931.8121810752318
173444.0,4020.0,173444.0,16096.0,173444.0,39757.0,-315.86207527897756,-380.64069550611526,-932.1408727837572
173444.0,4047.0,173444.0,16150.0,173444.0,39817.0,-319.5327674841851,-380.451193170933,-932.4140377024435
173444.0,4037.0,173444.0,16133.0,173444.0,39807.0,-323.1962872081836,-380.25994547861706,-932.6377116679988
173444.0,4070.0,173444.0,16133.0,173444.0,39804.0,-326.854258947304,-380.0681728365235,-932.8175655297571
173444.0,4018.0,173444.0,16098.0,173444.0,39796.0,-330.5079229467339,-379.87668360655016,-932.9588143365754
173444.0,4017.0,173444.0,16112.0,173444.0,39803.0,-334.1581162313648,-379.6862574675144,-933.0664763063851
173454.0,4016.0,173454.0,16118.0,173454.0,39800.0,-337.805599860875,-379.49807945882566,-933.1456778474844
173454.0,4030.0,173454.0,16138.0,173454.0,39819.0,-341.4513377552725,-379.31386445270056,-933.2018405415622
173454.0,4021.0,173454.0,16167.0,173454.0,39867.0,-345.09645993363716,-379.13562142070793,-933.2406426609411
173454.0,4030.0,173454.0,16159.0,173454.0,39848.0,-348.74209024578744,-378.96521529050995,-933.267665999264
173454.0,4022.0,173454.0,16172.0,173454.0,39848.0,-352.3892206970705,-378.80397929638156,-933.2880374618759
173454.0,4010.0,173454.0,16133.0,173454.0,39844.0,-356.0386687592838,-378.65261049404467,-933.3064598601917
173464.0,4033.0,173464.0,16115.0,173464.0,39866.0,-359.69110347104936,-378.5114698190774,-933.327475915797
173464.0,4010.0,173464.0,16173.0,173464.0,39906.0,-363.34703102144215,-378.3810944083729,-933.3555160529311
173464.0,4010.0,173464.0,16158.0,173464.0,39875.0,-367.0067478908866,-378.26236564485174,-933.3946225723361
173464.0,4012.0,173464.0,16167.0,173464.0,39884.0,-370.6703870039292,-378.15623171869,-933.4482467105703
173464.0,3995.0,173464.0,16170.0,173464.0,39828.0,-374.33800831526736,-378.0634764395594,-933.5195171238021
173464.0,4014.0,173464.0,16133.0,173464.0,39872.0,-378.00965287572467,-377.98476294992713,-933.6118845630629
173475.0,3981.0,173475.0,16141.0,173475.0,39873.0,-381.685378589255,-377.9209361222089,-933.7296528900613
173475.0,3985.0,173475.0,16173.0,173475.0,39944.0,-385.36535456034454,-377.87339743127626,-933.8779470480345
173475.0,3995.0,173475.0,16184.0,173475.0,39951.0,-389.0500221237632,-377.8441171711056,-934.0620874902252
173475.0,3989.0,173475.0,16191.0,173475.0,39929.0,-392.7401383920866,-377.83524956558944,-934.2868363587457
173475.0,3982.0,173475.0,16160.0,173475.0,39929.0,-396.4366840931716,-377.8488262846302,-934.556130456569
173475.0,3985.0,173475.0,16188.0,173475.0,39960.0,-400.1408299505498,-377.88680757022547,-934.8733008594106
173485.0,4006.0,173485.0,16218.0,173485.0,39947.0,-403.8539150308034,-377.9511873488874,-935.2412265622577
173485.0,3991.0,173485.0,16206.0,173485.0,39947.0,-407.577271077138,-378.0437657362346,-935.6623208618362
173485.0,3974.0,173485.0,16227.0,173485.0,39960.0,-411.31204456679546,-378.16576898092836,-936.1386235784398
173485.0,3986.0,173485.0,16196.0,173485.0,39931.0,-415.059247154651,-378.3176810606989,-936.6720071291219
173485.0,3966.0,173485.0,16192.0,173485.0,39997.0,-418.8199150669173,-378.49937593484333,-937.2643547200576
173485.0,3982.0,173485.0,16194.0,173485.0,39965.0,-422.59519122928316,-378.7104674618151,-937.917544647379
173495.0,3971.0,173495.0,16224.0,173495.0,39978.0,-426.3863280712303,-378.95057949428156,-938.6332952824116
173495.0,3984.0,173495.0,16211.0,173495.0,39997.0,-430.19462311200436,-379.21928926625225,-939.4131378080094
173495.0,3996.0,173495.0,16230.0,173495.0,39995.0,-434.02126300458866,-379.5159100273086,-940.2584356992712
173495.0,3971.0,173495.0,16193.0,173495.0,39994.0,-437.867104330308,-379.8394104238003,-941.1703314963991
173495.0,3968.0,173495.0,16194.0,173495.0,40005.0,-441.7325813375435,-380.18861230799,-942.1497746242244
173495.0,3956.0,173495.0,16224.0,173495.0,40060.0,-445.61786202074563,-380.56252939173345,-943.1975067712908
173506.0,3966.0,173506.0,16239.0,173506.0,40008.0,-449.5230663426612,-380.9604278689898,-944.3137943290188
173506.0,3970.0,173506.0,16265.0,173506.0,40053.0,-453.44832398361854,-381.3814390451908,-945.4981952332676
173506.0,3947.0,173506.0,16219.0,173506.0,40022.0,-457.39369589765727,-381.8240983867694,-946.7496111387544
173506.0,3936.0,173506.0,16209.0,173506.0,40005.0,-461.3592025171045,-382.2863230215274,-948.0665237507079
173506.0,3937.0,173506.0,16173.0,173506.0,39998.0,-465.3450618121638,-382.7659653475632,-949.4474497444209
173506.0,3939.0,173506.0,16216.0,173506.0,40026.0,-469.3519125700156,-383.26154009036213,-950.8914908645572
173516.0,3936.0,173516.0,16235.0,173516.0,40062.0,-473.3808508680575,-383.77252989516546,-952.3985016452186
173516.0,3946.0,173516.0,16243.0,173516.0,40070.0,-477.4333465022524,-384.2990853387715,-953.9687128768162
173516.0,3945.0,173516.0,16254.0,173516.0,40076.0,-481.51110409499336,-384.84151197891106,-955.6021831877085
173516.0,3925.0,173516.0,16215.0,173516.0,40054.0,-485.61593157193136,-385.4000017995522,-957.2985259762165
173516.0,3938.0,173516.0,16237.0,173516.0,40081.0,-489.749733329474,-385.9747466564245,-959.056996686778
173516.0,3938.0,173516.0,16265.0,173516.0,40086.0,-493.91455518115043,-386.56615039424616,-960.8766389052811
173526.0,3937.0,173526.0,16269.0,173526.0,40098.0,-498.11251102930504,-387.1746984566298,-962.7562282330352
173526.0,3918.0,173526.0,16264.0,173526.0,40131.0,-502.34568226361614,-387.80057401857886,-964.6940422989405
173526.0,3932.0,173526.0,16265.0,173526.0,40056.0,-506.6161456446483,-388.44345370253086,-966.687671461062
173526.0,3922.0,173526.0,16246.0,173526.0,40079.0,-510.92603449038893,-389.10258608207903,-968.7342365422658
173526.0,3909.0,173526.0,16253.0,173526.0,40056.0,-515.2775460781227,-389.7770275108436,-970.8310318832716
173526.0,3918.0,173526.0,16256.0,173526.0,40089.0,-519.6729882825935,-390.46588756453514,-972.976067628322
173537.0,3929.0,173537.0,16253.0,173537.0,40127.0,-524.1148066909443,-391.16845257993367,-975.168130861508
173537.0,3927.0,173537.0,16294.0,173537.0,40127.0,-528.6054261753304,-391.88414684135125,-977.4063757709016
173537.0,3925.0,173537.0,16264.0,173537.0,40108.0,-533.1469999366744,-392.6123334598536,-979.6898375037813
173537.0,3902.0,173537.0,16257.0,173537.0,40115.0,-537.7412966469691,-393.35216543000644,-982.0173534086189
173537.0,3907.0,173537.0,16276.0,173537.0,40128.0,-542.3898004989499,-394.10271556343594,-984.3877884823448
173537.0,3907.0,173537.0,16283.0,173537.0,40140.0,-547.0938743498241,-394.86312628825726,-986.8001279323055
173547.0,3918.0,173547.0,16286.0,173547.0,40129.0,-551.8547693717426,-395.63250613971417,-989.253378195647
173547.0,3897.0,173547.0,16291.0,173547.0,40136.0,-556.6734852117156,-396.40974296030834,-991.7465273848194
173547.0,3895.0,173547.0,16273.0,173547.0,40124.0,-561.5506991822485,-397.1934402566877,-994.2786724432274
173547.0,3872.0,173547.0,16237.0,173547.0,40143.0,-566.4868919443245,-397.9821082887551,-996.8492057803205
173547.0,3884.0,173547.0,16253.0,173547.0,40145.0,-571.4825765679182,-398.7746665944239,-999.4579157006059
173547.0,3893.0,173547.0,16299.0,173547.0,40153.0,-576.5384144140058,-399.57086538934965,-1002.1049520703682
173557.0,3892.0,173557.0,16311.0,173557.0,40177.0,-581.6550802072011,-400.371093633394,-1004.7907037695943
173557.0,3877.0,173557.0,16312.0,173557.0,40173.0,-586.8330300806681,-401.1757356689082,-1007.5156041104252
173557.0,3862.0,173557.0,16289.0,173557.0,40194.0,-592.0724558930788,-401.9847300823767,-1010.27990265774
173557.0,3873.0,173557.0,16305.0,173557.0,40182.0,-597.3734419925697,-402.7975918393695,-1013.0834985501219
173557.0,3874.0,173557.0,16316.0,173557.0,40207.0,-602.7360633605765,-403.6135779468701,-1015.9258555474485
173557.0,3866.0,173557.0,16313.0,173557.0,40192.0,-608.1602935897981,-404.4316647661489,-1018.8059522589309
173568.0,3860.0,173568.0,16272.0,173568.0,40181.0,-613.6458906620203,-405.2505090128762,-1021.7223141095442
173568.0,3855.0,173568.0,16289.0,173568.0,40178.0,-619.1924001632719,-406.0687304341677,-1024.6732484938557
173568.0,3836.0,173568.0,16293.0,173568.0,40201.0,-624.799245587775,-406.8853360893413,-1027.6571617333002
173568.0,3841.0,173568.0,16269.0,173568.0,40201.0,-630.4658713401607,-407.699938192654,-1030.6726624202465
173568.0,3850.0,173568.0,16339.0,173568.0,40209.0,-636.1918392900054,-408.5127736388621,-1033.7184451218725
173568.0,3862.0,173568.0,16323.0,173568.0,40234.0,-641.9767048557558,-409.32446451014926,-1036.7931264997078
173578.0,3855.0,173578.0,16335.0,173578.0,40256.0,-647.8196908466491,-410.13552967647564,-1039.8949853150207
173578.0,3836.0,173578.0,16323.0,173578.0,40212.0,-653.7194201391112,-410.94605828625936,-1043.021634694987
173578.0,3839.0,173578.0,16321.0,173578.0,40231.0,-659.6738974442492,-411.755723219044,-1046.1699828864064
173578.0,3824.0,173578.0,16328.0,173578.0,40260.0,-665.6806410488682,-412.5639341477897,-1049.3364542370994
173578.0,3840.0,173578.0,16336.0,173578.0,40256.0,-671.7367642448305,-413.36993189317826,-1052.5169706406443
173578.0,3831.0,173578.0,16350.0,173578.0,40275.0,-677.8389195054825,-414.172720875966,-1055.7066551040455
173589.0,3806.0,173589.0,16326.0,173589.0,40257.0,-683.9832006164754,-414.9709246858186,-1058.8996157644685
173589.0,3801.0,173589.0,16330.0,173589.0,40227.0,-690.1652214297944,-415.7627934769043,-1062.0890209754
173589.0,3803.0,173589.0,16335.0,173589.0,40250.0,-696.3803511279968,-416.5463935874281,-1065.2674939772032
173589.0,3813.0,173589.0,16311.0,173589.0,40244.0,-702.6238126986909,-417.3198033716953,-1068.4275359474814
173589.0,3808.0,173589.0,16339.0,173589.0,40267.0,-708.8905314389965,-418.0812768509392,-1071.5616538641088
173589.0,3813.0,173589.0,16402.0,173589.0,40311.0,-715.1748894710023,-418.829203224848,-1074.6621590123666
173599.0,3799.0,173599.0,16363.0,173599.0,40310.0,-721.4705402366541,-419.56159112182723,-1077.7206626837412
173599.0,3795.0,173599.0,16366.0,173599.0,40296.0,-727.7703398193468,-420.2755066707434,-1080.727532398197
173599.0,3788.0,173599.0,16340.0,173599.0,40292.0,-734.0663831552326,-420.96708067055795,-1083.6717521150438
173599.0,3804.0,173599.0,16398.0,173599.0,40315.0,-740.3500300124892,-421.63182591578993,-1086.5411280521214
173599.0,3788.0,173599.0,16399.0,173599.0,40323.0,-746.6118036178482,-422.2646091151242,-1089.3223831034002
173599.0,3776.0,173599.0,16378.0,173599.0,40353.0,-752.841265419183,-422.8592593325491,-1092.0009479893938
173609.0,3766.0,173609.0,16342.0,173609.0,40314.0,-759.0270625907551,-423.4084566583019,-1094.5606600321034
173609.0,3769.0,173609.0,16375.0,173609.0,40297.0,-765.1570980241972,-423.90416236584787,-1096.983778812353
173609.0,3739.0,173609.0,16381.0,173609.0,40322.0,-771.2186713907568,-424.3380221213238,-1099.251432553004
173609.0,3764.0,173609.0,16375.0,173609.0,40329.0,-777.198595709999,-424.70134180288176,-1101.3440121231476
173609.0,3801.0,173609.0,16384.0,173609.0,40347.0,-783.0831380548939,-424.9849316583907,-1103.2411449469082
173609.0,3760.0,173609.0,16383.0,173609.0,40354.0,-788.8575966151416,-425.17907609279087,-1104.9214416970904
173620.0,3746.0,173620.0,16373.0,173620.0,40336.0,-794.505933475088,-425.2735747399953,-1106.3623159381107
173620.0,3734.0,173620.0,16375.0,173620.0,40335.0,-800.0109270145041,-425.2578591775393,-1107.5400595400013
173620.0,3747.0,173620.0,16386.0,173620.0,40389.0,-805.3545408917407,-425.1211572773203,-1108.4300470929802
173620.0,3747.0,173620.0,16405.0,173620.0,40407.0,-810.5180366125066,-424.8525193481196,-1109.0065945092813
173620.0,3721.0,173620.0,16410.0,173620.0,40346.0,-815.4818747860159,-424.4406234431825,-1109.2425231972256
173620.0,3730.0,173620.0,16396.0,173620.0,40370.0,-820.2257132778409,-423.87354232064575,-1109.1091591718973
173630.0,3722.0,173630.0,16390.0,173630.0,40355.0,-824.7285332457448,-423.1387395527444,-1108.5768732076547
173630.0,3707.0,173630.0,16369.0,173630.0,40370.0,-828.9687358642616,-422.2233639727406,-1107.6155679757924
173630.0,3706.0,173630.0,16411.0,173630.0,40359.0,-832.9242508890484,-421.1146283448058,-1106.1949330017444
173630.0,3694.0,173630.0,16393.0,173630.0,40365.0,-836.5727144202228,-419.7999610132911,-1104.2846687511822
173630.0,3712.0,173630.0,16428.0,173630.0,40413.0,-839.8916052706106,-418.26688237070346,-1101.854654506952
173630.0,3695.0,173630.0,16406.0,173630.0,40390.0,-842.8582536394186,-416.50282308637446,-1098.8748788742764
173640.0,3692.0,173640.0,16406.0,173640.0,40402.0,-845.4498118611557,-414.49508079867127,-1095.3152957789898
173640.0,3691.0,173640.0,16391.0,173640.0,40397.0,-847.6433235501597,-412.2310209076072,-1091.1459367887446
173640.0,3696.0,173640.0,16463.0,173640.0,40428.0,-849.4158291423294,-409.69831747844347,-1086.337171440286
173640.0,3696.0,173640.0,16452.0,173640.0,40429.0,-850.744379056295,-406.8847853959089,-1080.8598230940165
173640.0,3694.0,173640.0,16429.0,173640.0,40448.0,-851.6059875941284,-403.77793773182464,-1074.6851412654157
173640.0,3677.0,173640.0,16394.0,173640.0,40427.0,-851.9776558162932,-400.36500737602495,-1067.7848377880646
173651.0,3656.0,173651.0,16382.0,173651.0,40435.0,-851.836591625592,-396.6336701043623,-1060.1313617690673
173651.0,3665.0,173651.0,16405.0,173651.0,40442.0,-851.1606257750097,-392.5729311768715,-1051.6983656710725
173651.0,3682.0,173651.0,16458.0,173651.0,40455.0,-849.928559423039,-388.17352016735686,-1042.4611266242375
173651.0,3700.0,173651.0,16458.0,173651.0,40498.0,-848.1201606276229,-383.427573786792,-1032.396741672523
173651.0,3697.0,173651.0,16481.0,173651.0,40527.0,-845.7158812921546,-378.32801781400826,-1021.4840107242645
173651.0,3696.0,173651.0,16468.0,173651.0,40522.0,-842.6966210367634,-372.8681765812481,-1009.7031172219095
173661.0,3685.0,173661.0,16480.0,173661.0,40521.0,-839.0437450466737,-367.04172357370294,-997.0355180260406
173661.0,3684.0,173661.0,16470.0,173661.0,40574.0,-834.7393261574877,-360.84284383932913,-983.4641848075818
173661.0,3696.0,173661.0,16494.0,173661.0,40549.0,-829.7664478540686,-354.26645865346484,-968.9738494593943
173661.0,3703.0,173661.0,16553.0,173661.0,40566.0,-824.1093886461471,-347.30825358511254,-953.5512054969342
173661.0,3708.0,173661.0,16515.0,173661.0,40596.0,-817.7536539595386,-339.96434620527816,-937.1852743719935
173661.0,3707.0,173661.0,16483.0,173661.0,40630.0,-810.6859936604025,-332.2310833148814,-919.8677003423384
173671.0,3702.0,173671.0,16506.0,173671.0,40641.0,-802.894537219299,-324.1055162410247,-901.592749608167
173671.0,3711.0,173671.0,16504.0,173671.0,40656.0,-794.3690550336705,-315.58613540196063,-882.357279082165
173671.0,3732.0,173671.0,16551.0,173671.0,40722.0,-785.1012066502803,-306.67320044577605,-862.1608206771837
173671.0,3756.0,173671.0,16567.0,173671.0,40729.0,-775.084583959869,-297.3685951729738,-841.0055322873611
173671.0,3760.0,173671.0,16593.0,173671.0,40781.0,-764.3145435591322,-287.6754217455804,-818.8959608298203
173671.0,3761.0,173671.0,16578.0,173671.0,40773.0,-752.7880693077029,-277.5976397037144,-795.8388884479118
173682.0,3789.0,173682.0,16596.0,173682.0,40814.0,-740.503823078328,-267.14001277258933,-771.8434236187088
173682.0,3788.0,173682.0,16645.0,173682.0,40890.0,-727.462252253075,-256.3082176221047,-746.9211386113643
173682.0,3811.0,173682.0,16628.0,173682.0,40894.0,-713.6656447238471,-245.10875824732494,-721.0858988421116
173682.0,3828.0,173682.0,16627.0,173682.0,40922.0,-699.1181657814177,-233.54883351385234,-694.3535557594067
173682.0,3838.0,173682.0,16668.0,173682.0,40967.0,-683.8258707437861,-221.63648549570343,-666.7419318311771
173682.0,3851.0,173682.0,16650.0,173682.0,40970.0,-667.79672961199,-209.38081587733382,-638.2710019977462
173692.0,3857.0,173692.0,16677.0,173692.0,41037.0,-651.0407505726613,-196.79209408984036,-608.9630585122152
173692.0,3880.0,173692.0,16715.0,173692.0,41062.0,-633.5701818467107,-183.8818337816142,-578.8427937510379
173692.0,3915.0,173692.0,16704.0,173692.0,41114.0,-615.3996498940052,-170.66273610057146,-547.9372233614096
173692.0,3953.0,173692.0,16756.0,173692.0,41180.0,-596.5460615568452,-157.14853381500194,-516.2754651274585
173692.0,3971.0,173692.0,16759.0,173692.0,41186.0,-577.0282757376877,-143.35384918773497,-483.8884333856338
173692.0,3980.0,173692.0,16813.0,173692.0,41233.0,-556.8668091704786,-129.29396397206176,-450.80865648333463
173702.0,4010.0,173702.0,16796.0,173702.0,41289.0,-536.0837881648403,-114.98451319788154,-417.0703275769529
173702.0,4058.0,173702.0,16834.0,173702.0,41358.0,-514.702979712183,-100.44130057712056,-382.7092376049277
173702.0,4069.0,173702.0,16836.0,173702.0,41394.0,-492.74963005677444,-85.68029775592845,-347.7623707602204
173702.0,4103.0,173702.0,16850.0,173702.0,41391.0,-470.2502050750911,-70.71772166531366,-312.26755187507285
173702.0,4111.0,173702.0,16872.0,173702.0,41477.0,-447.23227651445706,-55.57014087892435,-276.26352497256335
173702.0,4144.0,173702.0,16873.0,173702.0,41472.0,-423.72456942163353,-40.25460032852254,-239.79022700001394
173713.0,4167.0,173713.0,16878.0,173713.0,41527.0,-399.7570484417648,-24.78879216649193,-202.88899441762794
173713.0,4197.0,173713.0,16900.0,173713.0,41601.0,-375.36094693820746,-9.191330904062795,-165.60272359703015
173713.0,4243.0,173713.0,16996.0,173713.0,41647.0,-350.5686934371373,6.518149050972852,-127.97577523750329
173713.0,4269.0,173713.0,16992.0,173713.0,41721.0,-325.41370807470435,22.319484877147033,-90.0535283124168
173713.0,4295.0,173713.0,16970.0,173713.0,41761.0,-299.93014287305914,38.192671852509875,-51.88185125940504
173713.0,4321.0,173713.0,17027.0,173713.0,41809.0,-274.1527327307243,54.11798058413899,-13.506689290534268
173723.0,4360.0,173723.0,17063.0,173723.0,41877.0,-248.11676006726526,70.07579094602897,25.026203310364963
173723.0,4386.0,173723.0,17102.0,173723.0,41935.0,-221.85799033489928,86.04687190414813,63.67154524524494
173723.0,4425.0,173723.0,17089.0,173723.0,41965.0,-195.41253677752906,102.01292775387816,102.38490704882747
173723.0,4448.0,173723.0,17095.0,173723.0,41972.0,-168.81671196467215,117.95678808715371,141.1228704738137
173723.0,4489.0,173723.0,17100.0,173723.0,42032.0,-142.1068993322329,133.8621004234417,179.84272701536133
173723.0,4509.0,173723.0,17119.0,173723.0,42089.0,-115.319441528634,149.7128599806103,218.5020731673012
173733.0,4563.0,173733.0,17155.0,173733.0,42145.0,-88.49051807779557,165.4931252038067,257.05878140324694
173733.0,4582.0,173733.0,17202.0,173733.0,42222.0,-61.65596261121374,181.18709564141108,295.4713543368741
173733.0,4620.0,173733.0,17213.0,173733.0,42219.0,-34.85104682833355,196.77952637888666,333.69936189764144
173733.0,4647.0,173733.0,17204.0,173733.0,42291.0,-8.110325138417124,212.2561132490755,371.7036289572734
173733.0,4672.0,173733.0,17223.0,173733.0,42319.0,18.532444970185452,227.60346278316632,409.44614436724714
173733.0,4694.0,173733.0,17246.0,173733.0,42361.0,45.044312002430274,242.80878902907455,446.8899557682282
173744.0,4735.0,173744.0,17274.0,173744.0,42440.0,71.39308220990074,257.85976265757347,483.9991728359455
173744.0,4761.0,173744.0,17279.0,173744.0,42492.0,97.54732437688381,272.74459372474973,520.7391914732673
173744.0,4801.0,173744.0,17311.0,173744.0,42512.0,123.47648939675753,287.45213802745207,557.0771198794712
173744.0,4804.0,173744.0,17291.0,173744.0,42546.0,149.15104042602644,301.97189184763806,592.9819866896976
173744.0,4839.0,173744.0,17314.0,173744.0,42590.0,174.54244282942375,316.2938106919743,628.4245642884014
173744.0,4868.0,173744.0,17299.0,173744.0,42610.0,199.6230432085938,330.40794630254675,663.3770956779119
173754.0,4917.0,173754.0,17378.0,173754.0,42685.0,224.3660671228037,344.30412892846766,697.813124185365
173754.0,4947.0,173754.0,17419.0,173754.0,42740.0,248.7458618708331,357.9721221909856,731.7075625071354
173754.0,4982.0,173754.0,17414.0,173754.0,42773.0,272.73826580262437,371.4023055127119,765.0370667142531
173754.0,4996.0,173754.0,17399.0,173754.0,42795.0,296.32090666650504,384.58619435243816,797.7803821234759
173754.0,5011.0,173754.0,17412.0,173754.0,42821.0,319.473292161687,397.5162683421778,829.9183096692088
173754.0,5061.0,173754.0,17457.0,173754.0,42898.0,342.17673996821406,410.1855285381248,861.4334756077671
173764.0,5087.0,173764.0,17491.0,173764.0,42931.0,364.414408980787,422.58746602793815,892.310360521944
173764.0,5078.0,173764.0,17478.0,173764.0,42948.0,386.1714708052102,434.71645022015207,922.5355902207509
173764.0,5087.0,173764.0,17487.0,173764.0,42958.0,407.4350436315076,446.5679724107482,952.0979912105702
173764.0,5120.0,173764.0,17462.0,173764.0,42989.0,428.19378778367457,458.13841292155655,980.9882067847818
173764.0,5133.0,173764.0,17482.0,173764.0,43055.0,448.43755799584164,469.42449790780427,1009.1982727787383
173764.0,5168.0,173764.0,17515.0,173764.0,43089.0,468.1573212329995,480.42282642058854,1036.7216005473094
173775.0,5192.0,173775.0,17585.0,173775.0,43104.0,487.3452351574558,491.129902937893,1063.553266247082
173775.0,5212.0,173775.0,17557.0,173775.0,43171.0,505.9948005168751,501.54273416481794,1089.6902120186187
173775.0,5227.0,173775.0,17568.0,173775.0,43138.0,524.1009925951595,511.65936690949536,1115.1312701909567
173775.0,5227.0,173775.0,17577.0,173775.0,43189.0,541.6602464687163,521.4788834615058,1139.8769843077696
173775.0,5264.0,173775.0,17596.0,173775.0,43178.0,558.6702982585506,531.001166189865,1163.9291764319785
173775.0,5270.0,173775.0,17635.0,173775.0,43243.0,575.1300504673405,540.2268867311066,1187.2905055951624
173785.0,5310.0,173785.0,17599.0,173785.0,43263.0,591.0395909977392,549.1576995377474,1209.964298643391
173785.0,5300.0,173785.0,17618.0,173785.0,43300.0,606.4002970849222,557.7962694281723,1231.9546655468919
173785.0,5304.0,173785.0,17610.0,173785.0,43286.0,621.2148177248315,566.1459711910909,1253.2666157541937
173785.0,5338.0,173785.0,17613.0,173785.0,43347.0,635.486853609301,574.2105040109873,1273.9059326197387
173785.0,5334.0,173785.0,17605.0,173785.0,43386.0,649.2209550731808,581.9935481082422,1293.8790607400606
173785.0,5354.0,173785.0,17661.0,173785.0,43361.0,662.4224553152443,589.498497886069,1313.193240770886
173795.0,5373.0,173795.0,17714.0,173795.0,43446.0,675.0974233991421,596.7286175260647,1331.8566082042853
173795.0,5380.0,173795.0,17677.0,173795.0,43434.0,687.2526469844993,603.6877099898971,1349.8782052854351
173795.0,5398.0,173795.0,17646.0,173795.0,43437.0,698.8956628087427,610.3805384014659,1367.2680333069263
173795.0,5402.0,173795.0,17671.0,173795.0,43460.0,710.0347598258437,616.8124310222175,1384.0368717951435
173795.0,5388.0,173795.0,17729.0,173795.0,43558.0,720.6788839316898,622.9887536867525,1400.1960524802087
173795.0,5407.0,173795.0,17710.0,173795.0,43518.0,730.8373752067173,628.9150489007501,1415.7577503018217
173806.0,5441.0,173806.0,17712.0,173806.0,43570.0,740.5197094085129,634.5974690669823,1430.7354672944402
173806.0,5431.0,173806.0,17704.0,173806.0,43508.0,749.735514595752,640.0428135732444,1445.1440229225736
173806.0,5449.0,173806.0,17676.0,173806.0,43535.0,758.4947168729692,645.2581513322012,1458.9989735358
173806.0,5449.0,173806.0,17719.0,173806.0,43557.0,766.8075457927984,650.2503260465639,1472.3158429609948
173806.0,5468.0,173806.0,17744.0,173806.0,43574.0,774.6844618321906,655.0257264616355,1485.1096656264408
173806.0,5470.0,173806.0,17728.0,173806.0,43640.0,782.1361371564249,659.5905156659838,1497.395036005596
173816.0,5480.0,173816.0,17749.0,173816.0,43598.0,789.1734711223506,663.9509266341425,1509.1864331983707
173816.0,5479.0,173816.0,17740.0,173816.0,43630.0,795.8075733958947,668.1133040648024,1520.4983830593865
173816.0,5498.0,173816.0,17739.0,173816.0,43616.0,802.0497102868812,672.0840076661009,1531.3452186123259
173816.0,5487.0,173816.0,17778.0,173816.0,43649.0,807.9112625141557,675.8693203698408,1541.7407033961367
173816.0,5507.0,173816.0,17784.0,173816.0,43709.0,813.403685945094,679.4755494775706,1551.6979281041527
173816.0,5510.0,173816.0,17744.0,173816.0,43695.0,818.5384769682407,682.9092638724668,1561.2296399517231
173827.0,5517.0,173827.0,17782.0,173827.0,43678.0,823.3271947479051,686.1772623511846,1570.3485975859453
173827.0,5504.0,173827.0,17750.0,173827.0,43716.0,827.7814711850192,689.2862931031876,1579.067443176301
173827.0,5488.0,173827.0,17742.0,173827.0,43695.0,831.9128382215576,692.2427689928049,1587.3983341264786
173827.0,5494.0,173827.0,17756.0,173827.0,43677.0,835.7323417619202,695.0524156980456,1595.3526112582085
173827.0,5521.0,173827.0,17772.0,173827.0,43762.0,839.2501968334423,697.7199901185999,1602.9404363031533
173827.0,5534.0,173827.0,17807.0,173827.0,43770.0,842.4757973106707,700.249378501513,1610.1707909468546
173837.0,5528.0,173837.0,17762.0,173837.0,43739.0,845.4180110692203,702.6439425906661,1617.0519423346122
173837.0,5534.0,173837.0,17767.0,173837.0,43779.0,848.0854000436807,704.9066158403024,1623.5916543092305
173837.0,5525.0,173837.0,17804.0,173837.0,43764.0,850.486215147385,707.0396605416155,1629.7969862669406
173837.0,5546.0,173837.0,17802.0,173837.0,43818.0,852.6283033912398,709.044607889367,1635.674189362963
173837.0,5532.0,173837.0,17829.0,173837.0,43810.0,854.5190726450828,710.9225772178796,1641.2288759082803
173837.0,5554.0,173837.0,17820.0,173837.0,43783.0,856.1655218852902,712.6746485378446,1646.466196653459
173847.0,5532.0,173847.0,17825.0,173847.0,43825.0,857.5742699084805,714.3020778688747,1651.3907100832496
173847.0,5550.0,173847.0,17774.0,173847.0,43812.0,858.7515316939894,715.8062359332367,1656.0061176018662
173847.0,5554.0,173847.0,17816.0,173847.0,43826.0,859.7030847012579,717.1882236281425,1660.3151781455747
173847.0,5550.0,173847.0,17849.0,173847.0,43886.0,860.4343159703615,718.4485871947642,1664.3197980623186
173847.0,5557.0,173847.0,17847.0,173847.0,43868.0,860.9502992474902,719.5875985068828,1668.0213690270482
173847.0,5557.0,173847.0,17840.0,173847.0,43897.0,861.255825061146,720.605776666611,1671.4212466746394
173858.0,5548.0,173858.0,17824.0,173858.0,43867.0,861.3554038234676,721.5040458048584,1674.520981352216
173858.0,5565.0,173858.0,17815.0,173858.0,43913.0,861.2532438273007,722.2834764529345,1677.3222685696262
173858.0,5561.0,173858.0,17846.0,173858.0,43890.0,860.9532606590777,722.944948420167,1679.8268923038252
173858.0,5569.0,173858.0,17875.0,173858.0,43923.0,860.4591765805054,723.4891398909806,1682.036774436075
173858.0,5573.0,173858.0,17857.0,173858.0,43949.0,859.7746530889173,723.9169337818022,1683.9541322922946
173858.0,5567.0,173858.0,17851.0,173858.0,43904.0,858.9034059429721,724.2297859980295,1685.5817219661503
173868.0,5556.0,173868.0,17815.0,173868.0,43933.0,857.849241824062,724.4296285569644,1686.9228961780582
173868.0,5565.0,173868.0,17836.0,173868.0,43912.0,856.6159719928779,724.51841074201,1687.981365281248
173868.0,5540.0,173868.0,17832.0,173868.0,43918.0,855.2072756743769,724.4976930939353,1688.7609284438247
173868.0,5563.0,173868.0,17843.0,173868.0,43941.0,853.6265737628149,724.368547147507,1689.2653165552474
173868.0,5569.0,173868.0,17882.0,173868.0,43970.0,851.8770017744091,724.1317345581688,1689.4982681635092
173868.0,5567.0,173868.0,17864.0,173868.0,43964.0,849.9615831241106,723.7880967770275,1689.4639172503012
173878.0,5562.0,173878.0,17883.0,173878.0,43949.0,847.8834508460494,723.3389731116288,1689.1671547627056
173878.0,5552.0,173878.0,17840.0,173878.0,43958.0,845.6459031451847,722.786361797951,1688.6136339027084
173878.0,5565.0,173878.0,17877.0,173878.0,43962.0,843.2523351771044,722.1327896364032,1687.8095890114557
173878.0,5567.0,173878.0,17864.0,173878.0,43962.0,840.70623920361,721.3811633307778,1686.7617633332095
173878.0,5554.0,173878.0,17861.0,173878.0,43984.0,838.0113236081592,720.5347845855893,1685.4774737942794
173878.0,5544.0,173878.0,17834.0,173878.0,43944.0,835.1715644768838,719.5973163801364,1683.964697230753
173889.0,5544.0,173889.0,17826.0,173889.0,43915.0,832.1910823693388,718.5724756833777,1682.2319107016617
173889.0,5562.0,173889.0,17852.0,173889.0,43941.0,829.0740343816731,717.4636407017986,1680.2875581428304
173889.0,5538.0,173889.0,17853.0,173889.0,43935.0,825.8246873155064,716.2737428854973,1678.1395822428176
173889.0,5550.0,173889.0,17898.0,173889.0,43961.0,822.447534206102,715.0055670320412,1675.795401735285
173889.0,5557.0,173889.0,17853.0,173889.0,44004.0,818.9473528858546,713.6622388060975,1673.2622690961034
173889.0,5521.0,173889.0,17865.0,173889.0,43950.0,815.3292752437012,712.2475029321739,1670.5478181747667
173899.0,5530.0,173899.0,17838.0,173899.0,43964.0,811.5987496509515,710.7655997042566,1667.660372494766
173899.0,5528.0,173899.0,17849.0,173899.0,43955.0,807.7613599623927,709.2209582542978,1664.6087893432539
173899.0,5532.0,173899.0,17858.0,173899.0,43978.0,803.8227599542125,707.6180019090739,1661.4022643639987
173899.0,5534.0,173899.0,17890.0,173899.0,43968.0,799.7887999207405,705.9612476296682,1658.0504100472474
173899.0,5521.0,173899.0,17858.0,173899.0,43953.0,795.6656853732311,704.2556690342931,1654.5634034268305
173899.0,5510.0,173899.0,17821.0,173899.0,43924.0,791.4600239666878,702.5068735912878,1650.9518829286453
173909.0,5496.0,173909.0,17823.0,173909.0,43924.0,787.1786997427876,700.7207255054445,1647.2265333347302
173909.0,5487.0,173909.0,17780.0,173909.0,43930.0,782.8286351889014,698.9026630387307,1643.3976458939746
173909.0,5502.0,173909.0,17846.0,173909.0,43960.0,778.4165946964025,697.057177563029,1639.475009415205
173909.0,5497.0,173909.0,17850.0,173909.0,43992.0,773.9491850231759,695.1878103500208,1635.4682837917944
173909.0,5489.0,173909.0,17853.0,173909.0,43924.0,769.4330161153528,693.2976851669787,1631.3875905323066
173909.0,5486.0,173909.0,17835.0,173909.0,43938.0,764.8748116072404,691.3900301563044,1627.2436946531495
173920.0,5476.0,173920.0,17821.0,173920.0,43927.0,760.2813979546453,689.4682456989688,1623.0476541591406
173920.0,5495.0,173920.0,17849.0,173920.0,43966.0,755.6596934068398,687.5357023140391,1618.8105620959568
173920.0,5478.0,173920.0,17868.0,173920.0,43911.0,751.0168099242313,685.5957379874817,1614.5436641413885
173920.0,5456.0,173920.0,17843.0,173920.0,43959.0,746.3601605603146,683.6519944572965,1610.258497228402
173920.0,5444.0,173920.0,17816.0,173920.0,43887.0,741.6973312556422,681.7086329616943,1605.9668343234753
173920.0,5442.0,173920.0,17845.0,173920.0,43900.0,737.0357613277821,679.7701257739272,1601.6804228473034
173930.0,5428.0,173930.0,17799.0,173930.0,43879.0,732.3824894274818,677.8409512330419,1597.4105305289563
173930.0,5439.0,173930.0,17797.0,173930.0,43914.0,727.7440456727891,675.9253459327729,1593.1675998540438
173930.0,5436.0,173930.0,17831.0,173930.0,43922.0,723.1264735456253,674.02702488516,1588.9613345423757
173930.0,5451.0,173930.0,17838.0,173930.0,43917.0,718.5355015763367,672.1491791534511,1584.801118555506
173930.0,5433.0,173930.0,17826.0,173930.0,43876.0,713.9768018832106,670.2948580907118,1580.6963140057294
173930.0,5415.0,173930.0,17803.0,173930.0,43875.0,709.4561370545377,668.4672281256691,1576.6560855349007
173940.0,5431.0,173940.0,17833.0,173940.0,43890.0,704.979291978508,666.6694732436538,1572.688983590263
173940.0,5428.0,173940.0,17837.0,173940.0,43929.0,700.5520110192247,664.9047296606327,1568.8028731828012
173940.0,5432.0,173940.0,17805.0,173940.0,43884.0,696.180140699282,663.1762529115274,1565.0053312995528
173940.0,5401.0,173940.0,17792.0,173940.0,43885.0,691.8698016384592,661.487422626751,1561.303958215578
173940.0,5386.0,173940.0,17788.0,173940.0,43876.0,687.627308261709,659.8413784741047,1557.706246284531
173940.0,5372.0,173940.0,17767.0,173940.0,43850.0,683.4588117951014,658.2405805996784,1554.2192589279807
173951.0,5379.0,173951.0,17771.0,173951.0,43858.0,679.3699172902169,656.6864725593746,1550.8493199338002
173951.0,5373.0,173951.0,17806.0,173951.0,43821.0,675.365513280916,655.1793134492546,1547.6016905802446
173951.0,5381.0,173951.0,17822.0,173951.0,43883.0,671.4498179410482,653.718405845597,1544.4803355722006
173951.0,5372.0,173951.0,17818.0,173951.0,43862.0,667.6265161143231,652.3026729976176,1541.4880143972252
173951.0,5367.0,173951.0,17792.0,173951.0,43855.0,663.898871726244,650.9310995973282,1538.6266332137368
173951.0,5356.0,173951.0,17788.0,173951.0,43849.0,660.2697385560596,649.6027042670617,1535.8974119623954
173961.0,5377.0,173961.0,17844.0,173961.0,43879.0,656.7415239025933,648.3163433060274,1533.3008281863588
173961.0,5361.0,173961.0,17834.0,173961.0,43879.0,653.3162588533153,647.0709143916116,1530.8367463105383
173961.0,5363.0,173961.0,17803.0,173961.0,43869.0,649.9957507928187,645.8658449179122,1528.504754623426
173961.0,5338.0,173961.0,17822.0,173961.0,43823.0,646.7816217828736,644.7012396750063,1526.3042748646742
173961.0,5322.0,173961.0,17725.0,173961.0,43826.0,643.6751275220091,643.577530036134,1524.2341853962562
173961.0,5328.0,173961.0,17770.0,173961.0,43852.0,640.6768337352895,642.4947744089717,1522.292306059156
173971.0,5332.0,173971.0,17755.0,173971.0,43831.0,637.78639077916,641.4519398118563,1520.4752547337753
173971.0,5336.0,173971.0,17820.0,173971.0,43858.0,635.0025744135546,640.4467453873874,1518.7786210369636
173971.0,5346.0,173971.0,17809.0,173971.0,43825.0,632.3235077559028,639.476185263923,1517.1971193039917
173971.0,5330.0,173971.0,17812.0,173971.0,43853.0,629.7469045799772,638.5372370464951,1515.7246258815271
173971.0,5336.0,173971.0,17772.0,173971.0,43852.0,627.2702125936223,637.6271995043468,1514.354214229676
173971.0,5325.0,173971.0,17786.0,173971.0,43857.0,624.8906304583685,636.743507769406,1513.0783175473111
173982.0,5343.0,173982.0,17805.0,173982.0,43865.0,622.6051119600049,635.8834329001352,1511.8889645022452
173982.0,5351.0,173982.0,17802.0,173982.0,43836.0,620.4105011030427,635.044113136803,1510.7779243869313
173982.0,5311.0,173982.0,17765.0,173982.0,43843.0,618.3037456085304,634.2227489681608,1509.7366506515323
173982.0,5321.0,173982.0,17774.0,173982.0,43835.0,616.2818995236506,633.416498670567,1508.7560716499238
173982.0,5298.0,173982.0,17741.0,173982.0,43856.0,614.3418563537222,632.6220804825667,1507.8264616041965
173982.0,5313.0,173982.0,17760.0,173982.0,43826.0,612.4800880391896,631.8353789971674,1506.9374770782251
173992.0,5318.0,173992.0,17800.0,173992.0,43843.0,610.6925760622908,631.0513088468949,1506.0781791644454
173992.0,5314.0,173992.0,17812.0,173992.0,43871.0,608.9749368215863,630.2641766372232,1505.2370437410332
173992.0,5315.0,173992.0,17782.0,173992.0,43854.0,607.3226017660612,629.4683227265537,1504.4021868076254
173992.0,5303.0,173992.0,17764.0,173992.0,43865.0,605.7308966017167,628.6583832988301,1503.5616939643076
173992.0,5299.0,173992.0,17784.0,173992.0,43840.0,604.1949974556426,627.8290332716375,1502.7037427619723
173992.0,5310.0,173992.0,17798.0,173992.0,43860.0,602.7098450967729,626.9747748301126,1501.8165243778813
174001.0,5305.0,174001.0,17794.0,174001.0,43854.0,601.2701489106237,626.090115791341,1500.888177488089
174001.0,5302.0,174001.0,17829.0,174001.0,43875.0,599.8704848381326,625.1699416744383,1499.906880425548
174001.0,5307.0,174001.0,17762.0,174001.0,43859.0,598.5053680487648,624.2098084473328,1498.8610655784955
174001.0,5299.0,174001.0,17773.0,174001.0,43823.0,597.1692883790186,623.2058849340933,1497.7395054677272
174001.0,5283.0,174001.0,17739.0,174001.0,43834.0,595.8567046648045,622.1544782445417,1496.5310523145208
174001.0,5318.0,174001.0,17762.0,174001.0,43840.0,594.5619880265651,621.0515126946797,1495.2242641911573
174012.0,5310.0,174012.0,17823.0,174012.0,43881.0,593.2795045143633,619.8924277968396,1493.807399760878
174012.0,5291.0,174012.0,17798.0,174012.0,43868.0,592.0038555060074,618.6726978225066,1492.26887101913
174012.0,5286.0,174012.0,17781.0,174012.0,43854.0,590.729932005898,617.3885056006545,1490.597741571371
174012.0,5278.0,174012.0,17740.0,174012.0,43833.0,589.4526980217352,616.0368138211632,1488.783825598353
174012.0,5270.0,174012.0,17764.0,174012.0,43842.0,588.1669440074023,614.614854201742,1486.8174182146865
174012.0,5274.0,174012.0,17786.0,174012.0,43843.0,586.8671198177092,613.119740896355,1484.689056222574
174022.0,5293.0,174022.0,17798.0,174022.0,43868.0,585.5472999613033,611.5486615495118,1482.3895746816668
174022.0,5282.0,174022.0,17755.0,174022.0,43834.0,584.2013501365514,609.8993324115615,1479.9103766267133
174022.0,5277.0,174022.0,17731.0,174022.0,43796.0,582.8231434603698,608.170043704343,1477.2435114823318
174022.0,5254.0,174022.0,17732.0,174022.0,43821.0,581.4065715970636,606.3591597211104,1474.3813175815667
174022.0,5284.0,174022.0,17709.0,174022.0,43815.0,579.9453793157429,604.4645411983222,1471.3160418846253
174022.0,5279.0,174022.0,17765.0,174022.0,43803.0,578.4331282544682,602.4832826189136,1468.0398176056372
174033.0,5278.0,174033.0,17761.0,174033.0,43834.0,576.8633973489588,600.4119203443477,1464.5448138155928
174033.0,5285.0,174033.0,17771.0,174033.0,43823.0,575.2300015696078,598.2470023848404,1460.8234601334827
174033.0,5268.0,174033.0,17745.0,174033.0,43788.0,573.5271016762093,595.9855645761909,1456.8687022312133
174033.0,5273.0,174033.0,17748.0,174033.0,43786.0,571.7492254243456,593.6252218524855,1452.6739645980529
174033.0,5275.0,174033.0,17746.0,174033.0,43788.0,569.8912449319124,591.1640426752143,1448.2328531700743
174033.0,5288.0,174033.0,17750.0,174033.0,43798.0,567.9484439461271,588.6004879913966,1443.5390371828544
174043.0,5233.0,174043.0,17706.0,174043.0,43787.0,565.9166326764328,585.9334066878489,1438.5864298520196
174043.0,5233.0,174043.0,17699.0,174043.0,43748.0,563.79198047879,583.1618123664697,1433.3693483353961
174043.0,5254.0,174043.0,17704.0,174043.0,43727.0,561.5705968834831,580.284443503518,1427.8823111622828
174043.0,5242.0,174043.0,17716.0,174043.0,43760.0,559.2483589264644,577.2995117710608,1422.1196068783238
174043.0,5244.0,174043.0,17714.0,174043.0,43753.0,556.8210658593196,574.2048308157115,1416.075178463309
174043.0,5267.0,174043.0,17731.0,174043.0,43825.0,554.284634001084,570.9981312733782,1409.7430989290601
174053.0,5259.0,174053.0,17730.0,174053.0,43762.0,551.635348052532,567.6774082825463,1403.118411627509
174053.0,5220.0,174053.0,17709.0,174053.0,43744.0,548.8701042406627,564.2412185904927,1396.1977242854236
174053.0,5215.0,174053.0,17692.0,174053.0,43705.0,545.9862973308128,560.6887350589797,1388.9790550346295
174053.0,5219.0,174053.0,17674.0,174053.0,43723.0,542.9814204126935,557.0194857601958,1381.4612482678617
174053.0,5235.0,174053.0,17708.0,174053.0,43726.0,539.852865261639,553.2330448210586,1373.6436686861605
174053.0,5224.0,174053.0,17737.0,174053.0,43692.0,536.5980913248274,549.3291182253663,1365.5263233306073
174064.0,5220.0,174064.0,17662.0,174064.0,43684.0,533.2148821173886,545.3080144658879,1357.1099846115983
174064.0,5207.0,174064.0,17667.0,174064.0,43673.0,529.7014320940515,541.1707978212688,1348.3960735087894
174064.0,5201.0,174064.0,17638.0,174064.0,43639.0,526.0562701357418,536.9188267591669,1339.386468858274
174064.0,5200.0,174064.0,17643.0,174064.0,43635.0,522.2781472019531,532.5532096705988,1330.0833013674724
174064.0,5203.0,174064.0,17688.0,174064.0,43638.0,518.3660035472869,528.0746453738403,1320.4887646750904
174064.0,5191.0,174064.0,17691.0,174064.0,43630.0,514.3190418490531,523.4838062015035,1310.6051437329104
174074.0,5190.0,174074.0,17649.0,174074.0,43619.0,510.1368091391132,518.7819863925631,1300.4350401963143
174074.0,5162.0,174074.0,17651.0,174074.0,43592.0,505.81917828218576,513.9713620989078,1289.9815357077446
174074.0,5154.0,174074.0,17618.0,174074.0,43595.0,501.3661763970409,509.054735464952,1279.2481857253797
174074.0,5191.0,174074.0,17641.0,174074.0,43596.0,496.7778018843968,504.0351978080459,1268.239021878836
174074.0,5183.0,174074.0,17610.0,174074.0,43577.0,492.0541659960214,498.91598096495915,1256.958736770504
174074.0,5153.0,174074.0,17620.0,174074.0,43561.0,487.19588406341956,493.70044408821707,1245.4129094253685
174084.0,5150.0,174084.0,17593.0,174084.0,43517.0,482.2042064005435,488.392048055432,1233.6080101709954
174084.0,5134.0,174084.0,17575.0,174084.0,43472.0,477.0808058842589,482.99422631443446,1221.5510572692347
174084.0,5138.0,174084.0,17599.0,174084.0,43491.0,471.82756417892705,477.51019050231565,1209.2490485363867
174084.0,5110.0,174084.0,17557.0,174084.0,43472.0,466.44647595044523,471.9428386956319,1196.7086109203362
174084.0,5130.0,174084.0,17597.0,174084.0,43466.0,460.93958803604306,466.2948066609594,1183.9360904157857
174084.0,5123.0,174084.0,17597.0,174084.0,43470.0,455.30902409631267,460.56866200887293,1170.9378311576388
174095.0,5110.0,174095.0,17557.0,174095.0,43411.0,449.55714729655125,454.7672431843185,1157.7203965854242
174095.0,5095.0,174095.0,17550.0,174095.0,43403.0,443.6866707153499,448.893789054255,1144.290542236663
174095.0,5069.0,174095.0,17537.0,174095.0,43397.0,437.70053933735903,442.95168293408324,1130.654956141514
174095.0,5101.0,174095.0,17521.0,174095.0,43403.0,431.601717106103,436.9441408133948,1116.8201774106037
174095.0,5077.0,174095.0,17565.0,174095.0,43379.0,425.39317237930976,430.87411282663095,1102.792868857801
174095.0,5066.0,174095.0,17534.0,174095.0,43371.0,419.07805156981186,424.74450309631357,1088.5801520230461
174105.0,5046.0,174105.0,17495.0,174105.0,43329.0,412.65971100684385,418.5584609554789,1074.1897473583606
174105.0,5040.0,174105.0,17489.0,174105.0,43283.0,406.1415300118697,412.31924561713265,1059.629814106162
174105.0,5039.0,174105.0,17514.0,174105.0,43265.0,399.52673375907847,406.02984025059476,1044.908477474733
174105.0,5029.0,174105.0,17478.0,174105.0,43269.0,392.8183654467902,399.69287997619864,1030.0333423567167
174105.0,5029.0,174105.0,17502.0,174105.0,43259.0,386.01936517525075,393.31083701665005,1015.0114021178973
174105.0,5020.0,174105.0,17482.0,174105.0,43259.0,379.1326744801052,386.88618161947176,999.8493462533528
174115.0,5001.0,174115.0,17451.0,174115.0,43195.0,372.1613097581785,380.4214640252847,984.5538902646799
174115.0,4997.0,174115.0,17443.0,174115.0,43192.0,365.108341751487,373.9191838335807,969.1317693353344
174115.0,4991.0,174115.0,17492.0,174115.0,43175.0,357.9768214634027,367.38159441334216,953.589478552627
174115.0,4995.0,174115.0,17455.0,174115.0,43189.0,350.7697960887936,360.8108976112063,937.9332107424386
174115.0,4975.0,174115.0,17441.0,174115.0,43162.0,343.49043711698096,354.2096465453038,922.1691616924022
174115.0,4953.0,174115.0,17426.0,174115.0,43127.0,336.14210848907794,347.58079786195935,906.3038787597798
174126.0,4943.0,174126.0,17408.0,174126.0,43089.0,328.72823102009005,340.9274497959277,890.3442681477989
174126.0,4945.0,174126.0,17389.0,174126.0,43039.0,321.2520724931209,334.25255532935114,874.2971918265009
174126.0,4937.0,174126.0,17390.0,174126.0,43050.0,313.71669806495976,327.5586710622515,858.168910885267
174126.0,4935.0,174126.0,17417.0,174126.0,43089.0,306.12509301729733,320.8478833594879,841.9648972128448
174126.0,4927.0,174126.0,17376.0,174126.0,43050.0,298.48032418495416,314.12203715937653,825.6903553050565
174126.0,4901.0,174126.0,17368.0,174126.0,43019.0,290.7856347262649,307.3829577433878,809.350942011248
174136.0,4900.0,174136.0,17362.0,174136.0,42973.0,283.04440130215175,300.6323699401039,792.9529271679291
174136.0,4883.0,174136.0,17336.0,174136.0,42974.0,275.26000819655377,293.8716968361297,776.5028536149396
174136.0,4885.0,174136.0,17367.0,174136.0,42970.0,267.43577790337156,287.1019666170639,760.0072954063805
174136.0,4871.0,174136.0,17389.0,174136.0,42945.0,259.5749965188172,280.3240035531803,743.4730013677583
174136.0,4842.0,174136.0,17366.0,174136.0,42896.0,251.68093264289075,273.5389901099986,726.9071121273862
174136.0,4856.0,174136.0,17303.0,174136.0,42874.0,243.75675051878386,266.7488962428115,710.3170395817012
174146.0,4817.0,174146.0,17283.0,174146.0,42844.0,235.8053921796651,259.95616871619916,693.7100793883073
174146.0,4824.0,174146.0,17284.0,174146.0,42800.0,227.82949325771108,253.16294346813788,677.0930233752233
174146.0,4819.0,174146.0,17305.0,174146.0,42843.0,219.83132223984887,246.37057626487046,660.4719092415883
174146.0,4823.0,174146.0,17314.0,174146.0,42799.0,211.81285843379487,239.57983358784395,643.8521198161675
174146.0,4804.0,174146.0,17309.0,174146.0,42790.0,203.77601666135638,232.79145836062878,627.2387770297264
174146.0,4784.0,174146.0,17267.0,174146.0,42753.0,195.7227899296273,226.00660657674484,610.636983175644
174157.0,4766.0,174157.0,17254.0,174157.0,42720.0,187.65515823485214,219.22681683591418,594.0517413146533
174157.0,4773.0,174157.0,17260.0,174157.0,42705.0,179.57488485493002,212.45366655024122,577.4877125019177
174157.0,4773.0,174157.0,17276.0,174157.0,42741.0,171.4834712427953,205.6886267700064,560.9491152508151
174157.0,4757.0,174157.0,17254.0,174157.0,42686.0,163.3823412907194,198.93331187661818,544.4400483718637
174157.0,4736.0,174157.0,17221.0,174157.0,42646.0,155.2730080189341,192.18973351323712,527.9648808664667
174157.0,4727.0,174157.0,17200.0,174157.0,42624.0,147.15702431363263,185.46014788197442,511.5281441161551
174167.0,4709.0,174167.0,17213.0,174167.0,42601.0,139.03580872956604,178.74664811966886,495.1341164488424
174167.0,4714.0,174167.0,17168.0,174167.0,42598.0,130.91051832133314,172.05089428115332,478.78659574233325
174167.0,4724.0,174167.0,17222.0,174167.0,42577.0,122.78209594955342,165.37406181182064,462.488961108538
174167.0,4706.0,174167.0,17190.0,174167.0,42575.0,114.65153249451112,158.7170125007467,446.244398057602
174167.0,4675.0,174167.0,17179.0,174167.0,42548.0,106.52010514223923,152.08061299360452,430.05616762349337
174167.0,4673.0,174167.0,17176.0,174167.0,42519.0,98.38931648021537,145.46587906029174,413.92779386680354
174177.0,4663.0,174177.0,17154.0,174177.0,42481.0,90.26067804193167,138.87390510982016,397.8630300033469
174177.0,4664.0,174177.0,17186.0,174177.0,42483.0,82.13564180744333,132.3058419989843,381.86564351225434
174177.0,4649.0,174177.0,17175.0,174177.0,42467.0,74.01569984579703,125.7631011825365,365.9393115113767
174177.0,4623.0,174177.0,17137.0,174177.0,42437.0,65.90245979562326,119.24767385757559,350.0877497184449
174177.0,4618.0,174177.0,17131.0,174177.0,42410.0,57.797552448120086,112.762172449599,334.3148198832041
174177.0,4617.0,174177.0,17107.0,174177.0,42379.0,49.70247661116366,106.30952758988315,318.6244172381421
174188.0,4585.0,174188.0,17090.0,174188.0,42353.0,41.61854714460924,99.89263596192916,303.02022080930215
174188.0,4598.0,174188.0,17114.0,174188.0,42342.0,33.546879333606284,93.51413296326132,287.50546025929157
174188.0,4603.0,174188.0,17101.0,174188.0,42350.0,25.48841967279759,87.17642567731446,272.08287520195177
174188.0,4571.0,174188.0,17089.0,174188.0,42316.0,17.44414039629146,80.8819455924687,256.7549559206225
174188.0,4569.0,174188.0,17065.0,174188.0,42276.0,9.41519939336365,74.63328100074921,241.52419219003855
174188.0,4560.0,174188.0,17059.0,174188.0,42261.0,1.4029055999791353,68.43304328563875,226.39299619881717
174198.0,4557.0,174198.0,17116.0,174198.0,42267.0,-6.591311851226578,62.28379283039749,211.3634937614006
174198.0,4559.0,174198.0,17081.0,174198.0,42255.0,-14.565793155840424,56.188410987645284,196.4376168099168
174198.0,4524.0,174198.0,17029.0,174198.0,42188.0,-22.51849525029911,50.15057803606874,181.61738173721028
174198.0,4525.0,174198.0,16982.0,174198.0,42197.0,-30.446971210249103,44.174551586008306,166.90487592250315
174198.0,4493.0,174198.0,17016.0,174198.0,42192.0,-38.34852217851255,38.26432423968322,152.30205760002082
174198.0,4472.0,174198.0,16958.0,174198.0,42141.0,-46.22044702572282,32.422986049588644,137.8107879052743
174208.0,4487.0,174208.0,16993.0,174208.0,42137.0,-54.060314953247826,26.65251830764589,123.43291694186564
174208.0,4483.0,174208.0,17007.0,174208.0,42136.0,-61.86604661223669,20.953844526811736,109.17023559539098
174208.0,4467.0,174208.0,17003.0,174208.0,42102.0,-69.63571477652442,15.327221518715533,95.0245520617948
174208.0,4459.0,174208.0,16987.0,174208.0,42080.0,-77.36734391431492,9.772770181376927,80.99784647852971
174208.0,4444.0,174208.0,16964.0,174208.0,42050.0,-85.05888681349461,4.290692667300618,67.09222229515194
174208.0,4429.0,174208.0,16947.0,174208.0,42068.0,-92.70829738008251,-1.1188908608398833,53.30977168754134
174219.0,4433.0,174219.0,16951.0,174219.0,42020.0,-100.31361063526822,-6.456234954844376,39.652626118422404
174219.0,4389.0,174219.0,16998.0,174219.0,42021.0,-107.8730077185694,-11.722014679415224,26.123111020270926
174219.0,4413.0,174219.0,16937.0,174219.0,41951.0,-115.38491655553116,-16.91695448756559,12.723721203083187
174219.0,4385.0,174219.0,16923.0,174219.0,41942.0,-122.84809765794307,-22.041533943900504,-0.5432004701615369
174219.0,4376.0,174219.0,16917.0,174219.0,41892.0,-130.26163820864122,-27.096219542441077,-13.675975990713823
174219.0,4375.0,174219.0,16920.0,174219.0,41923.0,-137.624955659551,-32.08183202810312,-26.67401142679614
174229.0,4376.0,174229.0,16928.0,174229.0,41920.0,-144.93778659130624,-36.99957363374176,-39.537780511040864
174229.0,4367.0,174229.0,16928.0,174229.0,41910.0,-152.20003538713433,-41.850763777759084,-52.268326074322886
174229.0,4351.0,174229.0,16896.0,174229.0,41877.0,-159.41159201522294,-46.63655639080025,-64.86670835130894
174229.0,4352.0,174229.0,16878.0,174229.0,41844.0,-166.57226261178573,-51.35792822609005,-77.33383928395278
174229.0,4335.0,174229.0,16881.0,174229.0,41843.0,-173.68176228017558,-56.01595633279885,-89.67066030094429
174229.0,4332.0,174229.0,16898.0,174229.0,41842.0,-180.73969726234884,-60.612004203220636,-101.87826487849111
174239.0,4327.0,174239.0,16897.0,174239.0,41821.0,-187.74553447170717,-65.14752919323053,-113.95772301318902
174239.0,4294.0,174239.0,16882.0,174239.0,41773.0,-194.69858673562464,-69.62369735879793,-125.90986661568968
174239.0,4291.0,174239.0,16868.0,174239.0,41755.0,-201.59811292983056,-74.04117398487551,-137.7354142340448
174239.0,4274.0,174239.0,16853.0,174239.0,41750.0,-208.443533028464,-78.40019703158964,-149.43531973402878
174239.0,4260.0,174239.0,16824.0,174239.0,41733.0,-215.2346184579785,-82.70082622205007,-161.01093815060676
174239.0,4283.0,174239.0,16835.0,174239.0,41692.0,-221.97156873083327,-86.9432584831037,-172.4639945184897
174250.0,4260.0,174250.0,16831.0,174250.0,41744.0,-228.65489949126072,-91.12802760188254,-183.79654182640888
174250.0,4257.0,174250.0,16867.0,174250.0,41701.0,-235.28521887235615,-95.25587560287795,-195.01072389043134
174250.0,4245.0,174250.0,16838.0,174250.0,41662.0,-241.86311476191838,-99.32732011787289,-206.10839165986135
174250.0,4220.0,174250.0,16803.0,174250.0,41645.0,-248.3891974837752,-103.34231640442533,-217.09109501544526
174250.0,4231.0,174250.0,16770.0,174250.0,41632.0,-254.8642169298646,-107.30046124320813,-227.96042369909037
174250.0,4239.0,174250.0,16792.0,174250.0,41633.0,-261.2890861571366,-111.20158896138378,-238.71818330644487
174260.0,4204.0,174260.0,16813.0,174260.0,41603.0,-267.6647041714456,-115.04608164799652,-249.3662889201687
174260.0,4198.0,174260.0,16762.0,174260.0,41600.0,-273.99184095624344,-118.83466286264672,-259.9066110844251
174260.0,4187.0,174260.0,16756.0,174260.0,41564.0,-280.27127292631076,-122.56824753955357,-270.34092786961423
174260.0,4176.0,174260.0,16738.0,174260.0,41528.0,-286.50396236470874,-126.24822447797953,-280.6710416623189
174260.0,4171.0,174260.0,16755.0,174260.0,41495.0,-292.69113915873993,-129.87680509756535,-290.89913752911207
174260.0,4168.0,174260.0,16766.0,174260.0,41523.0,-298.834313137295,-133.45702962303108,-301.0282090587282
174271.0,4163.0,174271.0,16797.0,174271.0,41513.0,-304.93521292517755,-136.99236384744097,-311.06210032643276
174271.0,4172.0,174271.0,16763.0,174271.0,41505.0,-310.9956411510037,-140.48608066062798,-321.00508901325543
174271.0,4133.0,174271.0,16761.0,174271.0,41481.0,-317.0173107165232,-143.9408390792438,-330.8614497132053
174271.0,4145.0,174271.0,16753.0,174271.0,41480.0,-323.0018098049716,-147.35865698147597,-340.63526240927104
174271.0,4143.0,174271.0,16734.0,174271.0,41445.0,-328.9506571261321,-150.74105283283245,-350.3303607576572
174271.0,4132.0,174271.0,16740.0,174271.0,41437.0,-334.8652308125065,-154.0891721813514,-359.9503492266076
174281.0,4119.0,174281.0,16722.0,174281.0,41406.0,-340.74662960884996,-157.40387863709884,-369.498709209412
174281.0,4098.0,174281.0,16686.0,174281.0,41403.0,-346.59568689929836,-160.68587405893163,-378.97893733683895
174281.0,4088.0,174281.0,16645.0,174281.0,41373.0,-352.41315372877546,-163.93608671859204,-388.3946430276169
174281.0,4055.0,174281.0,16690.0,174281.0,41348.0,-358.1999718671992,-167.15628896587918,-397.74964766738503
174281.0,4076.0,174281.0,16640.0,174281.0,41343.0,-363.95755998986635,-170.3494667637998,-407.04815208666196
174281.0,4067.0,174281.0,16728.0,174281.0,41357.0,-369.68793080843705,-173.51971235488327,-416.2948062748351
174291.0,4072.0,174291.0,16735.0,174291.0,41375.0,-375.3935318512298,-176.6716318719583,-425.49438978694707
174291.0,4059.0,174291.0,16712.0,174291.0,41302.0,-381.07698387152584,-179.8093891955823,-434.65124234035284
174291.0,4045.0,174291.0,16658.0,174291.0,41283.0,-386.7409313241999,-182.9361144607318,-443.76907990557766
174291.0,4033.0,174291.0,16659.0,174291.0,41259.0,-392.388063518404,-186.05419313471316,-452.8514187682281
174291.0,4044.0,174291.0,16680.0,174291.0,41303.0,-398.02120315420916,-189.16585273675105,-461.90197604626974
174291.0,4026.0,174291.0,16674.0,174291.0,41256.0,-403.64328811893904,-192.27328620306503,-470.92451229172684
174302.0,4029.0,174302.0,16628.0,174302.0,41230.0,-409.2572525259071,-195.3784494379472,-479.92247426116774
174302.0,4006.0,174302.0,16615.0,174302.0,41203.0,-414.8659526116817,-198.48317045274382,-488.8990347387589
174302.0,3986.0,174302.0,16642.0,174302.0,41217.0,-420.4722304911023,-201.58957407790115,-497.85740181279834
174302.0,3984.0,174302.0,16626.0,174302.0,41176.0,-426.0791217502675,-204.70024745321257,-506.80093407718573
174302.0,3998.0,174302.0,16614.0,174302.0,41160.0,-431.69001655665045,-207.81807337436783,-515.7331183223591
174302.0,4000.0,174302.0,16647.0,174302.0,41172.0,-437.30852527251227,-210.9460713998078,-524.6576261504508
174312.0,3986.0,174312.0,16644.0,174312.0,41169.0,-442.93812739105647,-214.08716568187322,-533.5782328714254
174312.0,3969.0,174312.0,16631.0,174312.0,41133.0,-448.5819355739851,-217.24377217479764,-542.4984933367934
174312.0,3949.0,174312.0,16592.0,174312.0,41103.0,-454.24274872266267,-220.41758356699881,-551.4215773176215
174312.0,3940.0,174312.0,16615.0,174312.0,41109.0,-459.92329684598224,-223.6097603071563,-560.3504484780328
174312.0,3956.0,174312.0,16629.0,174312.0,41133.0,-465.626438835856,-226.8211067388106,-569.2879396070637
174312.0,3949.0,174312.0,16602.0,174312.0,41092.0,-471.35510057235865,-230.0518801814477,-578.2363941545741
174322.0,3915.0,174322.0,16562.0,174322.0,41064.0,-477.1120665967975,-233.30161744160137,-587.1972848038131
174322.0,3920.0,174322.0,16547.0,174322.0,41030.0,-482.8999652459097,-236.5694603927002,-596.171308872129
174322.0,3905.0,174322.0,16563.0,174322.0,41009.0,-488.72144108858777,-239.85472362579833,-605.1588370514708
174322.0,3898.0,174322.0,16568.0,174322.0,40977.0,-494.57926364037405,-243.1571173186735,-614.1603775066849
174322.0,3903.0,174322.0,16554.0,174322.0,41004.0,-500.47632774925194,-246.4765443965033,-623.1768731854665
174322.0,3921.0,174322.0,16561.0,174322.0,41015.0,-506.41551520980477,-249.8128403135962,-632.2095935281657
174333.0,3887.0,174333.0,16539.0,174333.0,40968.0,-512.3993851373275,-253.16565783657632,-641.259618531479
174333.0,3886.0,174333.0,16527.0,174333.0,40936.0,-518.4299459787711,-256.5344867204784,-650.3274999898199
174333.0,3852.0,174333.0,16501.0,174333.0,40909.0,-524.5087276435753,-259.9188406707103,-659.4135046320503
174333.0,3873.0,174333.0,16525.0,174333.0,40959.0,-530.6370019126667,-263.31852661140795,-668.5179797575099
174333.0,3863.0,174333.0,16532.0,174333.0,40922.0,-536.81585763774,-266.73369069529633,-677.6412059201211
174333.0,3859.0,174333.0,16533.0,174333.0,40875.0,-543.0460456950909,-270.16449940383814,-686.7829673603947
174343.0,3830.0,174343.0,16499.0,174343.0,40862.0,-549.327822341845,-273.61076941492547,-695.9425565802535
174343.0,3826.0,174343.0,16464.0,174343.0,40836.0,-555.6610095149289,-277.0719914560268,-705.1191989080603
174343.0,3812.0,174343.0,16484.0,174343.0,40830.0,-562.0451890937553,-280.54775826956893,-714.3123850790282
174343.0,3815.0,174343.0,16458.0,174343.0,40825.0,-568.4798287609977,-284.0381474406163,-723.5219418658364
174343.0,3798.0,174343.0,16500.0,174343.0,40849.0,-574.9642787638938,-287.5437494698456,-732.7478286387229
174343.0,3808.0,174343.0,16506.0,174343.0,40797.0,-581.4976982827963,-291.06533299662385,-741.9897043915266
174353.0,3786.0,174353.0,16450.0,174353.0,40782.0,-588.078951905247,-294.6033616737275,-751.2466335620504
174353.0,3774.0,174353.0,16485.0,174353.0,40775.0,-594.706543018665,-298.1578078938678,-760.5171613707194
174353.0,3785.0,174353.0,16498.0,174353.0,40766.0,-601.3786286828764,-301.7281803867819,-769.799434920089
174353.0,3773.0,174353.0,16481.0,174353.0,40769.0,-608.0929763971055,-305.31325976408834,-779.0910726219734
174353.0,3767.0,174353.0,16465.0,174353.0,40739.0,-614.846798065155,-308.9107302390544,-788.3888872526484
174353.0,3748.0,174353.0,16405.0,174353.0,40727.0,-621.6366332503947,-312.51724992166794,-797.6886934259257
174364.0,3727.0,174364.0,16433.0,174364.0,40688.0,-628.4584072841285,-316.12897393140304,-806.9853311368176
174364.0,3708.0,174364.0,16366.0,174364.0,40647.0,-635.3076562454486,-319.7421439024913,-816.2729358724328
174364.0,3707.0,174364.0,16380.0,174364.0,40642.0,-642.179815733729,-323.3535679370234,-825.5454008184925
174364.0,3698.0,174364.0,16444.0,174364.0,40674.0,-649.0703975131851,-326.96087374742945,-834.7966792251152
174364.0,3704.0,174364.0,16443.0,174364.0,40643.0,-655.974969180581,-330.5620959464584,-844.0205486981806
174364.0,3679.0,174364.0,16392.0,174364.0,40629.0,-662.8890219989388,-334.1548201779623,-853.2101148684533
174374.0,3689.0,174374.0,16398.0,174374.0,40609.0,-669.8078646563674,-337.7358373325967,-862.3575828405801
174374.0,3678.0,174374.0,16360.0,174374.0,40560.0,-676.7265471467323,-341.30145768874775,-871.4543654599624
174374.0,3680.0,174374.0,16412.0,174374.0,40599.0,-683.6397238602071,-344.847843565885,-880.4913121176803
174374.0,3663.0,174374.0,16381.0,174374.0,40576.0,-690.5414843795877,-348.37095586616476,-889.4587183910121
174374.0,3677.0,174374.0,16390.0,174374.0,40546.0,-697.4252169182001,-351.8662401013595,-898.3460318256341
174374.0,3629.0,174374.0,16327.0,174374.0,40515.0,-704.2835147129683,-355.3285033291771,-907.1417176118089
174384.0,3627.0,174384.0,16353.0,174384.0,40502.0,-711.1082429644722,-358.7521986869617,-915.8335071112924
174384.0,3624.0,174384.0,16342.0,174384.0,40493.0,-717.8907766826513,-362.13178377764655,-924.4086896274853
174384.0,3633.0,174384.0,16330.0,174384.0,40500.0,-724.6221041198714,-365.4618029833167,-932.8541462847884
174384.0,3612.0,174384.0,16366.0,174384.0,40499.0,-731.2926604821507,-368.73675662159565,-941.1560819119704
174384.0,3623.0,174384.0,16321.0,174384.0,40470.0,-737.8921107743005,-371.9508785481079,-949.2996192838013
174384.0,3587.0,174384.0,16311.0,174384.0,40436.0,-744.4092399422971,-375.09800047476233,-957.268594137681
174395.0,3570.0,174395.0,16312.0,174395.0,40425.0,-750.8320174327505,-378.17170961275656,-965.0457214466899
174395.0,3590.0,174395.0,16320.0,174395.0,40426.0,-757.1478082009014,-381.16553878193656,-972.6128602744852
174395.0,3576.0,174395.0,16334.0,174395.0,40424.0,-763.3434411648441,-384.0728370688514,-979.9510114824079
174395.0,3571.0,174395.0,16307.0,174395.0,40378.0,-769.4050302825315,-386.8864325508998,-987.0401136395487
174395.0,3556.0,174395.0,16285.0,174395.0,40352.0,-775.317821881953,-389.5984677656817,-993.8590546420805
174395.0,3534.0,174395.0,16313.0,174395.0,40318.0,-781.0662326175909,-392.2005316085165,-1000.3860798055459
174405.0,3517.0,174405.0,16256.0,174405.0,40302.0,-786.6340562705129,-394.6838207836407,-1006.5993562914068
174405.0,3512.0,174405.0,16246.0,174405.0,40317.0,-792.004758946183,-397.0393331046482,-1012.4773626803278
174405.0,3527.0,174405.0,16293.0,174405.0,40343.0,-797.1616587968333,-399.2581860184814,-1017.9988210791398
174405.0,3521.0,174405.0,16282.0,174405.0,40334.0,-802.0878208106672,-401.3316113792034,-1023.1421158003695
174405.0,3500.0,174405.0,16250.0,174405.0,40280.0,-806.7658088698258,-403.2505660502187,-1027.884676911323
174405.0,3496.0,174405.0,16239.0,174405.0,40259.0,-811.1776012094815,-405.00562240179147,-1032.2029465965193
174415.0,3478.0,174415.0,16242.0,174415.0,40247.0,-815.3047163899481,-406.5872745886122,-1036.0728805006368
174415.0,3488.0,174415.0,16259.0,174415.0,40263.0,-819.1283621596222,-407.9861408178848,-1039.4703675813644
174415.0,3486.0,174415.0,16256.0,174415.0,40248.0,-822.6294540040061,-409.1928008567037,-1042.3712151003606
174415.0,3456.0,174415.0,16230.0,174415.0,40219.0,-825.7885363688941,-410.1975220499485,-1044.7509484530817
174415.0,3448.0,174415.0,16219.0,174415.0,40168.0,-828.5858439508411,-410.99024854520326,-1046.5849163644325
174415.0,3441.0,174415.0,16187.0,174415.0,40155.0,-831.0015745140599,-411.5609309425613,-1047.848878307632
174426.0,3431.0,174426.0,16203.0,174426.0,40170.0,-833.0161553098941,-411.89998015528136,-1048.5196884116672
174426.0,3428.0,174426.0,16197.0,174426.0,40171.0,-834.6103985036497,-411.9985645063639,-1048.5755444013305
