c_ts,c_val,d_ts,d_val,e_ts,e_val,c_val_filtered,d_val_filtered,e_val_filtered
138351,8834,138351.0,42741.0,138351.0,54356.0,-348.1674032741553,-91.35629021663053,-245.6250160225914
138351,8814,138351.0,42662.0,138351.0,54301.0,-355.40932484654047,-96.94349954005601,-249.3445736612268
138351,8785,138351.0,42612.0,138351.0,54309.0,-362.59140226037897,-102.38207300517301,-252.8428832033544
138351,8778,138351.0,42602.0,138351.0,54292.0,-369.6879275288609,-107.64226592737184,-256.09256364128925
138361,8770,138361.0,42657.0,138361.0,54322.0,-376.6736111778698,-112.6977616396162,-259.0674690316444
138361,8804,138361.0,42708.0,138361.0,54333.0,-383.5237694466712,-117.52565028466393,-261.74261381426317
138361,8801,138361.0,42720.0,138361.0,54341.0,-390.2141023738974,-122.10535379106724,-264.0937711467584
138361,8770,138361.0,42684.0,138361.0,54317.0,-396.7202861779476,-126.4174125060926,-266.09707088532434
138361,8754,138361.0,42604.0,138361.0,54265.0,-403.01787855506257,-130.44313185670836,-267.72901893208046
138361,8737,138361.0,42604.0,138361.0,54276.0,-409.0826651763694,-134.16533859028402,-268.96707835609686
138371,8748,138371.0,42662.0,138371.0,54298.0,-414.8910839019309,-137.56938306611744,-269.79033544417945
138371,8769,138371.0,42702.0,138371.0,54312.0,-420.42035715004585,-140.64320022398027,-270.1796321463548
138371,8752,138371.0,42696.0,138371.0,54317.0,-425.64826639919613,-143.37635684924908,-270.117208087568
138371,8730,138371.0,42625.0,138371.0,54306.0,-430.55290752098944,-145.759200601249,-269.58634250687885
138371,8716,138371.0,42587.0,138371.0,54260.0,-435.1128040750592,-147.7830663440069,-268.5713629942987
138371,8722,138371.0,42619.0,138371.0,54270.0,-439.3072740394321,-149.44128307820114,-267.0581227504091
138382,8734,138382.0,42666.0,138382.0,54316.0,-443.1166540187065,-150.72981406142358,-265.03454010314897
138382,8734,138382.0,42728.0,138382.0,54339.0,-446.5222136273403,-151.6467714334285,-262.490545049976
138382,8741,138382.0,42679.0,138382.0,54321.0,-449.5059144862418,-152.19123046259844,-259.41749190366636
138382,8720,138382.0,42633.0,138382.0,54282.0,-452.05023907272556,-152.36250307528798,-255.80783773910272
138382,8720,138382.0,42594.0,138382.0,54262.0,-454.1382175025768,-152.16058102978855,-251.6555807083099
138382,8708,138382.0,42644.0,138382.0,54303.0,-455.7536305488344,-151.58718615983963,-246.95707193266614
138392,8716,138392.0,42696.0,138392.0,54332.0,-456.88124171170864,-150.6462235675065,-241.7113977417531
138392,8731,138392.0,42752.0,138392.0,54349.0,-457.50690101068756,-149.34307915970325,-235.92004905120154
138392,8710,138392.0,42695.0,138392.0,54342.0,-457.61749265717134,-147.68336650038464,-229.58636764947062
138392,8701,138392.0,42621.0,138392.0,54303.0,-457.20094360139495,-145.67238966232634,-222.71538860600617
138392,8692,138392.0,42607.0,138392.0,54299.0,-456.24649169952744,-143.315969489971,-215.314301301397
138392,8717,138392.0,42665.0,138392.0,54337.0,-454.7450337763864,-140.62176289560492,-207.39316666457827
138402,8734,138402.0,42701.0,138402.0,54410.0,-452.68920787171993,-137.59969278936293,-198.9651233880819
138402,8749,138402.0,42769.0,138402.0,54436.0,-450.07312496635495,-134.2611767374051,-190.04569423959762
138402,8738,138402.0,42661.0,138402.0,54393.0,-446.89200946326616,-130.61802625532712,-180.65179309432034
138402,8720,138402.0,42655.0,138402.0,54374.0,-443.1421027665068,-126.6822184642653,-170.80146024143295
138402,8713,138402.0,42670.0,138402.0,54391.0,-438.820967724325,-122.46673198241102,-160.51449338730907
138402,8746,138402.0,42721.0,138402.0,54438.0,-433.92794108854264,-117.98627087859926,-149.8131035672503
138413,8768,138413.0,42757.0,138413.0,54501.0,-428.4642787269106,-113.25701213426238,-138.72181821068196
138413,8768,138413.0,42760.0,138413.0,54478.0,-422.4328924205236,-108.29573636060745,-127.26673789701874
138413,8757,138413.0,42693.0,138413.0,54466.0,-415.8380930673146,-103.11922359541347,-115.47496966583924
138413,8757,138413.0,42713.0,138413.0,54489.0,-408.6856943477963,-97.74449647214568,-103.3747662543177
138413,8780,138413.0,42711.0,138413.0,54496.0,-400.98333302694067,-92.18955808917192,-90.99595552126593
138413,8819,138413.0,42802.0,138413.0,54556.0,-392.7405888141058,-86.4737032307568,-78.37006214210214
138423,8828,138423.0,42845.0,138423.0,54621.0,-383.96870723060727,-80.61688428312668,-65.52988787965847
138423,8839,138423.0,42797.0,138423.0,54602.0,-374.6801761165779,-74.6385278767416,-52.508644529369434
138423,8835,138423.0,42751.0,138423.0,54583.0,-364.8885217082117,-68.55696323298818,-39.33931643003541
138423,8827,138423.0,42732.0,138423.0,54587.0,-354.60843720974987,-62.39008894324288,-26.054854537126403
138423,8856,138423.0,42785.0,138423.0,54656.0,-343.8561118774867,-56.156488331175126,-12.688727439374873
138423,8897,138423.0,42862.0,138423.0,54687.0,-332.64941812685214,-49.87575631751823,0.7250824251151471
138433,8915,138433.0,42900.0,138433.0,54712.0,-321.0076768622563,-43.56761624968956,14.152735576075145
138433,8922,138433.0,42829.0,138433.0,54709.0,-308.9512088941969,-37.25064567522726,27.561196804158556
138433,8919,138433.0,42822.0,138433.0,54685.0,-296.50111703798893,-30.941889421356557,40.918377937151774
138433,8932,138433.0,42786.0,138433.0,54729.0,-283.6794257308656,-24.657604252821955,54.1927833651535
138433,8976,138433.0,42850.0,138433.0,54762.0,-270.509298208788,-18.41421982972824,67.35319160502394
138433,9012,138433.0,42909.0,138433.0,54818.0,-257.0149399494069,-12.228554164024757,80.36889604589942
138444,9027,138444.0,42945.0,138444.0,54831.0,-243.22113501435402,-6.117005791171891,93.210422912556
138444,9031,138444.0,42901.0,138444.0,54824.0,-229.1527990160995,-0.09440208951691886,105.8501931730097
138444,9028,138444.0,42843.0,138444.0,54811.0,-214.83490206001687,5.826361468013744,118.26265781256194
138444,9047,138444.0,42857.0,138444.0,54819.0,-200.29273252214668,11.633549598682364,130.4238891532945
138444,9086,138444.0,42937.0,138444.0,54861.0,-185.55216693664926,17.31567102884854,142.31109652983042
138444,9110,138444.0,42972.0,138444.0,54917.0,-170.63962744613514,22.86160818006084,153.90261957637244
138454,9140,138454.0,42956.0,138454.0,54910.0,-155.5817482362121,28.261639290967935,165.17848688375705
138454,9149,138454.0,42922.0,138454.0,54910.0,-140.4050172307663,33.50814921583954,176.12097610709458
138454,9150,138454.0,42863.0,138454.0,54892.0,-125.13561682020509,38.59529864629933,186.7146216683118
138454,9169,138454.0,42888.0,138454.0,54891.0,-109.79953359493584,43.51794342197935,196.94572526864778
138454,9204,138454.0,42947.0,138454.0,54957.0,-94.4227480279194,48.27075527780768,206.80186148125426
138454,9242,138454.0,42994.0,138454.0,54979.0,-79.03117946701366,52.84837999837637,216.27192325284034
138464,9264,138464.0,42956.0,138464.0,54983.0,-63.6503167885607,57.246374116097414,225.34670164637708
138464,9263,138464.0,42920.0,138464.0,54942.0,-48.30482326630863,61.461762753186065,234.0192837854874
138464,9263,138464.0,42905.0,138464.0,54934.0,-33.01846291142107,65.49260151354974,242.28472694106716
138464,9292,138464.0,42930.0,138464.0,54978.0,-17.81436164985098,69.33710714139809,250.13933683061185
138464,9340,138464.0,43006.0,138464.0,55010.0,-2.71519984414806,72.99332030696314,257.5803557371869
138464,9371,138464.0,43025.0,138464.0,55033.0,12.257030884768085,76.45973163174699,264.6063560347206
138475,9380,138475.0,42952.0,138475.0,55009.0,27.08155953826588,79.7362517537592,271.21782113576944
138475,9374,138475.0,42939.0,138475.0,54979.0,41.73916931632277,82.82436588440729,277.41724607784596
138475,9376,138475.0,42909.0,138475.0,54971.0,56.21206440636439,85.72627048745676,283.2085796463158
138475,9405,138475.0,42965.0,138475.0,55006.0,70.48346691054655,88.44392092621493,288.59647341521423
138475,9435,138475.0,43010.0,138475.0,55041.0,84.53737149783507,90.97885212123379,293.5860155321124
138475,9467,138475.0,43030.0,138475.0,55066.0,98.35868093777981,93.33289358069018,298.18314540110464
138485,9458,138485.0,43000.0,138485.0,54995.0,111.93352875874461,95.50911496799304,302.3951986465218
138485,9464,138485.0,42916.0,138485.0,55003.0,125.24939489432779,97.51204492065855,306.2308131499547
138485,9477,138485.0,42924.0,138485.0,55000.0,138.29488525031655,99.3468129172422,309.69921818671884
138485,9503,138485.0,42996.0,138485.0,55053.0,151.0594568981487,101.01805996814574,312.8097219470661
138485,9536,138485.0,43024.0,138485.0,55077.0,163.53339484966608,102.52986255944734,315.57191724447335
138485,9549,138485.0,43047.0,138485.0,55079.0,175.70805897051412,103.88670815168152,317.9963703579223
138495,9545,138495.0,42964.0,138495.0,55044.0,187.57614838201084,105.09439083590811,320.0951471261055
138495,9565,138495.0,42942.0,138495.0,55005.0,199.1317266188742,106.1598900129753,321.8816538285731
138495,9559,138495.0,42935.0,138495.0,55004.0,210.37004420766402,107.09036142773815,323.36984710681264
138495,9591,138495.0,42965.0,138495.0,55058.0,221.2873511150023,107.8922016080241,324.5734803270526
138495,9614,138495.0,43033.0,138495.0,55072.0,231.88085302606123,108.5709544992549,325.50607805271426
138495,9616,138495.0,43015.0,138495.0,55053.0,242.14886217016016,109.13204997112152,326.18149652342464
138506,9613,138506.0,42960.0,138506.0,55043.0,252.0909242237252,109.58156654741316,326.6142804502261
138506,9600,138506.0,42937.0,138506.0,55011.0,261.7076440979763,109.92610143364959,326.8194433122419
138506,9631,138506.0,42956.0,138506.0,55023.0,271.0002814606337,110.17191966286478,326.81192769864913
138506,9660,138506.0,43036.0,138506.0,55063.0,279.9705045317287,110.32448507829784,326.6062248372138
138506,9675,138506.0,43064.0,138506.0,55057.0,288.62055305805916,110.38907720688451,326.2165090044461
138506,9668,138506.0,42999.0,138506.0,55037.0,296.95356554357284,110.37194743687527,325.6570293366564
138516,9660,138516.0,42940.0,138516.0,55020.0,304.9736396111782,110.28068473738824,324.94215753761165
138516,9666,138516.0,42889.0,138516.0,54983.0,312.68553837615866,110.12322205095657,324.08593924364516
138516,9693,138516.0,42949.0,138516.0,55032.0,320.09434423710763,109.9063492749423,323.1014926188827
138516,9712,138516.0,43031.0,138516.0,55062.0,327.20539384883205,109.63512895447917,322.0008223967203
138516,9729,138516.0,43039.0,138516.0,55081.0,334.02452042385755,109.31376694781514,320.7953504786894
138516,9722,138516.0,42993.0,138516.0,55028.0,340.5583421301026,108.94695841404754,319.49664057860383
138526,9704,138526.0,42941.0,138526.0,55011.0,346.81429688501373,108.54029034928476,318.11650300267763
138526,9715,138526.0,42936.0,138526.0,54998.0,352.8003322666798,108.09948195324239,316.66640026572634
138526,9745,138526.0,42987.0,138526.0,55027.0,358.5245457686532,107.62946034350284,315.15680480399993
138526,9760,138526.0,43061.0,138526.0,55076.0,363.9951717948154,107.13435008133439,313.5971337490047
138526,9755,138526.0,43014.0,138526.0,55043.0,369.22085847044605,106.61845325078951,311.99629685164103
138526,9743,138526.0,42987.0,138526.0,55018.0,374.2108069989291,106.08711904710387,310.36318942147943
138537,9732,138537.0,42934.0,138537.0,54995.0,378.97453853406466,105.5465536046473,308.70650668495995
138537,9740,138537.0,42896.0,138537.0,54977.0,383.521438029744,105.00276012239726,307.0340593876645
138537,9768,138537.0,42970.0,138537.0,55020.0,387.86041475005584,104.46042870340588,305.3521772448712
138537,9777,138537.0,43011.0,138537.0,55072.0,391.9999179402572,103.92267830355311,303.66571806595385
138537,9779,138537.0,43014.0,138537.0,55061.0,395.94818999686186,103.39188336819609,301.9788078177038
138537,9768,138537.0,42954.0,138537.0,54997.0,399.7134128313746,102.87060152258084,300.29557685368314
138547,9771,138547.0,42906.0,138547.0,54991.0,403.30358526392706,102.36151347203028,298.62001590127267
138547,9767,138547.0,42926.0,138547.0,55007.0,406.72625260779137,101.86645800203704,296.95521070948905
138547,9802,138547.0,42994.0,138547.0,55044.0,409.98831484661275,101.38567302047538,295.3029448324986
138547,9813,138547.0,43024.0,138547.0,55073.0,413.0961094641409,100.91814314268927,293.6640853148895
138547,9808,138547.0,43021.0,138547.0,55036.0,416.0557181107125,100.46273001406036,292.03932016664885
138547,9791,138547.0,42938.0,138547.0,55019.0,418.87313465512693,100.01893794471445,290.42951905514195
138558,9790,138558.0,42914.0,138558.0,54976.0,421.55406372171785,99.58653980284193,288.83537922812525
138558,9819,138558.0,42983.0,138558.0,55032.0,424.1035903441093,99.1645529251356,287.256753291648
138558,9833,138558.0,43011.0,138558.0,55077.0,426.52613136968625,98.75088654653452,285.6924683131146
138558,9848,138558.0,43069.0,138558.0,55067.0,428.82574130574517,98.34316266552102,284.14097623984026
138558,9850,138558.0,43003.0,138558.0,55033.0,431.0064972373308,97.9399029419762,282.60112534115643
138558,9814,138558.0,42938.0,138558.0,55008.0,433.0726571015341,97.54093424545452,281.07219870941486
138568,9811,138568.0,42923.0,138568.0,55009.0,435.0284009570921,97.14655756250512,279.5533190185171
138568,9833,138568.0,42990.0,138568.0,55033.0,436.8773291555706,96.75635654546481,278.04291370338404
138568,9843,138568.0,43029.0,138568.0,55067.0,438.62220904828564,96.36897730923266,276.5387262869064
138568,9860,138568.0,43002.0,138568.0,55031.0,440.26513606161006,95.98295032297557,275.0382747437845
138568,9858,138568.0,42947.0,138568.0,54994.0,441.80783989733004,95.59734627634018,273.53910128768626
138568,9835,138568.0,42934.0,138568.0,55016.0,443.25183627853926,95.21142814427473,272.03841094134117
138578,9836,138578.0,42915.0,138578.0,54998.0,444.59826228778275,94.8237001793525,270.53254823759596
138578,9848,138578.0,43008.0,138578.0,55045.0,445.8475369115671,94.43128477474825,269.01684843212286
138578,9882,138578.0,43040.0,138578.0,55062.0,446.99924138342124,94.03029305465235,267.48594429704485
138578,9892,138578.0,43044.0,138578.0,55074.0,448.0524176381508,93.61704154915913,265.93440519601165
138578,9876,138578.0,42966.0,138578.0,55017.0,449.0060278769356,93.18903035511866,264.3572775557536
138578,9859,138578.0,42935.0,138578.0,55023.0,449.85911386380656,92.74474591147671,262.7500229991772
138589,9875,138589.0,42963.0,138589.0,55033.0,450.6105527769183,92.2826183374116,261.1080364353669
138589,9895,138589.0,43010.0,138589.0,55084.0,451.2588204625572,91.80034559723858,259.42647684180906
138589,9908,138589.0,43026.0,138589.0,55086.0,451.8021162813941,91.29524023384761,257.700750873292
138589,9909,138589.0,43009.0,138589.0,55076.0,452.23872412587764,90.76506245846872,255.9272345874271
138589,9871,138589.0,42941.0,138589.0,55016.0,452.5672150402644,90.20838043474785,254.10354334134703
138589,9886,138589.0,42926.0,138589.0,55005.0,452.78625067598773,89.62401260937268,252.22803832235172
138599,9905,138599.0,42972.0,138599.0,55047.0,452.89424261954605,89.01007425999912,250.29903524979656
138599,9913,138599.0,43032.0,138599.0,55080.0,452.88932904726016,88.36371099565704,248.31459157782817
138599,9936,138599.0,43050.0,138599.0,55073.0,452.76969506786554,87.68192806295299,246.27308069850292
138599,9922,138599.0,43060.0,138599.0,55048.0,452.5339494432393,86.9628355728921,244.17382668969856
138599,9900,138599.0,42946.0,138599.0,55021.0,452.1812906121389,86.20630596830817,242.01713992305852
138599,9902,138599.0,42948.0,138599.0,55006.0,451.71131028250716,85.41345488481421,239.8038021223356
138609,9911,138609.0,42960.0,138609.0,55027.0,451.12364306397194,84.58542705925184,237.5344723933331
138609,9942,138609.0,43034.0,138609.0,55074.0,450.41787297208896,83.72277839187608,235.2095322780952
138609,9938,138609.0,43046.0,138609.0,55076.0,449.59381419345146,82.82604505668947,232.82958230340788
138609,9927,138609.0,42976.0,138609.0,55039.0,448.65187066078215,81.89671443572554,230.39612859884667
138609,9907,138609.0,42907.0,138609.0,55007.0,447.5930919591738,80.93730469791923,227.91170268915604
138609,9914,138609.0,42929.0,138609.0,55009.0,446.4188911474174,79.95026560711635,225.37930715376604
138620,9927,138620.0,42994.0,138620.0,55035.0,445.1307604005507,78.93692685982244,222.80184073683017
138620,9953,138620.0,43045.0,138620.0,55061.0,443.7303062021728,77.89771418348235,220.1820937413419
138620,9945,138620.0,43012.0,138620.0,55062.0,442.2195979672682,76.83334375905412,217.52327111568547
138620,9925,138620.0,42983.0,138620.0,55033.0,440.60148196171554,75.74570785950684,214.82951697109664
138620,9912,138620.0,42930.0,138620.0,54987.0,438.8795204649686,74.63769884915101,212.1059081837174
138620,9916,138620.0,42932.0,138620.0,55012.0,437.057630962492,73.51229123033177,209.35788861546922
138630,9910,138630.0,43009.0,138630.0,55009.0,435.1397652413001,72.37179232529195,206.59072257750924
138630,9938,138630.0,43038.0,138630.0,55044.0,433.1298184957314,71.2180851561555,203.80946317624438
138630,9937,138630.0,42994.0,138630.0,55047.0,431.03178855467,70.05364286081809,201.0193645423264
138630,9913,138630.0,42933.0,138630.0,54978.0,428.85002320587154,68.88205379999273,198.22626827299547
138630,9912,138630.0,42917.0,138630.0,54974.0,426.5892337157478,67.70737730266214,195.4364013221048
138630,9916,138630.0,42943.0,138630.0,55006.0,424.25426226196356,66.53305442976333,192.65571669223078
138640,9932,138640.0,43002.0,138640.0,55032.0,421.8499512075963,65.36148667917855,189.8896550255135
138640,9942,138640.0,43014.0,138640.0,55042.0,419.38130024346844,64.19462655695591,187.14364260156017
138640,9928,138640.0,42995.0,138640.0,55014.0,416.853761485746,63.034956626671516,184.4237326133762
138640,9903,138640.0,42913.0,138640.0,54967.0,414.2733546412722,61.88587141439241,181.73672980761376
138640,9894,138640.0,42902.0,138640.0,54947.0,411.6464118345549,60.75100270192923,179.0896121105439
138640,9902,138640.0,42965.0,138640.0,54985.0,408.9791482053511,59.633157955156854,176.4887165038184
138651,9915,138651.0,43020.0,138651.0,55015.0,406.2774385354026,58.534130530345635,173.9394741343484
138651,9930,138651.0,43004.0,138651.0,55008.0,403.5469535085576,57.455646675718334,171.44688873260583
138651,9908,138651.0,42953.0,138651.0,54962.0,400.79346923156226,56.40031193360448,169.01606200170278
138651,9888,138651.0,42896.0,138651.0,54954.0,398.0229815132635,55.37148430908108,166.65208179482812
138651,9885,138651.0,42900.0,138651.0,54949.0,395.24144865150214,54.37220566342581,164.35943279011076
138651,9905,138651.0,42981.0,138651.0,54984.0,392.4544478802302,53.40428201696262,162.1415811400065
138661,9919,138661.0,43002.0,138661.0,55011.0,389.6671540778904,52.468486078914694,160.00112960233102
138661,9918,138661.0,42977.0,138661.0,54994.0,386.88466079408033,51.56559660030486,157.94040340257112
138661,9883,138661.0,42943.0,138661.0,54950.0,384.1122589184814,50.697064333273104,155.96185557509318
138661,9872,138661.0,42897.0,138661.0,54932.0,381.35530450877434,49.86469137877033,154.06778577530443
138661,9875,138661.0,42894.0,138661.0,54947.0,378.6187626279243,49.069696242077114,152.25963354555483
138661,9900,138661.0,42996.0,138661.0,55007.0,375.90689450040605,48.31202665047335,150.5376352157251
138671,9904,138671.0,42991.0,138671.0,55009.0,373.2233751977864,47.590711372569054,148.90128151713003
138671,9908,138671.0,43015.0,138671.0,54968.0,370.57166969916864,46.90500211984477,147.35008211098653
138671,9881,138671.0,42915.0,138671.0,54959.0,367.9552968638318,46.255135842594896,145.883770890079
138671,9874,138671.0,42894.0,138671.0,54941.0,365.3777565687268,45.6419504485614,144.50184885732142
138671,9878,138671.0,42939.0,138671.0,54948.0,362.842221083323,45.06578499153711,143.2030251625869
138671,9899,138671.0,42999.0,138671.0,55005.0,360.3513406742665,44.525957466930194,141.98502177467358
138682,9905,138682.0,43009.0,138682.0,55018.0,357.9073879714246,44.0214516069652,140.84498670111225
138682,9895,138682.0,42959.0,138682.0,54986.0,355.5125831583913,43.55195261274745,139.78024869380351
138682,9866,138682.0,42913.0,138682.0,54960.0,353.1692275472426,43.1180520197677,138.7886384420143
138682,9859,138682.0,42886.0,138682.0,54937.0,350.87944511685515,42.72041933373079,137.86806063595256
138682,9882,138682.0,42942.0,138682.0,54971.0,348.6447707415486,42.35875598302172,137.01582290368918
138682,9895,138682.0,42977.0,138682.0,54996.0,346.4660403810827,42.031519150049306,136.22839964047853
138692,9892,138692.0,43006.0,138692.0,54992.0,344.3436702033915,41.73663203215133,135.50179069360195
138692,9871,138692.0,42969.0,138692.0,54989.0,342.2779340336525,41.47246620270383,134.8320034881196
138692,9865,138692.0,42904.0,138692.0,54953.0,340.26890924804195,41.238157125562296,134.21516493103084
138692,9857,138692.0,42905.0,138692.0,54988.0,338.3161700285326,41.03293312513847,133.64726726876327
138692,9891,138692.0,42975.0,138692.0,54981.0,336.4185517736573,40.85523090546638,133.12395074377557
138692,9909,138692.0,43000.0,138692.0,55023.0,334.5742821433941,40.70271878918369,132.64064090492667
138702,9911,138702.0,42992.0,138702.0,55020.0,332.78147270253817,40.57320344191946,132.19298809377602
138702,9876,138702.0,42941.0,138702.0,54961.0,331.03854623417374,40.4653273431929,131.7772267676408
138702,9872,138702.0,42897.0,138702.0,54971.0,329.34418694180044,40.37830626933288,131.38998529472173
138702,9869,138702.0,42916.0,138702.0,54954.0,327.69693096667453,40.31096991793905,131.02765360254972
138702,9875,138702.0,42987.0,138702.0,55015.0,326.09482629443175,40.26108721090431,130.6859826916536
138702,9899,138702.0,42993.0,138702.0,55023.0,324.5353887585486,40.22571497618248,130.36032492568305
138713,9894,138713.0,42988.0,138713.0,55028.0,323.01582384871233,40.20215319202988,130.04630678991205
138713,9873,138713.0,42939.0,138713.0,54958.0,321.5332735800611,40.18848085572159,129.7402583402688
138713,9867,138713.0,42925.0,138713.0,54980.0,320.0847748355076,40.18325162523103,129.43891378847457
138713,9888,138713.0,42926.0,138713.0,54980.0,318.6670001036904,40.18474797012201,129.13876987391632
138713,9902,138713.0,43007.0,138713.0,55030.0,317.276195571591,40.19056492166261,128.83587114506983
138713,9916,138713.0,43023.0,138713.0,55053.0,315.9084785765507,40.198086073659184,128.5262711827192
138723,9893,138723.0,42991.0,138723.0,55008.0,314.56022335783894,40.20549977981679,128.20675300209214
138723,9869,138723.0,42923.0,138723.0,54959.0,313.228142628451,40.212242578748715,127.87502355277806
138723,9868,138723.0,42875.0,138723.0,54938.0,311.9089436607009,40.218244573806786,127.52898981859732
138723,9892,138723.0,42944.0,138723.0,55003.0,310.59890909790806,40.22261628810415,127.16578240124836
138723,9916,138723.0,42994.0,138723.0,55045.0,309.29387615178405,40.22309849647263,126.78159923375823
138723,9931,138723.0,42997.0,138723.0,55027.0,307.9896851354106,40.216772902885225,126.37250510670943
138733,9892,138733.0,42959.0,138733.0,55000.0,306.6826947420354,40.201066394631496,125.93520157347658
138733,9870,138733.0,42941.0,138733.0,54986.0,305.3698360089344,40.17397638849606,125.46701048394848
138733,9879,138733.0,42899.0,138733.0,54981.0,304.04813830083083,40.1334930641444,124.96534040589017
138733,9897,138733.0,42966.0,138733.0,54996.0,302.7142758429608,40.07686411988181,124.42723099748474
138733,9902,138733.0,43004.0,138733.0,55029.0,301.3645659557099,40.00047113510966,123.84929314345939
138733,9915,138733.0,43031.0,138733.0,55034.0,299.99527339136046,39.90061916200274,123.22808137751252
138744,9888,138744.0,42965.0,138744.0,55012.0,298.602876857225,39.774531354528975,122.56058502061425
138744,9884,138744.0,42918.0,138744.0,54971.0,297.184069162789,39.62048224653195,121.84430995126489
138744,9865,138744.0,42927.0,138744.0,54977.0,295.73546681991434,39.436922036074144,121.07678516014288
138744,9902,138744.0,42984.0,138744.0,55025.0,294.25328419393804,39.22160784507431,120.25503045841045
138744,9917,138744.0,43036.0,138744.0,55046.0,292.73334063394736,38.971759940888504,119.37567348706554
138744,9926,138744.0,43025.0,138744.0,55034.0,291.1714836759351,38.68512561500697,118.43563517326015
138754,9893,138754.0,42945.0,138754.0,54993.0,289.56403584831975,38.360835731100984,117.43259853425046
138754,9879,138754.0,42916.0,138754.0,54984.0,287.9078038021001,37.9990988130474,116.36477523170905
138754,9882,138754.0,42943.0,138754.0,54995.0,286.1996741683585,37.60006459345807,115.23029981836316
138754,9909,138754.0,43015.0,138754.0,55034.0,284.43627587010064,37.16316636996027,114.02693170841462
138754,9925,138754.0,43022.0,138754.0,55071.0,282.61409147401395,36.68765047113599,112.75242515551258
138754,9899,138754.0,42993.0,138754.0,55012.0,280.7298638873248,36.173610853655646,111.4052576778135
138764,9892,138764.0,42914.0,138764.0,54981.0,278.7807986516902,35.62232068712723,109.9848832245317
138764,9886,138764.0,42901.0,138764.0,54983.0,276.7643737312057,35.035421774462556,108.49115598066587
138764,9891,138764.0,42951.0,138764.0,55015.0,274.6780503243362,34.41374685782736,106.92364325101506
138764,9912,138764.0,42999.0,138764.0,55057.0,272.519188340901,33.75697280821681,105.28163691987103
138764,9921,138764.0,43056.0,138764.0,55038.0,270.2852495987917,33.06447501467994,103.56481290724031
138764,9901,138764.0,42963.0,138764.0,55001.0,267.9741329966644,32.336571464891286,101.77379391033546
138775,9888,138775.0,42921.0,138775.0,54971.0,265.5842977090613,31.574877536080336,99.90998403564163
138775,9887,138775.0,42899.0,138775.0,54954.0,263.1145530470375,30.781362692177886,97.9747967257601
138775,9894,138775.0,42955.0,138775.0,55003.0,260.5637902603776,29.957151257230937,95.96893972198757
138775,9910,138775.0,43039.0,138775.0,55041.0,257.930943689411,29.102364414040508,93.89239247078318
138775,9899,138775.0,43004.0,138775.0,55039.0,255.21518130210467,28.217161243101145,91.74513666202051
138775,9877,138775.0,42964.0,138775.0,55000.0,252.41605549447533,27.302819198602812,89.52791742507478
138785,9881,138785.0,42907.0,138785.0,54958.0,249.5333814520837,26.361680250931368,87.24226009198259
138785,9873,138785.0,42906.0,138785.0,54970.0,246.56697058151934,25.396106337698132,84.88977892947662
138785,9895,138785.0,42995.0,138785.0,55024.0,243.51650233977537,24.407583409191716,82.47159335327942
138785,9900,138785.0,43011.0,138785.0,55016.0,240.3816498198457,23.39693931252723,79.98851737965866
138785,9887,138785.0,42983.0,138785.0,55001.0,237.16235386746618,22.365394167813918,77.44167622102313
138785,9872,138785.0,42915.0,138785.0,54945.0,233.85896241572945,21.315129808895502,74.83268181976064
138795,9855,138795.0,42882.0,138795.0,54964.0,230.4720569504313,20.248663872410454,72.16312848349965
138795,9862,138795.0,42939.0,138795.0,54971.0,227.00210977966924,19.16770034391868,69.43399342718895
138795,9892,138795.0,42979.0,138795.0,55013.0,223.4493080282168,18.072686909549272,66.64557762242741
138795,9891,138795.0,42975.0,138795.0,55026.0,219.81377504544403,16.96344130783432,63.798051680998256
138795,9879,138795.0,42969.0,138795.0,55005.0,216.0959908932197,15.84001086740054,60.89217975210234
138795,9865,138795.0,42910.0,138795.0,54954.0,212.29698085323025,14.70291931420753,57.929616328001046
138806,9844,138806.0,42906.0,138806.0,54959.0,208.41813836966128,13.552681444182973,54.91249868042611
138806,9858,138806.0,42925.0,138806.0,54974.0,204.46088881367479,12.389061222035458,51.84281652158178
138806,9868,138806.0,42996.0,138806.0,55000.0,200.42650770295816,11.210856474687883,48.72225498391151
138806,9874,138806.0,43022.0,138806.0,55012.0,196.3162653469103,10.016631120431615,45.55261406496615
138806,9861,138806.0,42972.0,138806.0,54956.0,192.1317238342795,8.805858679223068,42.33630664416857
138806,9825,138806.0,42897.0,138806.0,54940.0,187.87482609705708,7.5793215572727455,39.07632789366569
138816,9824,138816.0,42864.0,138816.0,54932.0,183.54760093537303,6.338211621659511,35.7756494595083
138816,9835,138816.0,42948.0,138816.0,54964.0,179.15173690708593,5.082798198922667,32.43666769711648
138816,9859,138816.0,43003.0,138816.0,54997.0,174.68848237912744,3.8121387599424423,29.061262391531088
138816,9866,138816.0,42999.0,138816.0,54969.0,170.1590012034739,2.525145961024272,25.65137279257688
138816,9829,138816.0,42946.0,138816.0,54954.0,165.5648298223689,1.221758381783694,22.209459498900827
138816,9814,138816.0,42882.0,138816.0,54912.0,160.90794804412383,-0.0970215070421645,18.738366430885677
138827,9803,138827.0,42892.0,138827.0,54928.0,156.19039260781813,-1.4301594096110506,15.24074875800514
138827,9829,138827.0,42952.0,138827.0,54955.0,151.41385666901124,-2.777570189530543,11.71864750005517
138827,9834,138827.0,42992.0,138827.0,54987.0,146.5796859575516,-4.140023796688695,8.173676173926083
138827,9836,138827.0,43007.0,138827.0,54971.0,141.6892270301858,-5.5180793498385015,4.607700017931279
138827,9825,138827.0,42893.0,138827.0,54910.0,136.7441794905636,-6.911170522885072,1.0233034807319825
138827,9784,138827.0,42896.0,138827.0,54878.0,131.74665261810512,-8.31786217820288,-2.57656727588261
138837,9785,138837.0,42895.0,138837.0,54922.0,126.69884135309948,-9.736976729709369,-6.1894975492763535
138837,9818,138837.0,42953.0,138837.0,54956.0,121.60263322406132,-11.168307236219114,-9.814011055053328
138837,9816,138837.0,43016.0,138837.0,54960.0,116.45964600622267,-12.612204908396365,-13.449051601369774
138837,9801,138837.0,42965.0,138837.0,54940.0,111.27162521859722,-14.068435665007371,-17.093203310262226
138837,9772,138837.0,42916.0,138837.0,54907.0,106.0406286915491,-15.5354248538968,-20.744422488217396
138837,9768,138837.0,42867.0,138837.0,54894.0,100.76877351313851,-17.01070975738395,-24.400388452991763
138847,9771,138847.0,42870.0,138847.0,54899.0,95.45785491705712,-18.492174948554997,-28.059068637414697
138847,9794,138847.0,42955.0,138847.0,54944.0,90.10922762331734,-19.978915023632943,-31.718967826546788
138847,9798,138847.0,42982.0,138847.0,54944.0,84.7240709964527,-21.470915283950823,-35.37879041446212
138847,9781,138847.0,42943.0,138847.0,54905.0,79.30380929341115,-22.967918716327553,-39.036873930766745
138847,9750,138847.0,42885.0,138847.0,54881.0,73.8502801904867,-24.46880076907115,-42.691094089969766
138847,9737,138847.0,42851.0,138847.0,54854.0,68.36545928747029,-25.97215416731192,-46.3394114109372
138858,9755,138858.0,42911.0,138858.0,54921.0,62.85101575632723,-27.47737145146806,-49.98047664050388
138858,9773,138858.0,42987.0,138858.0,54917.0,57.30818274149709,-28.984930096761786,-53.61361305022275
138858,9774,138858.0,42964.0,138858.0,54926.0,51.73808816527995,-30.495451204208365,-57.238199935210645
138858,9742,138858.0,42923.0,138858.0,54895.0,46.142169482918035,-32.00859218343642,-60.85313933596166
138858,9724,138858.0,42863.0,138858.0,54847.0,40.52220689114276,-33.52300586081161,-64.45690789079606
138858,9713,138858.0,42870.0,138858.0,54853.0,34.87994661002159,-35.03730531373477,-68.04816147509263
138868,9730,138868.0,42918.0,138868.0,54870.0,29.216706783692473,-36.55098010989785,-71.62638471820893
138868,9729,138868.0,42987.0,138868.0,54932.0,23.533305930797383,-38.06431486499292,-75.19192368058532
138868,9735,138868.0,42931.0,138868.0,54899.0,17.83028556988134,-39.57738906128458,-78.74531064138358
138868,9717,138868.0,42886.0,138868.0,54869.0,12.108163907062533,-41.08934402453089,-82.28660750648243
138868,9705,138868.0,42842.0,138868.0,54836.0,6.367504026727062,-42.59882368769871,-85.81549838786091
138868,9691,138868.0,42870.0,138868.0,54855.0,0.6087560920749979,-44.10509740260568,-89.33194314706029
138878,9712,138878.0,42919.0,138878.0,54874.0,-5.167952422935514,-45.60870929072745,-92.83661480108091
138878,9730,138878.0,42965.0,138878.0,54911.0,-10.962772903539388,-47.11105917783708,-96.33068771305193
138878,9710,138878.0,42957.0,138878.0,54895.0,-16.77577138984759,-48.61327734471281,-99.81517284916535
138878,9685,138878.0,42876.0,138878.0,54840.0,-22.606638622724006,-50.11540491874935,-103.29043754184923
138878,9673,138878.0,42842.0,138878.0,54836.0,-28.454828491719667,-51.616707577794855,-106.75643589775905
138878,9682,138878.0,42888.0,138878.0,54837.0,-34.31992252378916,-53.11677650707918,-110.2133827067596
138889,9692,138889.0,42948.0,138889.0,54884.0,-40.20178128222449,-54.616082994598244,-113.66209778840124
138889,9694,138889.0,42959.0,138889.0,54880.0,-46.10035317114068,-56.11531480010228,-117.10368685309521
138889,9671,138889.0,42912.0,138889.0,54862.0,-52.01538956991871,-57.61431389314568,-120.53896157412294
138889,9651,138889.0,42872.0,138889.0,54812.0,-57.946402239879035,-59.11178930326156,-123.96827476149775
138889,9633,138889.0,42840.0,138889.0,54799.0,-63.892958127247624,-60.60602972327089,-127.39202964897422
138889,9643,138889.0,42878.0,138889.0,54858.0,-69.8550828962353,-62.095893434170236,-130.81134925425877
138899,9676,138899.0,42932.0,138899.0,54869.0,-75.83339274475767,-63.58116290084479,-134.22809833169498
138899,9678,138899.0,42930.0,138899.0,54877.0,-81.82873998852267,-65.06195444355603,-137.64419109901561
138899,9651,138899.0,42891.0,138899.0,54849.0,-87.84165774268615,-66.53787915587658,-141.06092131765757
138899,9623,138899.0,42829.0,138899.0,54804.0,-93.87217436805815,-68.00795883589814,-144.47889750255982
138899,9602,138899.0,42840.0,138899.0,54797.0,-99.92017777841849,-69.4714507462592,-147.89859738721378
138899,9633,138899.0,42888.0,138899.0,54835.0,-105.98592688642296,-70.92869888701796,-151.3210275951517
138909,9638,138909.0,42936.0,138909.0,54851.0,-112.0701759269875,-72.38106065094757,-154.74781257549876
138909,9633,138909.0,42912.0,138909.0,54846.0,-118.17384284308858,-73.82998575257952,-158.18068443707628
138909,9611,138909.0,42876.0,138909.0,54817.0,-124.29767300197767,-75.27625520599285,-161.62101717519224
138909,9592,138909.0,42826.0,138909.0,54775.0,-130.44226046163078,-76.72014527699535,-165.0699233109591
138909,9584,138909.0,42846.0,138909.0,54776.0,-136.6083620056915,-78.1622917507341,-168.5288744473262
138909,9603,138909.0,42891.0,138909.0,54846.0,-142.797188226037,-79.60434989659505,-172.0002284668632
138920,9610,138920.0,42954.0,138920.0,54854.0,-149.01037616428448,-81.0487033527746,-175.4869550194174
138920,9626,138920.0,42879.0,138920.0,54834.0,-155.24961716653667,-82.49746472605386,-178.99175957479596
138920,9580,138920.0,42848.0,138920.0,54770.0,-161.51624143735017,-83.95194159404608,-182.516629953092
138920,9558,138920.0,42806.0,138920.0,54773.0,-167.81118827117655,-85.41324781443227,-186.0633051074376
138920,9572,138920.0,42841.0,138920.0,54786.0,-174.1354125124305,-86.88339429072195,-189.6340670715444
138920,9585,138920.0,42926.0,138920.0,54837.0,-180.4901929506865,-88.36571170121815,-193.2319736689288
138930,9582,138930.0,42948.0,138930.0,54852.0,-186.876974302232,-89.86406074316884,-196.86028096720526
138930,9571,138930.0,42898.0,138930.0,54807.0,-193.29702605876355,-91.38148952426911,-200.521599764528
138930,9543,138930.0,42873.0,138930.0,54779.0,-199.75132897484792,-92.91962709772153,-204.21761168788652
138930,9531,138930.0,42831.0,138930.0,54756.0,-206.2407943886002,-94.47919148413591,-207.9495795731994
138930,9546,138930.0,42847.0,138930.0,54807.0,-212.7666018288229,-96.0609240607201,-211.7190186459212
138930,9576,138930.0,42909.0,138930.0,54840.0,-219.33024608670962,-97.66611044227791,-215.5277270642644
138940,9560,138940.0,42963.0,138940.0,54832.0,-225.9331318179236,-99.2961272560256,-219.37707054327524
138940,9541,138940.0,42880.0,138940.0,54789.0,-232.57611228022597,-100.9513365449325,-223.26727787867424
138940,9520,138940.0,42822.0,138940.0,54737.0,-239.2594376214301,-102.6306452035129,-227.19753051116493
138940,9503,138940.0,42823.0,138940.0,54748.0,-245.98308840752003,-104.33237702706433,-231.166789458991
138940,9516,138940.0,42869.0,138940.0,54772.0,-252.747156420059,-106.05539697481264,-235.1745602695641
138940,9531,138940.0,42883.0,138940.0,54802.0,-259.5519509495631,-107.79929369840988,-239.2209180710272
138951,9524,138951.0,42924.0,138951.0,54794.0,-266.39773951450474,-109.56369119904959,-243.30591011454652
138951,9496,138951.0,42819.0,138951.0,54763.0,-273.2844326277948,-111.34754161702013,-247.42900566083654
138951,9475,138951.0,42814.0,138951.0,54730.0,-280.2116133014326,-113.14923699044144,-251.58912140498956
138951,9470,138951.0,42797.0,138951.0,54739.0,-287.1789052215968,-114.9675541812624,-255.7851516271877
138951,9487,138951.0,42886.0,138951.0,54791.0,-294.1862950991174,-116.80239484559014,-260.0163575347531
138951,9498,138951.0,42895.0,138951.0,54768.0,-301.23407933961346,-118.6544604021055,-264.28211192314336
138961,9490,138961.0,42889.0,138961.0,54772.0,-308.32248562809104,-120.52421210769556,-268.58133714273754
138961,9459,138961.0,42834.0,138961.0,54742.0,-315.451355952837,-122.41118879721235,-272.9122698202322
138961,9449,138961.0,42793.0,138961.0,54704.0,-322.62020676498884,-124.31430760785857,-277.27270819866357
138961,9439,138961.0,42834.0,138961.0,54724.0,-329.8285630699786,-126.23276319458475,-281.66055192140146
138961,9470,138961.0,42864.0,138961.0,54777.0,-337.07617791093986,-128.1665419372414,-286.07412232588234
138961,9466,138961.0,42916.0,138961.0,54752.0,-344.3628660805365,-130.11597035442924,-290.51180190576423
138971,9448,138971.0,42887.0,138971.0,54740.0,-351.68810789795316,-132.08069033013226,-294.9714240507799
138971,9424,138971.0,42791.0,138971.0,54715.0,-359.0508703026758,-134.05908110576402,-299.45014570719076
138971,9410,138971.0,42789.0,138971.0,54705.0,-366.4498253952629,-136.04886063900784,-303.94480100766873
138971,9422,138971.0,42830.0,138971.0,54726.0,-373.8836912321405,-138.04826330876529,-308.45228062373036
138971,9428,138971.0,42893.0,138971.0,54767.0,-381.3513286224233,-140.05638957071938,-312.9695160070597
138971,9437,138971.0,42869.0,138971.0,54763.0,-388.8514948059914,-142.07240584629952,-317.4929208903525
138982,9417,138982.0,42841.0,138982.0,54688.0,-396.38247261443587,-144.09465106019104,-322.01781631906135
138982,9391,138982.0,42808.0,138982.0,54692.0,-403.94190502548156,-146.12057672389756,-326.5385921572848
138982,9380,138982.0,42792.0,138982.0,54685.0,-411.52698694761074,-148.1474012215566,-331.0494372493061
138982,9382,138982.0,42838.0,138982.0,54707.0,-419.1348099148264,-150.17277007371553,-335.54480666465446
138982,9397,138982.0,42856.0,138982.0,54726.0,-426.7624995582259,-152.19481312374205,-340.01929836740214
138982,9397,138982.0,42851.0,138982.0,54713.0,-434.4070103589271,-154.2115946746087,-344.46719650164715
138992,9376,138992.0,42827.0,138992.0,54686.0,-442.06479026820625,-156.22059208835935,-348.88212669009096
138992,9350,138992.0,42797.0,138992.0,54646.0,-449.7316755186895,-158.2187209872085,-353.2572060165146
138992,9343,138992.0,42775.0,138992.0,54664.0,-457.40313716611945,-160.20286666358967,-357.5856170662724
138992,9349,138992.0,42827.0,138992.0,54698.0,-465.0746083168608,-162.1704745515874,-361.8610173408628
138992,9373,138992.0,42874.0,138992.0,54723.0,-472.74152184535353,-164.11954214768372,-366.0772682161842
138992,9358,138992.0,42870.0,138992.0,54703.0,-480.3989798248384,-166.04780402186293,-370.2276920956121
139001,9325,139001.0,42807.0,139001.0,54671.0,-488.0414130206559,-167.95189519400907,-374.3045824545283
139001,9318,139001.0,42760.0,139001.0,54640.0,-495.66263535128303,-169.82747041095433,-378.29939804895065
139001,9311,139001.0,42780.0,139001.0,54679.0,-503.2561862408186,-171.6701984829815,-382.2033379791788
139001,9323,139001.0,42857.0,139001.0,54692.0,-510.8155441751877,-173.47648638819004,-386.0075814845784
139001,9330,139001.0,42880.0,139001.0,54713.0,-518.3340234638403,-175.24302867762754,-389.7028912185686
139001,9319,139001.0,42853.0,139001.0,54666.0,-525.8044657238102,-176.96562954311173,-393.2790396764198
139012,9297,139012.0,42776.0,139012.0,54653.0,-533.2190076027846,-178.63859082010146,-396.7246925031434
139012,9286,139012.0,42754.0,139012.0,54615.0,-540.5691374658608,-180.25532377482295,-400.0278846024113
139012,9283,139012.0,42800.0,139012.0,54650.0,-547.8459380911928,-181.80950083816356,-403.1766765701825
139012,9305,139012.0,42840.0,139012.0,54703.0,-555.0402080435338,-183.29550897464134,-406.1593543629215
139012,9300,139012.0,42827.0,139012.0,54693.0,-562.1422738083261,-184.70789120954083,-408.9638629569719
139012,9287,139012.0,42817.0,139012.0,54654.0,-569.1416488127045,-186.040624436644,-411.57705519013905
139022,9263,139022.0,42767.0,139022.0,54618.0,-576.026891776742,-187.28701079670552,-413.98464661705026
139022,9244,139022.0,42759.0,139022.0,54619.0,-582.7858124673093,-188.44021520250152,-416.1719031125035
139022,9259,139022.0,42792.0,139022.0,54660.0,-589.4058248752023,-189.49395138729054,-418.1242805245513
139022,9272,139022.0,42860.0,139022.0,54692.0,-595.8740778669314,-190.44257601133245,-419.8273510450884
139022,9262,139022.0,42881.0,139022.0,54684.0,-602.1772220575244,-191.28024092755192,-421.26609974165206
139022,9234,139022.0,42802.0,139022.0,54618.0,-608.3011431878497,-191.99978983775867,-422.424380972799
139032,9236,139032.0,42740.0,139032.0,54589.0,-614.2310125437967,-192.59263805313122,-423.2852556200167
139032,9214,139032.0,42745.0,139032.0,54610.0,-619.9515577357563,-193.04990676819386,-423.8319829982362
139032,9225,139032.0,42822.0,139032.0,54663.0,-625.4472952800826,-193.36357157778409,-424.0486541016405
139032,9239,139032.0,42842.0,139032.0,54661.0,-630.7025817903525,-193.52639914114494,-423.91989805529556
139032,9232,139032.0,42828.0,139032.0,54653.0,-635.701423567743,-193.53096771453897,-423.4301884549775
139032,9206,139032.0,42789.0,139032.0,54630.0,-640.4272474703282,-193.36899209519026,-422.56354744263956
139043,9186,139043.0,42742.0,139043.0,54587.0,-644.8629857071496,-193.03160081232102,-421.30387670287075
139043,9189,139043.0,42736.0,139043.0,54584.0,-648.9914690210164,-192.51029465277838,-419.6357236401302
139043,9211,139043.0,42816.0,139043.0,54663.0,-652.7957281128582,-191.7977732636612,-417.54494696352185
139043,9208,139043.0,42837.0,139043.0,54670.0,-656.2589124451738,-190.88780846996394,-415.0185839904031
139043,9193,139043.0,42837.0,139043.0,54626.0,-659.3640172031835,-189.77428394373385,-412.0441386882543
139043,9180,139043.0,42731.0,139043.0,54602.0,-662.0938176329762,-188.45056304732765,-408.60938570879125
139053,9168,139053.0,42751.0,139053.0,54579.0,-664.4311064220524,-186.91002489541063,-404.70306115919277
139053,9169,139053.0,42772.0,139053.0,54607.0,-666.3590323054173,-185.14716173067123,-400.3157726723507
139053,9189,139053.0,42823.0,139053.0,54673.0,-667.8613036752571,-183.15798513690254,-395.440364165386
139053,9193,139053.0,42841.0,139053.0,54666.0,-668.9221140531649,-180.93944580027315,-390.07146845523926
139053,9163,139053.0,42799.0,139053.0,54628.0,-669.5259417308662,-178.48862179810618,-384.2048530566468
139053,9161,139053.0,42769.0,139053.0,54607.0,-669.6575964554834,-175.80253155315683,-377.8374740601482
139063,9153,139063.0,42735.0,139063.0,54585.0,-669.3025703242503,-172.8788002289406,-370.96830096004135
139063,9158,139063.0,42794.0,139063.0,54664.0,-668.4473938662348,-169.7165846828275,-363.5991536281533
139063,9194,139063.0,42851.0,139063.0,54712.0,-667.0797549300424,-166.3168301819382,-355.7347379234943
139063,9182,139063.0,42848.0,139063.0,54717.0,-665.1883140288553,-162.68155130183737,-347.38178273966764
139063,9168,139063.0,42797.0,139063.0,54659.0,-662.7624593882084,-158.81298289644786,-338.54822949134484
139063,9142,139063.0,42754.0,139063.0,54630.0,-659.7924250208641,-154.7136675787899,-329.243457353875
139074,9139,139074.0,42764.0,139074.0,54675.0,-656.2698268097898,-150.3874513064888,-319.4793153157761
139074,9179,139074.0,42853.0,139074.0,54728.0,-652.1882020467525,-145.84031036284514,-309.2707991171651
139074,9192,139074.0,42863.0,139074.0,54767.0,-647.5430953315546,-141.0800948811675,-298.63570080883454
139074,9182,139074.0,42879.0,139074.0,54769.0,-642.3317436551897,-136.11550239636776,-287.5937060215963
139074,9178,139074.0,42802.0,139074.0,54765.0,-636.5528869782604,-130.95541041230865,-276.1657721488086
139074,9184,139074.0,42793.0,139074.0,54746.0,-630.2069391458504,-125.60923755915896,-264.37414500964417
139084,9206,139084.0,42836.0,139084.0,54780.0,-623.2962318100671,-120.08789592708048,-252.24280284747311
139084,9220,139084.0,42884.0,139084.0,54849.0,-615.8250399286235,-114.40423336054846,-239.79771780063618
139084,9241,139084.0,42916.0,139084.0,54875.0,-607.7993887625287,-108.57247966361012,-227.06642206647925
139084,9256,139084.0,42924.0,139084.0,54868.0,-599.2267818720667,-102.60725687409783,-214.07717540830828
139084,9240,139084.0,42863.0,139084.0,54859.0,-590.116005744422,-96.52297680879664,-200.85854463094174
139084,9253,139084.0,42844.0,139084.0,54866.0,-580.4771767557158,-90.33412729357833,-187.43965314970933
139095,9263,139095.0,42926.0,139095.0,54905.0,-570.3219876832354,-84.05608234014505,-173.8506221285211
139095,9302,139095.0,42958.0,139095.0,54946.0,-559.66384785593,-77.70529644143231,-160.1226436937489
139095,9322,139095.0,43020.0,139095.0,54980.0,-548.5177081196389,-71.29841905613688,-146.28754358703796
139095,9326,139095.0,42968.0,139095.0,54998.0,-536.8997017251472,-64.8511038415356,-132.37712164233452
139095,9322,139095.0,42905.0,139095.0,54959.0,-524.8269487364746,-58.377600866643945,-118.42274463660524
139095,9335,139095.0,42895.0,139095.0,54983.0,-512.3176954536472,-51.8915744957838,-104.45552237723696
139105,9362,139105.0,42977.0,139105.0,55032.0,-499.391567708317,-45.407302582886075,-90.50676042709999
139105,9392,139105.0,43024.0,139105.0,55078.0,-486.069609596083,-38.939878372240585,-76.60794575251714
139105,9422,139105.0,43055.0,139105.0,55105.0,-472.37401998869336,-32.50420417422683,-62.7900963118922
139105,9413,139105.0,42997.0,139105.0,55070.0,-458.327796612774,-26.11386711894184,-49.083094851822466
139105,9421,139105.0,42953.0,139105.0,55073.0,-443.9546208916066,-19.780997417567107,-35.51564945353638
139105,9438,139105.0,42939.0,139105.0,55113.0,-429.27906577755556,-13.517232138870298,-22.115780699917707
139115,9476,139115.0,43001.0,139115.0,55159.0,-414.3268080820216,-7.3348633068243885,-8.911071588395941
139115,9517,139115.0,43092.0,139115.0,55183.0,-399.12450654388624,-1.2470123651831813,4.071723439834898
139115,9529,139115.0,43097.0,139115.0,55239.0,-383.6993609950531,4.733452711218121,16.8074117343823
139115,9533,139115.0,43021.0,139115.0,55173.0,-368.07870591356107,10.595171337542197,29.272971313942378
139115,9543,139115.0,42997.0,139115.0,55175.0,-352.289949138836,16.328341574934257,41.44754038826133
139115,9565,139115.0,43026.0,139115.0,55205.0,-336.360769867814,21.923682416588363,53.31175589146923
139126,9606,139126.0,43088.0,139126.0,55259.0,-320.31923708122474,27.3716977227172,64.84727952707459
139126,9655,139126.0,43098.0,139126.0,55294.0,-304.19358441877654,32.66300707754304,76.03713323774008
139126,9656,139126.0,43110.0,139126.0,55253.0,-288.01168107041525,37.789199494768184,86.86639340340156
139126,9664,139126.0,43068.0,139126.0,55269.0,-271.80060454070656,42.74334209347681,97.32241661279019
139126,9668,139126.0,43062.0,139126.0,55261.0,-255.58664627652394,47.51979997959873,107.39446190109277
139126,9689,139126.0,43077.0,139126.0,55286.0,-239.39560357280357,52.113650879409576,117.07323603330613
139136,9733,139136.0,43131.0,139136.0,55336.0,-223.25297644239373,56.520358492522874,126.35078514357173
139136,9776,139136.0,43158.0,139136.0,55331.0,-207.18379136241566,60.73614994410036,135.2208119588845
139136,9770,139136.0,43129.0,139136.0,55327.0,-191.2121219021538,64.75878380399018,143.67908494955304
139136,9772,139136.0,43076.0,139136.0,55306.0,-175.3607789746867,68.58785275647318,151.72343570297818
139136,9780,139136.0,43046.0,139136.0,55298.0,-159.65147753892992,72.22412518164438,159.35327585278526
139136,9819,139136.0,43081.0,139136.0,55331.0,-144.10518961939087,75.66841136175549,166.56900600423734
139146,9855,139146.0,43182.0,139146.0,55374.0,-128.74220938646152,78.92106734336699,173.37181249268576
139146,9873,139146.0,43157.0,139146.0,55396.0,-113.58183247752262,81.98271116951219,179.76408469267466
139146,9891,139146.0,43118.0,139146.0,55368.0,-98.64194841325224,84.85527114838436,185.75005416388194
139146,9881,139146.0,43074.0,139146.0,55324.0,-83.93886321052614,87.54205273872347,191.33591891953307
139146,9888,139146.0,43071.0,139146.0,55348.0,-69.48745886999507,90.04679768096085,196.52923209544457
139146,9924,139146.0,43132.0,139146.0,55359.0,-55.30152528596639,92.3727815372784,201.3381862257727
139157,9953,139157.0,43194.0,139157.0,55387.0,-41.39388363329692,94.52286627254503,205.77143440713223
139157,9990,139157.0,43172.0,139157.0,55430.0,-27.776108529148303,96.50049562735259,209.8384521375777
139157,9965,139157.0,43126.0,139157.0,55379.0,-14.458117709640192,98.31058084930083,213.55008134971564
139157,9956,139157.0,43062.0,139157.0,55327.0,-1.4481226350656016,99.95927897157688,216.91861683326044
139157,9985,139157.0,43088.0,139157.0,55349.0,11.246934828932922,101.4528435935811,219.95706031049303
139157,10000,139157.0,43154.0,139157.0,55380.0,23.620943594067967,102.79670756518095,222.6782601943657
139167,10029,139167.0,43177.0,139167.0,55410.0,35.6685752281943,103.99570603069711,225.09483312361192
139167,10042,139167.0,43177.0,139167.0,55382.0,47.385497213598285,105.05508752891251,227.21967663318912
139167,10042,139167.0,43116.0,139167.0,55366.0,58.768574555821885,105.98120398747841,229.0662569916986
139167,10043,139167.0,43084.0,139167.0,55346.0,69.81586965370008,106.78122375132531,230.64830144680042
139167,10067,139167.0,43098.0,139167.0,55384.0,80.52644862882289,107.46216290516614,231.97925871521454
139167,10087,139167.0,43158.0,139167.0,55394.0,90.90025119238823,108.03019795706606,233.07211213263759
139177,10128,139177.0,43201.0,139177.0,55420.0,100.93824264359375,108.49099022433799,233.93970288115304
139177,10109,139177.0,43158.0,139177.0,55405.0,110.64276502903618,108.8506918535777,234.59522895821095
139177,10097,139177.0,43074.0,139177.0,55340.0,120.01769685325723,109.116435243186,235.052403419962
139177,10097,139177.0,43076.0,139177.0,55352.0,129.06813794532854,109.29557915255444,235.32494565380404
139177,10116,139177.0,43121.0,139177.0,55399.0,137.7998824442504,109.39451266585232,235.42586664950812
139177,10157,139177.0,43182.0,139177.0,55444.0,146.21918162676394,109.41838076841537,235.3674868355301
139188,10161,139188.0,43187.0,139188.0,55423.0,154.33296233924392,109.37196405929913,235.1622568894678
139188,10139,139188.0,43149.0,139188.0,55395.0,162.14914870515366,109.2607369949998,234.82345020775193
139188,10139,139188.0,43098.0,139188.0,55351.0,169.67659512039802,109.0910906173149,234.3650243960339
139188,10137,139188.0,43099.0,139188.0,55350.0,176.9246323065566,108.86961435247193,233.8008213446887
139188,10152,139188.0,43110.0,139188.0,55396.0,183.90262279025728,108.60220164664327,233.14382993696745
139188,10178,139188.0,43176.0,139188.0,55401.0,190.6197865731976,108.2937887205039,232.40612818397858
139198,10191,139198.0,43146.0,139198.0,55387.0,197.08533312089395,107.94886184508914,231.59934449510013
139198,10171,139198.0,43123.0,139198.0,55386.0,203.3086970008872,107.57205705427143,230.7349637927748
139198,10168,139198.0,43094.0,139198.0,55343.0,209.299514627191,107.16810539297671,229.82418870158205
139198,10188,139198.0,43101.0,139198.0,55358.0,215.06730942832291,106.74122271363171,228.877501149203
139198,10196,139198.0,43146.0,139198.0,55384.0,220.62125951883513,106.29465824551164,227.90427412519858
139198,10219,139198.0,43201.0,139198.0,55433.0,225.9702560128087,105.8309745159566,226.91291085928628
139208,10217,139208.0,43202.0,139208.0,55391.0,231.12311407109132,105.35304030107105,225.9115050427821
139208,10205,139208.0,43098.0,139208.0,55369.0,236.08869961932112,104.86487643327533,224.90829125446538
139208,10196,139208.0,43074.0,139208.0,55322.0,240.8757812227808,104.37131619975915,223.91131059043545
139208,10208,139208.0,43072.0,139208.0,55359.0,245.492661475065,103.87666638830655,222.92759681662244
139208,10243,139208.0,43173.0,139208.0,55396.0,249.94693570120762,103.38376722493976,221.9627165632412
139208,10257,139208.0,43227.0,139208.0,55398.0,254.24565900665561,102.89449328703881,221.02109641411988
139219,10246,139219.0,43134.0,139219.0,55365.0,258.3957534578131,102.41116710539885,220.10662470907545
139219,10223,139219.0,43102.0,139219.0,55367.0,262.4041674480628,101.93721379321451,219.2227852078089
139219,10216,139219.0,43073.0,139219.0,55348.0,266.2775482272792,101.47635843908296,218.3723224879833
139219,10254,139219.0,43116.0,139219.0,55346.0,270.0217491454497,101.03144884756381,217.55684168756795
139219,10281,139219.0,43159.0,139219.0,55406.0,273.6417299468932,100.60409346378066,216.77662785211308
139219,10283,139219.0,43188.0,139219.0,55417.0,277.1419733745405,100.19529248199964,216.03097422776202
139229,10277,139229.0,43140.0,139229.0,55389.0,280.5269504430611,99.80638818302259,215.31888187467226
139229,10254,139229.0,43079.0,139229.0,55355.0,283.8011890149056,99.43934081458676,214.63937172387216
139229,10260,139229.0,43058.0,139229.0,55354.0,286.9689455349241,99.09593129788226,213.9910691235953
139229,10274,139229.0,43125.0,139229.0,55369.0,290.03380964738324,98.77665566957369,213.37159921904174
139229,10292,139229.0,43161.0,139229.0,55409.0,292.9985835712609,98.48049306287949,212.77743473441467
139229,10318,139229.0,43186.0,139229.0,55445.0,295.8655109981156,98.2057657754738,212.2043864653353
139239,10298,139239.0,43097.0,139239.0,55412.0,298.6366530491251,97.95109578189744,211.64842089064877
139239,10283,139239.0,43077.0,139239.0,55358.0,301.3140509948285,97.71537100082423,211.1060623275943
139239,10289,139239.0,43095.0,139239.0,55353.0,303.8994894889765,97.49681040569384,210.57390418455876
139239,10312,139239.0,43156.0,139239.0,55396.0,306.3941719058475,97.29231594403343,210.04779202208334
139239,10324,139239.0,43200.0,139239.0,55428.0,308.7987165180365,97.09792688630102,209.5226580183875
139239,10317,139239.0,43178.0,139239.0,55403.0,311.11341478976954,96.90997195709865,208.993087925411
139250,10298,139250.0,43129.0,139250.0,55372.0,313.33836118816816,96.72585084302936,208.45376869157647
139250,10301,139250.0,43077.0,139250.0,55378.0,315.4732480845381,96.54373891154125,207.89927861487877
139250,10317,139250.0,43099.0,139250.0,55375.0,317.51704633093334,96.36152080903906,207.32360268194864
139250,10344,139250.0,43211.0,139250.0,55433.0,319.4679479372777,96.17611664448128,206.71998443555853
139250,10353,139250.0,43192.0,139250.0,55461.0,321.3236761171613,95.98409126754228,206.0813897917496
139250,10380,139250.0,43174.0,139250.0,55433.0,323.0819725290016,95.78289105159271,205.40135838714968
139260,10327,139260.0,43130.0,139260.0,55406.0,324.7409683427146,95.57132406006471,204.6745161615776
139260,10327,139260.0,43089.0,139260.0,55393.0,326.2991133840216,95.34896999715787,203.89632642309238
139260,10345,139260.0,43118.0,139260.0,55396.0,327.7547119881792,95.11518376629168,203.06248633847682
139260,10367,139260.0,43179.0,139260.0,55451.0,329.10564844862614,94.86855881106901,202.168624685864
139260,10368,139260.0,43184.0,139260.0,55451.0,330.34959151064925,94.60735821831993,201.21062075956849
139260,10372,139260.0,43161.0,139260.0,55431.0,331.484340018036,94.33039757756059,200.1852288657577
139270,10364,139270.0,43101.0,139270.0,55387.0,332.5079859912237,94.03734755051596,199.09027999988996
139270,10350,139270.0,43095.0,139270.0,55385.0,333.4188466378719,93.72811822587647,197.92419367896952
139270,10364,139270.0,43128.0,139270.0,55411.0,334.21524428430536,93.40197084157583,196.68532414638238
139270,10392,139270.0,43190.0,139270.0,55453.0,334.89538117879613,93.05730398524271,195.37184323636953
139270,10393,139270.0,43214.0,139270.0,55454.0,335.4575439737382,92.69243404555085,193.9823036368359
139270,10387,139270.0,43125.0,139270.0,55429.0,335.9004639042276,92.30661713641328,192.51632608208752
139281,10368,139281.0,43100.0,139281.0,55382.0,336.2234401153038,91.90013878409962,190.97472245279673
139281,10372,139281.0,43108.0,139281.0,55386.0,336.42613308766585,91.47336819149173,189.35893134767133
139281,10396,139281.0,43145.0,139281.0,55439.0,336.50831960219176,91.02592452536479,187.67040762394828
139281,10408,139281.0,43213.0,139281.0,55460.0,336.469949241422,90.55683149209092,185.910734877585
139281,10407,139281.0,43208.0,139281.0,55458.0,336.3114842219913,90.06552462360135,184.0823980796359
139281,10392,139281.0,43128.0,139281.0,55411.0,336.0341724544476,89.55279455161553,182.18939265808586
139291,10374,139291.0,43064.0,139291.0,55340.0,335.6399907305933,89.02057954463478,180.23698389965529
139291,10381,139291.0,43108.0,139291.0,55393.0,335.13131871097147,88.47066799667249,178.2307278499462
139291,10396,139291.0,43172.0,139291.0,55417.0,334.51065935233623,87.90375575046109,176.17573707733908
139291,10415,139291.0,43208.0,139291.0,55437.0,333.78068699832374,87.31989839607711,174.0769257372914
139291,10398,139291.0,43173.0,139291.0,55418.0,332.944552222764,86.71974330949907,171.93974807867986
139291,10388,139291.0,43107.0,139291.0,55374.0,332.00607704466495,86.10516529142325,169.77053979211988
139301,10378,139301.0,43080.0,139301.0,55364.0,330.96962185063364,85.47868247441144,167.57616251002332
139301,10371,139301.0,43114.0,139301.0,55387.0,329.83976353949663,84.8423040800141,165.36336409476775
139301,10406,139301.0,43183.0,139301.0,55412.0,328.6210700961337,84.19702216118877,163.1385425624314
139301,10414,139301.0,43211.0,139301.0,55440.0,327.31821429519687,83.54349772082863,160.90815829565906
139301,10392,139301.0,43153.0,139301.0,55395.0,325.9363454376164,82.8832389381888,158.67938352022418
139301,10373,139301.0,43087.0,139301.0,55334.0,324.4812454167904,82.21897629273792,156.46024815034065
139312,10360,139312.0,43078.0,139312.0,55319.0,322.95902610154883,81.5537832450263,154.25889119344728
139312,10382,139312.0,43128.0,139312.0,55381.0,321.37568759946504,80.8899016355839,152.08256100447923
139312,10411,139312.0,43155.0,139312.0,55390.0,319.73701278075833,80.22845154082427,149.9374124206077
139312,10402,139312.0,43206.0,139312.0,55385.0,318.04892334052283,79.57016515356821,147.82912078216992
139312,10373,139312.0,43145.0,139312.0,55388.0,316.3178702055998,78.91640194104781,145.76347077024377
139312,10365,139312.0,43086.0,139312.0,55339.0,314.55077239986826,78.26948580513627,143.74646048676715
139322,10352,139322.0,43082.0,139322.0,55347.0,312.75458106150063,77.63195743085015,141.78397522850923
139322,10367,139322.0,43136.0,139322.0,55358.0,310.9358771838898,77.0055552891015,139.88133229772416
139322,10389,139322.0,43189.0,139322.0,55390.0,309.1007801097001,76.39112123646966,138.0431783077742
139322,10392,139322.0,43182.0,139322.0,55386.0,307.2552171595836,75.78952981901477,136.27387440141794
139322,10363,139322.0,43114.0,139322.0,55342.0,305.4052769463478,75.20257676974785,134.57790174964276
139322,10357,139322.0,43072.0,139322.0,55317.0,303.5572333420175,74.6328067109435,132.95971852279112
139332,10357,139332.0,43094.0,139332.0,55325.0,301.7172399008141,74.08245202064421,131.42310057026953
139332,10366,139332.0,43162.0,139332.0,55382.0,299.8910729729573,73.55268285437899,129.97068004280078
139332,10387,139332.0,43176.0,139332.0,55403.0,298.08416615910073,73.0439838144423,128.60427883459283
139332,10366,139332.0,43182.0,139332.0,55355.0,296.301861041326,72.55720593707109,127.32570891516026
139332,10363,139332.0,43067.0,139332.0,55332.0,294.5495846216139,72.0941546197702,126.13708833819003
139332,10351,139332.0,43081.0,139332.0,55326.0,292.83275901697107,71.6570172980235,125.04036121340428
139343,10338,139343.0,43088.0,139343.0,55352.0,291.1565383514401,71.2471772220492,124.03668940269162
139343,10364,139343.0,43155.0,139343.0,55389.0,289.5255669497136,70.86466190704348,123.1263918043501
139343,10363,139343.0,43185.0,139343.0,55383.0,287.9439488978788,70.50871595734995,122.309459520654
139343,10356,139343.0,43152.0,139343.0,55360.0,286.41543286930903,70.1788790011257,121.58611263235912
139343,10329,139343.0,43085.0,139343.0,55325.0,284.9434923350685,69.87550629849181,120.95682383966864
139343,10332,139343.0,43067.0,139343.0,55311.0,283.53109057143035,69.59916944008896,120.42175229850548
139353,10347,139353.0,43110.0,139353.0,55339.0,282.1803651058368,69.34957864830744,119.98005916876917
139353,10373,139353.0,43171.0,139353.0,55379.0,280.89262006183463,69.12522673613847,119.62970794393539
139353,10367,139353.0,43174.0,139353.0,55372.0,279.66868906909184,68.92412912408598,119.3679195837163
139353,10357,139353.0,43144.0,139353.0,55321.0,278.5093206137714,68.74483832839532,119.19168349180168
139353,10336,139353.0,43071.0,139353.0,55343.0,277.41523164827447,68.58666850058887,119.09766874076747
139353,10341,139353.0,43072.0,139353.0,55332.0,276.3868375304145,68.44888721704716,119.0817663449935
139364,10358,139364.0,43134.0,139364.0,55381.0,275.42398408968256,68.32972248587828,119.13891837680598
139364,10367,139364.0,43191.0,139364.0,55391.0,274.5259772725043,68.22633649786457,119.26345262140977
139364,10369,139364.0,43189.0,139364.0,55384.0,273.6918658497872,68.1358916490366,119.44967401357405
139364,10349,139364.0,43114.0,139364.0,55350.0,272.92067364945547,68.05657361202302,119.692207104097
139364,10338,139364.0,43086.0,139364.0,55308.0,272.2113445679313,67.98748480270703,119.98570118394235
139364,10345,139364.0,43083.0,139364.0,55353.0,271.5624550333472,67.92759448345564,120.32410061497117
139374,10347,139374.0,43145.0,139374.0,55407.0,270.9719772779999,67.87488287029524,120.70028598629446
139374,10357,139374.0,43178.0,139374.0,55413.0,270.43726346126084,67.82648877260202,121.10662662671507
139374,10379,139374.0,43169.0,139374.0,55402.0,269.955220353537,67.77962405486545,121.53590638979765
139374,10375,139374.0,43141.0,139374.0,55362.0,269.52262002436134,67.7323342136548,121.98171834796747
139374,10345,139374.0,43062.0,139374.0,55356.0,269.1363462833092,67.68338875660044,122.4381161342036
139374,10351,139374.0,43110.0,139374.0,55376.0,268.79329972705693,67.63138644395904,122.89900580910826
139384,10378,139384.0,43175.0,139384.0,55401.0,268.49013350996324,67.57406503814249,123.35790175655332
139384,10383,139384.0,43207.0,139384.0,55431.0,268.22328741840886,67.50877282936204,123.80826536863154
139384,10369,139384.0,43148.0,139384.0,55400.0,267.9892980961,67.43362036153404,124.24410090846058
139384,10362,139384.0,43095.0,139384.0,55367.0,267.7849443633559,67.34790190453307,124.66020771250668
139384,10348,139384.0,43106.0,139384.0,55377.0,267.6070678677207,67.25135770201554,125.05181369896627
139384,10361,139384.0,43112.0,139384.0,55376.0,267.4522776146357,67.14321400416318,125.41402747618069
139395,10377,139395.0,43191.0,139395.0,55445.0,267.3168116852042,67.02197228697457,125.74172644374751
139395,10385,139395.0,43170.0,139395.0,55439.0,267.1966918412842,66.88605696638248,126.03007127464639
139395,10373,139395.0,43161.0,139395.0,55404.0,267.088013288389,66.73465382316817,126.27520374447957
139395,10351,139395.0,43097.0,139395.0,55371.0,266.9870337858015,66.56790136301213,126.47434892751569
139395,10349,139395.0,43080.0,139395.0,55363.0,266.8899205696705,66.38621657477098,126.62516808095813
139395,10365,139395.0,43125.0,139395.0,55407.0,266.7923960350639,66.1893541096619,126.72505847167163
139405,10390,139405.0,43171.0,139405.0,55418.0,266.689668834115,65.97611966803862,126.77107007788078
139405,10398,139405.0,43167.0,139405.0,55425.0,266.5767638572681,65.74501282993072,126.76038663500341
139405,10371,139405.0,43126.0,139405.0,55386.0,266.4489395970553,65.49499999469558,126.69075388380674
139405,10376,139405.0,43103.0,139405.0,55377.0,266.30179033173687,65.2255513208786,126.56038762910599
139405,10351,139405.0,43104.0,139405.0,55388.0,266.1310029250649,64.93602062348187,126.36750941391013
139405,10386,139405.0,43142.0,139405.0,55408.0,265.93206384935695,64.62511297853321,126.11004817897664
139415,10390,139415.0,43200.0,139415.0,55429.0,265.7002140605802,64.29105527034865,125.78581152553855
139415,10392,139415.0,43193.0,139415.0,55440.0,265.4307004411089,63.93247781531177,125.39297891480588
139415,10390,139415.0,43116.0,139415.0,55391.0,265.1190527837646,63.54921988470133,124.93052022118123
139415,10364,139415.0,43090.0,139415.0,55386.0,264.7611274324827,63.14212015943134,124.39812483198533
139415,10375,139415.0,43141.0,139415.0,55402.0,264.3529055812004,62.71204104074509,123.79572429965485
139415,10401,139415.0,43185.0,139415.0,55428.0,263.890295283785,62.25942399930656,123.12323591200658
139426,10405,139426.0,43174.0,139426.0,55423.0,263.36925907699396,61.784883891255774,122.38081657622926
139426,10392,139426.0,43148.0,139426.0,55428.0,262.7861641378029,61.289970001211444,121.5692688192976
139426,10389,139426.0,43063.0,139426.0,55346.0,262.13794631193053,60.777118354895876,120.69010106205437
139426,10370,139426.0,43045.0,139426.0,55333.0,261.42197075351385,60.24862121339712,119.74491632319723
139426,10379,139426.0,43110.0,139426.0,55388.0,260.6357612919478,59.70535840954798,118.73446120151587
139426,10408,139426.0,43166.0,139426.0,55419.0,259.77685157827364,59.14648850506214,117.658332785009
139436,10409,139436.0,43175.0,139436.0,55413.0,258.84297462969425,58.57040330023582,116.51562678591092
139436,10380,139436.0,43132.0,139436.0,55394.0,257.8324046680322,57.97589540603439,115.30566075857267
139436,10374,139436.0,43090.0,139436.0,55358.0,256.743983844254,57.36243194574256,114.02805400282298
139436,10363,139436.0,43068.0,139436.0,55359.0,255.57677724051536,56.72944740160712,112.68224107414372
139436,10376,139436.0,43119.0,139436.0,55385.0,254.32971843538678,56.07544285562243,111.26695115429067
139436,10401,139436.0,43188.0,139436.0,55440.0,253.0015411286418,55.39785898737121,109.78023613543071
139446,10388,139446.0,43174.0,139446.0,55445.0,251.59103126383928,54.693977866048456,108.22020328323342
139446,10382,139446.0,43127.0,139446.0,55383.0,250.09731839053754,53.96193686723605,106.58583934768276
139446,10368,139446.0,43073.0,139446.0,55358.0,248.51989465004186,53.20074782013045,104.8770478819671
139446,10350,139446.0,43083.0,139446.0,55374.0,246.85836545962593,52.409353824350625,103.09391194349749
139446,10380,139446.0,43148.0,139446.0,55389.0,245.11215047521455,51.58579634630657,101.23609488184573
139446,10395,139446.0,43185.0,139446.0,55425.0,243.28044650012995,50.72742556978804,99.3029397862131
139457,10392,139457.0,43171.0,139457.0,55417.0,241.3625697336114,49.83195371416873,97.29404701749336
139457,10368,139457.0,43101.0,139457.0,55383.0,239.35831108890324,48.89821811481205,95.20977534185855
139457,10356,139457.0,43085.0,139457.0,55355.0,237.26790592723466,47.92586690682194,93.05118098147025
139457,10359,139457.0,43091.0,139457.0,55355.0,235.09170321014219,46.91437816645004,90.81943504534567
139457,10359,139457.0,43154.0,139457.0,55395.0,232.8298922627856,45.862472957778465,88.51532440250229
139457,10377,139457.0,43186.0,139457.0,55414.0,230.48248141650132,44.768519303414124,86.13937224843454
139467,10371,139467.0,43137.0,139467.0,55410.0,228.04948602651731,43.63150213636493,83.69246905722886
139467,10356,139467.0,43092.0,139467.0,55335.0,225.53113158551085,42.451476588543755,81.17630154800409
139467,10336,139467.0,43067.0,139467.0,55349.0,222.92782503689256,41.22897645493782,78.59302108751002
139467,10350,139467.0,43104.0,139467.0,55372.0,220.23989023306706,39.9640416156763,75.94456229086308
139467,10371,139467.0,43184.0,139467.0,55393.0,217.46741358250654,38.655947095483526,73.23249207239188
139467,10374,139467.0,43180.0,139467.0,55397.0,214.61046700593133,37.304034456943484,70.45849634207268
139477,10365,139477.0,43131.0,139477.0,55367.0,211.66951391911948,35.908838079448735,67.62489110657818
139477,10336,139477.0,43079.0,139477.0,55330.0,208.6455874211103,34.47229615252199,64.73464186710736
139477,10329,139477.0,43085.0,139477.0,55338.0,205.54007674934513,32.99691684538645,61.79086493024796
139477,10343,139477.0,43109.0,139477.0,55371.0,202.3543607681857,31.484881099536743,58.79635087208338
139477,10354,139477.0,43162.0,139477.0,55376.0,199.0896891443765,29.93794002762484,55.75365646196644
139477,10355,139477.0,43179.0,139477.0,55384.0,195.7474143750057,28.35815744210022,52.66563138906186
139488,10344,139488.0,43108.0,139488.0,55350.0,192.3292993994601,26.74879926712316,49.53583937118235
139488,10325,139488.0,43050.0,139488.0,55300.0,188.83761135641515,25.11437206654697,46.36846880570481
139488,10307,139488.0,43062.0,139488.0,55311.0,185.274922502165,23.459608211041548,43.16769642140049
139488,10320,139488.0,43108.0,139488.0,55369.0,181.64376999719343,21.788459999068643,39.93711294019717
139488,10335,139488.0,43145.0,139488.0,55356.0,177.9464962514055,20.104128612014364,36.67991284735993
139488,10335,139488.0,43136.0,139488.0,55364.0,174.18544580991448,18.409933499298155,33.399585068977004
139498,10300,139498.0,43079.0,139498.0,55306.0,170.36324954718822,16.71002034261992,30.100282817994014
139498,10293,139498.0,43028.0,139498.0,55271.0,166.48278122910256,15.009130377844947,26.786481914691166
139498,10294,139498.0,43041.0,139498.0,55295.0,162.5468167133147,13.311574627008653,23.462170296521137
139498,10296,139498.0,43111.0,139498.0,55342.0,158.55778829814244,11.620432849629466,20.13034973444826
139498,10327,139498.0,43148.0,139498.0,55369.0,154.51786078807882,9.93787561090977,16.793452697925346
139498,10300,139498.0,43114.0,139498.0,55306.0,150.42926038934905,8.266297711362078,13.454218930789011
139508,10272,139508.0,43056.0,139508.0,55266.0,146.29451030604213,6.609018311397875,10.115953010664043
139508,10268,139508.0,43005.0,139508.0,55276.0,142.1162410728893,4.969786749447451,6.7818612667887805
139508,10276,139508.0,43066.0,139508.0,55294.0,137.89679815261852,3.3516383301879387,3.454319938688684
139508,10289,139508.0,43130.0,139508.0,55339.0,133.63812431232466,1.756409315663646,0.1348738457929528
139508,10289,139508.0,43122.0,139508.0,55347.0,129.3419956284705,0.18549790283455536,-3.1750729595171663
139508,10284,139508.0,43098.0,139508.0,55327.0,125.01034999525282,-1.3590334799368264,-6.473429112064252
139519,10243,139519.0,43032.0,139519.0,55242.0,120.64541058841459,-2.874194439730161,-9.757160806291921
139519,10251,139519.0,43002.0,139519.0,55229.0,116.24946255965796,-4.356841867212907,-13.023002291844136
139519,10248,139519.0,42994.0,139519.0,55293.0,111.82450145252051,-5.804905352728767,-16.268518897319353
139519,10261,139519.0,43107.0,139519.0,55333.0,107.37211956087151,-7.218125878027394,-19.49230440201464
139519,10251,139519.0,43142.0,139519.0,55307.0,102.89366659312807,-8.597500381154362,-22.69312057976086
139519,10232,139519.0,43059.0,139519.0,55266.0,98.39041138725239,-9.943877426862016,-25.869124391076383
139529,10225,139529.0,43003.0,139529.0,55210.0,93.86348404577285,-11.257377575778207,-29.0180874719845
139529,10212,139529.0,43018.0,139529.0,55222.0,89.31364094757484,-12.538271853633034,-32.13836513177023
139529,10240,139529.0,43070.0,139529.0,55311.0,84.74109139990566,-13.787996824303093,-35.22959699388346
139529,10255,139529.0,43113.0,139529.0,55305.0,80.1456368472092,-15.009047498244698,-38.292303532865304
139529,10249,139529.0,43142.0,139529.0,55280.0,75.5271367929225,-16.203893738216777,-41.32683588302359
139529,10226,139529.0,43044.0,139529.0,55254.0,70.88593311823968,-17.373933974870326,-44.33287492806497
139539,10203,139539.0,43016.0,139539.0,55214.0,66.2228604332538,-18.51950409183857,-47.30981155627029
139539,10208,139539.0,43045.0,139539.0,55231.0,61.53891125435638,-19.64087870044274,-50.25748394678189
139539,10212,139539.0,43076.0,139539.0,55277.0,56.83494656013971,-20.739014128478118,-53.17661216783367
139539,10215,139539.0,43091.0,139539.0,55290.0,52.11170263669939,-21.815306592731602,-56.06848891851686
139539,10194,139539.0,43056.0,139539.0,55271.0,47.36995657169595,-22.870954426178116,-58.93421780930467
139539,10176,139539.0,43025.0,139539.0,55217.0,42.61054074316618,-23.906780351627432,-61.774332918121445
139550,10177,139550.0,42984.0,139550.0,55199.0,37.83411925758509,-24.923774823687125,-64.58922659433833
139550,10174,139550.0,43040.0,139550.0,55207.0,33.04095094403419,-25.923913165533165,-67.37998479357225
139550,10186,139550.0,43090.0,139550.0,55274.0,28.23085744591907,-26.910390428704005,-70.14880424656485
139550,10199,139550.0,43109.0,139550.0,55285.0,23.403426757044258,-27.88686309665968,-72.89850977944559
139550,10169,139550.0,43074.0,139550.0,55243.0,18.558326734025655,-28.856359292136105,-75.63163312668041
139550,10159,139550.0,43015.0,139550.0,55203.0,13.695437179180772,-29.820903642162847,-78.35006703607672
139560,10149,139560.0,42992.0,139560.0,55200.0,8.814660866108738,-30.782182525326775,-81.05560624026975
139560,10156,139560.0,43030.0,139560.0,55213.0,3.915666476917181,-31.742585850402165,-83.75067502358891
139560,10168,139560.0,43108.0,139560.0,55243.0,-1.0021451291560197,-32.705540590010855,-86.43853301880603
139560,10159,139560.0,43121.0,139560.0,55240.0,-5.939429044620226,-33.674668511347335,-89.12291260727062
139560,10154,139560.0,43057.0,139560.0,55230.0,-10.896647266445427,-34.65257344056256,-91.80752696654264
139560,10112,139560.0,43008.0,139560.0,55218.0,-15.874041490346315,-35.64056325222316,-94.49586958368889
139570,10121,139570.0,42985.0,139570.0,55192.0,-20.871912728524194,-36.63957768015261,-97.19137594700987
139570,10133,139570.0,43049.0,139570.0,55244.0,-25.89094061056477,-37.651301946210566,-99.89768826704449
139570,10144,139570.0,43087.0,139570.0,55247.0,-30.932151778707578,-38.67834705063757,-102.61858801541206
139570,10145,139570.0,43088.0,139570.0,55243.0,-35.99654140427856,-39.723417742302175,-105.35750914593237
139570,10123,139570.0,43046.0,139570.0,55206.0,-41.08470599454549,-40.78842530959274,-108.1171661413482
139570,10100,139570.0,42988.0,139570.0,55185.0,-46.19678697265704,-41.87446388012462,-110.89973997213735
139581,10098,139581.0,43024.0,139581.0,55202.0,-51.332741202781506,-42.982599575417794,-113.70741343531927
139581,10106,139581.0,43064.0,139581.0,55239.0,-56.49263894427156,-44.11450716598509,-116.54264463597059
139581,10105,139581.0,43094.0,139581.0,55259.0,-61.67669781900088,-45.272168985229655,-119.40778796209528
139581,10088,139581.0,43084.0,139581.0,55220.0,-66.88513171438171,-46.45695782189266,-122.30438829578043
139581,10077,139581.0,43014.0,139581.0,55191.0,-72.11810198413585,-47.66906297703788,-125.23289919042043
139581,10061,139581.0,42981.0,139581.0,55155.0,-77.37587617419655,-48.907884775083886,-128.19314673754633
139591,10057,139591.0,43012.0,139591.0,55183.0,-82.65907689194174,-50.17307170014546,-131.18511007631702
139591,10083,139591.0,43076.0,139591.0,55237.0,-87.96881641293496,-51.46508914735175,-134.2092535793093
139591,10087,139591.0,43117.0,139591.0,55224.0,-93.30651463334465,-52.78461149541148,-137.2660423961859
139591,10073,139591.0,43037.0,139591.0,55190.0,-98.67347926021964,-54.13135067727988,-140.3552221511716
139591,10047,139591.0,43006.0,139591.0,55155.0,-104.07065496571465,-55.5036467718935,-143.4757431023427
139591,10044,139591.0,42970.0,139591.0,55165.0,-109.49875800398416,-56.899259776837084,-146.6263449620168
139602,10049,139602.0,43009.0,139602.0,55175.0,-114.95854329600948,-58.31648026809307,-149.80609410706984
139602,10067,139602.0,43086.0,139602.0,55222.0,-120.45083361784822,-59.75446417833264,-153.0143490723758
139602,10062,139602.0,43061.0,139602.0,55203.0,-125.97622992017926,-61.2124962828897,-156.25019685625094
139602,10034,139602.0,43014.0,139602.0,55160.0,-131.53478405271824,-62.689064767632246,-159.51193075236924
139602,10021,139602.0,42962.0,139602.0,55125.0,-137.125983980824,-64.18190245144763,-162.7972072131909
139602,10008,139602.0,42941.0,139602.0,55125.0,-142.749055541117,-65.68902101989293,-166.1038170392148
139612,10014,139612.0,43029.0,139612.0,55155.0,-148.4032751693466,-67.20971838043239,-169.43034242457878
139612,10033,139612.0,43061.0,139612.0,55176.0,-154.08802649251737,-68.74452507496112,-172.7761474493187
139612,10010,139612.0,43091.0,139612.0,55192.0,-159.80257450040142,-70.29404322811467,-176.14078705998327
139612,9990,139612.0,43022.0,139612.0,55151.0,-165.54586087635147,-71.8577364300854,-179.52336680304984
139612,9962,139612.0,42952.0,139612.0,55120.0,-171.3166564500276,-73.43377954328538,-182.92241592573663
139612,9977,139612.0,42978.0,139612.0,55142.0,-177.11396759573944,-75.02005344856545,-186.3363224442494
139622,9994,139622.0,43036.0,139622.0,55163.0,-182.9372473482855,-76.61511507340066,-189.76369073009272
139622,9986,139622.0,43079.0,139622.0,55174.0,-188.7861765161365,-78.21798114935773,-193.20311775898733
139622,9983,139622.0,43042.0,139622.0,55174.0,-194.66027991916502,-79.82703132846511,-196.6526349630189
139622,9956,139622.0,42975.0,139622.0,55114.0,-200.55875012957625,-81.43934813883152,-200.10938237801247
139622,9946,139622.0,42941.0,139622.0,55079.0,-206.48056777792698,-83.05126082649498,-203.56993406141282
139622,9937,139622.0,42954.0,139622.0,55088.0,-212.4247828610736,-84.6595690299337,-207.03116963602292
139633,9959,139633.0,43029.0,139633.0,55155.0,-218.3907020945328,-86.26226454374873,-210.490876504021
139633,9969,139633.0,43048.0,139633.0,55165.0,-224.37774758814578,-87.85808748871727,-213.94738262139919
139633,9952,139633.0,43015.0,139633.0,55141.0,-230.38504758149844,-89.44544109973658,-217.39860846143108
139633,9918,139633.0,42965.0,139633.0,55099.0,-236.41117210065022,-91.02184500915425,-220.84156425471252
139633,9921,139633.0,42934.0,139633.0,55084.0,-242.45429284034628,-92.58444717763258,-224.2726952979969
139633,9914,139633.0,42986.0,139633.0,55104.0,-248.5125123295042,-94.13095505463707,-227.6885472368201
139643,9919,139643.0,43044.0,139643.0,55114.0,-254.58399209672325,-95.65989526962034,-231.086055272335
139643,9917,139643.0,43055.0,139643.0,55142.0,-260.6668535877167,-97.16979313594831,-234.46227121891025
139643,9910,139643.0,42968.0,139643.0,55106.0,-266.7590056978324,-98.65814829215071,-237.81385837995975
139643,9877,139643.0,42918.0,139643.0,55065.0,-272.85807302240755,-100.12148350153566,-241.1369068166723
139643,9870,139643.0,42915.0,139643.0,55056.0,-278.96157464840115,-101.55655775728306,-244.42737672353633
139643,9894,139643.0,43001.0,139643.0,55094.0,-285.06719976051517,-102.96145873401744,-247.68173088676275
139653,9906,139653.0,43021.0,139653.0,55123.0,-291.17276123161463,-104.33543735222844,-250.8969873387075
139653,9892,139653.0,43045.0,139653.0,55118.0,-297.27576453876645,-105.6777334353489,-254.07009518444931
139653,9878,139653.0,42946.0,139653.0,55086.0,-303.3730292031814,-106.98660470134502,-257.19730557652906
139653,9845,139653.0,42930.0,139653.0,55038.0,-309.4606987761768,-108.25949003241345,-260.2741855320932
139653,9847,139653.0,42926.0,139653.0,55065.0,-315.53456864491585,-109.49407232712483,-263.2962322155688
139653,9866,139653.0,43014.0,139653.0,55096.0,-321.5903796535963,-110.68903892094323,-266.2593552400673
139664,9865,139664.0,43031.0,139664.0,55117.0,-327.6237437608855,-111.84367349268604,-269.15962203810756
139664,9846,139664.0,43012.0,139664.0,55085.0,-333.62981722430567,-112.95671460246507,-271.9925699936058
139664,9826,139664.0,42944.0,139664.0,55062.0,-339.60315655557434,-114.0256991718341,-274.75286864689923
139664,9809,139664.0,42903.0,139664.0,55040.0,-345.5379233501808,-115.04747496960837,-277.4346255594822
139664,9815,139664.0,42913.0,139664.0,55075.0,-351.4282175809099,-116.01942279391969,-280.03191102850013
139664,9828,139664.0,42990.0,139664.0,55114.0,-357.2682197942039,-116.94027337231248,-282.5388380583354
139674,9835,139674.0,43061.0,139674.0,55126.0,-363.05198859706934,-117.80965695374286,-284.94894886462754
139674,9825,139674.0,42999.0,139674.0,55081.0,-368.7730654043439,-118.62669122015325,-287.25442617888416
139674,9800,139674.0,42952.0,139674.0,55048.0,-374.42421853275886,-119.38904438156428,-289.4459248910913
139674,9794,139674.0,42914.0,139674.0,55034.0,-379.9975130361607,-120.09338821237438,-291.5131740399463
139674,9787,139674.0,42936.0,139674.0,55055.0,-385.4845628322459,-120.73656518002704,-293.44572816638197
139674,9798,139674.0,42992.0,139674.0,55088.0,-390.8766820555092,-121.31624136688637,-295.23320255250945
139684,9806,139684.0,43039.0,139684.0,55074.0,-396.1647881754337,-121.83047256895318,-296.8649076843166
139684,9792,139684.0,42993.0,139684.0,55067.0,-401.33912799259645,-122.27661672640298,-298.32938718248073
139684,9766,139684.0,42928.0,139684.0,55020.0,-406.3891020351159,-122.6507523483364,-299.6143877410669
139684,9750,139684.0,42905.0,139684.0,55034.0,-411.3034244475933,-122.94830120437746,-300.70730596690515
139684,9761,139684.0,42953.0,139684.0,55074.0,-416.070481101508,-123.16517138806404,-301.5956187252588
139684,9772,139684.0,43027.0,139684.0,55064.0,-420.67849368852586,-123.29810749831111,-302.26677932461894
139695,9768,139695.0,42996.0,139695.0,55083.0,-425.11533434500797,-123.34388177526361,-302.7077377963224
139695,9752,139695.0,42970.0,139695.0,55031.0,-429.3682522501019,-123.29835232661186,-302.90465029610425
139695,9729,139695.0,42902.0,139695.0,55012.0,-433.4238444818788,-123.15648945841534,-302.8431038705492
139695,9727,139695.0,42918.0,139695.0,55007.0,-437.2683140428024,-122.91331155680933,-302.50878215593394
139695,9740,139695.0,42953.0,139695.0,55071.0,-440.8877463318407,-122.56478762227455,-301.88800178048524
139695,9748,139695.0,43029.0,139695.0,55042.0,-444.2681070211629,-122.10781617352568,-300.9675937619562
139705,9745,139705.0,43010.0,139705.0,55062.0,-447.39497190655146,-121.53924220155436,-299.7344298529362
139705,9731,139705.0,42926.0,139705.0,55009.0,-450.2532725088361,-120.8549565207079,-298.1752519714822
139705,9698,139705.0,42921.0,139705.0,54968.0,-452.8273209788795,-120.05014817247311,-296.2770965575513
139705,9693,139705.0,42931.0,139705.0,55010.0,-455.10117348107775,-119.12036598131485,-294.02814226252957
139705,9710,139705.0,42988.0,139705.0,55059.0,-457.0590735232923,-118.06212660999371,-291.41822855994434
139705,9733,139705.0,43037.0,139705.0,55069.0,-458.6855507645717,-116.87247225600474,-288.43845068226824
139715,9700,139715.0,42997.0,139715.0,55033.0,-459.9651393825295,-115.54792534736598,-285.0803938086751
139715,9672,139715.0,42937.0,139715.0,55020.0,-460.88224266850176,-114.083894699615,-281.3359538970558
139715,9671,139715.0,42914.0,139715.0,54988.0,-461.4215005252046,-112.47522333893271,-277.1978830469186
139715,9693,139715.0,42939.0,139715.0,55034.0,-461.5682839568938,-110.71732363624147,-272.6605152701518
139715,9700,139715.0,42996.0,139715.0,55074.0,-461.30879087838287,-108.806756508203,-267.72002328329836
139715,9704,139715.0,42990.0,139715.0,55076.0,-460.62977407031894,-106.7408419887681,-262.37397377410264
139726,9676,139726.0,42952.0,139726.0,55041.0,-459.51831254365,-104.51699744244564,-256.6207580284978
139726,9661,139726.0,42915.0,139726.0,55014.0,-457.9619404195935,-102.1327465625513,-250.4596710600366
139726,9656,139726.0,42894.0,139726.0,55005.0,-455.94910743301284,-99.5865267306161,-243.89167167128605
139726,9678,139726.0,42968.0,139726.0,55069.0,-453.469625401799,-96.87855412883101,-236.92014146907272
139726,9688,139726.0,43011.0,139726.0,55089.0,-450.5147731887468,-94.01085014092025,-229.55094663566317
139726,9692,139726.0,43019.0,139726.0,55118.0,-447.0770908393413,-90.98630963555046,-221.791802344818
139736,9675,139736.0,42965.0,139736.0,55075.0,-443.1501869732585,-87.80775817458837,-213.65162972519255
139736,9678,139736.0,42936.0,139736.0,55056.0,-438.7288065657073,-84.47794920814327,-205.14055878718338
139736,9660,139736.0,42914.0,139736.0,55081.0,-433.80912289734357,-81.00044854834333,-196.27055071561287
139736,9716,139736.0,43015.0,139736.0,55140.0,-428.3890049222091,-77.38048725677606,-187.0558803004721
139736,9718,139736.0,43017.0,139736.0,55167.0,-422.4679464988353,-73.62486203105811,-177.51283659634345
139736,9720,139736.0,43052.0,139736.0,55175.0,-416.0466798148297,-69.74097398909784,-167.65891455200725
139746,9698,139746.0,42996.0,139746.0,55107.0,-409.1269526448075,-65.7359810712313,-157.51234907451243
139746,9701,139746.0,42960.0,139746.0,55147.0,-401.71175273941685,-61.616802485778045,-147.09247665671478
139746,9709,139746.0,42973.0,139746.0,55179.0,-393.805736440331,-57.390904136159904,-136.42038971352662
139746,9748,139746.0,43066.0,139746.0,55231.0,-385.4154607236253,-53.06695614977678,-125.51896625202878
139746,9765,139746.0,43087.0,139746.0,55274.0,-376.5492100749704,-48.65441921017258,-114.41214062654572
139746,9766,139746.0,43065.0,139746.0,55260.0,-367.2165819064649,-44.16239535298476,-103.12397319121413
139757,9750,139757.0,43005.0,139757.0,55220.0,-357.42825725429697,-39.59903406014485,-91.67820412477286
139757,9770,139757.0,42978.0,139757.0,55238.0,-347.19616084354436,-34.97212476246003,-80.09863063697985
139757,9786,139757.0,43022.0,139757.0,55277.0,-336.53373292361647,-30.29023598660305,-68.40977252352
139757,9815,139757.0,43129.0,139757.0,55297.0,-325.4559542876078,-25.563148202963802,-56.63703199550737
139757,9836,139757.0,43079.0,139757.0,55360.0,-313.9790876125557,-20.80104380844299,-44.80625187215107
139757,9839,139757.0,43085.0,139757.0,55316.0,-302.12033498562437,-16.01344960208084,-32.94308820339492
139767,9831,139767.0,43015.0,139767.0,55322.0,-289.8976761994561,-11.209133520524059,-21.0727388475593
139767,9842,139767.0,43023.0,139767.0,55333.0,-277.33002689712305,-6.396922946938799,-9.220247760398706
139767,9866,139767.0,43062.0,139767.0,55357.0,-264.43752372924973,-1.586616601078937,2.589085325050391
139767,9906,139767.0,43153.0,139767.0,55421.0,-251.24157770993577,3.210904767085161,14.329730975281464
139767,9919,139767.0,43143.0,139767.0,55439.0,-237.76457369550803,7.98463835230158,25.976487823069377
139767,9942,139767.0,43111.0,139767.0,55422.0,-224.02943992792606,12.724597821288587,37.505200481491016
139777,9925,139777.0,43063.0,139777.0,55412.0,-210.05939857442152,17.421999480613245,48.89300296739344
139777,9945,139777.0,43080.0,139777.0,55409.0,-195.87803818332412,22.06847212114093,60.117920446072674
139777,9979,139777.0,43133.0,139777.0,55498.0,-181.50952516879164,26.65529054619809,71.15842703721597
139777,10004,139777.0,43154.0,139777.0,55490.0,-166.978581194916,31.17345266706844,81.99362822371461
139777,10021,139777.0,43193.0,139777.0,55519.0,-152.3101669887311,35.61446688302417,92.60392689907368
139777,10028,139777.0,43120.0,139777.0,55492.0,-137.5291773650271,39.971095183555626,102.97146340000077
139788,10025,139788.0,43073.0,139788.0,55475.0,-122.660383432053,44.237277157793265,113.07998005179834
139788,10048,139788.0,43086.0,139788.0,55503.0,-107.72861105345284,48.40710967732775,122.91428889372634
139788,10097,139788.0,43141.0,139788.0,55528.0,-92.75887751319303,52.47384574834854,132.45984904597788
139788,10106,139788.0,43211.0,139788.0,55576.0,-77.77618606831761,56.429979232502774,141.70288931390184
139788,10134,139788.0,43207.0,139788.0,55566.0,-62.80510102775503,60.268352918901,150.63095710054208
139788,10122,139788.0,43143.0,139788.0,55538.0,-47.86947289117698,63.98319332563622,159.23331730992197
139798,10135,139798.0,43112.0,139798.0,55540.0,-32.99247667597979,67.57003833373479,167.50075237634928
139798,10167,139798.0,43143.0,139798.0,55581.0,-18.196820999233736,71.0247642596414,175.42505316105917
139798,10198,139798.0,43201.0,139798.0,55628.0,-3.5047851540165027,74.34293889102423,182.99894979368108
139798,10233,139798.0,43254.0,139798.0,55640.0,11.062098690084625,77.52028582714603,190.21671140473546
139798,10218,139798.0,43223.0,139798.0,55638.0,25.483490201074034,80.55383932965202,197.07489488392721
139798,10228,139798.0,43155.0,139798.0,55567.0,39.740414534690316,83.44263224577566,203.57255477912636
139808,10226,139808.0,43129.0,139808.0,55566.0,53.81504213145382,86.18716831869942,209.71060684198667
139808,10256,139808.0,43143.0,139808.0,55616.0,67.69034847958366,88.78818080381625,215.49085118753496
139808,10280,139808.0,43224.0,139808.0,55657.0,81.34998226746524,91.24589566423833,220.91566488273236
139808,10316,139808.0,43225.0,139808.0,55642.0,94.77845783117033,93.56043072949518,225.988566281528
139808,10320,139808.0,43200.0,139808.0,55605.0,107.9615489784156,95.7327216692368,230.71473833072343
139808,10302,139808.0,43123.0,139808.0,55598.0,120.88654875022459,97.7647888732501,235.10079635778612
139819,10314,139819.0,43119.0,139819.0,55595.0,133.54211630668925,99.65890808349612,239.1540794481948
139819,10349,139819.0,43220.0,139819.0,55629.0,145.91791979309775,101.41658527441251,242.8821330320891
139819,10360,139819.0,43252.0,139819.0,55651.0,158.00454708329602,103.03865922668615,246.29272445775865
139819,10384,139819.0,43238.0,139819.0,55651.0,169.79373532978613,104.52651757826045,249.394269885511
139819,10377,139819.0,43197.0,139819.0,55615.0,181.2786079722276,105.8830501878126,252.1961825081038
139819,10367,139819.0,43143.0,139819.0,55607.0,192.4536746009309,107.11245741598368,254.70870672367818
139829,10378,139829.0,43119.0,139829.0,55603.0,203.31453925886683,108.21917833910729,256.94235735849657
139829,10409,139829.0,43209.0,139829.0,55637.0,213.85756830489876,109.20682718292396,258.9074816850386
139829,10432,139829.0,43248.0,139829.0,55662.0,224.07988225336902,110.07815779627028,260.6143223354176
139829,10437,139829.0,43204.0,139829.0,55638.0,233.9796636139996,110.83605200131898,262.0734674470564
139829,10420,139829.0,43170.0,139829.0,55611.0,243.55639227011716,111.48422440288309,263.29611297050496
139829,10418,139829.0,43137.0,139829.0,55587.0,252.8107008482604,112.02682395250962,264.2937239572348
139839,10435,139839.0,43180.0,139839.0,55616.0,261.7439715214085,112.46754735959381,265.0773838605155
139839,10456,139839.0,43222.0,139839.0,55660.0,270.358072902236,112.80929429449913,265.65752359561105
139839,10477,139839.0,43258.0,139839.0,55670.0,278.6554474519134,113.05475686854155,266.0443720111307
139839,10456,139839.0,43210.0,139839.0,55653.0,286.6393570915,113.20739891096179,266.24870042553067
139839,10466,139839.0,43163.0,139839.0,55587.0,294.31393278562086,113.2718333258661,266.2820716415597
139839,10456,139839.0,43141.0,139839.0,55609.0,301.6839429972455,113.25319064630203,266.15630369683083
139850,10467,139850.0,43191.0,139850.0,55628.0,308.7544893257555,113.15615861104078,265.88276319087686
139850,10492,139850.0,43229.0,139850.0,55639.0,315.53083357365085,112.98472470221243,265.4722406355455
139850,10499,139850.0,43268.0,139850.0,55648.0,322.018467383903,112.7429048148519,264.9353386570033
139850,10499,139850.0,43199.0,139850.0,55624.0,328.22333118683963,112.43575164513538,264.2828384366931
139850,10478,139850.0,43138.0,139850.0,55585.0,334.1518807441385,112.06956806454669,263.52567775159355
139850,10482,139850.0,43119.0,139850.0,55586.0,339.8108412245879,111.65094485696697,262.6744593176355
139860,10503,139860.0,43168.0,139860.0,55617.0,345.2068590724467,111.1855029411572,261.73889383081996
139860,10529,139860.0,43238.0,139860.0,55641.0,350.3464298894018,110.67758648698282,260.7277723408613
139860,10511,139860.0,43220.0,139860.0,55639.0,355.2361527093487,110.13113137942945,259.649489904485
139860,10512,139860.0,43169.0,139860.0,55584.0,359.8829239248333,109.55064643180789,258.5124928773508
139860,10510,139860.0,43121.0,139860.0,55578.0,364.2938278045694,108.94117393075378,257.3250869764148
139860,10502,139860.0,43118.0,139860.0,55579.0,368.47588325362045,108.3072961502337,256.09478999947953
139871,10519,139871.0,43205.0,139871.0,55621.0,372.43582872488565,107.65228048719044,254.82793926370016
139871,10540,139871.0,43251.0,139871.0,55616.0,376.1800664808094,106.97837493588197,253.5299117215384
139871,10544,139871.0,43229.0,139871.0,55614.0,379.71486110263373,106.2880979655677,252.20562465843426
139871,10518,139871.0,43128.0,139871.0,55571.0,383.04658561949157,105.58514051827893,250.85975420053978
139871,10518,139871.0,43103.0,139871.0,55554.0,386.1816609028907,104.87380746806477,249.49641445967373
139871,10509,139871.0,43169.0,139871.0,55588.0,389.1262002639305,104.15766625330664,248.11858251163983
139881,10539,139881.0,43194.0,139881.0,55606.0,391.88570510484874,103.43899521914233,246.72789440840822
139881,10550,139881.0,43244.0,139881.0,55649.0,394.46508463223734,102.7195111812818,245.3251096157753
139881,10552,139881.0,43177.0,139881.0,55604.0,396.86896302726996,102.00145534057975,243.91087145451522
139881,10531,139881.0,43117.0,139881.0,55561.0,399.1019399983404,101.28790217770847,242.48603699898007
139881,10519,139881.0,43101.0,139881.0,55552.0,401.1685050544946,100.58191281799157,241.0511939269924
139881,10534,139881.0,43135.0,139881.0,55587.0,403.07269439538385,99.88533416696902,239.60590463009734
139891,10544,139891.0,43209.0,139891.0,55634.0,404.81786668713994,99.19843772206897,238.1485821728607
139891,10567,139891.0,43226.0,139891.0,55631.0,406.40682425214976,98.52074405976978,236.67717620326533
139891,10542,139891.0,43188.0,139891.0,55584.0,407.8421237372013,97.8522538502776,235.1899362740927
139891,10537,139891.0,43122.0,139891.0,55567.0,409.12621594535034,97.19390962373578,233.68545933749937
139891,10527,139891.0,43097.0,139891.0,55573.0,410.26125487411747,96.54686532658494,232.16211253564543
139891,10543,139891.0,43165.0,139891.0,55594.0,411.2488045625226,95.91137515423401,230.61758011216526
139902,10571,139902.0,43198.0,139902.0,55617.0,412.08978973540786,95.2865239577133,229.04896960110955
139902,10572,139902.0,43222.0,139902.0,55601.0,412.78480959397325,94.67106027794951,227.45328511466963
139902,10558,139902.0,43171.0,139902.0,55570.0,413.3345536598684,94.06441528626375,225.82774772404886
139902,10537,139902.0,43138.0,139902.0,55563.0,413.7399088351938,93.46694639626276,224.16961697195063
139902,10531,139902.0,43110.0,139902.0,55572.0,414.0016686114931,92.87928211522606,222.47574633548072
139902,10563,139902.0,43151.0,139902.0,55594.0,414.1201843860432,92.30144000402919,220.74238675587057
139912,10566,139912.0,43195.0,139912.0,55635.0,414.09536562983146,91.73256364706481,218.96549332685535
139912,10566,139912.0,43216.0,139912.0,55609.0,413.92701270634075,91.1715518360315,217.14138752754917
139912,10555,139912.0,43149.0,139912.0,55590.0,413.6150937876667,90.61792835250951,215.2672610994598
139912,10546,139912.0,43127.0,139912.0,55561.0,413.15974731007907,90.07197492223776,213.34108455862835
139912,10542,139912.0,43127.0,139912.0,55564.0,412.56109901293803,89.53402414539008,211.36108233140442
139912,10571,139912.0,43175.0,139912.0,55620.0,411.8191202142707,89.00381497690483,209.32537562785012
139922,10565,139922.0,43215.0,139922.0,55636.0,410.93374183372373,88.48067369242051,207.23229701816044
139922,10552,139922.0,43153.0,139922.0,55607.0,409.90512095305564,87.96427547746504,205.08117439728
139922,10554,139922.0,43120.0,139922.0,55557.0,408.73373814326555,87.45497479751317,202.87271823390068
139922,10526,139922.0,43103.0,139922.0,55545.0,407.4202587693245,86.95319660441184,200.60855476224864
139922,10549,139922.0,43135.0,139922.0,55566.0,405.9653140843125,86.45856631832143,198.290435311318
139922,10571,139922.0,43213.0,139922.0,55614.0,404.36944089178775,85.96975198644414,195.91996966324524
139933,10559,139933.0,43232.0,139933.0,55620.0,402.63335581897536,85.48534242592909,193.49916063546496
139933,10556,139933.0,43176.0,139933.0,55564.0,400.7583172870003,85.0050834390305,191.0311468808312
139933,10530,139933.0,43108.0,139933.0,55544.0,398.74620076378835,84.53023766709819,188.52029375458216
139933,10524,139933.0,43084.0,139933.0,55519.0,396.5992649967368,84.06264108437364,185.9715289359427
139933,10548,139933.0,43142.0,139933.0,55569.0,394.3198702256893,83.60340927008704,183.3896410883377
139933,10550,139933.0,43190.0,139933.0,55598.0,391.9104741236532,83.15257240088312,180.77924970583615
139943,10547,139943.0,43215.0,139943.0,55588.0,389.37392360195315,82.70991010926181,178.14547027550046
139943,10532,139943.0,43144.0,139943.0,55551.0,386.713702413046,82.27603707680316,175.49455213297205
139943,10513,139943.0,43092.0,139943.0,55501.0,383.93389970495576,81.85255548508091,172.83378053891792
139943,10506,139943.0,43081.0,139943.0,55492.0,381.0389439361567,81.44107193142314,170.17067110708192
139943,10524,139943.0,43132.0,139943.0,55538.0,378.03333272464346,81.04207848301974,167.51215251485547
139943,10543,139943.0,43196.0,139943.0,55560.0,374.9216600235601,80.65481896676285,164.8644840122879
139953,10528,139953.0,43187.0,139953.0,55567.0,371.7089789273389,80.27823559516439,162.23392167239817
139953,10500,139953.0,43127.0,139953.0,55500.0,368.4011053311591,79.91196384862019,159.62734999567354
139953,10491,139953.0,43103.0,139953.0,55464.0,365.00450407923245,79.5563314010472,157.0521116720962
139953,10479,139953.0,43108.0,139953.0,55510.0,361.5258950268871,79.21152299698288,154.51518503434966
139953,10498,139953.0,43176.0,139953.0,55537.0,357.9719572454919,78.87698384558651,152.02273297121613
139953,10502,139953.0,43222.0,139953.0,55552.0,354.34934769322916,78.551828518645,149.58056948212817
139964,10490,139964.0,43175.0,139964.0,55488.0,350.66495925761797,78.23595585559086,147.1948637010192
139964,10465,139964.0,43090.0,139964.0,55491.0,346.92608808585584,77.93063542716692,144.8722049260907
139964,10458,139964.0,43090.0,139964.0,55461.0,343.1402812981171,77.63777833065907,142.61904666751485
139964,10445,139964.0,43106.0,139964.0,55470.0,339.31500246127564,77.35866938924931,140.4411103111848
139964,10472,139964.0,43169.0,139964.0,55508.0,335.45741206787613,77.09345993152868,138.34314282113687
139964,10470,139964.0,43190.0,139964.0,55527.0,331.5744611046201,76.84176109988648,136.32921043204206
139974,10460,139974.0,43151.0,139974.0,55498.0,327.6732084333868,76.60364759010368,134.4033399685785
139974,10446,139974.0,43095.0,139974.0,55460.0,323.7610258192518,76.38004377702572,132.56983375603647
139974,10419,139974.0,43069.0,139974.0,55466.0,319.84549407370855,76.17205914511783,130.83292002788548
139974,10421,139974.0,43119.0,139974.0,55474.0,315.93408114208813,75.97994285018626,129.19622438487946
139974,10454,139974.0,43218.0,139974.0,55502.0,312.03391152086124,75.80285744916833,127.66265916958625
139974,10442,139974.0,43180.0,139974.0,55499.0,308.15193436893185,75.63990284221458,126.23477111420252
139984,10423,139984.0,43147.0,139984.0,55487.0,304.2952978269821,75.49131180356841,124.9151646815002
139984,10399,139984.0,43084.0,139984.0,55435.0,300.4714193398653,75.35851182216422,123.70655781811757
139984,10400,139984.0,43059.0,139984.0,55426.0,296.687678895378,75.24307145646095,122.61127778263355
139984,10402,139984.0,43148.0,139984.0,55466.0,292.9511073048191,75.14558350001698,121.63057944805786
139984,10407,139984.0,43193.0,139984.0,55487.0,289.2683364195422,75.06561010372931,120.76449835769597
139984,10398,139984.0,43164.0,139984.0,55496.0,285.6457483210173,75.00275257122387,120.01238420197902
139995,10383,139995.0,43104.0,139995.0,55457.0,282.0895925642922,74.95752434556648,119.373489382137
139995,10360,139995.0,43097.0,139995.0,55443.0,278.6058931795674,74.93105580842798,118.84701567885583
139995,10352,139995.0,43083.0,139995.0,55419.0,275.2001391591143,74.92414894751616,118.43162107285073
139995,10370,139995.0,43139.0,139995.0,55493.0,271.8769727511999,74.93665931961645,118.12493112689909
139995,10382,139995.0,43191.0,139995.0,55493.0,268.64017894294966,74.96771728980862,117.92367423324569
139995,10366,139995.0,43154.0,139995.0,55471.0,265.49298812334087,75.01663677009347,117.82432949708982
140004,10351,140004.0,43104.0,140004.0,55456.0,262.4383194366173,75.08358056705208,117.82348191712188
140004,10349,140004.0,43075.0,140004.0,55422.0,259.4787198485462,75.16919108171933,117.91752475156856
140004,10335,140004.0,43085.0,140004.0,55450.0,256.6161546562355,75.27358300801009,118.1020876173709
140004,10360,140004.0,43146.0,140004.0,55495.0,253.85188613481145,75.39572404257518,118.37177934540205
140004,10375,140004.0,43194.0,140004.0,55505.0,251.18660620197764,75.5338188177879,118.7206079800929
140004,10357,140004.0,43145.0,140004.0,55483.0,248.62082103284735,75.68636824503845,119.14271989496388
140014,10329,140014.0,43072.0,140014.0,55444.0,246.15511523396896,75.85272853741398,119.6326811035691
140014,10316,140014.0,43067.0,140014.0,55438.0,243.78995962022054,76.03243332281716,120.18504798754823
140014,10325,140014.0,43130.0,140014.0,55467.0,241.52527304286332,76.22410050280067,120.79373759712212
140014,10344,140014.0,43176.0,140014.0,55505.0,239.36021382989955,76.42528988927091,121.45189588784206
140014,10345,140014.0,43170.0,140014.0,55519.0,237.29338095333497,76.63344523032637,122.15244622516997
140014,10318,140014.0,43124.0,140014.0,55456.0,235.32313960412728,76.84681574659396,122.88874566163419
140025,10305,140025.0,43064.0,140025.0,55425.0,233.4476523073019,77.06439396294505,123.65453365175307
140025,10304,140025.0,43054.0,140025.0,55428.0,231.66457920195646,77.28490024852965,124.44309651968953
140025,10327,140025.0,43141.0,140025.0,55502.0,229.97082800568927,77.50576930181826,125.24656665637917
140025,10319,140025.0,43190.0,140025.0,55536.0,228.36263503689972,77.7232577461823,126.05623091412028
140025,10329,140025.0,43169.0,140025.0,55509.0,226.83584585204952,77.93365672727424,126.86359346131442
140025,10312,140025.0,43110.0,140025.0,55466.0,225.3861264615137,78.13428611173983,127.66107020622684
140035,10299,140035.0,43082.0,140035.0,55478.0,224.0089777607469,78.32328282348956,128.44174436869122
140035,10300,140035.0,43060.0,140035.0,55472.0,222.69956343425758,78.49854767422227,129.19876222791555
140035,10305,140035.0,43144.0,140035.0,55483.0,221.45252349448236,78.6568828537803,129.92503305409818
140035,10333,140035.0,43189.0,140035.0,55540.0,220.26201241109652,78.79415595152865,130.61335487227512
140035,10322,140035.0,43171.0,140035.0,55518.0,219.12201259505673,78.90641977968613,131.2569258112264
140035,10299,140035.0,43111.0,140035.0,55476.0,218.02664617311552,78.9908346029963,131.8498365211475
140045,10293,140045.0,43079.0,140045.0,55448.0,216.97014323556493,79.04544174680731,132.38687807315483
140045,10300,140045.0,43085.0,140045.0,55466.0,215.94655781351364,79.06814282696219,132.8627687434925
140045,10332,140045.0,43176.0,140045.0,55505.0,214.94966889584475,79.05603212063116,133.27164577084298
140045,10318,140045.0,43196.0,140045.0,55554.0,213.97326095429514,79.00587747228153,133.60738080742146
140045,10323,140045.0,43126.0,140045.0,55538.0,213.01151299611763,78.9152418708086,133.86450271174752
140045,10293,140045.0,43080.0,140045.0,55487.0,212.05914016623387,78.78282919199204,134.03891028969687
140056,10281,140056.0,43065.0,140056.0,55464.0,211.11119701723504,78.60759277461914,134.1276951844942
140056,10292,140056.0,43129.0,140056.0,55506.0,210.16270856391196,78.38767540182374,134.1283947957317
140056,10312,140056.0,43199.0,140056.0,55513.0,209.20847938786358,78.1203909128279,134.03862849721867
140056,10313,140056.0,43212.0,140056.0,55490.0,208.2432914202374,77.8033992828751,133.85633782229627
140056,10297,140056.0,43100.0,140056.0,55485.0,207.26224569822062,77.43594398892078,133.57998108024145
140056,10267,140056.0,43077.0,140056.0,55438.0,206.26082732717836,77.01877559800465,133.20827570235474
140066,10266,140066.0,43059.0,140066.0,55469.0,205.23457440616187,76.55284052815753,132.73966645671067
140066,10287,140066.0,43119.0,140066.0,55505.0,204.17868093070703,76.03812323892534,132.1720133649479
140066,10297,140066.0,43174.0,140066.0,55522.0,203.08796082387187,75.47363952485868,131.50292840042744
140066,10301,140066.0,43153.0,140066.0,55508.0,201.9571853926426,74.85840484998654,130.73050604466707
140066,10292,140066.0,43107.0,140066.0,55484.0,200.78145034121675,74.19231934232121,129.8537536362773
140066,10267,140066.0,43073.0,140066.0,55452.0,199.5562891847282,73.47607094112809,128.87240789246684
140076,10265,140076.0,43072.0,140076.0,55453.0,198.27747655533955,72.7102752614904,127.78634607886323
140076,10269,140076.0,43155.0,140076.0,55467.0,196.94071987001863,71.89484378190735,126.59505324933096
140076,10295,140076.0,43167.0,140076.0,55515.0,195.54156936412056,71.02933720982466,125.29758268747668
140076,10298,140076.0,43129.0,140076.0,55522.0,194.07568828899613,70.113955945013,123.89312087008348
140076,10273,140076.0,43100.0,140076.0,55470.0,192.53924461498866,69.1500303170834,122.38168949764926
140076,10260,140076.0,43058.0,140076.0,55423.0,190.92901356068805,68.13954715435617,120.7641872672298
140087,10265,140087.0,43069.0,140087.0,55453.0,189.2421344057736,67.08424083486003,119.04165198678918
140087,10276,140087.0,43164.0,140087.0,55539.0,187.47590012684844,65.98509872460234,117.21476295958095
140087,10274,140087.0,43171.0,140087.0,55511.0,185.62783089007573,64.84292651607146,115.28442547281406
140087,10275,140087.0,43120.0,140087.0,55478.0,183.6958938738223,63.65950797359768,113.25273918060309
140087,10243,140087.0,43041.0,140087.0,55428.0,181.67861046254006,62.437958637410624,111.12311992387576
140087,10226,140087.0,43027.0,140087.0,55415.0,179.57487278860418,61.18173916508863,108.89949194448246
140097,10252,140097.0,43092.0,140097.0,55431.0,177.38356883292903,59.89336840818374,106.58536392390235
140097,10258,140097.0,43116.0,140097.0,55478.0,175.10343907881614,58.57413939765694,104.18350714830363
140097,10266,140097.0,43136.0,140097.0,55486.0,172.7333549839669,57.224925179594095,101.69642591878429
140097,10244,140097.0,43101.0,140097.0,55442.0,170.27269146548662,55.847115210686646,99.12709596941234
140097,10227,140097.0,43021.0,140097.0,55407.0,167.7214190417255,54.44279588744251,96.47913905705208
140097,10211,140097.0,42998.0,140097.0,55389.0,165.07985291342325,53.013899937119035,93.7562231578821
140108,10219,140108.0,43075.0,140108.0,55443.0,162.3482836186692,51.56102077002747,90.96135800788309
140108,10240,140108.0,43167.0,140108.0,55460.0,159.52682316695837,50.08328405732128,88.09687512330412
140108,10235,140108.0,43136.0,140108.0,55473.0,156.6156163979009,48.579677209742954,85.16513267729924
140108,10224,140108.0,43088.0,140108.0,55417.0,153.6151868538105,47.05045659819337,82.1692186352393
140108,10201,140108.0,43025.0,140108.0,55383.0,150.52655086399926,45.49721795684107,79.1129397166604
140108,10184,140108.0,43023.0,140108.0,55387.0,147.350992564126,43.92179792633267,76.00012239122256
140118,10202,140118.0,43089.0,140118.0,55436.0,144.0897143322986,42.325239138045774,72.8340150400937
140118,10220,140118.0,43122.0,140118.0,55427.0,140.74373698950242,40.70782457665845,69.61743875270727
140118,10208,140118.0,43109.0,140118.0,55420.0,137.31419138467425,39.07004155079531,66.35337297640712
140118,10184,140118.0,43052.0,140118.0,55386.0,133.80264110586845,37.41335816216261,63.04524131272558
140118,10165,140118.0,43018.0,140118.0,55345.0,130.21102748593157,35.74000276308742,59.69661201636845
140118,10158,140118.0,43012.0,140118.0,55368.0,126.54129351506506,34.05201348673069,56.31054379196095
140128,10180,140128.0,43102.0,140128.0,55416.0,122.7950690817587,32.35053928899717,52.889202107047424
140128,10193,140128.0,43104.0,140128.0,55433.0,118.97373722777914,30.63617764358324,49.43428220903127
140128,10169,140128.0,43083.0,140128.0,55417.0,115.07881457948815,28.909992675464366,45.94792307032057
140128,10152,140128.0,43017.0,140128.0,55355.0,111.11219866447948,27.17402173509501,42.43321771426619
140128,10130,140128.0,42983.0,140128.0,55337.0,107.07600076399032,25.43068551991179,38.8938402257306
140128,10142,140128.0,43029.0,140128.0,55350.0,102.97217672953002,23.681708797232787,35.33320421035626
140139,10160,140139.0,43092.0,140139.0,55409.0,98.80236853516948,21.927701130654157,31.754061239192538
140139,10155,140139.0,43103.0,140139.0,55383.0,94.56813661259417,20.168909557167026,28.15893986668786
140139,10140,140139.0,43043.0,140139.0,55345.0,90.271325900016,18.406325606616747,24.5507714689914
140139,10123,140139.0,42982.0,140139.0,55328.0,85.91418711430003,16.641883846029216,20.932864996276464
140139,10090,140139.0,42975.0,140139.0,55308.0,81.49915604511432,14.87751311616384,17.308305420675964
140139,10098,140139.0,43041.0,140139.0,55345.0,77.02843650674254,13.11408059576155,13.67942943769097
140149,10131,140149.0,43069.0,140149.0,55383.0,72.5037369744455,11.351353826892563,10.047874135968186
140149,10131,140149.0,43124.0,140149.0,55338.0,67.92650891350496,9.589031265823394,6.4151762972667825
140149,10106,140149.0,43017.0,140149.0,55312.0,63.29847222748904,7.82790235150199,2.7832058720989323
140149,10078,140149.0,42970.0,140149.0,55310.0,58.6218186338819,6.069985594915124,-0.846082471116091
140149,10064,140149.0,42945.0,140149.0,55298.0,53.89890065450135,4.3173714609802545,-4.4711628980479645
140149,10082,140149.0,43017.0,140149.0,55323.0,49.13179470411643,2.570911364661029,-8.091180835996596
140159,10094,140159.0,43077.0,140159.0,55345.0,44.32220770560514,0.8300924257168134,-11.70579075922845
140159,10080,140159.0,43068.0,140159.0,55326.0,39.47177978046494,-0.9058474038171198,-15.314684477129617
140159,10062,140159.0,43009.0,140159.0,55287.0,34.5823842832466,-2.636780087206546,-18.91724908889691
140159,10042,140159.0,42962.0,140159.0,55272.0,29.65609323285952,-4.361667512223406,-22.512785669785558
140159,10042,140159.0,42991.0,140159.0,55280.0,24.694897121838608,-6.079480657385801,-26.10106812262174
140159,10050,140159.0,43051.0,140159.0,55340.0,19.700494737035342,-7.789839665162262,-29.682564268562544
140170,10052,140170.0,43067.0,140170.0,55328.0,14.674355299248418,-9.492573458968678,-33.25794884399673
140170,10042,140170.0,43044.0,140170.0,55311.0,9.617963821083436,-11.186698778781789,-36.827343493506646
140170,10018,140170.0,42996.0,140170.0,55286.0,4.532974406126243,-12.869895268013238,-40.390020378376306
140170,10010,140170.0,42943.0,140170.0,55255.0,-0.5788945065502844,-14.538960317690666,-43.94472118012243
140170,10014,140170.0,42977.0,140170.0,55263.0,-5.716089441762108,-16.190836971658044,-47.49022927554623
140170,10035,140170.0,43065.0,140170.0,55325.0,-10.877262111117659,-17.82317074973257,-51.02566490547159
140180,10030,140180.0,43067.0,140180.0,55320.0,-16.06097692790405,-19.433638614116788,-54.55007030020414
140180,10008,140180.0,43017.0,140180.0,55279.0,-21.265326684796662,-21.018730130993816,-58.06165108812158
140180,9988,140180.0,42974.0,140180.0,55247.0,-26.487834881376045,-22.573367159601673,-61.557588745697984
140180,9966,140180.0,42934.0,140180.0,55225.0,-31.725727738328544,-24.091679910544812,-65.03463056848403
140180,9975,140180.0,42999.0,140180.0,55277.0,-36.97632503670047,-25.568057190994338,-68.48976716318063
140180,9993,140180.0,43058.0,140180.0,55290.0,-42.2372038141383,-26.99737213961177,-71.92026902265255
140190,9893,140190.0,42764.0,140190.0,55112.0,-47.50616333582792,-28.37465885320441,-75.32342833508824
140190,9877,140190.0,42706.0,140190.0,55087.0,-52.78161876896877,-29.696387226298512,-78.69739235743586
140190,9947,140190.0,42954.0,140190.0,55228.0,-58.06343779327625,-30.963332096688475,-82.04290831885137
140190,9942,140190.0,42943.0,140190.0,55217.0,-63.353149648004205,-32.18149528461788,-85.363800358025
140190,9947,140190.0,42958.0,140190.0,55265.0,-68.65325544187527,-33.36016172491577,-88.66569075120245
140190,9958,140190.0,43037.0,140190.0,55298.0,-73.96648964466385,-34.50980736296364,-91.95446691635843
140201,9942,140201.0,43058.0,140201.0,55270.0,-79.295398983437,-35.64076921498504,-95.23517197785335
140201,9932,140201.0,42979.0,140201.0,55225.0,-84.64212533607684,-36.762124804287424,-98.51143609459794
140201,9914,140201.0,42959.0,140201.0,55198.0,-90.00841480558239,-37.88139586333736,-101.78575195405503
140201,9889,140201.0,42954.0,140201.0,55197.0,-95.39583874142113,-39.00529862018465,-105.06028266054051
140201,9924,140201.0,43032.0,140201.0,55258.0,-100.8060526110736,-40.1404152352129,-108.33737625413389
140201,9934,140201.0,43079.0,140201.0,55262.0,-106.24075673363399,-41.292798592915375,-111.61926669078875
140211,9914,140211.0,43041.0,140211.0,55236.0,-111.7012637101322,-42.4667510634216,-114.90729714825702
140211,9887,140211.0,42950.0,140211.0,55219.0,-117.18815414566626,-43.6640722278554,-118.2015054356246
140211,9875,140211.0,42917.0,140211.0,55173.0,-122.70140310795517,-44.88473265279498,-121.50089526326437
140211,9858,140211.0,42979.0,140211.0,55211.0,-128.24077290918302,-46.1282795147892,-124.80402100684802
140211,9883,140211.0,43012.0,140211.0,55217.0,-133.80609579840905,-47.394427944212595,-128.10929709155988
140211,9888,140211.0,43039.0,140211.0,55245.0,-139.39720979607813,-48.682382760943455,-131.41471836513887
140221,9873,140221.0,43009.0,140221.0,55206.0,-145.01359624763097,-49.98978914672922,-134.717305190314
140221,9845,140221.0,42811.0,140221.0,54982.0,-150.6541177785587,-51.31259937274517,-138.0132872069285
140221,9719,140221.0,42623.0,140221.0,54982.0,-156.3173787890454,-52.64707797808799,-141.30003163861653
140221,9827,140221.0,42972.0,140221.0,55178.0,-162.00276518451886,-53.993152206498095,-144.57850606097304
140221,9846,140221.0,43026.0,140221.0,55202.0,-167.71110497530856,-55.35536594120228,-147.8534161848932
140221,9849,140221.0,43029.0,140221.0,55213.0,-173.44405932675085,-56.74006303052141,-151.13094374508177
140232,9831,140232.0,42970.0,140232.0,55191.0,-179.20306971537394,-58.15232317088653,-154.4167050747106
140232,9803,140232.0,42931.0,140232.0,55145.0,-184.98893574251224,-59.59527898223392,-157.71517882480498
140232,9783,140232.0,42920.0,140232.0,55141.0,-190.8020215433836,-61.0709763099196,-161.03009673066862
140232,9796,140232.0,42997.0,140232.0,55182.0,-196.64265364411466,-62.58119105456883,-164.36498779357964
140232,9810,140232.0,43003.0,140232.0,55196.0,-202.51127515384024,-64.12729987940597,-167.72316340519632
140232,9796,140232.0,43005.0,140232.0,55181.0,-208.40820247895488,-65.7093969918136,-171.10714127777908
140242,9781,140242.0,42946.0,140242.0,55151.0,-214.3333144142997,-67.3256587023578,-174.51821233180442
140242,9755,140242.0,42900.0,140242.0,55122.0,-220.28603585055947,-68.97261954384012,-177.95660580046098
140242,9755,140242.0,42903.0,140242.0,55117.0,-226.26559384284457,-70.64615965856837,-181.42206835033642
140242,9752,140242.0,42975.0,140242.0,55156.0,-232.2712667854384,-72.34229895520565,-184.91432699184583
140242,9764,140242.0,42994.0,140242.0,55181.0,-238.30240208417086,-74.05696236680154,-188.43295413957804
140242,9736,140242.0,42992.0,140242.0,55162.0,-244.35824080136268,-75.78495513996464,-191.97670364015187
140252,9724,140252.0,42914.0,140252.0,55117.0,-250.43782249878717,-77.51924717514788,-195.54302001790876
140252,9716,140252.0,42870.0,140252.0,55092.0,-256.5401220840056,-79.25134774768946,-199.12827548217268
140252,9704,140252.0,42918.0,140252.0,55100.0,-262.66426084159514,-80.97241870721518,-202.72847776537213
140252,9628,140252.0,42662.0,140252.0,54948.0,-268.8097815619839,-82.6745031121819,-206.3400907031758
140252,9722,140252.0,42977.0,140252.0,55145.0,-274.977080883708,-84.3518209973252,-209.96093327037073
140252,9722,140252.0,42940.0,140252.0,55109.0,-281.1674565058822,-86.00103364021791,-213.59035983401452
140263,9681,140263.0,42860.0,140263.0,55075.0,-287.3824596320849,-87.6197864273876,-217.22831290403929
140263,9664,140263.0,42838.0,140263.0,55055.0,-293.6234248316574,-89.20575045461055,-220.87465893955414
140263,9678,140263.0,42872.0,140263.0,55087.0,-299.89165689492114,-90.75729825122187,-224.5294608800923
140263,9685,140263.0,42939.0,140263.0,55108.0,-306.1886108627511,-92.27401664447262,-228.1931371004277
140263,9688,140263.0,42943.0,140263.0,55114.0,-312.5156483038615,-93.7560186492851,-231.86599074059365
140263,9656,140263.0,42897.0,140263.0,55067.0,-318.8736814482857,-95.20289626860759,-235.54765175811752
140273,9634,140273.0,42831.0,140273.0,55038.0,-325.26312202296793,-96.61350415571067,-239.23707726388136
140273,9635,140273.0,42838.0,140273.0,55045.0,-331.68417321246284,-97.98680890502564,-242.9331202724116
140273,9627,140273.0,42895.0,140273.0,55084.0,-338.1371227220957,-99.32282249926104,-246.63498288023243
140273,9649,140273.0,42938.0,140273.0,55091.0,-344.6223576625695,-100.62253725003211,-250.34199940768764
140273,9638,140273.0,42916.0,140273.0,55085.0,-351.14010529511097,-101.88694925246872,-254.05298833133998
140273,9614,140273.0,42866.0,140273.0,55031.0,-357.69012830854484,-103.11628337453809,-257.7658631221423
140283,9597,140283.0,42840.0,140283.0,55002.0,-364.2716862774892,-104.31019888753212,-261.4779330833798
140283,9578,140283.0,42816.0,140283.0,55007.0,-370.88380783264233,-105.46869240895862,-265.18668581012554
140283,9599,140283.0,42892.0,140283.0,55057.0,-377.5255841743535,-106.59285022297937,-268.8903147170932
140283,9600,140283.0,42914.0,140283.0,55051.0,-384.1961723071449,-107.68473964670875,-272.5874776875522
140283,9600,140283.0,42918.0,140283.0,55046.0,-390.8944776701135,-108.74649607298295,-276.2766349831392
140283,9566,140283.0,42843.0,140283.0,55018.0,-397.61883594197144,-109.77955880214299,-279.9556727416707
140294,9544,140294.0,42812.0,140294.0,54985.0,-404.3670380919949,-110.78491163267881,-283.6220731770581
140294,9541,140294.0,42882.0,140294.0,55032.0,-411.1366805182028,-111.76397806004056,-287.27334822885143
140294,9560,140294.0,42924.0,140294.0,55059.0,-417.92544774124445,-112.71889812815436,-290.9071114123036
140294,9555,140294.0,42915.0,140294.0,55047.0,-424.7310059595354,-113.65171333664108,-294.52050665359246
140294,9540,140294.0,42872.0,140294.0,55024.0,-431.5506653922399,-114.56346735244395,-298.1095810713973
140294,9504,140294.0,42817.0,140294.0,54939.0,-438.3812405173027,-115.45424849195325,-301.6693465303996
140304,9493,140304.0,42828.0,140304.0,54972.0,-445.2193005467079,-116.32407882551439,-305.19459485280345
140304,9505,140304.0,42845.0,140304.0,54985.0,-452.06155525243275,-117.17378171861156,-308.6807200896728
140304,9520,140304.0,42920.0,140304.0,55024.0,-458.9049350816455,-118.00504866930046,-312.1237425742074
140304,9520,140304.0,42921.0,140304.0,55052.0,-465.7462381739641,-118.81960422953313,-315.51955919014364
140304,9494,140304.0,42883.0,140304.0,54995.0,-472.5816782979258,-119.61816309934838,-318.8630635343632
140304,9476,140304.0,42817.0,140304.0,54953.0,-479.4067385592007,-120.400177041136,-322.1478889387009
140314,9458,140314.0,42813.0,140314.0,54939.0,-486.21639171752975,-121.16463872388536,-325.3670436732345
140314,9455,140314.0,42871.0,140314.0,54985.0,-493.00543429300376,-121.91106421532581,-328.5137282073276
140314,9481,140314.0,42912.0,140314.0,55009.0,-499.76862904072084,-122.63956133892034,-331.58142407527953
140314,9471,140314.0,42929.0,140314.0,55007.0,-506.5004879934402,-123.34988677287245,-334.5632302811781
140314,9437,140314.0,42849.0,140314.0,54979.0,-513.194922900896,-124.04047339929679,-337.4511901639572
140314,9423,140314.0,42799.0,140314.0,54919.0,-519.8452226305415,-124.70848632403212,-340.2362686845654
140325,9414,140325.0,42811.0,140325.0,54957.0,-526.4443840361305,-125.35091773590386,-342.90896420370086
140325,9439,140325.0,42892.0,140325.0,54978.0,-532.985359386877,-125.96551050495151,-345.45981638135527
140325,9435,140325.0,42923.0,140325.0,55008.0,-539.4609150014679,-126.55042589736885,-347.8791588649775
140325,9437,140325.0,42910.0,140325.0,54995.0,-545.8632207165358,-127.10300558647512,-350.1563680163073
140325,9403,140325.0,42839.0,140325.0,54937.0,-552.1835326740668,-127.61893130445006,-352.2793851038322
140325,9389,140325.0,42804.0,140325.0,54934.0,-558.4122226498982,-128.09258159737487,-354.2349797883856
140335,9365,140335.0,42832.0,140335.0,54908.0,-564.5391157561968,-128.51813250850333,-356.00949625399664
140335,9391,140335.0,42878.0,140335.0,54971.0,-570.5538474352202,-128.89023467707463,-357.5893943413226
140335,9406,140335.0,42921.0,140335.0,54976.0,-576.4458737782461,-129.2036133744363,-358.96111864149697
140335,9378,140335.0,42863.0,140335.0,54962.0,-582.2040950315809,-129.4520975831347,-360.11047610075167
140335,9325,140335.0,42814.0,140335.0,54914.0,-587.8166309426913,-129.62821360315522,-361.0222733784924
140335,9342,140335.0,42782.0,140335.0,54885.0,-593.2711712639502,-129.7238877680279,-361.6807183266416
140345,9340,140345.0,42838.0,140345.0,54919.0,-598.5554768157335,-129.73155020550487,-362.0702319273564
140345,9365,140345.0,42889.0,140345.0,54966.0,-603.6574243887922,-129.64446411476388,-362.1758151608426
140345,9358,140345.0,42904.0,140345.0,54959.0,-608.5646181424996,-129.45594688903728,-361.9825787033247
140345,9339,140345.0,42875.0,140345.0,54942.0,-613.26397466261,-129.15828874852792,-361.47503294076813
140345,9319,140345.0,42783.0,140345.0,54884.0,-617.7416220690089,-128.7424578699015,-360.6369745812244
140345,9305,140345.0,42776.0,140345.0,54894.0,-621.9831520493775,-128.19898284165703,-359.4521100048274
140356,9323,140356.0,42826.0,140356.0,54930.0,-625.9739399219897,-127.51922955040253,-357.9047743516282
140356,9320,140356.0,42909.0,140356.0,54918.0,-629.6992154677179,-126.69572095050607,-355.98007499379014
140356,9322,140356.0,42859.0,140356.0,54904.0,-633.1438667905602,-125.72121060179151,-353.663656195928
