c_ts,c_val,d_ts,d_val,e_ts,e_val,c_val_filtered,d_val_filtered,e_val_filtered
138453.0,385.0,138453.0,70252.0,138453.0,87099.0,-267.9473213187176,-123.91129790128738,-179.81246423572472
138453.0,387.0,138453.0,70302.0,138453.0,87118.0,-264.40095022041106,-121.33147235897167,-175.0039332703251
138453.0,397.0,138453.0,70327.0,138453.0,87171.0,-260.6780513758983,-118.65428654386298,-170.08231858211695
138453.0,400.0,138453.0,70245.0,138453.0,87124.0,-256.7830552995174,-115.88630585586904,-165.0623919066653
138464.0,387.0,138464.0,70212.0,138464.0,87115.0,-252.7209462088321,-113.03350725631945,-159.95848312105676
138464.0,391.0,138464.0,70211.0,138464.0,87118.0,-248.49741818617326,-110.1023599820139,-154.78485537297064
138464.0,421.0,138464.0,70296.0,138464.0,87187.0,-244.11908132855632,-107.10079775449285,-149.5561315710773
138464.0,443.0,138464.0,70360.0,138464.0,87243.0,-239.59341616492603,-104.03797124518583,-144.2869643091659
138464.0,444.0,138464.0,70376.0,138464.0,87198.0,-234.92841946218454,-100.9228675624152,-138.99104184509733
138464.0,437.0,138464.0,70285.0,138464.0,87178.0,-230.13229330632285,-97.7630309443638,-133.68046176389402
138474.0,446.0,138474.0,70205.0,138474.0,87135.0,-225.21343826090038,-94.5647078893988,-128.36614780764324
138474.0,452.0,138474.0,70289.0,138474.0,87177.0,-220.1806107002759,-91.33430314873813,-123.05882176033454
138474.0,473.0,138474.0,70371.0,138474.0,87241.0,-215.0429910785152,-88.07934323558635,-117.76952423651399
138474.0,504.0,138474.0,70402.0,138474.0,87265.0,-209.81003737811233,-84.80769657815061,-112.50914166440052
138474.0,502.0,138474.0,70357.0,138474.0,87234.0,-204.49113760793068,-81.52603562840287,-107.28745920447142
138474.0,494.0,138474.0,70286.0,138474.0,87206.0,-199.09530793990092,-78.23927096253415,-102.1127875435146
138484.0,486.0,138484.0,70237.0,138484.0,87183.0,-193.631231644412,-74.95149142296574,-96.99250121062875
138484.0,511.0,138484.0,70303.0,138484.0,87230.0,-188.10755353461838,-71.6675277923711,-91.93388304904752
138484.0,525.0,138484.0,70414.0,138484.0,87273.0,-182.53304715213636,-68.39359170842478,-86.9444347533661
138484.0,538.0,138484.0,70406.0,138484.0,87308.0,-176.91648644244623,-65.13626921324442,-82.03133753225106
138484.0,545.0,138484.0,70377.0,138484.0,87269.0,-171.26640579329924,-61.90099797856594,-77.20059691928046
138484.0,535.0,138484.0,70308.0,138484.0,87228.0,-165.59097885638982,-58.69164293259955,-72.45677610742905
138495.0,551.0,138495.0,70267.0,138495.0,87228.0,-159.8980867058175,-55.51146557920566,-67.80363128976319
138495.0,567.0,138495.0,70342.0,138495.0,87283.0,-154.19543340662037,-52.36452763256595,-63.24494055116077
138495.0,584.0,138495.0,70459.0,138495.0,87318.0,-148.49049422204152,-49.25609605632948,-58.78459324768909
138495.0,588.0,138495.0,70461.0,138495.0,87320.0,-142.79030632769116,-46.1913855937685,-54.425909393035084
138495.0,589.0,138495.0,70331.0,138495.0,87307.0,-137.10130618623344,-43.17399249561609,-50.17096806165475
138495.0,584.0,138495.0,70327.0,138495.0,87270.0,-131.42935299114487,-40.20596205628918,-46.02055384599532
138505.0,586.0,138505.0,70320.0,138505.0,87270.0,-125.77992582677194,-37.28928949404914,-41.97470915714746
138505.0,613.0,138505.0,70425.0,138505.0,87309.0,-120.15833650115633,-34.42698822887432,-38.033384384751116
138505.0,629.0,138505.0,70472.0,138505.0,87355.0,-114.56973121422374,-31.622650889355498,-34.19653022266141
138505.0,642.0,138505.0,70462.0,138505.0,87358.0,-109.01883838976701,-28.879002811993388,-30.463492524061394
138505.0,633.0,138505.0,70368.0,138505.0,87303.0,-103.50970130387708,-26.19688881596224,-26.832393707957607
138505.0,631.0,138505.0,70326.0,138505.0,87260.0,-98.04564832217093,-23.5757677672035,-23.300342607457424
138515.0,639.0,138515.0,70359.0,138515.0,87302.0,-92.62949858987409,-21.01523123083018,-19.86441008156845
138515.0,648.0,138515.0,70455.0,138515.0,87348.0,-87.26378247819832,-18.515949502053246,-16.522316117596915
138515.0,676.0,138515.0,70494.0,138515.0,87375.0,-81.95078039113409,-16.07905946912649,-13.272108068243767
138515.0,682.0,138515.0,70477.0,138515.0,87352.0,-76.69234342162753,-13.704647952109667,-10.111329956112144
138515.0,670.0,138515.0,70388.0,138515.0,87326.0,-71.48966779917043,-11.39086244791315,-7.0366259669475255
138515.0,654.0,138515.0,70319.0,138515.0,87309.0,-66.34333269731047,-9.134576148390352,-4.044099984876254
138526.0,676.0,138526.0,70370.0,138526.0,87329.0,-61.25364992878701,-6.933089212111696,-1.13000427047848
138526.0,717.0,138526.0,70471.0,138526.0,87386.0,-56.220904571767164,-4.785208949519728,1.70893268791977
138526.0,711.0,138526.0,70533.0,138526.0,87368.0,-51.24514248180009,-2.690529171950601,4.475844613647411
138526.0,711.0,138526.0,70466.0,138526.0,87389.0,-46.32579407143635,-0.6476656188343952,7.174307083871923
138526.0,710.0,138526.0,70395.0,138526.0,87343.0,-41.461589693532176,1.346632001374104,9.808563296366827
138526.0,705.0,138526.0,70303.0,138526.0,87320.0,-36.65075855139884,3.296513849390209,12.383197519397015
138536.0,713.0,138536.0,70423.0,138536.0,87380.0,-31.89129058818918,5.205152629404779,14.902515127919258
138536.0,721.0,138536.0,70551.0,138536.0,87431.0,-27.181135937174417,7.074051552795368,17.370394048664792
138536.0,750.0,138536.0,70508.0,138536.0,87407.0,-22.518236760350703,8.904468403843453,19.79097174503758
138536.0,730.0,138536.0,70439.0,138536.0,87359.0,-17.900389515687777,10.699174777902499,22.169287295083365
138536.0,726.0,138536.0,70360.0,138536.0,87338.0,-13.325188659246805,12.46240327393798,24.510969776831985
138536.0,732.0,138536.0,70359.0,138536.0,87329.0,-8.790244104395356,14.19818897139072,26.821254098458922
138546.0,743.0,138546.0,70426.0,138546.0,87385.0,-4.293466092904168,15.90880296876847,29.10420846687498
138546.0,772.0,138546.0,70588.0,138546.0,87417.0,0.1668799355294368,17.594743040584035,31.362756165159084
138546.0,770.0,138546.0,70538.0,138546.0,87413.0,4.5923767422543165,19.256501923786544,33.59937210947055
138546.0,771.0,138546.0,70435.0,138546.0,87401.0,8.984694292158565,20.896374828568327,35.816731618639636
138546.0,763.0,138546.0,70371.0,138546.0,87370.0,13.34561539091078,22.51825004615816,38.01775681221841
138546.0,768.0,138546.0,70389.0,138546.0,87377.0,17.676837785797318,24.125714471313785,40.205149593680176
138557.0,800.0,138557.0,70511.0,138557.0,87417.0,21.979789450765963,25.7206494255378,42.3809312248097
138557.0,801.0,138557.0,70563.0,138557.0,87459.0,26.25569175513334,27.30373125726851,44.54654493050256
138557.0,800.0,138557.0,70511.0,138557.0,87414.0,30.50578345129935,28.876160733769154,46.7034688519156
138557.0,802.0,138557.0,70424.0,138557.0,87390.0,34.731403908353684,30.440637946388534,48.85353588226948
138557.0,797.0,138557.0,70364.0,138557.0,87378.0,38.93386674604949,32.00048987522436,50.998474644585656
138557.0,811.0,138557.0,70438.0,138557.0,87420.0,43.11427358371566,33.55787942068491,53.13921188931059
138567.0,836.0,138567.0,70531.0,138567.0,87424.0,47.27343988121385,35.11297179691459,55.275674920161435
138567.0,840.0,138567.0,70555.0,138567.0,87467.0,51.41204819040064,36.664889973155965,57.40716080446643
138567.0,837.0,138567.0,70451.0,138567.0,87494.0,55.530891178232025,38.2132226603531,59.53298904727234
138567.0,837.0,138567.0,70482.0,138567.0,87412.0,59.63093726847086,39.75835660506465,61.65307954709891
138567.0,838.0,138567.0,70384.0,138567.0,87416.0,63.71319054526526,41.30056641711337,63.76786694928646
138567.0,852.0,138567.0,70484.0,138567.0,87453.0,67.77852297723177,42.838924378200346,65.87760401851278
138577.0,876.0,138577.0,70561.0,138577.0,87484.0,71.82765499626618,44.371033997709105,67.9820496906606
138577.0,887.0,138577.0,70621.0,138577.0,87501.0,75.86136332942385,45.89417624854684,70.08095666150453
138577.0,870.0,138577.0,70501.0,138577.0,87475.0,79.8807561864391,47.407016563692196,72.17472711749514
138577.0,869.0,138577.0,70430.0,138577.0,87433.0,83.8873041247914,48.90996227845628,74.26453640597964
138577.0,865.0,138577.0,70428.0,138577.0,87425.0,87.88256989406096,50.403686891664364,76.35174856877936
138577.0,883.0,138577.0,70563.0,138577.0,87490.0,91.86790029957746,51.88759392131416,78.43718427735422
138588.0,897.0,138588.0,70589.0,138588.0,87514.0,95.84432490965708,53.360039667796286,80.52109311748336
138588.0,914.0,138588.0,70552.0,138588.0,87520.0,99.81270406403439,54.81986766221898,82.603886862199
138588.0,900.0,138588.0,70475.0,138588.0,87468.0,103.77396222959305,56.26727767138671,84.6867716163467
138588.0,896.0,138588.0,70471.0,138588.0,87444.0,107.72913954471522,57.70314897220045,86.77156444339829
138588.0,893.0,138588.0,70466.0,138588.0,87456.0,111.67916640922277,59.12773666211747,88.85987657220159
138588.0,929.0,138588.0,70571.0,138588.0,87495.0,115.62460191236002,60.54001795568432,90.95247666856702
138598.0,938.0,138598.0,70612.0,138598.0,87511.0,119.56566391464398,61.93829760492348,93.049372435453
138598.0,946.0,138598.0,70613.0,138598.0,87503.0,123.50254064825356,63.32168998771036,95.15033326966972
138598.0,916.0,138598.0,70482.0,138598.0,87472.0,127.43560741681705,64.69112201427484,97.2551841212235
138598.0,928.0,138598.0,70436.0,138598.0,87455.0,131.36526911570002,66.0486588329077,99.36351843516607
138598.0,924.0,138598.0,70522.0,138598.0,87496.0,135.29158641381315,67.39572907169051,101.47412160043373
138598.0,955.0,138598.0,70595.0,138598.0,87573.0,139.2140437871202,68.73227530576008,103.58487191255168
138609.0,973.0,138609.0,70624.0,138609.0,87554.0,143.13164356438404,70.05773431396187,105.69350966730036
138609.0,978.0,138609.0,70514.0,138609.0,87530.0,147.04324910133863,71.37246289791301,107.79855400413459
138609.0,959.0,138609.0,70484.0,138609.0,87487.0,150.94786748516418,72.67782840113225,109.89938403876394
138609.0,956.0,138609.0,70468.0,138609.0,87460.0,154.84457836624017,73.97490522781624,111.99543374027914
138609.0,976.0,138609.0,70497.0,138609.0,87515.0,158.73221620847636,75.26313322035415,114.08521697770558
138609.0,992.0,138609.0,70643.0,138609.0,87566.0,162.60920466443167,76.54011365461278,116.16603879784958
138619.0,1008.0,138619.0,70638.0,138619.0,87574.0,166.47371917953888,77.80286869147065,118.23467428276084
138619.0,999.0,138619.0,70581.0,138619.0,87556.0,170.3239694340955,79.04958689372583,120.2882946260464
138619.0,993.0,138619.0,70492.0,138619.0,87517.0,174.1583001474338,80.28008818402665,122.32475211242391
138619.0,992.0,138619.0,70479.0,138619.0,87512.0,177.9750151882286,81.49456712875505,124.34209254797901
138619.0,1012.0,138619.0,70577.0,138619.0,87547.0,181.77211932458334,82.69206152199044,126.33787197506206
138619.0,1032.0,138619.0,70645.0,138619.0,87580.0,185.54726504052974,83.87031786810064,128.3089840193598
138629.0,1048.0,138629.0,70620.0,138629.0,87604.0,189.2979935290121,85.02712462609637,130.25217199075126
138629.0,1024.0,138629.0,70556.0,138629.0,87561.0,193.02204328034242,86.16150240025067,132.16470169209322
138629.0,1016.0,138629.0,70476.0,138629.0,87515.0,196.71736207579136,87.27339929600254,134.04444221370932
138629.0,1030.0,138629.0,70508.0,138629.0,87560.0,200.38177591580188,88.36219705775201,135.8892171900427
138629.0,1052.0,138629.0,70624.0,138629.0,87602.0,204.01271564951043,89.4255963845811,137.69629072020354
138629.0,1057.0,138629.0,70680.0,138629.0,87641.0,207.60729077157953,90.46021306023201,139.46276918168797
138640.0,1072.0,138640.0,70700.0,138640.0,87603.0,211.16255464478462,91.46351057666911,141.1865183271796
138640.0,1054.0,138640.0,70516.0,138640.0,87578.0,214.67568803929169,92.43520752393997,142.86660817648533
138640.0,1046.0,138640.0,70510.0,138640.0,87530.0,218.14393716269012,93.37664202817663,144.50285269473812
138640.0,1061.0,138640.0,70546.0,138640.0,87568.0,221.56432651166375,94.28877322218665,146.0948672486482
138640.0,1081.0,138640.0,70633.0,138640.0,87613.0,224.93344412506787,95.17106402553148,147.64150798485565
138640.0,1104.0,138640.0,70687.0,138640.0,87630.0,228.2475684923229,96.0222489781213,149.14119705446262
138650.0,1095.0,138650.0,70644.0,138650.0,87616.0,231.5030238997021,96.84195909177453,150.59269457321176
138650.0,1084.0,138650.0,70531.0,138650.0,87578.0,234.6963980404904,97.6315179902669,151.99546335378187
138650.0,1089.0,138650.0,70505.0,138650.0,87571.0,237.8244236831008,98.39300676535157,153.34931479512585
138650.0,1097.0,138650.0,70612.0,138650.0,87609.0,240.88372081028422,99.1276012790745,154.65379938094657
138650.0,1123.0,138650.0,70623.0,138650.0,87651.0,243.87071503860182,99.83508617679746,155.90809057429846
138650.0,1126.0,138650.0,70683.0,138650.0,87627.0,246.78181944965502,100.5148693739252,157.11151795075807
138660.0,1130.0,138660.0,70644.0,138660.0,87616.0,249.61370995625214,101.16728076187255,158.2640696250421
138660.0,1122.0,138660.0,70535.0,138660.0,87585.0,252.36345956707493,101.79401578688498,159.36628318235068
138660.0,1126.0,138660.0,70536.0,138660.0,87593.0,255.02846487453775,102.39723617184808,160.41868701403274
138660.0,1129.0,138660.0,70626.0,138660.0,87610.0,257.6062862854359,102.97818983898898,161.4213060703612
138660.0,1150.0,138660.0,70687.0,138660.0,87655.0,260.0945700500581,103.53706203929713,162.3736367630906
138660.0,1163.0,138660.0,70679.0,138660.0,87651.0,262.4911634751122,104.0742822822292,163.2751355395527
138671.0,1146.0,138671.0,70598.0,138671.0,87602.0,264.79434244806777,104.59171664533056,164.12571318793567
138671.0,1135.0,138671.0,70453.0,138671.0,87583.0,267.00285790333885,105.09224789051609,164.92557718059876
138671.0,1142.0,138671.0,70532.0,138671.0,87609.0,269.11567784084355,105.57778785568081,165.67452324691766
138671.0,1170.0,138671.0,70643.0,138671.0,87652.0,271.1317345695223,106.04766076824549,166.37152816033583
138671.0,1172.0,138671.0,70661.0,138671.0,87659.0,273.0499989834838,106.49911199658152,167.01510718133602
138671.0,1181.0,138671.0,70704.0,138671.0,87670.0,274.8697746492045,106.9291874119115,167.6040213256105
138681.0,1168.0,138681.0,70591.0,138681.0,87625.0,276.5908980596315,107.33608316267362,168.13769702823816
138681.0,1160.0,138681.0,70575.0,138681.0,87616.0,278.21369127435514,107.71904515034356,168.61605872979393
138681.0,1175.0,138681.0,70573.0,138681.0,87623.0,279.7387418302065,108.07720277135655,169.0389666580854
138681.0,1190.0,138681.0,70693.0,138681.0,87674.0,281.16676895071816,108.40872927617454,169.40586692911933
138681.0,1186.0,138681.0,70715.0,138681.0,87692.0,282.4987298402876,108.71143170656208,169.71610526386715
138681.0,1187.0,138681.0,70689.0,138681.0,87684.0,283.73598188227675,108.98424227428941,169.96965946626332
138691.0,1189.0,138691.0,70584.0,138691.0,87631.0,284.88030643313965,109.22798821846453,170.16756011568518
138691.0,1171.0,138691.0,70539.0,138691.0,87606.0,285.9338103590741,109.44451533187873,170.31151175603867
138691.0,1182.0,138691.0,70612.0,138691.0,87674.0,286.8987416869693,109.63499081507109,170.40310715332
138691.0,1196.0,138691.0,70700.0,138691.0,87676.0,287.7773245381734,109.79918449836376,170.44358572036109
138691.0,1210.0,138691.0,70688.0,138691.0,87708.0,288.57181362274923,109.93642860762142,170.43438497732706
138691.0,1193.0,138691.0,70651.0,138691.0,87669.0,289.284719653602,110.04697708564385,170.37780098806164
138702.0,1181.0,138702.0,70552.0,138702.0,87625.0,289.91887978872336,110.13218395667334,170.27708382196155
138702.0,1182.0,138702.0,70557.0,138702.0,87612.0,290.4772273136058,110.19330847182653,170.13580404695253
138702.0,1194.0,138702.0,70650.0,138702.0,87653.0,290.9625012974848,110.23018349384083,169.9570062027343
138702.0,1223.0,138702.0,70690.0,138702.0,87689.0,291.3772179030595,110.24120012150593,169.74298291954594
138702.0,1225.0,138702.0,70717.0,138702.0,87698.0,291.723976115861,110.22462272547733,169.49585172081638
138702.0,1206.0,138702.0,70659.0,138702.0,87661.0,292.0058266316659,110.17990687759166,169.2182605340346
138712.0,1203.0,138712.0,70581.0,138712.0,87625.0,292.226337522586,110.10788086383334,168.91346496504175
138712.0,1200.0,138712.0,70561.0,138712.0,87634.0,292.3893525356123,110.00963901817883,168.58471856228448
138712.0,1219.0,138712.0,70661.0,138712.0,87687.0,292.49876570555205,109.8851910999702,168.2347024853893
138712.0,1227.0,138712.0,70759.0,138712.0,87702.0,292.55854084101486,109.73345023721492,167.86569670744433
138712.0,1211.0,138712.0,70718.0,138712.0,87692.0,292.5728948099167,109.5538103758139,167.48029433949614
138712.0,1200.0,138712.0,70627.0,138712.0,87658.0,292.54634296236065,109.34756274066444,167.0818515341367
138722.0,1197.0,138722.0,70554.0,138722.0,87636.0,292.48346691905124,109.1174837748074,166.67424587691642
138722.0,1194.0,138722.0,70594.0,138722.0,87638.0,292.3885927881559,108.8660619969576,166.2612102894468
138722.0,1207.0,138722.0,70718.0,138722.0,87705.0,292.2655921572393,108.59434289831214,165.8458939629293
138722.0,1229.0,138722.0,70721.0,138722.0,87693.0,292.1179069095067,108.30262627644487,165.4311298262566
138722.0,1222.0,138722.0,70721.0,138722.0,87688.0,291.9487997631898,107.99214981615734,165.02008465068494
138722.0,1208.0,138722.0,70630.0,138722.0,87658.0,291.76159566988287,107.66600433005217,164.61653077661927
138733.0,1203.0,138733.0,70533.0,138733.0,87602.0,291.55963873949275,107.32845493314866,164.22443984806304
138733.0,1211.0,138733.0,70615.0,138733.0,87655.0,291.3460475575353,106.98320232058677,163.84717973465158
138733.0,1227.0,138733.0,70727.0,138733.0,87688.0,291.1235865127214,106.6323385895,163.48704912993097
138733.0,1237.0,138733.0,70686.0,138733.0,87705.0,290.8948068382174,106.27717732139827,163.145679935756
138733.0,1218.0,138733.0,70675.0,138733.0,87669.0,290.6623014504435,105.91970719549954,162.8247892837603
138733.0,1210.0,138733.0,70587.0,138733.0,87647.0,290.4287658965805,105.5628801137684,162.5263947477113
138743.0,1206.0,138743.0,70569.0,138743.0,87621.0,290.19677223626314,105.20960425144462,162.25232067298816
138743.0,1230.0,138743.0,70631.0,138743.0,87706.0,289.96851885605105,104.86146392473975,162.00360470129124
138743.0,1234.0,138743.0,70742.0,138743.0,87683.0,289.7458455277673,104.51847351436969,161.78054106929204
138743.0,1246.0,138743.0,70765.0,138743.0,87725.0,289.5304974503969,104.1804320351599,161.58332422093326
138743.0,1234.0,138743.0,70668.0,138743.0,87672.0,289.32439739172986,103.84870660522455,161.4126046546773
138743.0,1212.0,138743.0,70550.0,138743.0,87646.0,289.1296951673755,103.52649191892915,161.26946927811255
138753.0,1218.0,138753.0,70565.0,138753.0,87648.0,288.9485255888667,103.21709843711434,161.15485029741924
138753.0,1227.0,138753.0,70662.0,138753.0,87673.0,288.7826994469178,102.92207840960235,161.0688968737371
138753.0,1238.0,138753.0,70722.0,138753.0,87697.0,288.6336330455829,102.64114252735133,161.01089640087145
138753.0,1233.0,138753.0,70688.0,138753.0,87717.0,288.50250408825747,102.3736162160602,160.97973933035246
138753.0,1232.0,138753.0,70633.0,138753.0,87665.0,288.39039102337875,102.11957577432322,160.9744357994021
138753.0,1211.0,138753.0,70574.0,138753.0,87642.0,288.2982318901004,101.87953108569752,160.99409721616937
138764.0,1230.0,138764.0,70611.0,138764.0,87664.0,288.2266248910329,101.6531790471579,161.03733426592777
138764.0,1249.0,138764.0,70699.0,138764.0,87712.0,288.17570946248907,101.43862812019809,161.10183228946877
138764.0,1241.0,138764.0,70723.0,138764.0,87725.0,288.14532412460375,101.23299659891019,161.1847010785349
138764.0,1253.0,138764.0,70710.0,138764.0,87703.0,288.13526909003286,101.03380586783469,161.2832085830401
138764.0,1234.0,138764.0,70616.0,138764.0,87680.0,288.1454206698618,100.8397399857042,161.39510532046907
138764.0,1218.0,138764.0,70602.0,138764.0,87668.0,288.1756246285537,100.6500471779472,161.5183068452374
138774.0,1240.0,138774.0,70633.0,138774.0,87690.0,288.2254211104838,100.46326730138426,161.6503674284773
138774.0,1263.0,138774.0,70735.0,138774.0,87735.0,288.2939047035135,100.27670799054215,161.78832987535742
138774.0,1260.0,138774.0,70802.0,138774.0,87765.0,288.3799625016577,100.08745473787081,161.9292308323381
138774.0,1245.0,138774.0,70668.0,138774.0,87689.0,288.4826028269141,99.89407918945197,162.07084681342442
138774.0,1233.0,138774.0,70609.0,138774.0,87684.0,288.60096180596946,99.69711308663554,162.21179869483865
138774.0,1236.0,138774.0,70592.0,138774.0,87683.0,288.7340100949714,99.4976342359377,162.35087713681452
138784.0,1255.0,138784.0,70692.0,138784.0,87740.0,288.8802997676846,99.2956421633937,162.4864915601839
138784.0,1265.0,138784.0,70745.0,138784.0,87751.0,289.038004367795,99.08999620867593,162.61690447678998
138784.0,1270.0,138784.0,70774.0,138784.0,87752.0,289.20519753201967,98.87983713584092,162.74095373761497
138784.0,1276.0,138784.0,70684.0,138784.0,87718.0,289.38014358427813,98.66603520860733,162.8585423048516
138784.0,1247.0,138784.0,70590.0,138784.0,87695.0,289.5614240967875,98.4512319523111,162.97049083720947
138784.0,1245.0,138784.0,70597.0,138784.0,87655.0,289.7477891689232,98.23831974905275,163.0778461847533
138795.0,1267.0,138795.0,70675.0,138795.0,87710.0,289.93784882361615,98.02882234266218,163.18107480291428
138795.0,1270.0,138795.0,70711.0,138795.0,87761.0,290.1299668099878,97.82271824785464,163.2798291244075
138795.0,1268.0,138795.0,70729.0,138795.0,87718.0,290.32242971259393,97.61955928712766,163.37352972208913
138795.0,1267.0,138795.0,70687.0,138795.0,87698.0,290.51359595713825,97.4195910916416,163.4619193809275
138795.0,1254.0,138795.0,70607.0,138795.0,87681.0,290.70186286976536,97.22389609003402,163.54482817598367
138795.0,1248.0,138795.0,70609.0,138795.0,87683.0,290.8854842231375,97.03343552934709,163.62151181227463
138805.0,1268.0,138805.0,70717.0,138805.0,87748.0,291.062349628106,96.84798617033928,163.69030391775172
138805.0,1297.0,138805.0,70753.0,138805.0,87766.0,291.22998284164726,96.66635585678011,163.74898503659148
138805.0,1277.0,138805.0,70724.0,138805.0,87761.0,291.3858622685407,96.48775856373365,163.79564981082024
138805.0,1271.0,138805.0,70664.0,138805.0,87713.0,291.5277075602119,96.3127502159565,163.8292791166378
138805.0,1261.0,138805.0,70588.0,138805.0,87679.0,291.6534025243219,96.14272355328767,163.84946068948807
138805.0,1274.0,138805.0,70647.0,138805.0,87717.0,291.760724411454,95.97849831508164,163.85556587842032
138815.0,1302.0,138815.0,70753.0,138815.0,87778.0,291.84725606079945,95.81952247493308,163.84633167369697
138815.0,1299.0,138815.0,70778.0,138815.0,87770.0,291.91063275614397,95.66473683805027,163.82039038684587
138815.0,1291.0,138815.0,70714.0,138815.0,87723.0,291.9488891169906,95.51423483644652,163.77705288579938
138815.0,1282.0,138815.0,70633.0,138815.0,87724.0,291.96055599523424,95.36983750892973,163.71636796789716
138815.0,1268.0,138815.0,70615.0,138815.0,87686.0,291.9444588706938,95.23401701688906,163.63850646098507
138815.0,1284.0,138815.0,70656.0,138815.0,87725.0,291.89942219047765,95.1083585919864,163.54311359906342
138826.0,1306.0,138826.0,70746.0,138826.0,87789.0,291.824150871326,94.99304625844495,163.42917202965143
138826.0,1310.0,138826.0,70797.0,138826.0,87772.0,291.71744685384886,94.88785797633983,163.295620334913
138826.0,1291.0,138826.0,70674.0,138826.0,87737.0,291.57854016348097,94.79369273471812,163.1421280733436
138826.0,1275.0,138826.0,70616.0,138826.0,87706.0,291.4071317946782,94.7128628842047,162.96910860236076
138826.0,1271.0,138826.0,70588.0,138826.0,87711.0,291.2030735655941,94.64764372578597,162.7770142142483
138826.0,1311.0,138826.0,70706.0,138826.0,87751.0,290.9660492247101,94.5986628404336,162.56573318275434
138836.0,1306.0,138836.0,70761.0,138836.0,87790.0,290.69564537041896,94.56488163876236,162.33470189817612
138836.0,1303.0,138836.0,70741.0,138836.0,87796.0,290.39170088894997,94.54506185490324,162.08366733375897
138836.0,1293.0,138836.0,70674.0,138836.0,87718.0,290.05449375101534,94.53900696470689,161.81335715051426
138836.0,1290.0,138836.0,70615.0,138836.0,87697.0,289.6846356523121,94.54731373397965,161.52524795632564
138836.0,1275.0,138836.0,70614.0,138836.0,87702.0,289.28284043419603,94.57000019746167,161.2205591927687
138836.0,1301.0,138836.0,70757.0,138836.0,87796.0,288.84971197503216,94.60545904279434,160.89958363146064
138846.0,1309.0,138846.0,70779.0,138846.0,87791.0,288.3857255709353,94.65100527792227,160.56214571900762
138846.0,1298.0,138846.0,70757.0,138846.0,87765.0,287.89144123690954,94.7045892001855,160.20862314045286
138846.0,1285.0,138846.0,70642.0,138846.0,87732.0,287.367649401328,94.7657785157745,159.84035581874576
138846.0,1275.0,138846.0,70620.0,138846.0,87706.0,286.8152142235516,94.8349532874013,159.4591367520979
138846.0,1289.0,138846.0,70661.0,138846.0,87710.0,286.234776407739,94.91165071156081,159.06636545690446
138846.0,1293.0,138846.0,70757.0,138846.0,87776.0,285.6266129739019,94.993818337899,158.6625560782386
138857.0,1308.0,138857.0,70778.0,138857.0,87792.0,284.9907511053139,95.07869012527635,158.2476534401248
138857.0,1297.0,138857.0,70745.0,138857.0,87763.0,284.3271984494393,95.164311985321,157.82186357670213
138857.0,1288.0,138857.0,70637.0,138857.0,87702.0,283.6360692839096,95.25014041332471,157.38601116537095
138857.0,1283.0,138857.0,70618.0,138857.0,87702.0,282.9174891702436,95.33606262763928,156.94093613679618
138857.0,1294.0,138857.0,70705.0,138857.0,87754.0,282.171401538821,95.42085212644355,156.4866357172119
138857.0,1313.0,138857.0,70791.0,138857.0,87798.0,281.39753321424894,95.50184459650914,156.02220219150578
138867.0,1312.0,138867.0,70796.0,138867.0,87816.0,280.5956160210007,95.57629764710538,155.54670411867735
138867.0,1305.0,138867.0,70733.0,138867.0,87772.0,279.76567019879695,95.6429834379808,155.06017927224252
138867.0,1286.0,138867.0,70645.0,138867.0,87717.0,278.90807036046954,95.7024033965281,154.5638286533161
138867.0,1282.0,138867.0,70609.0,138867.0,87710.0,278.02332720807306,95.75542268968192,154.059239556897
138867.0,1294.0,138867.0,70742.0,138867.0,87758.0,277.11178939235924,95.80164998246742,153.54742083815873
138867.0,1312.0,138867.0,70778.0,138867.0,87847.0,276.1735609642561,95.83928060515024,153.0287350478315
138878.0,1298.0,138878.0,70800.0,138878.0,87774.0,275.20869511914583,95.86654885082777,152.50386906393976
138878.0,1297.0,138878.0,70663.0,138878.0,87733.0,274.2173890034255,95.88304095847852,151.97459861491632
138878.0,1291.0,138878.0,70649.0,138878.0,87717.0,273.1999670892479,95.88935711110312,151.4433388550451
138878.0,1285.0,138878.0,70635.0,138878.0,87709.0,272.1567360827772,95.88552923206348,150.91207388681454
138878.0,1299.0,138878.0,70729.0,138878.0,87731.0,271.0878611114361,95.86983580887315,150.38164666508527
138878.0,1322.0,138878.0,70796.0,138878.0,87786.0,269.99340888844404,95.8391106097762,149.8517229044001
138888.0,1305.0,138888.0,70773.0,138888.0,87811.0,268.8736165355602,95.79021143283664,149.3214411044326
138888.0,1298.0,138888.0,70701.0,138888.0,87742.0,267.7291290467535,95.72120808906121,148.7902893133071
138888.0,1282.0,138888.0,70618.0,138888.0,87730.0,266.56092813346777,95.63105929071799,148.2582999991125
138888.0,1282.0,138888.0,70720.0,138888.0,87721.0,265.37003742680906,95.51819741860626,147.72539507569542
138888.0,1296.0,138888.0,70804.0,138888.0,87782.0,264.15727720910496,95.37986279524173,147.19076747389946
138888.0,1306.0,138888.0,70816.0,138888.0,87783.0,262.9232669680781,95.21320544757587,146.6530156617294
138898.0,1304.0,138898.0,70768.0,138898.0,87763.0,261.6686534857909,95.01694020892461,146.11073972361265
138898.0,1273.0,138898.0,70693.0,138898.0,87731.0,260.39428111960876,94.79181686452836,145.5627875292362
138898.0,1275.0,138898.0,70643.0,138898.0,87730.0,259.1010452169239,94.53957551042275,145.00786771473068
138898.0,1278.0,138898.0,70685.0,138898.0,87758.0,257.7895581551299,94.26133218774137,144.44403544510612
138898.0,1306.0,138898.0,70808.0,138898.0,87813.0,256.46001653372974,93.9568376629068,143.86870466403593
138898.0,1307.0,138898.0,70815.0,138898.0,87802.0,255.1124374676901,93.62542285730638,143.2793245053448
138909.0,1300.0,138909.0,70714.0,138909.0,87777.0,253.7470393401944,93.26756645192613,142.6741188986619
138909.0,1270.0,138909.0,70671.0,138909.0,87759.0,252.36438857494832,92.8851398836155,142.0522034043011
138909.0,1267.0,138909.0,70639.0,138909.0,87732.0,250.9651505217088,92.48005853727503,141.4130914746518
138909.0,1288.0,138909.0,70721.0,138909.0,87764.0,249.5497095452277,92.05284877768021,140.75608598589255
138909.0,1299.0,138909.0,70817.0,138909.0,87822.0,248.11808935037737,91.60255142153046,140.080120678502
138909.0,1303.0,138909.0,70805.0,138909.0,87809.0,246.67024233755964,91.12811138823622,139.38432675474905
138919.0,1283.0,138919.0,70725.0,138919.0,87766.0,245.20636192900486,90.62987134832665,138.66873980841135
138919.0,1267.0,138919.0,70647.0,138919.0,87717.0,243.7268920455374,90.10955244023884,137.93422024631795
138919.0,1257.0,138919.0,70665.0,138919.0,87721.0,242.23221348965504,89.56877466093273,137.18154672793491
138919.0,1302.0,138919.0,70755.0,138919.0,87781.0,240.72233101745434,89.00775609787173,136.41059327555803
138919.0,1298.0,138919.0,70805.0,138919.0,87797.0,239.1969638083727,88.42555899418855,135.62040559562868
138919.0,1301.0,138919.0,70774.0,138919.0,87804.0,237.65597861929444,87.8215042032707,134.81000055105113
138929.0,1283.0,138929.0,70687.0,138929.0,87763.0,236.09970017260244,87.1961087693156,133.97902265729257
138929.0,1266.0,138929.0,70634.0,138929.0,87721.0,234.52885390859916,86.55047812476528,133.12765860698423
138929.0,1274.0,138929.0,70690.0,138929.0,87756.0,232.94427060896228,85.88477822201037,132.25595554175484
138929.0,1277.0,138929.0,70786.0,138929.0,87808.0,231.34664023760638,85.19746726189771,131.36337886579986
138929.0,1300.0,138929.0,70815.0,138929.0,87807.0,229.7365355589081,84.48620173940782,130.4492308829937
138929.0,1283.0,138929.0,70750.0,138929.0,87811.0,228.11466098829328,83.74944748792825,129.51347898187404
138940.0,1263.0,138940.0,70728.0,138940.0,87754.0,226.48202512000017,82.98714847697705,128.55715151689665
138940.0,1255.0,138940.0,70656.0,138940.0,87724.0,224.83977989526716,82.20004056652952,127.58196139756129
138940.0,1256.0,138940.0,70724.0,138940.0,87756.0,223.18885589706542,81.38847030456446,126.58946698484934
138940.0,1283.0,138940.0,70789.0,138940.0,87797.0,221.52976407683195,80.55189251067372,125.58059794686216
138940.0,1283.0,138940.0,70827.0,138940.0,87806.0,219.86275411352824,79.68967196666539,124.55603779064262
138940.0,1269.0,138940.0,70759.0,138940.0,87783.0,218.18813915693522,78.80244854328063,123.51694901262549
138950.0,1255.0,138950.0,70641.0,138950.0,87740.0,216.5064085084318,77.89247513015992,122.4652090911767
138950.0,1242.0,138950.0,70641.0,138950.0,87720.0,214.81800680420525,76.96227873409387,121.4029022931021
138950.0,1276.0,138950.0,70716.0,138950.0,87766.0,213.12304884025076,76.01290950834421,120.33156507150494
138950.0,1268.0,138950.0,70842.0,138950.0,87822.0,211.4213140580294,75.04371434334972,119.25203900234081
138950.0,1287.0,138950.0,70850.0,138950.0,87800.0,209.7125348521451,74.0540498474027,118.16519429338105
138950.0,1264.0,138950.0,70764.0,138950.0,87752.0,207.9966913357101,73.04531574768694,117.07267184664394
138960.0,1241.0,138960.0,70656.0,138960.0,87735.0,206.27404948490653,72.02131535162009,115.97674530952816
138960.0,1235.0,138960.0,70681.0,138960.0,87718.0,204.54485766627317,70.98671433841646,114.8795074573776
138960.0,1264.0,138960.0,70743.0,138960.0,87773.0,202.80896664717898,69.94538471234607,113.78221056453116
138960.0,1285.0,138960.0,70792.0,138960.0,87835.0,201.06583853836997,68.9002689455889,112.68540222039252
138960.0,1268.0,138960.0,70769.0,138960.0,87788.0,199.314977051538,67.85447479732872,111.58983428673216
138960.0,1261.0,138960.0,70695.0,138960.0,87729.0,197.55629136886392,66.81209506065886,110.49713311092711
138971.0,1230.0,138971.0,70650.0,138971.0,87710.0,195.79003746191466,65.77776860316256,109.40933243594267
138971.0,1234.0,138971.0,70661.0,138971.0,87739.0,194.01643400052427,64.75536100802398,108.32781333678227
138971.0,1249.0,138971.0,70741.0,138971.0,87743.0,192.23529687811487,63.74703152458557,107.25275000574653
138971.0,1272.0,138971.0,70805.0,138971.0,87795.0,190.44603030970285,62.753637358552524,106.18333252595323
138971.0,1253.0,138971.0,70782.0,138971.0,87771.0,188.6479664128325,61.77618178819377,105.11839021471684
138971.0,1249.0,138971.0,70708.0,138971.0,87754.0,186.84065259090642,60.81693196032741,104.05689141311048
138981.0,1227.0,138981.0,70627.0,138981.0,87715.0,185.02380139265432,59.87906292254125,102.99787048885923
138981.0,1242.0,138981.0,70671.0,138981.0,87765.0,183.19702833172366,58.96514149814202,101.93992374572308
138981.0,1253.0,138981.0,70782.0,138981.0,87799.0,181.359699447685,58.0760830533053,100.88102911954002
138981.0,1265.0,138981.0,70816.0,138981.0,87821.0,179.5110828977782,57.21185197587604,99.8191288524777
138981.0,1253.0,138981.0,70700.0,138981.0,87780.0,177.65067507935717,56.37304575012784,98.75296927497138
138981.0,1225.0,138981.0,70654.0,138981.0,87722.0,175.7783552470648,55.56126604660885,97.6823012470906
138991.0,1227.0,138991.0,70643.0,138991.0,87733.0,173.89418043299673,54.77781741998249,96.60718833343175
138991.0,1231.0,138991.0,70712.0,138991.0,87783.0,171.9980412596196,54.022330286245,95.52721197428465
138991.0,1251.0,138991.0,70808.0,138991.0,87785.0,170.08955303312175,53.29277331952498,94.4414681402228
138991.0,1260.0,138991.0,70754.0,138991.0,87811.0,168.16828937762736,52.5867763561829,93.34922191858901
138991.0,1245.0,138991.0,70734.0,138991.0,87759.0,166.23414997634077,51.90285332818201,92.25047127976748
138991.0,1221.0,138991.0,70658.0,138991.0,87737.0,164.28751637303492,51.24034546389871,91.14592220615957
139001.0,1217.0,139001.0,70625.0,139001.0,87715.0,162.32902786604964,50.59825074831734,90.03635697055671
139001.0,1230.0,139001.0,70756.0,139001.0,87786.0,160.35922842409738,49.97402438756873,88.9219723058362
139001.0,1253.0,139001.0,70796.0,139001.0,87780.0,158.37849339575968,49.363659665365404,87.80239979437754
139001.0,1243.0,139001.0,70776.0,139001.0,87798.0,156.38732099057447,48.7631362912176,86.67734168785464
139001.0,1222.0,139001.0,70694.0,139001.0,87725.0,154.38663436555294,48.169566791048275,85.54703493721438
139001.0,1207.0,139001.0,70635.0,139001.0,87739.0,152.37772193346714,47.58075397626997,84.41201120108137
139011.0,1206.0,139011.0,70675.0,139011.0,87722.0,150.36187455014203,46.99371206228777,83.27243209843212
139011.0,1217.0,139011.0,70785.0,139011.0,87783.0,148.34007773916116,46.40378668386946,82.12769990052693
139011.0,1229.0,139011.0,70822.0,139011.0,87802.0,146.31299973660995,45.80545659850793,80.97675852091197
139011.0,1221.0,139011.0,70801.0,139011.0,87787.0,144.2812186591902,45.19412510916761,79.81885816309469
139011.0,1210.0,139011.0,70701.0,139011.0,87737.0,142.24541961659153,44.56716299422178,78.65403285286698
139011.0,1199.0,139011.0,70651.0,139011.0,87725.0,140.2063573509009,43.923260030716214,77.48277685029919
139021.0,1199.0,139021.0,70710.0,139021.0,87743.0,138.16464509129102,43.26082588113917,76.30530444901274
139021.0,1212.0,139021.0,70788.0,139021.0,87803.0,136.12059423275704,42.5771625836018,75.12124716010885
139021.0,1223.0,139021.0,70847.0,139021.0,87814.0,134.0742829062283,41.86932139967553,73.93019301935817
139021.0,1232.0,139021.0,70757.0,139021.0,87784.0,132.02585140386773,41.13571926071558,72.73257625976588
139021.0,1179.0,139021.0,70710.0,139021.0,87721.0,129.97575934580473,40.376780567944195,71.5299743021307
139021.0,1179.0,139021.0,70642.0,139021.0,87685.0,127.92463424057453,39.59396084876052,70.32438301903858
139032.0,1199.0,139032.0,70717.0,139032.0,87739.0,125.87281665808845,38.78816817015141,69.1170611533531
139032.0,1205.0,139032.0,70800.0,139032.0,87801.0,123.82017673258898,37.959150657380235,67.90809735569212
139032.0,1218.0,139032.0,70820.0,139032.0,87796.0,121.76637804839328,37.106475422038365,66.69715109210706
139032.0,1198.0,139032.0,70747.0,139032.0,87762.0,119.71123071152468,36.231022281338824,65.4844729294578
139032.0,1185.0,139032.0,70664.0,139032.0,87735.0,117.6548037474349,35.33529437108289,64.2711377008798
139032.0,1179.0,139032.0,70617.0,139032.0,87708.0,115.59723611668551,34.42209837961802,63.05845613545749
139042.0,1196.0,139042.0,70706.0,139042.0,87764.0,113.53848312134647,33.49279035147411,61.847269174903246
139042.0,1204.0,139042.0,70816.0,139042.0,87776.0,111.47830580325706,32.54683345385338,60.63782312336107
139042.0,1191.0,139042.0,70820.0,139042.0,87804.0,109.41649523958418,31.583234305269826,59.4303429788085
139042.0,1178.0,139042.0,70734.0,139042.0,87742.0,107.35301806439296,30.602368414802463,58.225690746246485
139042.0,1174.0,139042.0,70645.0,139042.0,87719.0,105.28789906226157,29.60622971801058,57.02538018064425
139042.0,1168.0,139042.0,70651.0,139042.0,87721.0,103.22098451846514,28.59694027283907,55.83090543292356
139052.0,1191.0,139052.0,70751.0,139052.0,87763.0,101.15181500583697,27.575240222586302,54.64313030671224
139052.0,1185.0,139052.0,70802.0,139052.0,87770.0,99.07972296504065,26.540587062236213,53.46236745837206
139052.0,1197.0,139052.0,70803.0,139052.0,87755.0,97.00408628422883,25.492661811881796,52.2888965708125
139052.0,1174.0,139052.0,70669.0,139052.0,87718.0,94.92453552386036,24.432555870896593,51.123209138648505
139052.0,1159.0,139052.0,70660.0,139052.0,87713.0,92.84093671616219,23.36230492317614,49.96567022379409
139052.0,1158.0,139052.0,70721.0,139052.0,87719.0,90.75312951302399,22.2834336398237,48.81594524789722
139063.0,1182.0,139063.0,70806.0,139063.0,87779.0,88.6606797235024,21.196439725653093,47.67279083367799
139063.0,1183.0,139063.0,70813.0,139063.0,87799.0,86.56295182790672,20.101903303434582,46.534549691728216
139063.0,1173.0,139063.0,70724.0,139063.0,87771.0,84.45940636585959,19.00188191000791,45.4000338855153
139063.0,1144.0,139063.0,70649.0,139063.0,87717.0,82.3497215194059,17.899945791083113,44.268940487486745
139063.0,1147.0,139063.0,70634.0,139063.0,87711.0,80.23355677193001,16.79969962629744,43.14135646568617
139063.0,1171.0,139063.0,70714.0,139063.0,87758.0,78.11025209265955,15.703217302535322,42.016974095175655
139073.0,1162.0,139073.0,70834.0,139073.0,87776.0,75.97884311742419,14.610974203970343,40.89495185411873
139073.0,1174.0,139073.0,70789.0,139073.0,87795.0,73.83832758683721,13.523436824288211,39.7745220008684
139073.0,1161.0,139073.0,70720.0,139073.0,87731.0,71.68788558296399,12.44264415212102,38.65561226882433
139073.0,1150.0,139073.0,70637.0,139073.0,87725.0,69.52693216970673,11.372078853683462,37.538797680382814
139073.0,1132.0,139073.0,70624.0,139073.0,87670.0,67.35497210558538,10.315020440254429,36.42456426970895
139073.0,1150.0,139073.0,70699.0,139073.0,87763.0,65.17133557316649,9.272944656483972,35.312510030906495
139083.0,1173.0,139083.0,70785.0,139083.0,87771.0,62.97509647577263,8.245345126920029,34.20127840321349
139083.0,1168.0,139083.0,70801.0,139083.0,87800.0,60.76535950371314,7.231108756293693,33.089363942315984
139083.0,1154.0,139083.0,70701.0,139083.0,87750.0,58.54164077024285,6.230076853480128,31.975994892281804
139083.0,1135.0,139083.0,70644.0,139083.0,87712.0,56.30393932163713,5.243171003479972,30.86126702090442
139083.0,1136.0,139083.0,70667.0,139083.0,87725.0,54.05248334477557,4.2710755948589,29.74551659813301
139083.0,1146.0,139083.0,70746.0,139083.0,87750.0,51.78746677260551,3.313122264529383,28.62867927054708
139094.0,1152.0,139094.0,70808.0,139094.0,87754.0,49.509035316886695,2.3676774967389065,27.510260154644726
139094.0,1155.0,139094.0,70784.0,139094.0,87765.0,47.21749561252358,1.4336326975353018,26.389730993887554
139094.0,1127.0,139094.0,70663.0,139094.0,87724.0,44.9135025957861,0.5114101900114605,25.266824177823423
139094.0,1122.0,139094.0,70628.0,139094.0,87704.0,42.59799237606853,-0.39771085971496234,24.141387700437633
139094.0,1124.0,139094.0,70677.0,139094.0,87728.0,40.27190712473936,-1.293311121825738,23.01288201531318
139094.0,1130.0,139094.0,70746.0,139094.0,87769.0,37.93600741440429,-2.1767427611176373,21.880115793390644
139104.0,1131.0,139104.0,70833.0,139104.0,87783.0,35.5909156625338,-3.050323382943489,20.74166379431378
139104.0,1135.0,139104.0,70764.0,139104.0,87746.0,33.23727732522872,-3.9156035045837285,19.596568213243074
139104.0,1116.0,139104.0,70687.0,139104.0,87713.0,30.875886015394883,-4.772362895120395,18.444534292861164
139104.0,1098.0,139104.0,70650.0,139104.0,87688.0,28.50762883795494,-5.619299032788419,17.285371311823297
139104.0,1112.0,139104.0,70683.0,139104.0,87743.0,26.13323977354247,-6.455573910614888,16.118241557285074
139104.0,1118.0,139104.0,70783.0,139104.0,87780.0,23.753128213264972,-7.281553700267224,14.941547017032775
139115.0,1132.0,139115.0,70805.0,139115.0,87783.0,21.36750927679907,-8.09800668530724,13.75364607138647
139115.0,1111.0,139115.0,70729.0,139115.0,87745.0,18.976692213992862,-8.904670132006359,12.553657524936796
139115.0,1105.0,139115.0,70657.0,139115.0,87721.0,16.58121320280401,-9.699865770140747,11.34156479701349
139115.0,1086.0,139115.0,70638.0,139115.0,87689.0,14.181687060279671,-10.481661730304765,10.117608154395214
139115.0,1106.0,139115.0,70728.0,139115.0,87762.0,11.778547841177499,-11.249287827021632,8.881594367988669
139115.0,1122.0,139115.0,70780.0,139115.0,87773.0,9.37198995729068,-12.003268237151914,7.6328644708458455
139125.0,1110.0,139125.0,70801.0,139125.0,87764.0,6.962219082837976,-12.744164340503787,6.370958074336045
139125.0,1098.0,139125.0,70716.0,139125.0,87748.0,4.549717373344265,-13.471255275951592,5.096182984117547
139125.0,1082.0,139125.0,70654.0,139125.0,87693.0,2.135207287816172,-14.1824938844818,3.809517412528635
139125.0,1078.0,139125.0,70625.0,139125.0,87687.0,-0.28062731494861737,-14.875825083137642,2.511923702666536
139125.0,1090.0,139125.0,70734.0,139125.0,87723.0,-2.697395697487366,-15.550599876888725,1.2035733978177632
139125.0,1101.0,139125.0,70770.0,139125.0,87758.0,-5.115013865530273,-16.207648223101828,-0.1163242571669798
139135.0,1096.0,139135.0,70754.0,139135.0,87762.0,-7.5334752808549865,-16.848059338073767,-1.4489365845627162
139135.0,1074.0,139135.0,70658.0,139135.0,87735.0,-9.952643778224456,-17.47224792741126,-2.7951080345576145
139135.0,1063.0,139135.0,70636.0,139135.0,87688.0,-12.372331772934785,-18.08046185501999,-4.155251261804921
139135.0,1071.0,139135.0,70685.0,139135.0,87721.0,-14.79258888662747,-18.67408769207141,-5.5298671428881505
139135.0,1075.0,139135.0,70772.0,139135.0,87749.0,-17.213881249164444,-19.256159439177722,-6.919983394071892
139135.0,1103.0,139135.0,70766.0,139135.0,87757.0,-19.63696922177502,-19.830449091777567,-8.32692691678713
139146.0,1092.0,139146.0,70799.0,139146.0,87765.0,-22.062542217283863,-20.400045585119443,-9.751711136469197
139146.0,1064.0,139146.0,70699.0,139146.0,87705.0,-24.490906060920736,-20.96656541254025,-11.194681840407327
139146.0,1046.0,139146.0,70623.0,139146.0,87692.0,-26.92207500035005,-21.53059384613981,-12.655789802492592
139146.0,1046.0,139146.0,70689.0,139146.0,87732.0,-29.356219786175416,-22.093132070070354,-14.135241264235333
139146.0,1079.0,139146.0,70750.0,139146.0,87759.0,-31.79399827014896,-22.65661133145241,-15.63372487773023
139146.0,1085.0,139146.0,70807.0,139146.0,87782.0,-34.2364082925431,-23.224306383587916,-17.151865000226337
139156.0,1078.0,139156.0,70734.0,139156.0,87757.0,-36.68431866643641,-23.798907041437516,-18.68943760913993
139156.0,1046.0,139156.0,70655.0,139156.0,87695.0,-39.13818011413622,-24.381955772794825,-20.24509557733606
139156.0,1035.0,139156.0,70631.0,139156.0,87685.0,-41.59820552337959,-24.974843353755404,-21.816929137316464
139156.0,1057.0,139156.0,70743.0,139156.0,87717.0,-44.06477666291494,-25.580217107132157,-23.403365762625043
139156.0,1070.0,139156.0,70814.0,139156.0,87721.0,-46.53857546708258,-26.20201472616199,-25.00355146402873
139156.0,1066.0,139156.0,70816.0,139156.0,87764.0,-49.02030226459243,-26.84388480105624,-26.61702331833817
139166.0,1046.0,139166.0,70715.0,139166.0,87718.0,-51.510363415418,-27.507659454199207,-28.243140738746433
139166.0,1032.0,139166.0,70658.0,139166.0,87683.0,-54.00888855887763,-28.19346557511895,-29.880882622946785
139166.0,1036.0,139166.0,70648.0,139166.0,87690.0,-56.51601270247369,-28.90127627096315,-31.529291698562474
139166.0,1047.0,139166.0,70737.0,139166.0,87719.0,-59.032089233173,-29.63231996815464,-33.18804195326186
139166.0,1053.0,139166.0,70804.0,139166.0,87736.0,-61.55762135597092,-30.389013523095386,-34.857433018608674
139166.0,1057.0,139166.0,70816.0,139166.0,87748.0,-64.09299492273178,-31.173512394071196,-36.5378621113984
139177.0,1032.0,139177.0,70709.0,139177.0,87715.0,-66.63825346153001,-31.986316673137054,-38.22930981363338
139177.0,1025.0,139177.0,70642.0,139177.0,87678.0,-69.19312181687147,-32.82640416318718,-39.93131121019097
139177.0,1020.0,139177.0,70661.0,139177.0,87705.0,-71.7572581634513,-33.69279941623475,-41.64344071819637
139177.0,1034.0,139177.0,70759.0,139177.0,87720.0,-74.33047131834306,-34.58587478229005,-43.365725765493025
139177.0,1042.0,139177.0,70815.0,139177.0,87768.0,-76.91268480068823,-35.50696891150798,-45.09843685543737
139177.0,1041.0,139177.0,70778.0,139177.0,87733.0,-79.50368407379801,-36.45679625063126,-46.84141389369579
139187.0,1007.0,139187.0,70690.0,139187.0,87683.0,-82.10291815395678,-37.434408138559675,-48.59366136064028
139187.0,1006.0,139187.0,70637.0,139187.0,87653.0,-84.70962070269013,-38.437804365888354,-50.353789097423316
139187.0,1001.0,139187.0,70674.0,139187.0,87685.0,-87.32315752949253,-39.465535492537626,-52.12095267823793
139187.0,1025.0,139187.0,70787.0,139187.0,87739.0,-89.94323221166783,-40.517598075641615,-53.89529368984927
139187.0,1023.0,139187.0,70803.0,139187.0,87749.0,-92.5697575981296,-41.594637296955526,-55.67740639329696
139187.0,1018.0,139187.0,70764.0,139187.0,87727.0,-95.20255713026836,-42.69632314839856,-57.467415622086435
139197.0,993.0,139197.0,70665.0,139197.0,87657.0,-97.84121978152064,-43.82067294549972,-59.264641339170666
139197.0,977.0,139197.0,70625.0,139197.0,87658.0,-100.48528671104407,-44.965038605661334,-61.06820804972119
139197.0,1007.0,139197.0,70698.0,139197.0,87698.0,-103.13459155733534,-46.12775700671668,-62.87793126102653
139197.0,1009.0,139197.0,70812.0,139197.0,87761.0,-105.78934357080553,-47.30868262608924,-64.69443272566241
139197.0,1016.0,139197.0,70801.0,139197.0,87733.0,-108.44983621599434,-48.50791242367086,-66.5183023395924
139197.0,1001.0,139197.0,70735.0,139197.0,87695.0,-111.11610908272658,-49.72410137322791,-68.3492780671705
139208.0,977.0,139208.0,70628.0,139208.0,87653.0,-113.7878788013208,-50.9542628526723,-70.18635455428904
139208.0,975.0,139208.0,70651.0,139208.0,87633.0,-116.46478146087216,-52.19523405068212,-72.0286909202666
139208.0,995.0,139208.0,70729.0,139208.0,87699.0,-119.14666952695057,-53.44517333384535,-73.8764799338048
139208.0,1000.0,139208.0,70767.0,139208.0,87755.0,-121.83361114272171,-54.70355771006727,-75.7309266080047
139208.0,991.0,139208.0,70766.0,139208.0,87729.0,-124.52561205671077,-55.96994555313147,-77.59325930858799
139208.0,975.0,139208.0,70687.0,139208.0,87667.0,-127.22242444749304,-57.24299002399398,-79.46385805776282
139218.0,964.0,139218.0,70619.0,139218.0,87667.0,-129.92364906734838,-58.52074745060142,-81.34245114974058
139218.0,965.0,139218.0,70657.0,139218.0,87680.0,-132.6290011956154,-59.80202571833922,-83.22890449271506
139218.0,980.0,139218.0,70767.0,139218.0,87700.0,-135.3384753066142,-61.08730552811376,-85.12359586978448
139218.0,991.0,139218.0,70790.0,139218.0,87720.0,-138.05223239786835,-62.37803651344467,-87.02714543938393
139218.0,970.0,139218.0,70783.0,139218.0,87715.0,-140.77030711975283,-63.674943655683364,-88.93988090074143
139218.0,962.0,139218.0,70675.0,139218.0,87671.0,-143.49245849997874,-64.97703984173006,-90.86150074165977
139228.0,952.0,139228.0,70630.0,139228.0,87639.0,-146.21831199590173,-66.28225117618398,-92.79131804392566
139228.0,947.0,139228.0,70693.0,139228.0,87669.0,-148.94761681930942,-67.58895891605273,-94.72895735991167
139228.0,951.0,139228.0,70765.0,139228.0,87713.0,-151.6804283148756,-68.89676220749134,-96.67474173564682
139228.0,974.0,139228.0,70812.0,139228.0,87723.0,-154.4171081424983,-70.20560159084779,-98.62926396128483
139228.0,969.0,139228.0,70688.0,139228.0,87668.0,-157.158081551949,-71.51431991184661,-100.59266820896079
139228.0,947.0,139228.0,70662.0,139228.0,87661.0,-159.90354197147502,-72.82042128637555,-102.56453450418132
139239.0,931.0,139239.0,70629.0,139239.0,87633.0,-162.65344895593893,-74.12131147904498,-104.5444530483885
139239.0,942.0,139239.0,70700.0,139239.0,87694.0,-165.4078174658581,-75.41562947243855,-106.53260033789365
139239.0,958.0,139239.0,70745.0,139239.0,87695.0,-168.16689980570789,-76.70342773602202,-108.52971402080587
139239.0,953.0,139239.0,70800.0,139239.0,87741.0,-170.93102749345735,-77.98513850150994,-110.53645434475627
139239.0,953.0,139239.0,70705.0,139239.0,87661.0,-173.70032149844582,-79.26025089235027,-112.55270667740245
139239.0,919.0,139239.0,70646.0,139239.0,87637.0,-176.47459058793856,-80.52700825118805,-114.57754957607918
139249.0,908.0,139249.0,70614.0,139249.0,87644.0,-179.25355741687895,-81.78355268843879,-116.60999364409727
139249.0,925.0,139249.0,70682.0,139249.0,87667.0,-182.03725653945781,-83.02940587778798,-118.64968575814024
139249.0,949.0,139249.0,70760.0,139249.0,87705.0,-184.82617734488002,-84.26580478390834,-120.6968784869731
139249.0,940.0,139249.0,70781.0,139249.0,87706.0,-187.6209596633098,-85.4945665168986,-122.75179423079763
139249.0,919.0,139249.0,70701.0,139249.0,87675.0,-190.42202248851777,-86.7166337790732,-124.81397905304948
139249.0,916.0,139249.0,70626.0,139249.0,87625.0,-193.22954066291402,-87.9318368600886,-126.88224927183896
139259.0,904.0,139259.0,70650.0,139259.0,87623.0,-196.04369261225128,-89.14008261897354,-128.95535224971556
139259.0,916.0,139259.0,70752.0,139259.0,87679.0,-198.8648775897277,-90.34245670988156,-131.0326857299001
139259.0,939.0,139259.0,70777.0,139259.0,87696.0,-201.69370409845237,-91.5408123258577,-133.1142622199631
139259.0,918.0,139259.0,70757.0,139259.0,87681.0,-204.53072317256323,-92.73631493181594,-135.19999939169844
139259.0,906.0,139259.0,70663.0,139259.0,87641.0,-207.37618982123757,-93.92860441099455,-137.2892269383594
139259.0,888.0,139259.0,70614.0,139259.0,87614.0,-210.2301602256715,-95.11647717246957,-139.38095630038583
139270.0,895.0,139270.0,70656.0,139270.0,87660.0,-213.0928113529552,-96.29943861225655,-141.47453889243778
139270.0,908.0,139270.0,70714.0,139270.0,87682.0,-215.96463490401328,-97.47863042496198,-143.56989123029427
139270.0,924.0,139270.0,70803.0,139270.0,87688.0,-218.84630321753338,-98.65624638547412,-145.66700568041134
139270.0,900.0,139270.0,70746.0,139270.0,87660.0,-221.73832853943878,-99.83397083111642,-147.7653337178238
139270.0,892.0,139270.0,70649.0,139270.0,87607.0,-224.64087788564825,-101.01198995538734,-149.86373583295193
139270.0,873.0,139270.0,70628.0,139270.0,87584.0,-227.5539296663253,-102.18966260383723,-151.96116405038273
139280.0,882.0,139280.0,70671.0,139280.0,87647.0,-230.4775858840468,-103.36705119250885,-154.05753878086796
139280.0,916.0,139280.0,70778.0,139280.0,87681.0,-233.412191825639,-104.54550153085489,-156.15389519444494
139280.0,909.0,139280.0,70770.0,139280.0,87682.0,-236.35805277834726,-105.72662597650675,-158.25159472139256
139280.0,887.0,139280.0,70708.0,139280.0,87648.0,-239.31500477511344,-106.91087780899649,-160.35146982938838
139280.0,862.0,139280.0,70627.0,139280.0,87600.0,-242.2823513639936,-108.09734992188172,-162.45374188426408
139280.0,869.0,139280.0,70585.0,139280.0,87602.0,-245.25922307276858,-109.28510542523544,-164.55870195051756
139290.0,867.0,139290.0,70726.0,139290.0,87628.0,-248.2449366324883,-110.47472273557099,-166.66745836014758
139290.0,885.0,139290.0,70781.0,139290.0,87672.0,-251.2390524515028,-111.66832286883962,-168.78203059011946
139290.0,870.0,139290.0,70784.0,139290.0,87693.0,-254.24119309695556,-112.86789880776132,-170.904676084529
139290.0,862.0,139290.0,70668.0,139290.0,87650.0,-257.2508798122072,-114.07379049600245,-173.0370186278044
139290.0,849.0,139290.0,70623.0,139290.0,87607.0,-260.2675793378353,-115.28493652416684,-175.17977959706747
139290.0,842.0,139290.0,70617.0,139290.0,87592.0,-263.2909205778312,-116.50051191830788,-177.3333791746289
139301.0,858.0,139301.0,70716.0,139301.0,87633.0,-266.32088685017555,-117.72124403307714,-179.49876192685664
139301.0,871.0,139301.0,70779.0,139301.0,87675.0,-269.3577813612862,-118.94914376461819,-181.67755629301456
139301.0,860.0,139301.0,70732.0,139301.0,87651.0,-272.4019476930137,-120.18601633037576,-183.8714526008268
139301.0,830.0,139301.0,70638.0,139301.0,87614.0,-275.45356099550924,-121.43246565203235,-186.08161916584757
139301.0,835.0,139301.0,70602.0,139301.0,87594.0,-278.51277117385683,-122.68857616563562,-188.30886877356306
139301.0,824.0,139301.0,70663.0,139301.0,87612.0,-281.5800260465693,-123.955462547356,-190.55430028072712
139311.0,846.0,139311.0,70752.0,139311.0,87647.0,-284.6562344845622,-125.23587611251828,-192.8196301020578
139311.0,855.0,139311.0,70800.0,139311.0,87664.0,-287.7426379735871,-126.53311502471242,-195.10684927597904
139311.0,850.0,139311.0,70719.0,139311.0,87654.0,-290.8404735454385,-127.84928449822992,-197.41753187523855
139311.0,826.0,139311.0,70645.0,139311.0,87620.0,-293.95071136246685,-129.18466146611314,-199.7524139633534
139311.0,813.0,139311.0,70622.0,139311.0,87594.0,-297.07413202551845,-130.5387404114254,-202.11158910582688
139311.0,820.0,139311.0,70681.0,139311.0,87613.0,-300.21164441196277,-131.91174206669587,-204.495093755141
139321.0,839.0,139321.0,70765.0,139321.0,87662.0,-303.3644655816319,-133.30499231917332,-206.90321872238886
139321.0,848.0,139321.0,70774.0,139321.0,87653.0,-306.53392999320266,-134.71982727889275,-209.33613187060934
139321.0,843.0,139321.0,70714.0,139321.0,87639.0,-309.72107774948773,-136.1561739481975,-211.7932349809152
139321.0,810.0,139321.0,70616.0,139321.0,87585.0,-312.9263962209251,-137.61230806027132,-214.27301166149496
139321.0,803.0,139321.0,70613.0,139321.0,87559.0,-316.14996191028234,-139.08612098040203,-216.77361118990117
139321.0,815.0,139321.0,70670.0,139321.0,87597.0,-319.39180647900304,-140.57666731756728,-219.2937190665787
139332.0,814.0,139332.0,70773.0,139332.0,87658.0,-322.65209409199633,-142.08442694309383,-221.8328562751136
139332.0,820.0,139332.0,70763.0,139332.0,87632.0,-325.93100484506033,-143.61000217210062,-224.39074504472183
139332.0,806.0,139332.0,70691.0,139332.0,87594.0,-329.228552950633,-145.15261813639347,-226.9665485984922
139332.0,792.0,139332.0,70615.0,139332.0,87585.0,-332.54454812105234,-146.71001091371807,-229.55888950422633
139332.0,783.0,139332.0,70617.0,139332.0,87571.0,-335.87875883749876,-148.2797641510889,-232.1664463083598
139332.0,813.0,139332.0,70722.0,139332.0,87621.0,-339.23110347025306,-149.86058455154534,-234.78838174167805
139342.0,806.0,139342.0,70750.0,139342.0,87650.0,-342.6015798656787,-151.45210980797822,-237.42414517587216
139342.0,801.0,139342.0,70734.0,139342.0,87621.0,-345.98997590204414,-153.0535546082289,-240.0727667362274
139342.0,786.0,139342.0,70658.0,139342.0,87586.0,-349.39570707275516,-154.6627772812647,-242.73237972795124
139342.0,768.0,139342.0,70599.0,139342.0,87549.0,-352.8179369321774,-156.27674659734973,-245.4005400760942
139342.0,774.0,139342.0,70638.0,139342.0,87594.0,-356.25585292823257,-157.89291297655706,-248.07498059148992
139342.0,792.0,139342.0,70690.0,139342.0,87588.0,-359.7088365871527,-159.51012830056823,-250.75399469613592
139353.0,776.0,139353.0,70799.0,139353.0,87637.0,-363.17635808335046,-161.12813897033521,-253.43615421440185
139353.0,783.0,139353.0,70730.0,139353.0,87597.0,-366.6577652076733,-162.7459922371044,-256.1197215094087
139353.0,763.0,139353.0,70617.0,139353.0,87565.0,-370.1522075757514,-164.3609768271026,-258.80234491796824
139353.0,760.0,139353.0,70599.0,139353.0,87550.0,-373.65871633624187,-165.96940117301884,-261.48139371729945
139353.0,761.0,139353.0,70662.0,139353.0,87593.0,-377.1763483389697,-167.56829866064103,-264.15455021447656
139353.0,789.0,139353.0,70733.0,139353.0,87624.0,-380.7042086116877,-169.15602413717983,-266.8198657422665
139363.0,782.0,139363.0,70756.0,139363.0,87633.0,-384.2411933271378,-170.7312196522238,-269.47510052642474
139363.0,759.0,139363.0,70703.0,139363.0,87580.0,-387.7856536405371,-172.29137788900107,-272.11700924887924
139363.0,752.0,139363.0,70581.0,139363.0,87572.0,-391.3353548241086,-173.8325150596654,-274.741284734686
139363.0,739.0,139363.0,70581.0,139363.0,87532.0,-394.8877408715435,-175.35045118189544,-277.3431578451907
139363.0,759.0,139363.0,70652.0,139363.0,87578.0,-398.4401869193396,-176.8425099312376,-279.91808302243527
139363.0,763.0,139363.0,70762.0,139363.0,87623.0,-401.98999267216743,-178.3077966068771,-282.46188025696995
139373.0,764.0,139373.0,70755.0,139373.0,87584.0,-405.5341270361295,-179.74568800246414,-284.9701798220195
139373.0,751.0,139373.0,70669.0,139373.0,87551.0,-409.0689648724154,-181.15413498498398,-287.4379166650798
139373.0,729.0,139373.0,70603.0,139373.0,87525.0,-412.59025477096293,-182.52952630845274,-289.8596173056884
139373.0,722.0,139373.0,70599.0,139373.0,87538.0,-416.09335641258656,-183.86809349410944,-292.2301616770666
139373.0,744.0,139373.0,70713.0,139373.0,87588.0,-419.5735270699082,-185.16720957643824,-294.5451923820928
139373.0,738.0,139373.0,70731.0,139373.0,87594.0,-423.02594978995165,-186.42517331858363,-296.80077285304867
139384.0,737.0,139384.0,70722.0,139384.0,87568.0,-426.44552364868565,-187.63985134689824,-298.99268918358337
139384.0,721.0,139384.0,70618.0,139384.0,87566.0,-429.8267197924896,-188.8078174811152,-301.11612025768136
139384.0,695.0,139384.0,70596.0,139384.0,87517.0,-433.1636875911358,-189.92496274438923,-303.1658807110929
139384.0,702.0,139384.0,70624.0,139384.0,87554.0,-436.4505746530014,-190.9879083318625,-305.13692927452473
139384.0,729.0,139384.0,70711.0,139384.0,87586.0,-439.68177352095694,-191.994724107418,-307.02463470839473
139384.0,733.0,139384.0,70747.0,139384.0,87606.0,-442.8517653708221,-192.9441958611181,-308.8243967711502
139394.0,717.0,139394.0,70698.0,139394.0,87583.0,-445.95470255572747,-193.8343921953374,-310.5309137901265
139394.0,698.0,139394.0,70639.0,139394.0,87530.0,-448.9842118232137,-194.66198209718442,-312.1378740979186
139394.0,692.0,139394.0,70569.0,139394.0,87517.0,-451.9335863649318,-195.42298323503672,-313.63844184797824
139394.0,697.0,139394.0,70678.0,139394.0,87558.0,-454.79609774960693,-196.1141518300371,-315.02604969379263
139394.0,707.0,139394.0,70736.0,139394.0,87594.0,-457.56511832468817,-196.73341548357712,-316.2946121572422
139394.0,722.0,139394.0,70773.0,139394.0,87582.0,-460.23396323581846,-197.27869944932473,-317.4379615727661
139404.0,702.0,139404.0,70703.0,139404.0,87555.0,-462.7955898929816,-197.74633434985864,-318.44924951175386
139404.0,689.0,139404.0,70603.0,139404.0,87517.0,-465.2424465177734,-198.13069879597776,-319.32101005068995
139404.0,671.0,139404.0,70584.0,139404.0,87510.0,-467.5666521354111,-198.42551593955915,-320.0458345106338
139404.0,693.0,139404.0,70665.0,139404.0,87549.0,-469.76032814330466,-198.62556763815132,-320.6170588823832
139404.0,705.0,139404.0,70734.0,139404.0,87603.0,-471.8157052969692,-198.72710221103267,-321.02879634369833
139404.0,700.0,139404.0,70750.0,139404.0,87570.0,-473.7248910153292,-198.7266404883111,-321.2752422301553
139415.0,689.0,139415.0,70667.0,139415.0,87511.0,-475.47959879227153,-198.61958676722043,-321.35012387733434
139415.0,659.0,139415.0,70597.0,139415.0,87518.0,-477.0711759088512,-198.40015651676322,-321.2470746562691
139415.0,670.0,139415.0,70603.0,139415.0,87496.0,-478.4909378085157,-198.06270395229078,-320.960527658513
139415.0,670.0,139415.0,70678.0,139415.0,87578.0,-479.73051192538793,-197.60304924257167,-320.48622462666043
139415.0,689.0,139415.0,70764.0,139415.0,87593.0,-480.7819058987185,-197.01840106055397,-319.8208950868532
139415.0,685.0,139415.0,70741.0,139415.0,87584.0,-481.63731460904177,-196.30593532473353,-318.96137093144137
139425.0,662.0,139425.0,70685.0,139425.0,87543.0,-482.28893342638366,-195.4614812396339,-317.90399664510204
139425.0,657.0,139425.0,70582.0,139425.0,87514.0,-482.72904303096743,-194.4796686052323,-316.6449039470009
139425.0,651.0,139425.0,70636.0,139425.0,87546.0,-482.9503357017548,-193.35540296308312,-315.1807907429897
139425.0,665.0,139425.0,70700.0,139425.0,87592.0,-482.94619797483927,-192.08511250087332,-313.5093464498026
139425.0,677.0,139425.0,70769.0,139425.0,87586.0,-482.7107475329007,-190.66644942897568,-311.62890286067943
139425.0,681.0,139425.0,70701.0,139425.0,87576.0,-482.23863870465914,-189.09693568528223,-309.5378327473236
139435.0,664.0,139435.0,70630.0,139435.0,87516.0,-481.52484723253264,-187.373269166044,-307.23448348264026
139435.0,649.0,139435.0,70585.0,139435.0,87537.0,-480.5647016133299,-185.49220933507507,-304.7177995380546
139435.0,660.0,139435.0,70621.0,139435.0,87569.0,-479.35417736317595,-183.45222877492156,-301.98801869328486
139435.0,681.0,139435.0,70746.0,139435.0,87600.0,-477.8901305600089,-181.25431988968487,-299.04671749427354
139435.0,691.0,139435.0,70779.0,139435.0,87621.0,-476.17019151846574,-178.90108457914005,-295.8962039272297
139435.0,677.0,139435.0,70725.0,139435.0,87589.0,-474.1924684540437,-176.39496086948498,-292.5388643772824
139446.0,670.0,139446.0,70626.0,139446.0,87547.0,-471.9554396498762,-173.7374826540939,-288.97707394221493
139446.0,668.0,139446.0,70598.0,139446.0,87567.0,-469.45814751578024,-170.9303860061245,-285.21379549374
139446.0,680.0,139446.0,70686.0,139446.0,87577.0,-466.70046388277376,-167.97734777236982,-281.2532744544904
139446.0,686.0,139446.0,70771.0,139446.0,87626.0,-463.6831938331171,-164.88447431966694,-277.101177550103
139446.0,700.0,139446.0,70806.0,139446.0,87659.0,-460.40799580680346,-161.6590283094602,-272.7640944478161
139446.0,701.0,139446.0,70717.0,139446.0,87604.0,-456.8772211677666,-158.3077694408032,-268.248835177961
139456.0,690.0,139456.0,70668.0,139456.0,87590.0,-453.093814837082,-154.83661898241326,-263.56226178743975
139456.0,682.0,139456.0,70661.0,139456.0,87606.0,-449.06142060068925,-151.25183608432974,-258.71185232924194
139456.0,718.0,139456.0,70750.0,139456.0,87639.0,-444.78461611665307,-147.56128299394027,-253.7062400911367
139456.0,738.0,139456.0,70792.0,139456.0,87677.0,-440.2689193037634,-143.7744291430165,-248.55509236895097
139456.0,740.0,139456.0,70844.0,139456.0,87690.0,-435.5204344214827,-139.9011323004441,-243.26847218892976
139456.0,723.0,139456.0,70751.0,139456.0,87655.0,-430.5455221709592,-135.95034394338637,-237.85624526513064
139466.0,727.0,139466.0,70698.0,139466.0,87647.0,-425.3508477718758,-131.92997503014723,-232.32805399038264
139466.0,721.0,139466.0,70695.0,139466.0,87664.0,-419.94369550369845,-127.84811413891305,-226.693801477102
139466.0,754.0,139466.0,70801.0,139466.0,87699.0,-414.3322277205481,-123.71429038298943,-220.9640119079745
139466.0,783.0,139466.0,70870.0,139466.0,87715.0,-408.5254331119596,-119.53929339788466,-215.14966212829714
139466.0,780.0,139466.0,70845.0,139466.0,87713.0,-402.5327437079538,-115.3336755634943,-209.26173103327537
139466.0,781.0,139466.0,70750.0,139466.0,87681.0,-396.36366234831996,-111.10662390425784,-203.31099256341403
139477.0,767.0,139477.0,70730.0,139477.0,87695.0,-390.0277362503618,-106.86646818116265,-197.30829682386923
139477.0,792.0,139477.0,70764.0,139477.0,87729.0,-383.5347974422477,-102.62215907139517,-191.26498887193372
139477.0,804.0,139477.0,70882.0,139477.0,87760.0,-376.89513381302714,-98.38398587436131,-185.19289412991836
139477.0,828.0,139477.0,70904.0,139477.0,87805.0,-370.11938606295394,-94.1626875344404,-179.10374660914434
139477.0,831.0,139477.0,70877.0,139477.0,87745.0,-363.2182673592196,-89.96783090067889,-173.00849871403068
139477.0,814.0,139477.0,70780.0,139477.0,87743.0,-356.2023785558078,-85.8071031957383,-166.91717805521262
139487.0,824.0,139487.0,70758.0,139487.0,87722.0,-349.0823189789495,-81.68722062016418,-160.83948114620895
139487.0,838.0,139487.0,70851.0,139487.0,87761.0,-341.8689629148552,-77.61543692851765,-154.7855167743906
139487.0,868.0,139487.0,70918.0,139487.0,87820.0,-334.573551350086,-73.59992753980329,-148.76599649463202
139487.0,872.0,139487.0,70954.0,139487.0,87815.0,-327.20748325857943,-69.64858348826255,-142.7916998987179
139487.0,897.0,139487.0,70900.0,139487.0,87808.0,-319.78199630151727,-65.76746966505118,-136.87277084060096
139487.0,884.0,139487.0,70827.0,139487.0,87791.0,-312.30793489769565,-61.96040216191484,-131.01854245560287
139497.0,884.0,139497.0,70789.0,139497.0,87798.0,-304.79572470141704,-58.230002722278826,-125.23789469508506
139497.0,907.0,139497.0,70867.0,139497.0,87847.0,-297.2555409935879,-54.579254733393,-119.53959766701894
139497.0,930.0,139497.0,70974.0,139497.0,87869.0,-289.6973994680837,-51.01197001786578,-113.93216087131186
139497.0,935.0,139497.0,70938.0,139497.0,87864.0,-282.1309768292216,-47.53165432269279,-108.42326899470964
139497.0,937.0,139497.0,70876.0,139497.0,87855.0,-274.56537134266534,-44.14021834808865,-103.01938075397159
139497.0,931.0,139497.0,70831.0,139497.0,87842.0,-267.0090762288228,-40.83812890082167,-97.72582647804796
139508.0,942.0,139508.0,70826.0,139508.0,87847.0,-259.4701656031205,-37.62575321508241,-92.54722006101615
139508.0,955.0,139508.0,70933.0,139508.0,87906.0,-251.95649638445724,-34.50444338449407,-87.48774798529116
139508.0,987.0,139508.0,70967.0,139508.0,87921.0,-244.4757194879143,-31.476288312319852,-82.55092849538705
139508.0,994.0,139508.0,71011.0,139508.0,87905.0,-237.03504135825708,-28.54271527256924,-77.73899256781735
139508.0,980.0,139508.0,70875.0,139508.0,87861.0,-229.64094808769903,-25.703270609298585,-73.05262927053721
139508.0,972.0,139508.0,70836.0,139508.0,87861.0,-222.29923186969617,-22.95590102523775,-68.49148804187291
139518.0,984.0,139518.0,70877.0,139518.0,87896.0,-215.01534588494314,-20.29853714636215,-64.05492990743497
139518.0,1026.0,139518.0,70997.0,139518.0,87924.0,-207.7946826840815,-17.730125689925288,-59.74226064964
139518.0,1039.0,139518.0,70996.0,139518.0,87958.0,-200.64241768900658,-15.249871779481424,-55.55228000224227
139518.0,1032.0,139518.0,70950.0,139518.0,87909.0,-193.56308763021818,-12.855745801533061,-51.48265889502298
139518.0,1025.0,139518.0,70888.0,139518.0,87865.0,-186.56039754149919,-10.54405190198321,-47.5298874962227
139518.0,1026.0,139518.0,70877.0,139518.0,87882.0,-179.6374261576523,-8.31038603378343,-43.69002887675927
139528.0,1032.0,139528.0,70915.0,139528.0,87922.0,-172.79697460379268,-6.150882765146463,-39.959527603324574
139528.0,1061.0,139528.0,70997.0,139528.0,87943.0,-166.04176887969604,-4.062575197750675,-36.33525377326592
139528.0,1080.0,139528.0,71017.0,139528.0,87977.0,-159.37436831327605,-2.042546345318101,-32.813887837480024
139528.0,1080.0,139528.0,70950.0,139528.0,87925.0,-152.7968547718166,-0.08672203658633748,-29.39129188271636
139528.0,1061.0,139528.0,70878.0,139528.0,87888.0,-146.3106364625368,1.8103265205006096,-26.062492814196247
139528.0,1072.0,139528.0,70830.0,139528.0,87891.0,-139.91660707732743,3.654121116810529,-22.822437444248663
139539.0,1090.0,139539.0,70960.0,139539.0,87929.0,-133.61544976669168,5.448680886817698,-19.66683764668005
139539.0,1120.0,139539.0,71037.0,139539.0,87972.0,-127.40768521413983,7.196336900023084,-16.59228612584843
139539.0,1119.0,139539.0,71019.0,139539.0,88000.0,-121.29339295686643,8.899272570555752,-13.595580201354693
139539.0,1111.0,139539.0,70966.0,139539.0,87944.0,-115.27193175493642,10.561071660836859,-10.672909408765946
139539.0,1104.0,139539.0,70867.0,139539.0,87931.0,-109.34197673068618,12.186668988066828,-7.819704370655444
139539.0,1109.0,139539.0,70878.0,139539.0,87919.0,-103.50183282276268,13.780851448855984,-5.031264438086936
139549.0,1130.0,139549.0,70983.0,139549.0,87984.0,-97.74972305915819,15.346806767946632,-2.303407373618967
139549.0,1146.0,139549.0,71048.0,139549.0,87998.0,-92.08381492448495,16.88624571260192,0.36759338763485516
139549.0,1154.0,139549.0,70994.0,139549.0,87969.0,-86.5020071376556,18.400899345092512,2.9856036537894397
139549.0,1146.0,139549.0,70925.0,139549.0,87964.0,-81.00171772175372,19.893521332692387,5.554931792932251
139549.0,1127.0,139549.0,70892.0,139549.0,87936.0,-75.57992639878285,21.367263993500472,8.080002362751117
139549.0,1139.0,139549.0,70937.0,139549.0,87973.0,-70.23350984087267,22.82427795490463,10.5648168034283
139559.0,1168.0,139559.0,71021.0,139559.0,88021.0,-64.95956833681078,24.265097645423864,13.012791981317037
139559.0,1195.0,139559.0,71087.0,139559.0,88039.0,-59.75536148811284,25.689514785546663,15.427280013233968
139559.0,1175.0,139559.0,70983.0,139559.0,87998.0,-54.61791778634995,27.098140484538845,17.812340228462887
139559.0,1172.0,139559.0,70923.0,139559.0,87950.0,-49.54381194868347,28.492935777055607,20.172876766214557
139559.0,1165.0,139559.0,70906.0,139559.0,87944.0,-44.52936307262013,29.876054892665323,22.513868476263355
139559.0,1180.0,139559.0,70965.0,139559.0,87993.0,-39.570996705646166,31.24831257334749,24.839427605384373
139570.0,1196.0,139570.0,71126.0,139570.0,88031.0,-34.665430959182174,32.60900768533412,27.152616004810284
139570.0,1209.0,139570.0,71095.0,139570.0,88047.0,-29.80958964010307,33.957544269615,29.456121938264886
139570.0,1207.0,139570.0,70999.0,139570.0,88023.0,-25.000386188696325,35.29530796614323,31.753074919621696
139570.0,1202.0,139570.0,70947.0,139570.0,87982.0,-20.23461732142289,36.625753861528906,34.047257805570325
139570.0,1191.0,139570.0,70919.0,139570.0,87963.0,-15.509095995421546,37.95276237799787,36.342539977524666
139570.0,1222.0,139570.0,70987.0,139570.0,88018.0,-10.820910467204612,39.279003503935115,38.64206373457546
139580.0,1245.0,139580.0,71052.0,139580.0,88061.0,-6.167485750279582,40.605588248263615,40.94805397883212
139580.0,1259.0,139580.0,71074.0,139580.0,88046.0,-1.5462715010572765,41.933057830995466,43.26245548950712
139580.0,1241.0,139580.0,71023.0,139580.0,88012.0,3.0456643092053355,43.26266632789371,45.587559891704956
139580.0,1220.0,139580.0,70920.0,139580.0,87984.0,7.611688610581041,44.59661501620107,47.92583907418205
139580.0,1226.0,139580.0,70944.0,139580.0,88004.0,12.155210154351437,45.936882206130036,50.27919949878867
139580.0,1253.0,139580.0,71013.0,139580.0,88061.0,16.679234657819848,47.28386272856886,52.64850121848443
139590.0,1258.0,139590.0,71132.0,139590.0,88072.0,21.186284955505585,48.63644611835575,55.03387580920159
139590.0,1276.0,139590.0,71089.0,139590.0,88075.0,25.67863749355132,49.99364073690664,57.43550522488695
139590.0,1246.0,139590.0,70998.0,139590.0,88043.0,30.158524982886945,51.356017624703895,59.854102671299245
139590.0,1250.0,139590.0,70937.0,139590.0,88016.0,34.62804205447355,52.72535513116941,62.29072514837776
139590.0,1271.0,139590.0,70964.0,139590.0,88039.0,39.088838843132464,54.10291131087949,64.74614429687978
139590.0,1282.0,139590.0,71065.0,139590.0,88089.0,43.54198289505723,55.488206101487975,67.22043727726097
139601.0,1307.0,139601.0,71142.0,139601.0,88080.0,47.988153269517284,56.87956795891786,69.71325299694038
139601.0,1313.0,139601.0,71069.0,139601.0,88099.0,52.42799478399428,58.275854036175105,72.22439953191463
139601.0,1286.0,139601.0,70999.0,139601.0,88037.0,56.86237536644563,59.677447722156316,74.7540970661054
139601.0,1280.0,139601.0,70963.0,139601.0,88031.0,61.29228138624177,61.08548326072392,77.30260493796908
139601.0,1300.0,139601.0,71005.0,139601.0,88059.0,65.7184096264977,62.50027692266353,79.86949397081654
139601.0,1327.0,139601.0,71091.0,139601.0,88084.0,70.14093346816776,63.920612014701646,82.45326834015626
139611.0,1337.0,139611.0,71169.0,139611.0,88109.0,74.5597103976894,65.34459209471652,85.05166483873035
139611.0,1320.0,139611.0,71049.0,139611.0,88147.0,78.97463537024038,66.7712630567795,87.66233007615779
139611.0,1309.0,139611.0,70997.0,139611.0,88055.0,83.3856907670829,68.201186836082,90.28338391642276
139611.0,1313.0,139611.0,70956.0,139611.0,88041.0,87.79262414539164,69.63520786732525,92.9132398497405
139611.0,1336.0,139611.0,71079.0,139611.0,88100.0,92.19460591243683,71.07284710482173,95.549730932463
139611.0,1346.0,139611.0,71133.0,139611.0,88151.0,96.59019073207406,72.51216719715174,98.1897312991463
139622.0,1363.0,139622.0,71153.0,139622.0,88152.0,100.97755233718243,73.95122823331155,100.82986626912415
139622.0,1365.0,139622.0,71050.0,139622.0,88097.0,105.35477120908394,75.38953132718933,103.46735595049603
139622.0,1344.0,139622.0,70960.0,139622.0,88069.0,109.71997280978718,76.82785337841034,106.09993606496587
139622.0,1360.0,139622.0,70971.0,139622.0,88083.0,114.07120310127527,78.26648314784626,108.72498155546558
139622.0,1365.0,139622.0,71088.0,139622.0,88140.0,118.4061952176827,79.70358284669555,111.33883075084287
139622.0,1418.0,139622.0,71179.0,139622.0,88136.0,122.72237745976798,81.135437902783,113.93694967481807
139632.0,1396.0,139632.0,71157.0,139632.0,88167.0,127.01723803770756,82.55839866096929,116.51459056281058
139632.0,1381.0,139632.0,71039.0,139632.0,88121.0,131.28866618503196,83.97046004803457,119.06727083062259
139632.0,1384.0,139632.0,71015.0,139632.0,88106.0,135.5348427197705,85.37088664109388,121.59071039914059
139632.0,1389.0,139632.0,71040.0,139632.0,88148.0,139.7538561867717,86.75856519907202,124.08036108642952
139632.0,1410.0,139632.0,71120.0,139632.0,88166.0,143.94349188639427,88.13100115518256,126.53117377597371
139632.0,1430.0,139632.0,71184.0,139632.0,88206.0,148.1013334920503,89.48489002716283,128.9380042062861
139642.0,1427.0,139642.0,71145.0,139642.0,88191.0,152.22505792980934,90.817606113695,131.29631958115624
139642.0,1419.0,139642.0,71025.0,139642.0,88146.0,156.3126564663192,92.12804423766445,133.60258892756167
139642.0,1412.0,139642.0,71016.0,139642.0,88152.0,160.36236351835134,93.41576228302597,135.85399712283294
139642.0,1422.0,139642.0,71082.0,139642.0,88156.0,164.37238027101944,94.6793251229318,138.04780448045213
139642.0,1440.0,139642.0,71168.0,139642.0,88216.0,168.34067851009246,95.91578059432652,140.18107041124065
139642.0,1455.0,139642.0,71237.0,139642.0,88223.0,172.26506888841845,97.12190908810618,142.25105290442974
139653.0,1444.0,139653.0,71128.0,139653.0,88205.0,176.14343048375082,98.2960508224453,144.25589739120758
139653.0,1437.0,139653.0,71037.0,139653.0,88157.0,179.97380220864403,99.43863692501711,146.19487034602926
139653.0,1433.0,139653.0,71010.0,139653.0,88149.0,183.75419043454855,100.55073833462916,148.06781389085546
139653.0,1457.0,139653.0,71111.0,139653.0,88164.0,187.48229122120807,101.63213614380268,149.87429902942915
139653.0,1469.0,139653.0,71158.0,139653.0,88215.0,191.15543280116867,102.68088244284229,151.61323237277873
139653.0,1485.0,139653.0,71225.0,139653.0,88238.0,194.77080315497915,103.69457428744377,153.28324219342105
139663.0,1470.0,139663.0,71107.0,139663.0,88190.0,198.3257361066842,104.6719262642138,154.88340064713924
139663.0,1467.0,139663.0,71036.0,139663.0,88153.0,201.8177808039033,105.61300655484376,156.4133937902209
139663.0,1460.0,139663.0,71044.0,139663.0,88163.0,205.244493958129,106.51782083957224,157.87286217310674
139663.0,1481.0,139663.0,71123.0,139663.0,88236.0,208.60316134720324,107.3847942176657,159.26075389250536
139663.0,1503.0,139663.0,71217.0,139663.0,88250.0,211.89073603097359,108.21082477294408,160.57558662577546
139663.0,1521.0,139663.0,71201.0,139663.0,88246.0,215.10411074528656,108.99283395754327,161.81636571493289
139673.0,1498.0,139673.0,71080.0,139673.0,88212.0,218.2405080338014,109.72913217266361,162.98318695733062
139673.0,1494.0,139673.0,71062.0,139673.0,88179.0,221.29759561494126,110.41907375190885,164.0770323655124
139673.0,1503.0,139673.0,71098.0,139673.0,88171.0,224.2732562438933,111.06152149984669,165.0989976952024
139673.0,1523.0,139673.0,71165.0,139673.0,88246.0,227.16537844064692,111.65399073392052,166.0496256154166
139673.0,1536.0,139673.0,71220.0,139673.0,88267.0,229.9719534996143,112.19329855186942,166.92905481692785
139673.0,1525.0,139673.0,71199.0,139673.0,88258.0,232.691347308344,112.67698581454908,167.73788587875674
139684.0,1512.0,139684.0,71115.0,139684.0,88211.0,235.3224070552219,113.10421270690551,168.477796544219
139684.0,1509.0,139684.0,71042.0,139684.0,88164.0,237.86424907729958,113.47521120563354,169.15121831922795
139684.0,1521.0,139684.0,71155.0,139684.0,88207.0,240.3159282370189,113.78980041526299,169.76038397094675
139684.0,1540.0,139684.0,71199.0,139684.0,88278.0,242.6763025372008,114.04673957798354,170.3067941426201
139684.0,1557.0,139684.0,71268.0,139684.0,88287.0,244.9442124069414,114.24479503733119,170.79180322294476
139684.0,1544.0,139684.0,71186.0,139684.0,88240.0,247.118812797589,114.3843959999912,171.21766063816602
139694.0,1526.0,139694.0,71072.0,139694.0,88206.0,249.19971814014957,114.4681265824413,171.58778316615863
139694.0,1530.0,139694.0,71056.0,139694.0,88190.0,251.18678817569048,114.49938832250274,171.9060457073339
139694.0,1544.0,139694.0,71128.0,139694.0,88222.0,253.0798076389175,114.48047564808573,172.17589584773535
139694.0,1564.0,139694.0,71241.0,139694.0,88256.0,254.8784281199628,114.41207376208672,172.40007325359517
139694.0,1576.0,139694.0,71278.0,139694.0,88253.0,256.58243484838545,114.29473337216211,172.5810268809009
139694.0,1575.0,139694.0,71151.0,139694.0,88238.0,258.1921238950736,114.1308084898493,172.7214592214357
139704.0,1551.0,139704.0,71089.0,139704.0,88208.0,259.7085024282951,113.92478700193985,172.82440859964544
139704.0,1546.0,139704.0,71047.0,139704.0,88213.0,261.13313392642124,113.6816658554549,172.8928411008415
139704.0,1567.0,139704.0,71155.0,139704.0,88268.0,262.467792238432,113.4051010046316,172.92927415461477
139704.0,1579.0,139704.0,71264.0,139704.0,88282.0,263.714329189058,113.0972120081592,172.93600236875739
139704.0,1580.0,139704.0,71228.0,139704.0,88254.0,264.87487304926975,112.76021722465103,172.9157676805467
139704.0,1565.0,139704.0,71120.0,139704.0,88236.0,265.9520481835356,112.39801746710356,172.87208854342958
139715.0,1541.0,139715.0,71082.0,139715.0,88210.0,266.9488960574358,112.01589049695771,172.8089141450981
139715.0,1562.0,139715.0,71072.0,139715.0,88228.0,267.86851573643696,111.61876371204521,172.73000221857453
139715.0,1573.0,139715.0,71184.0,139715.0,88244.0,268.7137900746227,111.2099347879497,172.63854851570738
139715.0,1588.0,139715.0,71251.0,139715.0,88282.0,269.4874828407744,110.7914503084956,172.53733495686964
139715.0,1593.0,139715.0,71190.0,139715.0,88245.0,270.192575147298,110.36571122457615,172.4292202894523
139715.0,1568.0,139715.0,71122.0,139715.0,88214.0,270.8325213430529,109.93652621377618,172.31737616512058
139725.0,1555.0,139725.0,71071.0,139725.0,88192.0,271.4111794024214,109.50847147775389,172.20485368096044
139725.0,1559.0,139725.0,71097.0,139725.0,88224.0,271.93243796170805,109.08533194333394,172.0938425322245
139725.0,1571.0,139725.0,71191.0,139725.0,88277.0,272.3998818909326,108.66919413823429,171.98541598228908
139725.0,1591.0,139725.0,71233.0,139725.0,88269.0,272.8167836474398,108.26104261324375,171.88006311512893
139725.0,1578.0,139725.0,71170.0,139725.0,88274.0,273.1863535142323,107.86220617756925,171.7784639515966
139725.0,1572.0,139725.0,71114.0,139725.0,88231.0,273.5119349400332,107.47504302464498,171.68181124749938
139735.0,1564.0,139735.0,71074.0,139735.0,88174.0,273.7969344098435,107.1021563984031,171.59142193668032
139735.0,1575.0,139735.0,71123.0,139735.0,88284.0,274.0446091857806,106.7450493796165,171.5079720980917
139735.0,1607.0,139735.0,71230.0,139735.0,88277.0,274.2580183915214,106.40365555924863,171.4313146525795
139735.0,1589.0,139735.0,71258.0,139735.0,88292.0,274.44027292477716,106.0774032617206,171.36121165855616
139735.0,1581.0,139735.0,71146.0,139735.0,88250.0,274.59480684831124,105.76681359384668,171.29803208257908
139735.0,1554.0,139735.0,71096.0,139735.0,88220.0,274.7252937465103,105.47378062396676,171.2426703194807
139746.0,1561.0,139746.0,71088.0,139746.0,88219.0,274.8352382941576,105.20021594854902,171.19586960847656
139746.0,1584.0,139746.0,71163.0,139746.0,88255.0,274.92762540592196,104.94666038031178,171.15758374711146
139746.0,1622.0,139746.0,71218.0,139746.0,88329.0,275.0050093395922,104.71225502653076,171.12704895906947
139746.0,1601.0,139746.0,71227.0,139746.0,88304.0,275.07003658475367,104.49593008166484,171.10367114956676
139746.0,1576.0,139746.0,71193.0,139746.0,88256.0,275.1258641415365,104.29764771349787,171.08788467438092
139746.0,1564.0,139746.0,71093.0,139746.0,88229.0,275.1760096697826,104.11861030546319,171.08104767764047
139756.0,1561.0,139756.0,71094.0,139756.0,88224.0,275.223829708909,103.96020335082926,171.08454802501052
139756.0,1580.0,139756.0,71197.0,139756.0,88267.0,275.2721216711675,103.82271923201166,171.09905273017094
139756.0,1599.0,139756.0,71238.0,139756.0,88311.0,275.3231105646107,103.70538570959,171.12453830891153
139756.0,1596.0,139756.0,71211.0,139756.0,88292.0,275.3787576214129,103.60767685049535,171.161004901374
139756.0,1588.0,139756.0,71123.0,139756.0,88269.0,275.4410770812894,103.53022672578305,171.20911728699014
139756.0,1563.0,139756.0,71092.0,139756.0,88223.0,275.5121554829693,103.47424296208817,171.27010698362292
139766.0,1567.0,139766.0,71139.0,139766.0,88235.0,275.59385316192777,103.44012236094596,171.34504873906857
139766.0,1590.0,139766.0,71224.0,139766.0,88295.0,275.68748740049637,103.42683491614086,171.43426420425098
139766.0,1612.0,139766.0,71270.0,139766.0,88320.0,275.79387156110073,103.43282094876545,171.53755296521152
139766.0,1604.0,139766.0,71191.0,139766.0,88285.0,275.9137162311826,103.45752713982202,171.65502426477303
139766.0,1578.0,139766.0,71115.0,139766.0,88252.0,276.04795118036714,103.50192811985328,171.78752767468472
139766.0,1570.0,139766.0,71084.0,139766.0,88235.0,276.197603835769,103.56740627801534,171.93621725583526
139777.0,1584.0,139777.0,71168.0,139777.0,88274.0,276.36340423906086,103.65417364328513,172.101825942048
139777.0,1611.0,139777.0,71248.0,139777.0,88316.0,276.54560619531463,103.76093370602575,172.28448793534182
139777.0,1609.0,139777.0,71257.0,139777.0,88311.0,276.74423101126786,103.88613327936551,172.48430336765077
139777.0,1596.0,139777.0,71217.0,139777.0,88249.0,276.95942620859927,104.02951329965992,172.7019288245823
139777.0,1575.0,139777.0,71098.0,139777.0,88243.0,277.1915162523588,104.19244081377998,172.93838626166564
139777.0,1580.0,139777.0,71071.0,139777.0,88238.0,277.44069874440135,104.37660932094364,173.1942602854739
139787.0,1593.0,139787.0,71147.0,139787.0,88282.0,277.7067220115912,104.58219215117646,173.46912564120728
139787.0,1616.0,139787.0,71274.0,139787.0,88296.0,277.988875975533,104.80731066247253,173.76166022980655
139787.0,1617.0,139787.0,71268.0,139787.0,88314.0,278.28631047863354,105.04948103449819,174.07023927352415
139787.0,1589.0,139787.0,71155.0,139787.0,88287.0,278.5983552686606,105.30740656806516,174.39350473693457
139787.0,1592.0,139787.0,71121.0,139787.0,88254.0,278.92449763514253,105.581069577565,174.7304628089322
139787.0,1575.0,139787.0,71121.0,139787.0,88251.0,279.264060217973,105.87025850535665,175.0800184215443
139797.0,1609.0,139797.0,71214.0,139797.0,88305.0,279.6159169690236,106.17338197104341,175.4404386055774
139797.0,1616.0,139797.0,71259.0,139797.0,88322.0,279.97851644633926,106.48777388541671,175.80942671519404
139797.0,1628.0,139797.0,71234.0,139797.0,88311.0,280.3502165249062,106.81103231864164,176.18476305542157
139797.0,1600.0,139797.0,71170.0,139797.0,88288.0,280.7296229663872,107.14195131100072,176.56476725351183
139797.0,1586.0,139797.0,71087.0,139797.0,88273.0,281.1155777479047,107.48004800296152,176.94815543790673
139797.0,1582.0,139797.0,71164.0,139797.0,88274.0,281.5067810060366,107.824122251447,177.333547267666
139808.0,1618.0,139808.0,71258.0,139808.0,88307.0,281.9014311437031,108.171457615414,177.71911057521515
139808.0,1639.0,139808.0,71270.0,139808.0,88321.0,282.2973121733987,108.51870394632056,178.10266139405627
139808.0,1615.0,139808.0,71236.0,139808.0,88335.0,282.6922635955843,108.86346623211892,178.48214455228165
139808.0,1611.0,139808.0,71138.0,139808.0,88278.0,283.0844885006035,109.20485736886353,178.85603146709502
139808.0,1598.0,139808.0,71117.0,139808.0,88264.0,283.4724186647138,109.54250090850266,179.22314141694852
139808.0,1606.0,139808.0,71178.0,139808.0,88301.0,283.85439775869037,109.87500782102205,179.5820138369196
139818.0,1628.0,139818.0,71241.0,139818.0,88338.0,284.22852473113375,110.1994450859525,179.9306411673714
139818.0,1634.0,139818.0,71303.0,139818.0,88358.0,284.59280110591686,110.51230816331714,180.26699133269938
139818.0,1626.0,139818.0,71198.0,139818.0,88324.0,284.9454426177437,110.81099164317575,180.58978362518542
139818.0,1610.0,139818.0,71158.0,139818.0,88260.0,285.28502335845496,111.09421003015092,180.89866404499605
139818.0,1601.0,139818.0,71098.0,139818.0,88265.0,285.6102986883669,111.36087293342709,181.19348467381553
139818.0,1618.0,139818.0,71218.0,139818.0,88300.0,285.91989516637045,111.6085985883694,181.47336706987193
139828.0,1646.0,139828.0,71291.0,139828.0,88343.0,286.21222573986995,111.83353532461297,181.73651096352057
139828.0,1640.0,139828.0,71340.0,139828.0,88359.0,286.48578201840405,112.03190996689025,181.980875778153
139828.0,1627.0,139828.0,71224.0,139828.0,88320.0,286.7394960749448,112.2018947712414,182.20501256164465
139828.0,1602.0,139828.0,71134.0,139828.0,88289.0,286.97275088780054,112.3438846360616,182.4082652317668
139828.0,1606.0,139828.0,71157.0,139828.0,88293.0,287.1850151732938,112.45892156124904,182.59023796974552
139828.0,1621.0,139828.0,71239.0,139828.0,88330.0,287.3754648782053,112.54708567756484,182.7502107807982
139839.0,1643.0,139839.0,71289.0,139839.0,88332.0,287.54294955097305,112.60754870187873,182.88713059098654
139839.0,1636.0,139839.0,71282.0,139839.0,88359.0,287.68630159533916,112.63993769042777,183.00007064838036
139839.0,1624.0,139839.0,71185.0,139839.0,88274.0,287.8046342907686,112.64537394249497,183.08857947541082
139839.0,1609.0,139839.0,71128.0,139839.0,88272.0,287.8973210098493,112.6260335390877,183.15237906840866
139839.0,1614.0,139839.0,71167.0,139839.0,88302.0,287.9637103018397,112.5836079195746,183.19057223616096
139839.0,1631.0,139839.0,71263.0,139839.0,88360.0,288.0028925650921,112.51829960320191,183.20131833466021
139849.0,1632.0,139849.0,71301.0,139849.0,88398.0,288.013740940676,112.42947010127995,183.18252990326815
139849.0,1641.0,139849.0,71247.0,139849.0,88360.0,287.9951414605429,112.31718313755376,183.13302159011934
139849.0,1619.0,139849.0,71119.0,139849.0,88301.0,287.9461696386519,112.18280565016855,183.05305099488578
139849.0,1612.0,139849.0,71143.0,139849.0,88287.0,287.86603949984226,112.02784696351173,182.9437536276302
139849.0,1620.0,139849.0,71183.0,139849.0,88311.0,287.7538615039056,111.85230091847987,182.80610945101841
139849.0,1646.0,139849.0,71311.0,139849.0,88318.0,287.60850687863405,111.65435679440256,182.64040629200986
139860.0,1650.0,139860.0,71326.0,139860.0,88378.0,287.42881516614136,111.4318696012922,182.44645711058118
139860.0,1623.0,139860.0,71285.0,139860.0,88326.0,287.2139325267883,111.18430877363083,182.22421291657145
139860.0,1617.0,139860.0,71141.0,139860.0,88317.0,286.9633518076922,110.91341861009295,181.9741399357529
139860.0,1615.0,139860.0,71137.0,139860.0,88277.0,286.67661392871275,110.62191252529743,181.69691782889316
139860.0,1629.0,139860.0,71229.0,139860.0,88332.0,286.35303487371914,110.31156303042893,181.3928029835235
139860.0,1651.0,139860.0,71299.0,139860.0,88374.0,285.99173555370464,109.98277787098255,181.0614805135268
139870.0,1656.0,139870.0,71317.0,139870.0,88364.0,285.59197253963794,109.6359840401717,180.70269637369307
139870.0,1632.0,139870.0,71212.0,139870.0,88334.0,285.1535086303352,109.27313591082891,180.31697748291694
139870.0,1610.0,139870.0,71153.0,139870.0,88287.0,284.67664484080126,108.89770622436974,179.90561215720643
139870.0,1614.0,139870.0,71132.0,139870.0,88286.0,284.1618490595701,108.51316796798272,179.46989690702523
139870.0,1633.0,139870.0,71221.0,139870.0,88313.0,283.6093820644304,108.12146459281789,179.01033965215782
139870.0,1649.0,139870.0,71275.0,139870.0,88376.0,283.0193134857254,107.72288507761888,178.5265438102535
139880.0,1642.0,139880.0,71286.0,139880.0,88378.0,282.39186497355814,107.31730532637111,178.01793918828653
139880.0,1626.0,139880.0,71187.0,139880.0,88313.0,281.7276879624664,106.90540153857785,177.48464126281357
139880.0,1612.0,139880.0,71138.0,139880.0,88283.0,281.02780079804916,106.48849179780933,176.9274472387558
139880.0,1621.0,139880.0,71148.0,139880.0,88299.0,280.2932884141253,106.06714751794567,176.3469749540617
139880.0,1624.0,139880.0,71290.0,139880.0,88350.0,279.5250822535118,105.64017952359984,175.74300503846086
139880.0,1635.0,139880.0,71320.0,139880.0,88375.0,278.7239863442774,105.20536476216573,175.11476092111522
139891.0,1627.0,139891.0,71271.0,139891.0,88386.0,277.89084831548325,104.76128834989998,174.46181908654768
139891.0,1615.0,139891.0,71216.0,139891.0,88302.0,277.02666485818304,104.30836228603417,173.78477534898067
139891.0,1594.0,139891.0,71127.0,139891.0,88281.0,276.1324597059928,103.84812841098743,173.08496087563475
139891.0,1613.0,139891.0,71143.0,139891.0,88308.0,275.208984697216,103.38155997376252,172.36344674058716
139891.0,1623.0,139891.0,71298.0,139891.0,88353.0,274.25654744540066,102.90787349230948,171.62044192424264
139891.0,1637.0,139891.0,71332.0,139891.0,88397.0,273.2751801090048,102.42520879911021,170.8557363653904
139901.0,1615.0,139901.0,71274.0,139901.0,88324.0,272.26496509013396,101.9326126730834,170.06963455702063
139901.0,1610.0,139901.0,71172.0,139901.0,88276.0,271.22616148391126,101.43105751444794,169.26322414248466
139901.0,1597.0,139901.0,71164.0,139901.0,88295.0,270.1590310882254,100.92247917728929,168.43759094679908
139901.0,1606.0,139901.0,71212.0,139901.0,88338.0,269.0635683619472,100.40816554081778,167.59298012919749
139901.0,1637.0,139901.0,71278.0,139901.0,88357.0,267.93942169298435,99.88823414338323,166.72888290769762
139901.0,1643.0,139901.0,71284.0,139901.0,88373.0,266.7861800157049,99.36248621192223,165.84480802522248
139911.0,1627.0,139911.0,71201.0,139911.0,88338.0,265.60384265076186,98.83145724970298,164.94096490619302
139911.0,1598.0,139911.0,71145.0,139911.0,88292.0,264.3930048971229,98.29633257494832,164.01833032147883
139911.0,1598.0,139911.0,71153.0,139911.0,88283.0,263.15457319217217,97.75768124879224,163.07800951064223
139911.0,1615.0,139911.0,71260.0,139911.0,88334.0,261.88936397283834,97.21439461147011,162.12046647124495
139911.0,1625.0,139911.0,71278.0,139911.0,88380.0,260.5980294054456,96.66406186014993,161.1454875131947
139911.0,1617.0,139911.0,71321.0,139911.0,88362.0,259.28130591115485,96.1044508111381,160.1529812717849
139922.0,1602.0,139922.0,71240.0,139922.0,88295.0,257.9402151236541,95.53479063496654,159.14366200886369
139922.0,1587.0,139922.0,71121.0,139922.0,88293.0,256.5759683359758,94.95575774484718,158.11877230953368
139922.0,1591.0,139922.0,71161.0,139922.0,88310.0,255.18966547102943,94.3679928486112,157.07924787165715
139922.0,1613.0,139922.0,71258.0,139922.0,88336.0,253.78209209645632,93.77060623244829,156.02531800012517
139922.0,1617.0,139922.0,71320.0,139922.0,88357.0,252.35384312940167,93.16144606730508,154.95682712315025
139922.0,1614.0,139922.0,71287.0,139922.0,88348.0,250.90565987580962,92.53879382732916,153.87385031631112
139932.0,1584.0,139932.0,71200.0,139932.0,88302.0,249.43862218345703,91.90254006005848,152.77704226323726
139932.0,1576.0,139932.0,71133.0,139932.0,88298.0,247.95397307365806,91.25364251170012,151.66738573309792
139932.0,1589.0,139932.0,71189.0,139932.0,88303.0,246.4527437862835,90.59250003933191,150.54559656777386
139932.0,1600.0,139932.0,71313.0,139932.0,88340.0,244.93557989655045,89.91807375598191,149.41181655143546
139932.0,1615.0,139932.0,71326.0,139932.0,88369.0,243.40293846345824,89.22888058907971,148.2659240074201
139932.0,1604.0,139932.0,71234.0,139932.0,88344.0,241.8554558385008,88.52473813746838,147.10821724411616
139942.0,1581.0,139942.0,71183.0,139942.0,88297.0,240.29415624961436,87.80719464578698,145.9397969492722
139942.0,1567.0,139942.0,71150.0,139942.0,88258.0,238.72029471796642,87.07829196995831,144.76213147158097
139942.0,1589.0,139942.0,71218.0,139942.0,88313.0,237.13499819625892,86.33910238079801,143.57615708514635
139942.0,1592.0,139942.0,71309.0,139942.0,88354.0,235.53911975220186,85.58946789675737,142.3819210074777
139942.0,1585.0,139942.0,71310.0,139942.0,88350.0,233.9334049237848,84.82919912584711,141.1791820050157
139942.0,1593.0,139942.0,71236.0,139942.0,88308.0,232.3186868968551,84.05952747478882,139.9681773063242
139953.0,1553.0,139953.0,71139.0,139953.0,88269.0,230.6959040592348,83.28320186324298,138.74961884346737
139953.0,1554.0,139953.0,71147.0,139953.0,88293.0,229.0658751448686,82.50301943673618,137.52398761888077
139953.0,1572.0,139953.0,71235.0,139953.0,88325.0,227.42895943381603,81.72029989501735,136.29099233096912
139953.0,1593.0,139953.0,71310.0,139953.0,88365.0,225.7850006558655,80.93491828484227,135.04982162226065
139953.0,1584.0,139953.0,71272.0,139953.0,88357.0,224.13367600847334,80.14677883880103,133.79997746669193
139953.0,1570.0,139953.0,71214.0,139953.0,88322.0,222.47484959439075,79.35703600063626,132.54195510312633
139963.0,1552.0,139963.0,71161.0,139963.0,88265.0,220.80857208743222,78.56784839754386,131.27715836198652
139963.0,1557.0,139963.0,71125.0,139963.0,88276.0,219.1347974595944,77.78102392150814,130.00707465349302
139963.0,1579.0,139963.0,71260.0,139963.0,88341.0,217.45317091973277,76.9968186621864,128.7325271615133
139963.0,1581.0,139963.0,71330.0,139963.0,88322.0,215.76315114931757,76.21419494034427,127.45378737895507
139963.0,1572.0,139963.0,71291.0,139963.0,88329.0,214.0643332795179,75.43255664225566,126.17122213997516
139963.0,1557.0,139963.0,71174.0,139963.0,88302.0,212.35661240187108,74.65307374546798,124.8856373152698
139973.0,1538.0,139973.0,71139.0,139973.0,88248.0,210.6400297732808,73.87803778128878,123.59803685822143
139973.0,1542.0,139973.0,71206.0,139973.0,88289.0,208.91443123736275,73.10912649357611,122.30898335934674
139973.0,1562.0,139973.0,71260.0,139973.0,88333.0,207.17922523131978,72.34661146938038,121.01818338689122
139973.0,1570.0,139973.0,71319.0,139973.0,88373.0,205.43348120705102,71.59021497172269,119.72495530524341
139973.0,1557.0,139973.0,71242.0,139973.0,88308.0,203.67626122687656,70.84056564951521,118.42920316337863
139973.0,1540.0,139973.0,71198.0,139973.0,88280.0,201.90680430149982,70.09978187726605,117.13178362211843
139984.0,1545.0,139984.0,71126.0,139984.0,88243.0,200.12440362410467,69.37062819976379,115.8338530814573
139984.0,1553.0,139984.0,71185.0,139984.0,88302.0,198.32822564178548,68.6550199046691,114.53592757030178
139984.0,1576.0,139984.0,71290.0,139984.0,88365.0,196.51737656837577,67.95333272369031,113.2377056781515
139984.0,1566.0,139984.0,71302.0,139984.0,88347.0,194.6912305295582,67.26532709253416,111.93892771388391
139984.0,1547.0,139984.0,71235.0,139984.0,88298.0,192.84972390222435,66.59172163514249,110.64032399359975
139984.0,1524.0,139984.0,71128.0,139984.0,88241.0,190.99329611749198,65.93455404772988,109.3435392132753
139994.0,1514.0,139994.0,71124.0,139994.0,88252.0,189.1224789531073,65.29580723687174,108.05010573610265
139994.0,1546.0,139994.0,71213.0,139994.0,88283.0,187.23748845473386,64.67574356863395,106.76049582251193
139994.0,1544.0,139994.0,71308.0,139994.0,88304.0,185.3381958833264,64.0727705471387,105.47401367984008
139994.0,1552.0,139994.0,71289.0,139994.0,88337.0,183.42445137289283,63.485005883474685,104.18940791942107
139994.0,1534.0,139994.0,71207.0,139994.0,88296.0,181.49638995885164,62.91182588038845,102.90560946371119
139994.0,1511.0,139994.0,71161.0,139994.0,88260.0,179.55444879959612,62.35382879789926,101.62198579686005
140003.0,1516.0,140003.0,71134.0,140003.0,88250.0,177.59909760927047,61.811452017414226,100.33786672042504
140003.0,1526.0,140003.0,71232.0,140003.0,88303.0,175.63055549085854,61.283691978197,99.05189411228474
140003.0,1545.0,140003.0,71315.0,140003.0,88326.0,173.648813903019,60.76819980188477,97.76202746271278
140003.0,1546.0,140003.0,71280.0,140003.0,88310.0,171.6539738469378,60.26276073028031,96.46621332531079
140003.0,1514.0,140003.0,71201.0,140003.0,88280.0,169.64657752180943,59.766597152767744,95.162909255933
140003.0,1496.0,140003.0,71121.0,140003.0,88257.0,167.62756612521534,59.28001189903234,93.85091994441837
140014.0,1501.0,140014.0,71167.0,140014.0,88281.0,165.59786985153272,58.80275835491422,92.52883902796104
140014.0,1524.0,140014.0,71257.0,140014.0,88328.0,163.55808742037442,58.33291220515099,91.19481100021129
140014.0,1524.0,140014.0,71331.0,140014.0,88325.0,161.50859104375857,57.867499525130995,89.84697753141647
140014.0,1524.0,140014.0,71272.0,140014.0,88296.0,159.44987872390539,57.404278209318065,88.48414077614191
140014.0,1504.0,140014.0,71187.0,140014.0,88261.0,157.38279947765636,56.9428069492961,87.10587875752431
140014.0,1484.0,140014.0,71116.0,140014.0,88235.0,155.3084673096025,56.483676636911966,85.71195703861449
140024.0,1494.0,140024.0,71185.0,140024.0,88286.0,153.2279468785035,56.026713700159334,84.30158512731856
140024.0,1517.0,140024.0,71273.0,140024.0,88335.0,151.14204675960707,55.570045520210556,82.87330080649836
140024.0,1512.0,140024.0,71329.0,140024.0,88307.0,149.0514853757075,55.11101551697237,81.4256787153901
140024.0,1491.0,140024.0,71229.0,140024.0,88303.0,146.9571988647211,54.64791585986508,79.95808206755616
140024.0,1485.0,140024.0,71158.0,140024.0,88259.0,144.86037599517203,54.1805647506565,78.4707330533066
140024.0,1472.0,140024.0,71130.0,140024.0,88260.0,142.7622059315941,53.7090908569231,76.96421527210205
140034.0,1472.0,140034.0,71237.0,140034.0,88293.0,140.66359177715935,53.232363774665345,75.43895864250425
140034.0,1501.0,140034.0,71318.0,140034.0,88314.0,138.56503222878544,52.747906039408264,73.89523091742232
140034.0,1499.0,140034.0,71311.0,140034.0,88326.0,136.46680690430733,52.25346278568357,72.33368638256897
140034.0,1490.0,140034.0,71200.0,140034.0,88269.0,134.36933985173795,51.74851300869845,70.75590710646755
140034.0,1459.0,140034.0,71147.0,140034.0,88241.0,132.27334660231026,51.23405089723407,69.16430329225413
140034.0,1461.0,140034.0,71152.0,140034.0,88244.0,130.1795927351657,50.710926647254055,67.56137672792818
140045.0,1490.0,140045.0,71214.0,140045.0,88288.0,128.08858772572677,50.17845677980401,65.94909401492173
140045.0,1484.0,140045.0,71309.0,140045.0,88314.0,126.0006349869542,49.63452627422562,64.32902720651984
140045.0,1481.0,140045.0,71321.0,140045.0,88276.0,123.91615511309354,49.07706920945641,62.703027039901116
140045.0,1463.0,140045.0,71181.0,140045.0,88254.0,121.83586340300894,48.50554981529372,61.073586838669684
140045.0,1443.0,140045.0,71125.0,140045.0,88235.0,119.76062963055986,47.920758231231815,59.44350239661625
140045.0,1450.0,140045.0,71192.0,140045.0,88243.0,117.69114753316705,47.32308491280827,57.81525072118265
140055.0,1461.0,140055.0,71285.0,140055.0,88285.0,115.6276912418235,46.71146535826382,56.19069264203017
140055.0,1480.0,140055.0,71311.0,140055.0,88303.0,113.57020147714906,46.08426604475491,54.57138657466615
140055.0,1473.0,140055.0,71250.0,140055.0,88259.0,111.51864685992436,45.440933798616896,52.9592199358346
140055.0,1449.0,140055.0,71165.0,140055.0,88227.0,109.47332439613805,44.782538723266285,51.356601283837676
140055.0,1440.0,140055.0,71126.0,140055.0,88224.0,107.43480974181332,44.110670364762285,49.76592980064862
140055.0,1439.0,140055.0,71215.0,140055.0,88242.0,105.40364425673943,43.425834537227246,48.188937013847976
140065.0,1468.0,140065.0,71305.0,140065.0,88300.0,103.38013928843867,42.72707700120479,46.62660291582566
140065.0,1461.0,140065.0,71354.0,140065.0,88307.0,101.36453444397452,42.01341073929797,45.0798062969925
140065.0,1446.0,140065.0,71234.0,140065.0,88276.0,99.35730746530274,41.28571119245163,43.55019927681755
140065.0,1438.0,140065.0,71149.0,140065.0,88220.0,97.35925523783186,40.5470840859265,42.04047019946975
140065.0,1413.0,140065.0,71142.0,140065.0,88220.0,95.37126901335427,39.80129297453239,40.553723659269764
140065.0,1431.0,140065.0,71245.0,140065.0,88249.0,93.39400619416816,39.05101514846187,39.092657542515525
140076.0,1441.0,140076.0,71318.0,140076.0,88266.0,91.42772780604278,38.29781594405328,37.65935052592664
140076.0,1456.0,140076.0,71229.0,140076.0,88273.0,89.47247972590489,37.5435904337817,36.255686255358626
140076.0,1441.0,140076.0,71195.0,140076.0,88244.0,87.52846992116662,36.79148919124407,34.88382523184313
140076.0,1411.0,140076.0,71126.0,140076.0,88189.0,85.59625516440721,36.0452312074315,33.54617186443815
140076.0,1410.0,140076.0,71111.0,140076.0,88205.0,83.67652472343812,35.30753847076821,32.24473138702703
140076.0,1426.0,140076.0,71241.0,140076.0,88248.0,81.76973802117374,34.57899335676652,30.980467729177633
140086.0,1428.0,140086.0,71275.0,140086.0,88232.0,79.87604122517865,33.85835894038574,29.753338202112815
140086.0,1423.0,140086.0,71305.0,140086.0,88259.0,77.99546679938697,33.14424078423545,28.5627864077139
140086.0,1408.0,140086.0,71186.0,140086.0,88215.0,76.12808209760803,32.43653196391979,27.408084227906556
140086.0,1389.0,140086.0,71126.0,140086.0,88195.0,74.2738846236376,31.73623892505576,26.288245658802538
140086.0,1396.0,140086.0,71142.0,140086.0,88210.0,72.43251073830768,31.04390269030573,25.20157120106191
140086.0,1412.0,140086.0,71247.0,140086.0,88251.0,70.60302899312481,30.358317343175514,24.14533079412726
140097.0,1413.0,140097.0,71274.0,140097.0,88262.0,68.78403868787339,29.676909767432306,23.116071042892884
140097.0,1419.0,140097.0,71259.0,140097.0,88276.0,66.9739684467763,28.99721808485849,22.110332306105022
140097.0,1394.0,140097.0,71175.0,140097.0,88175.0,65.17129558127354,28.317817508029222,21.125073521271105
140097.0,1391.0,140097.0,71134.0,140097.0,88205.0,63.37451629425712,27.637813361781383,20.157276683225746
140097.0,1399.0,140097.0,71181.0,140097.0,88230.0,61.58194974598007,26.955524627207694,19.203168200889365
140097.0,1410.0,140097.0,71270.0,140097.0,88281.0,59.791663397948724,26.267843456442478,18.2581176612849
140107.0,1418.0,140107.0,71313.0,140107.0,88277.0,58.00166539566112,25.571118654062232,17.317402328911243
140107.0,1400.0,140107.0,71252.0,140107.0,88257.0,56.21019000973891,24.862765871562686,16.37703410633779
140107.0,1386.0,140107.0,71172.0,140107.0,88200.0,54.415790851741775,24.14195731222405,15.433914490648135
140107.0,1383.0,140107.0,71122.0,140107.0,88207.0,52.61715489965516,23.40866855601584,14.485232655647422
140107.0,1394.0,140107.0,71231.0,140107.0,88231.0,50.81286605993958,22.662124753420315,13.527726022418278
140107.0,1401.0,140107.0,71340.0,140107.0,88278.0,49.00138746359258,21.900534328863714,12.557570403460204
140117.0,1401.0,140117.0,71297.0,140117.0,88303.0,47.181264564628606,21.122650550965147,11.57106172373787
140117.0,1396.0,140117.0,71193.0,140117.0,88227.0,45.35134873938142,20.329327526921205,10.565462081692914
140117.0,1361.0,140117.0,71157.0,140117.0,88200.0,43.51083096352872,19.523196686167154,9.539081376497364
140117.0,1370.0,140117.0,71121.0,140117.0,88199.0,41.65899655908888,18.70692311081274,8.49045090442425
140117.0,1376.0,140117.0,71237.0,140117.0,88229.0,39.79491150525601,17.881794182592586,7.417503705651825
140117.0,1389.0,140117.0,71262.0,140117.0,88281.0,37.91738032199939,17.047781850731,6.317559060363152
140128.0,1394.0,140128.0,71268.0,140128.0,88301.0,36.02520388774664,16.204813372405354,5.1881071531414875
140128.0,1375.0,140128.0,71195.0,140128.0,88228.0,34.11747414280069,15.353854150046828,4.027718061760197
140128.0,1355.0,140128.0,71126.0,140128.0,88212.0,32.19362644003871,14.496699731744343,2.836166493209106
140128.0,1359.0,140128.0,71164.0,140128.0,88208.0,30.25319088258854,13.634719790226328,1.6136994569738192
140128.0,1365.0,140128.0,71260.0,140128.0,88252.0,28.295519916690807,12.767956468706643,0.36037374996641347
140128.0,1380.0,140128.0,71268.0,140128.0,88277.0,26.31978563488579,11.895686052479135,-0.9238365437743141
140138.0,1379.0,140138.0,71233.0,140138.0,88258.0,24.325234666855806,11.017759943564101,-2.2383790797229324
140138.0,1346.0,140138.0,71161.0,140138.0,88210.0,22.311423431784476,10.135140379556958,-3.5816940128879935
140138.0,1347.0,140138.0,71119.0,140138.0,88174.0,20.278146405484677,9.249080445435993,-4.951585178276815
140138.0,1352.0,140138.0,71162.0,140138.0,88218.0,18.225148482995905,8.359743674670355,-6.346078062859021
140138.0,1360.0,140138.0,71255.0,140138.0,88243.0,16.15199785531499,7.465590770396432,-7.763845866051298
140138.0,1366.0,140138.0,71314.0,140138.0,88248.0,14.058238807599423,6.564302457978371,-9.203819202947159
140148.0,1353.0,140148.0,71244.0,140148.0,88235.0,11.943628149660555,5.654522112134586,-10.664552208806612
140148.0,1334.0,140148.0,71148.0,140148.0,88197.0,9.80821446750889,4.7366656779903025,-12.144018983512098
140148.0,1326.0,140148.0,71117.0,140148.0,88167.0,7.652150921092044,3.8119125340048896,-13.640014465782997
140148.0,1349.0,140148.0,71171.0,140148.0,88223.0,5.475429792616183,2.880466051522234,-15.150805649134838
140148.0,1350.0,140148.0,71289.0,140148.0,88256.0,3.2778706706550906,1.940949694821839,-16.675274312372636
140148.0,1359.0,140148.0,71269.0,140148.0,88251.0,1.0594007193808466,0.9915477986414629,-18.21226395397241
140159.0,1341.0,140159.0,71226.0,140159.0,88209.0,-1.1796481909127579,0.031579689350365925,-19.75987570025677
140159.0,1314.0,140159.0,71126.0,140159.0,88150.0,-3.438496672156788,-0.9382129658879563,-21.315571288034306
140159.0,1312.0,140159.0,71103.0,140159.0,88168.0,-5.716204215663879,-1.9169509067871076,-22.877060921245175
140159.0,1326.0,140159.0,71246.0,140159.0,88200.0,-8.012031857264788,-2.905100034238558,-24.443122067844286
140159.0,1331.0,140159.0,71275.0,140159.0,88264.0,-10.325516869877674,-3.9044138148119174,-26.013517516413373
140159.0,1350.0,140159.0,71296.0,140159.0,88243.0,-12.656212962534596,-4.916290800860281,-27.588067374697943
140169.0,1302.0,140169.0,71214.0,140169.0,88200.0,-15.003381348696166,-5.940289644683389,-29.165795818541397
140169.0,1294.0,140169.0,71107.0,140169.0,88173.0,-17.3660131610047,-6.974212107758319,-30.744968164129375
140169.0,1299.0,140169.0,71114.0,140169.0,88156.0,-19.743219664165395,-8.01570348603046,-32.3238685414843
140169.0,1319.0,140169.0,71241.0,140169.0,88209.0,-22.134514723508516,-9.063840576996398,-33.901510756368
140169.0,1315.0,140169.0,71261.0,140169.0,88229.0,-24.539677904595976,-10.118991139940448,-35.47764289490175
140169.0,1310.0,140169.0,71276.0,140169.0,88231.0,-26.958445115109583,-11.181220105301762,-37.052092249300074
140179.0,1300.0,140179.0,71170.0,140179.0,88189.0,-29.390360713680423,-12.249078046824323,-38.624158880053756
140179.0,1276.0,140179.0,71111.0,140179.0,88148.0,-31.834874069914974,-13.319957824770157,-40.19270744028756
140179.0,1286.0,140179.0,71112.0,140179.0,88161.0,-34.29159761844102,-14.391675412192257,-41.75688847795985
140179.0,1301.0,140179.0,71253.0,140179.0,88204.0,-36.76049167250645,-15.463700522875058,-43.31674249569596
140179.0,1325.0,140179.0,71273.0,140179.0,88246.0,-39.241700784506406,-16.536634665648677,-44.87298860908112
140179.0,1293.0,140179.0,71212.0,140179.0,88204.0,-41.7351226069722,-17.610551857269968,-46.42618803478314
140190.0,1279.0,140190.0,71128.0,140190.0,88142.0,-44.24017470954038,-18.684256060841278,-47.97628817988593
140190.0,1262.0,140190.0,71104.0,140190.0,88139.0,-46.75601839447921,-19.756283054353943,-49.5231766946373
140190.0,1268.0,140190.0,71165.0,140190.0,88207.0,-49.28197644603645,-20.82642443611107,-51.067539209563904
140190.0,1284.0,140190.0,71273.0,140190.0,88200.0,-51.8177481896098,-21.896090068722117,-52.610909734643116
140190.0,1290.0,140190.0,71281.0,140190.0,88237.0,-54.36327212659796,-22.967021251217005,-54.15494000652208
140190.0,1287.0,140190.0,71185.0,140190.0,88192.0,-56.91838591238988,-24.039643693522024,-55.70069520435905
140200.0,1248.0,140200.0,71115.0,140200.0,88154.0,-59.48262569229507,-25.112871479179915,-57.248528464306645
140200.0,1248.0,140200.0,71111.0,140200.0,88130.0,-62.055407649765186,-26.185544139205348,-58.79866165428723
140200.0,1246.0,140200.0,71195.0,140200.0,88180.0,-64.63642786046802,-27.25787991097569,-60.35199277137944
140200.0,1281.0,140200.0,71265.0,140200.0,88235.0,-67.22583929875756,-28.331443608514277,-61.9102334419927
140200.0,1279.0,140200.0,71244.0,140200.0,88222.0,-69.8239854213005,-29.407756592022835,-63.47511746041994
140200.0,1249.0,140200.0,71181.0,140200.0,88189.0,-72.43097769451836,-30.48705242035757,-65.0475120658329
140210.0,1234.0,140210.0,71088.0,140210.0,88138.0,-75.04662298882909,-31.568473328278472,-66.62736282086667
140210.0,1221.0,140210.0,71116.0,140210.0,88153.0,-77.67078988162149,-32.65153955048616,-68.21443361467914
140210.0,1257.0,140210.0,71232.0,140210.0,88177.0,-80.30377877450448,-33.73734943588025,-69.80901206297557
140210.0,1261.0,140210.0,71243.0,140210.0,88229.0,-82.94627084682045,-34.82813827715357,-71.41186998233604
140210.0,1257.0,140210.0,71231.0,140210.0,88206.0,-85.59891047792595,-35.92574627563228,-73.02354166553289
140210.0,1232.0,140210.0,71153.0,140210.0,88141.0,-88.2619825287162,-37.03072383694443,-74.643747640481
140221.0,1221.0,140221.0,71110.0,140221.0,88103.0,-90.93548802365385,-38.14285125490346,-76.27176933920919
140221.0,1216.0,140221.0,71116.0,140221.0,88161.0,-93.61947858873216,-39.26247576569105,-77.90747112564176
140221.0,1239.0,140221.0,71220.0,140221.0,88200.0,-96.31430156435817,-40.391409238550466,-79.55174737249592
140221.0,1247.0,140221.0,71319.0,140221.0,88208.0,-99.02050484969968,-41.53229772546497,-81.20588663615791
140221.0,1246.0,140221.0,71217.0,140221.0,88205.0,-101.73846420498631,-42.68678054326024,-82.8706077530444
140221.0,1204.0,140221.0,71122.0,140221.0,88124.0,-104.46810941025817,-43.85443015703045,-84.54567849814
140231.0,1199.0,140231.0,71076.0,140231.0,88104.0,-107.20908116155599,-45.03381859222873,-86.23046486732088
140231.0,1213.0,140231.0,71145.0,140231.0,88176.0,-109.96115073828537,-46.22450626910191,-87.92489898508404
140231.0,1232.0,140231.0,71256.0,140231.0,88194.0,-112.72437628511028,-47.42776969801649,-89.62972427542462
140231.0,1234.0,140231.0,71275.0,140231.0,88209.0,-115.49880548651012,-48.64536783783741,-91.34573052856572
140231.0,1225.0,140231.0,71211.0,140231.0,88143.0,-118.2840484308162,-49.87768071653693,-93.07296439656002
140231.0,1186.0,140231.0,71103.0,140231.0,88139.0,-121.07912743482481,-51.12315292472704,-94.81075716591954
140241.0,1191.0,140241.0,71086.0,140241.0,88111.0,-123.88274145721894,-52.37957623712457,-96.55841600518113
140241.0,1201.0,140241.0,71165.0,140241.0,88166.0,-126.69365169253831,-53.645833249754304,-98.31585016522573
140241.0,1212.0,140241.0,71233.0,140241.0,88190.0,-129.51075531041818,-54.922305028918885,-100.08354122405422
140241.0,1206.0,140241.0,71246.0,140241.0,88188.0,-132.33282916701705,-56.20966555390373,-101.86187761748155
140241.0,1181.0,140241.0,71160.0,140241.0,88137.0,-135.15830779641453,-57.50749372003179,-103.65055162904241
140241.0,1170.0,140241.0,71074.0,140241.0,88106.0,-137.98537499755759,-58.81424901225172,-105.44871094408524
140252.0,1156.0,140252.0,71111.0,140252.0,88104.0,-140.81231442728813,-60.12866752765305,-107.25575751956035
140252.0,1171.0,140252.0,71198.0,140252.0,88183.0,-143.63784403024118,-61.450973578009254,-109.07195394843998
140252.0,1177.0,140252.0,71222.0,140252.0,88151.0,-146.46119556008546,-62.782520657458264,-110.89818367293634
140252.0,1180.0,140252.0,71250.0,140252.0,88148.0,-149.28191697289202,-64.1243312735902,-112.73529204374549
140252.0,1165.0,140252.0,71131.0,140252.0,88125.0,-152.09961628194452,-65.47601292564886,-114.58386625868633
140252.0,1149.0,140252.0,71093.0,140252.0,88148.0,-154.91390390438005,-66.83606004283692,-116.44446629973811
140262.0,1148.0,140262.0,71145.0,140262.0,88135.0,-157.7245739886215,-68.20319786147584,-118.31778877849894
140262.0,1157.0,140262.0,71183.0,140262.0,88139.0,-160.5318081972889,-69.57722418296802,-120.20463212935067
140262.0,1172.0,140262.0,71244.0,140262.0,88187.0,-163.3361489873019,-70.95846670619306,-122.10574002964165
140262.0,1152.0,140262.0,71215.0,140262.0,88137.0,-166.13825452519092,-72.34651365345857,-124.02147850295475
140262.0,1150.0,140262.0,71136.0,140262.0,88121.0,-168.9387165200156,-73.73942585173452,-125.95163810077756
140262.0,1128.0,140262.0,71056.0,140262.0,88100.0,-171.73812916117595,-75.13429036937896,-127.89576994226877
140272.0,1141.0,140272.0,71097.0,140272.0,88104.0,-174.53730188577856,-76.52882637331669,-129.85380265189983
140272.0,1150.0,140272.0,71225.0,140272.0,88180.0,-177.33736501488613,-77.92243443128012,-131.82629463821948
140272.0,1161.0,140272.0,71223.0,140272.0,88162.0,-180.13960431196642,-79.31544473909926,-133.81396149403457
140272.0,1133.0,140272.0,71171.0,140272.0,88149.0,-182.94516406634204,-80.7074850897948,-135.8168872959864
140272.0,1137.0,140272.0,71079.0,140272.0,88088.0,-185.75493841113018,-82.09696397267246,-137.83430010501615
140272.0,1122.0,140272.0,71055.0,140272.0,88073.0,-188.56970750525187,-83.48222331749523,-139.86519701120778
140283.0,1122.0,140283.0,71131.0,140283.0,88124.0,-191.39032022659666,-84.86309205556839,-141.90919543819194
140283.0,1140.0,140283.0,71209.0,140283.0,88162.0,-194.21776954783815,-86.24122561134976,-143.9666960124769
140283.0,1142.0,140283.0,71248.0,140283.0,88147.0,-197.05306140587948,-87.61882456066874,-146.0381809460227
140283.0,1106.0,140283.0,71122.0,140283.0,88111.0,-199.89698833972773,-88.99703164089829,-148.12351407596975
140283.0,1108.0,140283.0,71079.0,140283.0,88069.0,-202.75015189858033,-90.37575150016616,-150.222037873399
140283.0,1116.0,140283.0,71060.0,140283.0,88085.0,-205.61321962930418,-91.75506516725335,-152.33331159941795
140293.0,1108.0,140293.0,71148.0,140293.0,88138.0,-208.4870442593671,-93.13664049685775,-154.45765482923906
140293.0,1128.0,140293.0,71231.0,140293.0,88178.0,-211.3725519624341,-94.52365721445784,-156.59580424351225
140293.0,1127.0,140293.0,71211.0,140293.0,88127.0,-214.27051503300032,-95.91931936196067,-158.74795283564717
140293.0,1101.0,140293.0,71140.0,140293.0,88095.0,-217.18132227222924,-97.32545058212821,-160.91322790015485
140293.0,1083.0,140293.0,71050.0,140293.0,88076.0,-220.10499598027502,-98.74261506206167,-163.0901238496988
140293.0,1088.0,140293.0,71095.0,140293.0,88085.0,-223.04151423068942,-100.17158194148618,-165.27730503186115
140303.0,1100.0,140303.0,71200.0,140303.0,88112.0,-225.99108022653678,-101.61442716276588,-167.47401767010288
140303.0,1105.0,140303.0,71204.0,140303.0,88128.0,-228.9540554171445,-103.07397147898908,-169.67989442931514
140303.0,1105.0,140303.0,71194.0,140303.0,88113.0,-231.9306717221068,-104.55228107174608,-171.89443900031756
140303.0,1080.0,140303.0,71120.0,140303.0,88065.0,-234.92081629349605,-106.04987800663505,-174.11675938462162
140303.0,1065.0,140303.0,71071.0,140303.0,88040.0,-237.92410130211294,-107.56628377346027,-176.34595059370707
140303.0,1064.0,140303.0,71090.0,140303.0,88082.0,-240.94018232463065,-109.10131710659692,-178.58182930163713
140314.0,1086.0,140314.0,71233.0,140314.0,88137.0,-243.96900761860462,-110.65583269680218,-180.82515027649117
140314.0,1091.0,140314.0,71226.0,140314.0,88134.0,-247.01071497497026,-112.23086060569872,-183.07690187672262
140314.0,1081.0,140314.0,71135.0,140314.0,88114.0,-250.06528340860785,-113.82602263264624,-185.33735854051017
140314.0,1056.0,140314.0,71057.0,140314.0,88037.0,-253.1323282401384,-115.4392817097727,-187.60584948733842
140314.0,1044.0,140314.0,71021.0,140314.0,88048.0,-256.2112642049472,-117.06848372180315,-189.8814601632631
140314.0,1055.0,140314.0,71125.0,140314.0,88102.0,-259.301654466874,-118.71310116210418,-192.16388124408505
140324.0,1067.0,140324.0,71203.0,140324.0,88128.0,-262.4033650945614,-120.37445042345396,-194.453393361119
140324.0,1051.0,140324.0,71248.0,140324.0,88113.0,-265.5164137093173,-122.05411965658803,-196.75004219993974
140324.0,1064.0,140324.0,71141.0,140324.0,88090.0,-268.64076122767426,-123.75206829307868,-199.05297535498403
140324.0,1034.0,140324.0,71062.0,140324.0,88041.0,-271.7762409778301,-125.46622764050383,-201.36053389431282
140324.0,1034.0,140324.0,71032.0,140324.0,88037.0,-274.9226474539799,-127.19394051599187,-203.6709489072856
140324.0,1033.0,140324.0,71159.0,140324.0,88091.0,-278.0799280496532,-128.93364326068274,-205.9830197774772
140334.0,1049.0,140334.0,71162.0,140334.0,88106.0,-281.2482733803985,-130.68501338243846,-208.29608212068854
140334.0,1037.0,140334.0,71186.0,140334.0,88088.0,-284.42798275097476,-132.447718463767,-210.60934232919686
140334.0,1036.0,140334.0,71098.0,140334.0,88038.0,-287.6192747549375,-134.22035699648026,-212.92145704146148
140334.0,1017.0,140334.0,71055.0,140334.0,88020.0,-290.8222494185176,-136.00064552107995,-215.23090599429048
140334.0,1008.0,140334.0,71063.0,140334.0,88038.0,-294.03703426235705,-137.7865789132517,-217.53676772054592
140334.0,1033.0,140334.0,71190.0,140334.0,88069.0,-297.26396654591963,-139.5772545372317,-219.83911495592233
140345.0,1035.0,140345.0,71180.0,140345.0,88091.0,-300.5035486068075,-141.3722533519986,-222.1386918205554
140345.0,1022.0,140345.0,71132.0,140345.0,88048.0,-303.7561621195991,-143.17025797409232,-224.43628156643916
140345.0,1011.0,140345.0,71082.0,140345.0,88038.0,-307.0218832691426,-144.96857931242485,-226.7324650786717
140345.0,984.0,140345.0,71023.0,140345.0,88024.0,-310.3006133421884,-146.76404715884777,-229.02795629006582
140345.0,998.0,140345.0,71064.0,140345.0,88037.0,-313.5923992638643,-148.55438044895502,-231.32405915200545
140345.0,1007.0,140345.0,71152.0,140345.0,88086.0,-316.89764052217316,-150.33885543131134,-233.6227462764294
140355.0,1019.0,140355.0,71205.0,140355.0,88089.0,-320.2169578452316,-152.11752708544,-235.92617707279356
140355.0,997.0,140355.0,71084.0,140355.0,88077.0,-323.5508673040165,-153.88972426323113,-238.23597102162176
140355.0,987.0,140355.0,71029.0,140355.0,88010.0,-326.89962611671734,-155.65366217056192,-240.55292610976838
140355.0,977.0,140355.0,71009.0,140355.0,88017.0,-330.26337965809995,-157.40775099606378,-242.87751426705205
140355.0,989.0,140355.0,71102.0,140355.0,88045.0,-333.64238705640224,-159.1520708046808,-245.21061748934517
140355.0,1000.0,140355.0,71172.0,140355.0,88078.0,-337.03704205151337,-160.88837150007078,-247.55366073670638
140366.0,996.0,140366.0,71172.0,140366.0,88091.0,-340.44764053738726,-162.61861201951564,-249.90800194092412
140366.0,984.0,140366.0,71105.0,140366.0,88049.0,-343.8741194113151,-164.34349579501634,-252.27421452873375
140366.0,969.0,140366.0,71008.0,140366.0,88004.0,-347.31601159332973,-166.06241700964642,-254.65198084373236
140366.0,958.0,140366.0,71015.0,140366.0,88001.0,-350.772637456054,-167.77486619593708,-257.0407441802839
140366.0,969.0,140366.0,71122.0,140366.0,88037.0,-354.2433505442121,-169.48184013138845,-259.4404637498587
140366.0,978.0,140366.0,71171.0,140366.0,88071.0,-357.7276008290211,-171.18567551189705,-261.8516833410133
140376.0,978.0,140376.0,71139.0,140376.0,88059.0,-361.2247386171001,-172.88852088684126,-264.2749015316036
140376.0,969.0,140376.0,71074.0,140376.0,88037.0,-364.7337473397307,-174.5912155213026,-266.709957812896
140376.0,945.0,140376.0,71018.0,140376.0,87981.0,-368.25316023486937,-176.29366793426004,-269.15606399139847
140376.0,929.0,140376.0,71025.0,140376.0,88024.0,-371.7812682128547,-177.9962079164628,-271.61240801991687
140376.0,949.0,140376.0,71124.0,140376.0,88040.0,-375.3164631251721,-179.70056422306155,-274.07859769302684
140376.0,948.0,140376.0,71174.0,140376.0,88080.0,-378.85737448056597,-181.4094257070743,-276.55436747056774
140386.0,943.0,140386.0,71165.0,140386.0,88040.0,-382.40271263946266,-183.1248732111847,-279.03884795512243
140386.0,935.0,140386.0,71049.0,140386.0,88013.0,-385.9510978050096,-184.84722826527215,-281.53018324059974
140386.0,931.0,140386.0,71017.0,140386.0,87988.0,-389.5010509177543,-186.57552466829083,-284.02587055133176
140386.0,921.0,140386.0,71035.0,140386.0,88011.0,-393.05107566946435,-188.30907475021817,-286.52342760457657
140386.0,936.0,140386.0,71130.0,140386.0,88034.0,-396.5997224029474,-190.04844052741922,-289.0207037544518
140386.0,953.0,140386.0,71205.0,140386.0,88073.0,-400.1454922863107,-191.79475136155992,-291.51553346135086
140397.0,923.0,140397.0,71165.0,140397.0,88011.0,-403.68655752594105,-193.54790641980475,-294.00507214377603
140397.0,913.0,140397.0,71042.0,140397.0,87998.0,-407.2206072980933,-195.3053942190118,-296.4855592166075
140397.0,905.0,140397.0,71001.0,140397.0,87980.0,-410.74503194979934,-197.06302039910625,-298.95279172999415
