c_ts,c_val,d_ts,d_val,e_ts,e_val,c_val_filtered,d_val_filtered,e_val_filtered
34625,14017,34625,22119,34625.0,54162.0,44.23679030654888,-33.03989153522556,-79.6524967099899
34625,14008,34625,22137,34625.0,54163.0,41.5129553603426,-33.0749633911257,-85.48636979730081
34625,14025,34625,22106,34625.0,54148.0,38.65532210548327,-33.19670501159185,-91.6004984486838
34625,13988,34625,22132,34625.0,54157.0,35.664702873945394,-33.41210756103376,-97.9962245575236
34635,14015,34635,22138,34635.0,54146.0,32.542276329497575,-33.72775359364365,-104.67393430342919
34635,13996,34635,22118,34635.0,54171.0,29.28953753846112,-34.14971381247974,-111.63293167594094
34635,14006,34635,22155,34635.0,54136.0,25.908331158971798,-34.68341637996854,-118.87121409057212
34635,14005,34635,22139,34635.0,54134.0,22.400951509463226,-35.333520964647256,-126.38533428144042
34635,14003,34635,22192,34635.0,54135.0,18.770264932809795,-36.103637478014704,-134.17045781840088
34635,14000,34635,22150,34635.0,54148.0,15.019834142131891,-36.99590959239619,-142.22037553944887
34646,13987,34646,22138,34646.0,54094.0,11.153975646762312,-38.01077862739167,-150.5273637995741
34646,13966,34646,22117,34646.0,54075.0,7.177681335495997,-39.14722117648989,-159.08227117267745
34646,13949,34646,22085,34646.0,54044.0,3.0963555089526835,-40.403343081081076,-167.8750483923663
34646,13953,34646,22089,34646.0,54034.0,-1.0845498251585752,-41.777044433257366,-176.89541826478447
34646,13946,34646,22092,34646.0,54009.0,-5.359785027484634,-43.266537098208175,-186.13339647944255
34646,13930,34646,22105,34646.0,54030.0,-9.724385830071384,-44.87051649294934,-195.57960495563654
34656,13923,34656,22115,34656.0,54016.0,-14.173763474893875,-46.58799779521643,-205.22531328522007
34656,13948,34656,22128,34656.0,54031.0,-18.703810242686288,-48.41798054743563,-215.06221869404953
34656,13934,34656,22117,34656.0,54000.0,-23.310808030821747,-50.35909144727318,-225.08216110834084
34656,13932,34656,22127,34656.0,54024.0,-27.991182613247304,-52.4093429748921,-235.27693144919877
34656,13955,34656,22156,34656.0,54020.0,-32.74130405418521,-54.56595326537888,-245.63808033302828
34656,13930,34656,22157,34656.0,54019.0,-37.55728482639766,-56.824998615255204,-256.1565878120422
34666,13910,34666,22082,34666.0,53953.0,-42.43483241929104,-59.18109097071509,-266.82262311310603
34666,13908,34666,22069,34666.0,53926.0,-47.36937917314455,-61.627685617224756,-277.6258257204324
34666,13873,34666,22044,34666.0,53926.0,-52.356408528992475,-64.15801924006948,-288.55603323965715
34666,13895,34666,22047,34666.0,53900.0,-57.39176939604481,-66.76600465950335,-299.6038856834613
34666,13891,34666,22030,34666.0,53884.0,-62.47182497705475,-69.44673436810598,-310.76110412832656
34666,13879,34666,22081,34666.0,53893.0,-67.5933653547612,-72.19663758087749,-322.02065248327744
34677,13897,34677,22078,34677.0,53903.0,-72.75344383183862,-75.01323429084654,-333.37672597306585
34677,13863,34677,22082,34677.0,53896.0,-77.94926664866577,-77.89458965868252,-344.82443097635974
34677,13875,34677,22061,34677.0,53898.0,-83.17816248497607,-80.83890594555149,-356.35934664082026
34677,13884,34677,22112,34677.0,53871.0,-88.43758933924741,-83.84438359912713,-367.9772173570166
34677,13873,34677,22120,34677.0,53872.0,-93.72500685816172,-86.90894074165607,-379.67384706929096
34677,13850,34677,22099,34677.0,53866.0,-99.03770324416158,-90.0296514873205,-391.44509235505006
34687,13855,34687,22031,34687.0,53818.0,-104.37283586084234,-93.20250218169382,-403.2868714372197
34687,13822,34687,22032,34687.0,53791.0,-109.72763503145228,-96.42294123230374,-415.1953855635793
34687,13831,34687,22024,34687.0,53792.0,-115.09962743700285,-99.68677946039716,-427.1676216881662
34687,13814,34687,22008,34687.0,53756.0,-120.48683063183128,-102.9907793557845,-439.2018006354492
34687,13822,34687,22015,34687.0,53751.0,-125.88784792463628,-106.33290705276445,-451.29763524984423
34687,13823,34687,22053,34687.0,53799.0,-131.3018272616056,-109.71236450272045,-463.4564087032112
34697,13817,34697,22030,34697.0,53793.0,-136.7283124900821,-113.12929667616908,-475.680597745087
34697,13810,34697,22036,34697.0,53775.0,-142.16708821854738,-116.58438631375097,-487.9731359747726
34697,13811,34697,22042,34697.0,53762.0,-147.61810733379323,-120.07865597317107,-500.3369262022085
34697,13798,34697,22081,34697.0,53768.0,-153.0814647574474,-123.61328105394071,-512.7747475174293
34697,13804,34697,22045,34697.0,53745.0,-158.5573708992255,-127.18917497291672,-525.2892109234984
34697,13808,34697,22091,34697.0,53742.0,-164.04608230712225,-130.80655490069438,-537.882660234867
34708,13773,34708,21999,34708.0,53688.0,-169.5477935568968,-134.46476528371423,-550.557200292169
34708,13783,34708,22005,34708.0,53691.0,-175.06265227115045,-138.1625635418497,-563.314973839356
34708,13754,34708,22005,34708.0,53645.0,-180.59093975982805,-141.89878701003482,-576.1585898532677
34708,13750,34708,21964,34708.0,53617.0,-186.13328978173084,-145.67291141707614,-589.0915899220199
34708,13775,34708,22010,34708.0,53646.0,-191.69083411129404,-149.48532284437312,-602.1188878222299
34708,13762,34708,22030,34708.0,53691.0,-197.26511096833218,-153.33728496374522,-615.2467754086925
34718,13762,34718,22009,34718.0,53637.0,-202.85777877396006,-157.2304861912533,-628.4822578846283
34718,13746,34718,22006,34718.0,53647.0,-208.47043267244996,-161.16657551148785,-641.832365844424
34718,13756,34718,22029,34718.0,53676.0,-214.1045885273157,-165.14703095462554,-655.303864803768
34718,13760,34718,22041,34718.0,53656.0,-219.76163399419198,-169.1730045031846,-668.902898566283
34718,13735,34718,22002,34718.0,53636.0,-225.4426737693867,-173.24497946309188,-682.6344771702503
34718,13729,34718,21977,34718.0,53555.0,-231.14846527142055,-177.3626976241069,-696.5023960990778
34729,13706,34729,21986,34729.0,53537.0,-236.87958233319233,-181.52555856547704,-710.5098759838995
34729,13702,34729,21932,34729.0,53532.0,-242.63669355063774,-185.73313493677324,-724.6605017348636
34729,13693,34729,21944,34729.0,53509.0,-248.42080753499926,-189.98563980495481,-738.9588174438925
34729,13697,34729,21945,34729.0,53535.0,-254.23340004798945,-194.28434202640966,-753.4104190841684
34729,13693,34729,21960,34729.0,53542.0,-260.07639263005365,-198.6316807147433,-768.0216703272283
34729,13701,34729,21993,34729.0,53532.0,-265.9520150539581,-203.0309553152728,-782.7991262964138
34739,13703,34739,21969,34739.0,53502.0,-271.8625839234586,-207.48576929811253,-797.7490009944445
34739,13706,34739,21978,34739.0,53479.0,-277.8102196095241,-211.99955723541962,-812.8770384204865
34739,13692,34739,22028,34739.0,53505.0,-283.79658037858195,-216.57527812549426,-828.188641470588
34739,13686,34739,21998,34739.0,53466.0,-289.82272899987873,-221.2149611832935,-843.6888415502053
34739,13669,34739,21988,34739.0,53453.0,-295.88916618376714,-225.91920721758183,-859.3821249136433
34739,13642,34739,21927,34739.0,53425.0,-301.9960105792992,-230.68720205528246,-875.272451504621
34749,13636,34749,21939,34749.0,53404.0,-308.1433192412627,-235.51731484651765,-891.3634863889555
34749,13626,34749,21905,34749.0,53408.0,-314.3314392779407,-240.40781581499556,-907.6588210395427
34749,13616,34749,21892,34749.0,53354.0,-320.5612388946971,-245.357407915501,-924.1620872130463
34749,13636,34749,21912,34749.0,53395.0,-326.83417532088464,-250.3655906590599,-940.877011868598
34749,13634,34749,21892,34749.0,53378.0,-333.1521530460276,-255.43280554894812,-957.8073017054318
34749,13643,34749,21930,34749.0,53359.0,-339.51718041543404,-260.5603085012032,-974.9562600624811
34760,13635,34760,21942,34760.0,53369.0,-345.9309945205307,-265.7497995927293,-992.3264072414536
34760,13625,34760,21949,34760.0,53376.0,-352.39481015029213,-271.0028242678561,-1009.9191668867114
34760,13628,34760,21990,34760.0,53366.0,-358.90921906000005,-276.32007142735984,-1027.7343856186585
34760,13596,34760,21917,34760.0,53329.0,-365.4741929746359,-281.7007788261051,-1045.769843730347
34760,13607,34760,21883,34760.0,53311.0,-372.0891741182875,-287.14266062547193,-1064.0211111073618
34760,13568,34760,21903,34760.0,53249.0,-378.7532411269532,-292.64252711712373,-1082.4818030840936
34770,13577,34770,21854,34770.0,53264.0,-385.46531595732944,-298.19698552340924,-1101.144052217904
34770,13556,34770,21888,34770.0,53225.0,-392.2243713441507,-303.80278889341093,-1119.9988946471944
34770,13564,34770,21877,34770.0,53241.0,-399.0295558658819,-309.4569242651695,-1139.0363587920933
34770,13562,34770,21892,34770.0,53209.0,-405.8801799864694,-315.15645233954353,-1158.2453214437905
34770,13568,34770,21913,34770.0,53204.0,-412.77555905354,-320.8981372158921,-1177.6133056049343
34770,13571,34770,21891,34770.0,53206.0,-419.71474363363694,-326.6779937835513,-1197.1262872257248
34780,13562,34780,21874,34780.0,53199.0,-426.6962222064764,-332.49097953565825,-1216.7684080322806
34780,13554,34780,21918,34780.0,53210.0,-433.717709581326,-338.3309422424126,-1236.521513956749
34780,13553,34780,21868,34780.0,53185.0,-440.7760656092329,-344.19053830545073,-1256.364614802609
34780,13521,34780,21889,34780.0,53121.0,-447.86730986352273,-350.06107342429317,-1276.2735510824082
34780,13503,34780,21837,34780.0,53089.0,-454.9867890536062,-355.93255318079787,-1296.221218812159
34780,13491,34780,21816,34780.0,53059.0,-462.12953574859716,-361.79403691199605,-1316.178257925244
34791,13477,34791,21799,34791.0,53006.0,-469.2906485644495,-367.63423447765933,-1336.1137700745212
34791,13495,34791,21828,34791.0,52985.0,-476.46549969366407,-373.44204878221547,-1355.9959534324116
34791,13491,34791,21810,34791.0,53031.0,-483.64967481875084,-379.206690022159,-1375.7925421500968
34791,13489,34791,21822,34791.0,53037.0,-490.83870222378806,-384.917457129828,-1395.4705799736448
34791,13497,34791,21810,34791.0,53022.0,-498.02775743194564,-390.56351662957087,-1414.9955371583437
34791,13488,34791,21828,34791.0,53012.0,-505.21141030053644,-396.1337399668306,-1434.3304699383216
34801,13493,34801,21854,34801.0,53023.0,-512.3833884255846,-401.6164276480995,-1453.435545449815
34801,13483,34801,21835,34801.0,52983.0,-519.536379295998,-406.99883151301015,-1472.267696536662
34801,13467,34801,21817,34801.0,52964.0,-526.6619139012016,-412.26675074805416,-1490.7804016599612
34801,13434,34801,21771,34801.0,52914.0,-533.7504372631324,-417.40460073010445,-1508.9238058202668
34801,13443,34801,21768,34801.0,52845.0,-540.7915985446366,-422.39596122885325,-1526.6452568477557
34801,13419,34801,21750,34801.0,52876.0,-547.7745546208556,-427.22423412545845,-1543.8901149804424
34811,13424,34811,21757,34811.0,52851.0,-554.688123523528,-431.8730792803575,-1560.6023193518877
34811,13418,34811,21760,34811.0,52872.0,-561.5208225093647,-436.3265521790879,-1576.7243326893695
34811,13436,34811,21754,34811.0,52832.0,-568.2607789713173,-440.56902887776357,-1592.1967635207416
34811,13413,34811,21766,34811.0,52837.0,-574.8954983759029,-444.58505030558103,-1606.9581028522002
34811,13407,34811,21774,34811.0,52837.0,-581.411671747597,-448.3591269059394,-1620.94460962117
34811,13406,34811,21771,34811.0,52825.0,-587.7951647667195,-451.8754676924852,-1634.090138473199
34822,13397,34822,21802,34822.0,52804.0,-594.03106344176,-455.11765850948973,-1646.3259281164542
34822,13405,34822,21775,34822.0,52799.0,-600.1036392007393,-458.06832036769265,-1657.5805527423176
34822,13400,34822,21813,34822.0,52758.0,-605.9962298370095,-460.7087989843744,-1667.7800630210274
34822,13362,34822,21750,34822.0,52734.0,-611.6911461001425,-463.01899335066514,-1676.8483189793565
34822,13352,34822,21738,34822.0,52704.0,-617.1698311270002,-464.97752023111855,-1684.7075576203706
34822,13358,34822,21717,34822.0,52680.0,-622.4132388795854,-466.5623123805866,-1691.2790864342614
34832,13346,34832,21717,34832.0,52682.0,-627.4020800593058,-467.75132534375336,-1696.483923170461
34832,13344,34832,21728,34832.0,52669.0,-632.1168470667014,-468.52296498841724,-1700.2432386982775
34832,13346,34832,21741,34832.0,52642.0,-636.5377906448377,-468.8561494590575,-1702.4786419296572
34832,13354,34832,21749,34832.0,52660.0,-640.6448528849769,-468.73009326701083,-1703.1124935050325
34832,13350,34832,21747,34832.0,52645.0,-644.4174924757663,-468.1240105015603,-1702.0682102977107
34832,13355,34832,21734,34832.0,52644.0,-647.8344736770002,-467.01695842223154,-1699.2704580093869
34842,13337,34842,21770,34842.0,52680.0,-650.8737289655703,-465.3878443674831,-1694.6452748033635
34842,13321,34842,21714,34842.0,52609.0,-653.5123911565676,-463.2154630921789,-1688.120174954259
34842,13320,34842,21687,34842.0,52610.0,-655.7270220207467,-460.4787513957056,-1679.6245364346146
34842,13316,34842,21686,34842.0,52571.0,-657.4938823089282,-457.1575157086522,-1669.0905196435076
34842,13289,34842,21706,34842.0,52597.0,-658.7891346569215,-453.23321844781447,-1656.4541593251852
34842,13272,34842,21670,34842.0,52536.0,-659.5891379841174,-448.6893623750789,-1641.656291870398
34853,13284,34853,21689,34853.0,52536.0,-659.8708908154706,-443.51171234981416,-1624.6435203985652
34853,13284,34853,21715,34853.0,52609.0,-659.6123510840994,-437.68853511370367,-1605.3692195164003
34853,13297,34853,21716,34853.0,52619.0,-658.7924570907849,-431.2105965059313,-1583.7939804210528
34853,13291,34853,21743,34853.0,52615.0,-657.3909899680601,-424.07091243994466,-1559.885463442734
34853,13301,34853,21748,34853.0,52637.0,-655.3884564177799,-416.2644907166295,-1533.6184364023047
34853,13300,34853,21781,34853.0,52686.0,-652.7660328515533,-407.7880881873436,-1504.9751556507692
34863,13309,34863,21755,34863.0,52702.0,-649.5055310907719,-398.6399895019463,-1473.945596812769
34863,13280,34863,21743,34863.0,52753.0,-645.5894226616297,-388.8200422985494,-1440.5274487806166
34863,13266,34863,21760,34863.0,52712.0,-641.0010963107884,-378.3300763818659,-1404.7262173315899
34863,13253,34863,21750,34863.0,52718.0,-635.7254160859206,-367.1744154733203,-1366.5558431770833
34863,13269,34863,21744,34863.0,52779.0,-629.7493396878273,-355.3602750463065,-1326.0398059180302
34863,13271,34863,21788,34863.0,52836.0,-623.0622960409679,-342.89811288062737,-1283.2119707329614
34873,13282,34873,21809,34873.0,52908.0,-615.6562901178609,-329.80175400945865,-1238.1166508561869
34873,13302,34873,21814,34873.0,52911.0,-607.5258729682196,-316.0881703179838,-1190.8082712703758
34873,13291,34873,21861,34873.0,53017.0,-598.6680703009945,-301.7771915954526,-1141.35119476796
34873,13312,34873,21856,34873.0,53087.0,-589.0823669330721,-286.89128105840774,-1089.8195831465284
34873,13336,34873,21930,34873.0,53159.0,-578.7707350573272,-271.4552573303531,-1036.2968927811305
34873,13366,34873,21913,34873.0,53243.0,-567.7374938557413,-255.49590346575428,-980.8751397860639
34884,13349,34884,21944,34884.0,53305.0,-555.9890064654311,-239.04160994985423,-923.6542356255403
34884,13363,34884,21917,34884.0,53372.0,-543.5335561667462,-222.12233412946955,-864.7414630516305
34884,13362,34884,21938,34884.0,53390.0,-530.381541223181,-204.76994193672903,-804.2512348435067
34884,13363,34884,21997,34884.0,53492.0,-516.5458019192561,-187.0185990410405,-742.305226986022
34884,13390,34884,21969,34884.0,53611.0,-502.041927674765,-168.90483398060442,-679.0324474783329
34884,13401,34884,22030,34884.0,53714.0,-486.88844262769214,-150.46740572875422,-614.5686135248761
34894,13438,34894,22074,34894.0,53824.0,-471.1067882279574,-131.74714855124856,-549.0548997173488
34894,13487,34894,22105,34894.0,53886.0,-454.7210718850023,-112.78653791354196,-482.6366518433724
34894,13500,34894,22129,34894.0,54007.0,-437.7575728823163,-93.62904695068283,-415.46241388942235
34894,13513,34894,22185,34894.0,54115.0,-420.24423548644734,-74.31861794929088,-347.6830915264229
34894,13544,34894,22206,34894.0,54251.0,-402.21043172431183,-54.899176611136085,-279.4508465818765
34894,13559,34894,22220,34894.0,54313.0,-383.6868957880301,-35.414143159955586,-210.9177115526461
34904,13588,34904,22215,34904.0,54383.0,-364.70563079229663,-15.906222193758879,-142.23444743404855
34904,13602,34904,22259,34904.0,54408.0,-345.2997970071424,3.5824471498582966,-73.55013576157285
34904,13610,34904,22265,34904.0,54541.0,-325.5036715961257,23.01010184767199,-5.012366419337695
34904,13628,34904,22273,34904.0,54610.0,-305.35275163817715,42.33528972960755,63.232687870076234
34904,13665,34904,22274,34904.0,54732.0,-284.8839163475412,61.51670502647215,131.04075430497528
34904,13712,34904,22381,34904.0,54780.0,-264.13538425623017,80.5130009504424,198.27023761581722
34915,13733,34915,22398,34915.0,54917.0,-243.14635285971008,99.28313716898356,264.78293697470644
34915,13748,34915,22435,34915.0,54999.0,-221.95657447856706,117.78727969692329,330.4447917783896
34915,13786,34915,22435,34915.0,55081.0,-200.60613824790678,135.9875462266204,395.1267943386647
34915,13815,34915,22480,34915.0,55203.0,-179.13535373972192,153.84828045444436,458.70591393997415
34915,13869,34915,22512,34915.0,55241.0,-157.5844839806264,171.33620470450086,521.0659413190463
34915,13870,34915,22539,34915.0,55313.0,-135.99332251441888,188.42075555900635,582.0981320734934
34925,13882,34925,22504,34925.0,55350.0,-114.4009025999776,205.07439715149343,641.7013977715153
34925,13905,34925,22506,34925.0,55424.0,-92.84555581834354,221.27244563373472,699.7821454249186
34925,13929,34925,22526,34925.0,55448.0,-71.36512454643872,236.99242392595744,756.2540418076105
34925,13970,34925,22524,34925.0,55498.0,-49.99701540018549,252.21346967727175,811.0377097076287
34925,13977,34925,22575,34925.0,55576.0,-28.778058015642443,266.9160804939693,864.0603649904804
34925,14018,34925,22574,34925.0,55649.0,-7.744329853228635,281.0821525955604,915.255710730097
34935,14048,34935,22619,34935.0,55744.0,13.069003574412989,294.6952103223265,964.564341711377
34935,14086,34935,22624,34935.0,55786.0,33.62795361719748,307.7406975615597,1011.9344975305098
34935,14103,34935,22649,34935.0,55833.0,53.900075634328005,320.20624865111733,1057.3227412329331
34935,14142,34935,22694,34935.0,55838.0,73.85479578687915,332.0819614896601,1100.6941806562347
34935,14126,34935,22672,34935.0,55928.0,93.46360138600767,343.36072789126433,1142.0222622189028
34935,14162,34935,22697,34935.0,55901.0,112.7000148378608,354.03845960500155,1181.288504584111
34946,14168,34946,22625,34946.0,55922.0,131.53940675102615,364.11390667218586,1218.4821508079058
34946,14188,34946,22669,34946.0,55924.0,149.9588372736236,373.5880136182451,1253.5994198365147
34946,14215,34946,22628,34946.0,55989.0,167.93698312601555,382.46312922938364,1286.6426066344343
34946,14216,34946,22667,34946.0,55958.0,185.45411464867635,390.74242809333225,1317.6194864191734
34946,14248,34946,22702,34946.0,56021.0,202.49207701312724,398.4297016879393,1346.5429075926722
34946,14271,34946,22717,34946.0,56054.0,219.03428837952885,405.52961403378094,1373.4304577784633
34956,14288,34956,22693,34956.0,56066.0,235.06584868135036,412.04816275132214,1398.304402906212
34956,14308,34956,22719,34956.0,56080.0,250.57371100563023,417.99283134512325,1421.1917287893348
34956,14315,34956,22721,34956.0,56122.0,265.5467845099861,423.37247299381875,1442.1240133033248
34956,14356,34956,22769,34956.0,56137.0,279.9759875126779,428.1973627269567,1461.1373286447342
34956,14354,34956,22751,34956.0,56152.0,293.85436039611284,432.4795411484141,1478.272302172173
34956,14334,34956,22722,34956.0,56111.0,307.1771252908276,436.23308510298637,1493.574029086356
34967,14358,34967,22709,34967.0,56099.0,319.9414337324282,439.4738617022663,1507.0914895866135
34967,14352,34967,22674,34967.0,56098.0,332.145929945705,442.21880978079525,1518.8765479827744
34967,14355,34967,22682,34967.0,56096.0,343.79040912839787,444.4851186194229,1528.982995625393
34967,14392,34967,22711,34967.0,56108.0,354.87559102317346,446.289653502673,1537.46592538486
34967,14391,34967,22742,34967.0,56113.0,365.4030654538526,447.6489473092645,1544.3813954785023
34967,14417,34967,22703,34967.0,56145.0,375.37542801886616,448.5796402162705,1549.786328255473
34977,14416,34977,22725,34977.0,56123.0,384.7964298281132,449.0987720069942,1553.738595585317
34977,14456,34977,22732,34977.0,56140.0,393.67109870097704,449.22376049656816,1556.2970947347108
34977,14444,34977,22766,34977.0,56180.0,402.00591872333587,448.9725046686958,1557.5217825060122
34977,14454,34977,22738,34977.0,56154.0,409.80898502801756,448.3637637367831,1557.473898460275
34977,14449,34977,22720,34977.0,56132.0,417.0899696681688,447.41739668582,1556.2161911269936
34977,14451,34977,22661,34977.0,56087.0,423.85992665582387,446.15404682558244,1553.812635244742
34987,14435,34987,22669,34987.0,56083.0,430.13102490045674,444.59431523988883,1550.327646104609
34987,14448,34987,22688,34987.0,56056.0,435.91621881434844,442.7579668541207,1545.8252361799605
34987,14444,34987,22700,34987.0,56066.0,441.2289432171682,440.66372296252916,1540.3684155298688
34987,14445,34987,22680,34987.0,56061.0,446.0829171226412,438.3295343472777,1534.0189006992805
34987,14464,34987,22673,34987.0,56054.0,450.49203169285363,435.7727697663223,1526.8370754441971
34987,14470,34987,22711,34987.0,56041.0,454.4703542988249,433.0101856624268,1518.8820232018013
34998,14471,34998,22706,34998.0,56052.0,458.03225633411375,430.058065083498,1510.2115160261133
34998,14472,34998,22719,34998.0,56095.0,461.1925125478447,426.9326385976427,1500.8821685449936
34998,14482,34998,22705,34998.0,56057.0,463.96630262609017,423.6504709722652,1490.9499493442167
34998,14485,34998,22698,34998.0,56016.0,466.3692177536958,420.2286107158185,1480.4706229628378
34998,14484,34998,22660,34998.0,55978.0,468.4173141644459,416.6844695651978,1469.4995176203136
34998,14459,34998,22624,34998.0,55968.0,470.12708568215874,413.03536256362133,1458.090764606934
35007,14453,35007,22623,35007.0,55892.0,471.51520498088564,409.2977648371437,1446.296495274088
35007,14441,35007,22584,35007.0,55938.0,472.5980795811296,405.4865658168684,1434.1661234046496
35007,14458,35007,22610,35007.0,55882.0,473.39145680056004,401.6145288276236,1421.7458529494754
35007,14472,35007,22645,35007.0,55903.0,473.91029974333014,397.6921235379809,1409.0785309628886
35007,14476,35007,22675,35007.0,55942.0,474.16897024824937,393.72797572984905,1396.203785559161
35007,14476,35007,22645,35007.0,55903.0,474.18151796329926,389.7297154822292,1383.158516309012
35017,14478,35017,22677,35017.0,55895.0,473.96186258939406,385.70461029465054,1369.9774585403607
35017,14497,35017,22686,35017.0,55899.0,473.5238991925545,381.6599039693593,1356.6933832222303
35017,14489,35017,22666,35017.0,55896.0,472.8816657690369,377.60316861492964,1343.3371660560265
35017,14456,35017,22642,35017.0,55869.0,472.0494633322468,373.54251573040045,1329.9379938669056
35017,14455,35017,22592,35017.0,55817.0,471.0416589137917,369.48630995011877,1316.5234037393438
35017,14464,35017,22568,35017.0,55806.0,469.8722863712916,365.44239531046037,1303.118880753385
35028,14450,35028,22606,35028.0,55797.0,468.55481893066167,361.41725066363523,1289.747280567842
35028,14429,35028,22626,35028.0,55795.0,467.1020765867952,357.41570741791014,1276.4285293462274
35028,14437,35028,22586,35028.0,55800.0,465.5260068714888,353.4413103479173,1263.1796994540598
35028,14448,35028,22651,35028.0,55775.0,463.8374600005195,349.4967405102367,1250.0152639837954
35028,14446,35028,22618,35028.0,55797.0,462.0462150282584,345.5841402708789,1236.9473474195017
35028,14444,35028,22624,35028.0,55819.0,460.1611615452224,341.7054759410594,1223.9860610133442
35038,14461,35038,22623,35038.0,55792.0,458.19044839581977,337.86273962368233,1211.1400783030863
35038,14462,35038,22653,35038.0,55777.0,456.1416578146175,334.0580488914839,1198.4171549750602
35038,14462,35038,22609,35038.0,55755.0,454.02205530818003,330.2938789807979,1185.824228518575
35038,14440,35038,22578,35038.0,55711.0,451.8387490904813,326.57311982612777,1173.367162179269
35038,14436,35038,22588,35038.0,55710.0,449.59860705732444,322.89865834685924,1161.050307031261
35038,14410,35038,22556,35038.0,55715.0,447.3079695225158,319.2728279055476,1148.8761207837406
35048,14422,35048,22578,35048.0,55693.0,444.9723011820049,315.6970790017693,1136.8451062706038
35048,14425,35048,22565,35048.0,55689.0,442.59596828814824,312.1718630367904,1124.9559400287364
35048,14439,35048,22575,35048.0,55689.0,440.1822865683896,308.6966764881416,1113.2055582224748
35048,14435,35048,22566,35048.0,55710.0,437.7337770124551,305.27017845991406,1101.5893254266216
35048,14430,35048,22589,35048.0,55687.0,435.25241288126574,301.89032293600167,1090.1014199301953
35048,14454,35048,22609,35048.0,55713.0,432.7397708336973,298.5546272002716,1078.7352819048024
35059,14471,35059,22612,35059.0,55690.0,430.197268239081,295.2606614812517,1067.4839991503773
35059,14470,35059,22578,35059.0,55687.0,427.62661613847956,292.00650895505754,1056.3406144361295
35059,14424,35059,22608,35059.0,55687.0,425.03018424697063,288.7908885749947,1045.2983101351847
35059,14412,35059,22570,35059.0,55652.0,422.41085498246656,285.6130642342876,1034.3504885896236
35059,14411,35059,22548,35059.0,55665.0,419.77146965646284,282.4726779167877,1023.4907625922854
35059,14414,35059,22558,35059.0,55618.0,417.11438481122974,279.36939353517704,1012.7128501291492
35069,14406,35069,22539,35069.0,55650.0,414.44135717940713,276.3025133704667,1002.0104464448796
35069,14400,35069,22576,35069.0,55670.0,411.7535507746384,273.2708524722211,991.3772982690391
35069,14431,35069,22558,35069.0,55657.0,409.0515567770131,270.27289330521,980.8076827772057
35069,14410,35069,22556,35069.0,55668.0,406.33555164569725,267.3070365213478,970.2970385193239
35069,14427,35069,22550,35069.0,55615.0,403.6055549874149,264.37169898683464,959.8423214899706
35069,14417,35069,22583,35069.0,55611.0,400.86161313312306,261.4653198258428,949.4419407763337
35079,14438,35079,22590,35079.0,55651.0,398.1039428229326,258.58659832462615,939.0955288707908
35079,14429,35079,22595,35079.0,55611.0,395.3331402286856,255.7349900510482,928.8040303690747
35079,14421,35079,22575,35079.0,55602.0,392.5503844748457,252.9111273125784,918.5700058560088
35079,14402,35079,22530,35079.0,55547.0,389.75745957351893,250.11683005280642,908.3975762121182
35079,14394,35079,22510,35079.0,55532.0,386.95654211945555,247.35459181464358,898.2918919084996
35079,14395,35079,22506,35079.0,55510.0,384.1499105163769,244.62678963530033,888.2584408393537
35090,14387,35090,22500,35090.0,55541.0,381.3397557790878,241.9350690909893,878.3025810644504
35090,14394,35090,22529,35090.0,55529.0,378.52812622044223,239.28012905538125,868.4295593492184
35090,14400,35090,22521,35090.0,55535.0,375.71697762180787,236.6618696954706,858.6448837884338
35090,14409,35090,22567,35090.0,55531.0,372.90834905744174,234.07979035243417,848.9547123790276
35090,14399,35090,22550,35090.0,55540.0,370.10461573822323,231.53352600058327,839.3661622437746
35090,14389,35090,22591,35090.0,55558.0,367.30864679030446,229.02341705944394,829.8876769131048
35100,14396,35100,22572,35100.0,55513.0,364.5237889652804,226.5510235185071,820.5294494052869
35100,14396,35100,22528,35100.0,55462.0,361.75382594367414,224.11940526946012,811.3035142971335
35100,14362,35100,22519,35100.0,55475.0,359.0029799067009,221.73288324862017,802.2232514436055
35100,14372,35100,22465,35100.0,55451.0,356.2757791919628,219.39631974464788,793.3027643924054
35100,14357,35100,22503,35100.0,55406.0,353.57679594629195,217.1143204602622,784.5565135267743
35100,14347,35100,22463,35100.0,55416.0,350.91043576703834,214.890708283937,775.998942427604
35110,14347,35110,22514,35110.0,55419.0,348.2807710926659,212.72837183980948,767.6441050875363
35110,14347,35110,22497,35110.0,55363.0,345.6914020134328,210.6294178647689,759.5055343357108
35110,14362,35110,22504,35110.0,55385.0,343.145457700217,208.59547958623267,751.5961021044504
35110,14351,35110,22504,35110.0,55425.0,340.64575654853985,206.6279563962661,743.927879196633
35110,14356,35110,22522,35110.0,55407.0,338.19498934599517,204.72815643327345,736.5124717326388
35110,14377,35110,22538,35110.0,55435.0,335.7958687054579,202.89755046499374,729.3617043632458
35121,14361,35121,22528,35121.0,55370.0,333.4513458599011,201.1381653579796,722.4880791769554
35121,14348,35121,22520,35121.0,55325.0,331.16480366107305,199.4528762587766,715.9046395731216
35121,14336,35121,22467,35121.0,55342.0,328.93998688655654,197.8453262399758,709.6242386977841
35121,14331,35121,22429,35121.0,55323.0,326.7807223632918,196.31931951774345,703.6588110475503
35121,14331,35121,22471,35121.0,55327.0,324.69066556426924,194.87791276358845,698.01911633536
35121,14319,35121,22472,35121.0,55277.0,322.67316057800315,193.52289043706875,692.7146557275795
35131,14333,35131,22482,35131.0,55331.0,320.7311728607627,192.25492558063337,687.7534646436451
35131,14327,35131,22506,35131.0,55308.0,318.86729871189493,191.074019251498,683.142038823916
35131,14327,35131,22485,35131.0,55307.0,317.0838513761379,189.9798988164613,678.8855431598585
35131,14336,35131,22501,35131.0,55321.0,315.38295488170735,188.97228403613406,674.9880157064002
35131,14345,35131,22520,35131.0,55333.0,313.7666718458876,188.05104118002978,671.4525323020946
35131,14321,35131,22497,35131.0,55278.0,312.2371793433175,187.21638707503723,668.2814126109843
35141,14314,35141,22480,35141.0,55286.0,310.7967944443967,186.46900749989373,665.476141666154
35141,14301,35141,22471,35141.0,55270.0,309.44774007302055,185.80982683510095,663.0369420818552
35141,14287,35141,22442,35141.0,55269.0,308.19179681899215,185.23953822941087,660.9623894903949
35141,14302,35141,22464,35141.0,55281.0,307.03000051137474,184.758133057335,659.2492472642082
35141,14316,35141,22440,35141.0,55256.0,305.96254334884327,184.36458143024262,657.8924355753006
35141,14319,35141,22460,35141.0,55307.0,304.9889736691261,184.05670019286475,656.8850741852557
35152,14311,35152,22495,35152.0,55294.0,304.1085020961899,183.83121855891835,656.2186861478581
35152,14331,35152,22483,35152.0,55291.0,303.3201894437407,183.68413252174582,655.8835424056672
35152,14338,35152,22490,35152.0,55299.0,302.6231074641033,183.6111599354386,655.8688622062135
35152,14325,35152,22522,35152.0,55298.0,302.01657972646944,183.60803735433447,656.1628311979573
35152,14344,35152,22548,35152.0,55351.0,301.50036908615607,183.6708854191956,656.7527309908618
35152,14304,35152,22521,35152.0,55353.0,301.0747105784262,183.79677850986135,657.6253930494568
35162,14309,35162,22500,35162.0,55304.0,300.740155340959,183.98406344730034,658.7677324536112
35162,14295,35162,22466,35162.0,55305.0,300.49723972559633,184.23205699643765,660.1667609036067
35162,14276,35162,22442,35162.0,55265.0,300.34612124599533,184.54028817145405,661.8089903487595
35162,14275,35162,22417,35162.0,55289.0,300.28622182354593,184.9076010753588,663.679717404725
35162,14263,35162,22434,35162.0,55296.0,300.315868213527,185.331361147499,665.7625876758573
35162,14311,35162,22469,35162.0,55330.0,300.43210165063476,185.80707854293863,668.0396165266649
35172,14313,35172,22488,35172.0,55313.0,300.6308793781958,186.3286652708822,670.4915474316614
35172,14323,35172,22510,35172.0,55332.0,300.9075932764409,186.8891238626366,673.0981842120997
35172,14321,35172,22515,35172.0,55366.0,301.2575313268916,187.48126099028855,675.8386046857544
35172,14325,35172,22527,35172.0,55383.0,301.67609789736935,188.09821983288379,678.69153564998
35172,14327,35172,22541,35172.0,55385.0,302.1589022763147,188.73385772214723,681.6359262943552
35172,14317,35172,22517,35172.0,55399.0,302.701796551597,189.38301582828424,684.6514090706415
35183,14296,35183,22477,35183.0,55354.0,303.3007921454763,190.04149489929733,687.7184463222794
35183,14314,35183,22473,35183.0,55331.0,303.95181466693623,190.7055429451622,690.8180317880838
35183,14295,35183,22471,35183.0,55347.0,304.65046315784923,191.37114035284495,693.9309982085398
35183,14306,35183,22500,35183.0,55376.0,305.3918892195087,192.03359456164887,697.0374800831623
35183,14299,35183,22491,35183.0,55373.0,306.17072533402154,192.6875921653751,700.1169490894446
35183,14325,35183,22488,35183.0,55395.0,306.98107670418074,193.32742122606078,703.1485597226969
35193,14333,35193,22522,35193.0,55398.0,307.8166921364967,193.94711100426207,706.1114557135273
35193,14330,35193,22532,35193.0,55432.0,308.6712817757651,194.54065118427,708.9850581279601
35193,14334,35193,22582,35193.0,55431.0,309.5387714228723,195.1025194619866,711.749443075484
35193,14334,35193,22549,35193.0,55447.0,310.413392449761,195.62838614022834,714.3857469481849
35193,14331,35193,22510,35193.0,55455.0,311.2896925018472,196.11550211470552,716.876484476741
35193,14321,35193,22464,35193.0,55408.0,312.1624934821867,196.56229278996565,719.2056810453648
35204,14322,35204,22531,35204.0,55367.0,313.0267605673846,196.96746157586185,721.3585466276478
35204,14302,35204,22490,35204.0,55373.0,313.8774006379288,197.32948941138255,723.3206007971696
35204,14301,35204,22478,35204.0,55420.0,314.7090004071496,197.64662345578031,725.0768786756303
35204,14305,35204,22458,35204.0,55412.0,315.5155489389346,197.91667503134127,726.6118719540032
35204,14333,35204,22505,35204.0,55429.0,316.2903329377702,198.1365965216094,727.9099727444262
35204,14320,35204,22535,35204.0,55459.0,317.02611631056175,198.30248691102432,728.9559128058197
35214,14353,35214,22515,35214.0,55445.0,317.71545243636007,198.41016772297496,729.7351682837498
35214,14340,35214,22539,35214.0,55455.0,318.35098366597646,198.45576485951725,730.2343142605205
35214,14343,35214,22523,35214.0,55489.0,318.9256776945407,198.43595850935898,730.4412526767915
35214,14357,35214,22534,35214.0,55474.0,319.43294842451814,198.34806111752098,730.3455063053542
35214,14352,35214,22535,35214.0,55427.0,319.86674451606495,198.19006518128728,729.9384577391947
35214,14340,35214,22495,35214.0,55411.0,320.2216422625659,197.96062250780037,729.2130500619451
35224,14328,35224,22489,35224.0,55412.0,320.4927750176919,197.6587789355373,728.1630466195588
35224,14320,35224,22468,35224.0,55446.0,320.67555685229047,197.28343218781168,726.7825240246499
35224,14323,35224,22505,35224.0,55418.0,320.7653685697742,196.8328488318312,725.0659102511505
35224,14348,35224,22495,35224.0,55406.0,320.75741467431254,196.3045682261053,723.0081652910328
35224,14347,35224,22533,35224.0,55396.0,320.64687488884334,195.69567732346422,720.6046552858008
35224,14350,35224,22507,35224.0,55458.0,320.4292208579316,195.0032155834464,717.8509590922024
35235,14341,35235,22511,35235.0,55399.0,320.1004290330983,194.22444497591894,714.743052647432
35235,14348,35235,22519,35235.0,55469.0,319.6570150059801,193.35689005256202,711.2777093749003
35235,14365,35235,22574,35235.0,55439.0,319.09605536189594,192.3984517289734,707.4528718835578
35235,14348,35235,22511,35235.0,55434.0,318.4153307298288,191.3478275806769,703.2680092223178
35235,14330,35235,22524,35235.0,55419.0,317.6134221529869,190.20479754616193,698.7242533296911
35235,14331,35235,22497,35235.0,55387.0,316.68954228938424,188.97000271218192,693.8241871975828
35245,14320,35245,22439,35245.0,55324.0,315.64323303093335,187.64440337194452,688.5713231632428
35245,14318,35245,22475,35245.0,55347.0,314.47414205940424,186.22857014474502,682.969279346212
35245,14302,35245,22467,35245.0,55351.0,313.1818540723355,184.72210359731608,677.0210912465978
35245,14324,35245,22506,35245.0,55361.0,311.7657402653805,183.12360531087927,670.7291521793226
35245,14318,35245,22495,35245.0,55354.0,310.22494143720047,181.43109517386705,664.0955820972957
35245,14333,35245,22521,35245.0,55341.0,308.55853735277054,179.64250662395773,657.1225511703105
35255,14331,35255,22521,35255.0,55381.0,306.76579513294683,177.75611621167909,649.8124770945012
35255,14351,35255,22541,35255.0,55356.0,304.8464339602727,175.7709459950113,642.1683328290167
35255,14335,35255,22534,35255.0,55364.0,302.80090611941876,173.68715905035623,634.1940666971799
35255,14314,35255,22486,35255.0,55321.0,300.630552716574,171.50626396727756,625.8948251189752
35255,14325,35255,22446,35255.0,55299.0,298.337494423985,169.23078833527111,617.2767977309168
35255,14287,35255,22457,35255.0,55278.0,295.9243786291803,166.86344748622963,608.3467616261194
35266,14283,35266,22451,35266.0,55262.0,293.3940780372347,164.4064054157365,599.1115633155607
35266,14282,35266,22475,35266.0,55249.0,290.7493285019051,161.8610629024492,589.5777365187798
35266,14295,35266,22429,35266.0,55309.0,287.9925043203609,159.2281724113733,579.7514134139574
35266,14284,35266,22457,35266.0,55265.0,285.1256745882677,156.50786892107914,569.6387051961188
35266,14299,35266,22478,35266.0,55233.0,282.15078471119693,153.69964700443956,559.2461955634172
35266,14300,35266,22505,35266.0,55240.0,279.06985169758076,150.8026888987257,548.5809539769601
35276,14294,35276,22502,35276.0,55268.0,275.88518530808295,147.81655571718466,537.6503679854434
35276,14294,35276,22546,35276.0,55259.0,272.5995601143081,144.74189981063614,526.4624399462211
35276,14280,35276,22457,35276.0,55233.0,269.21626553471276,141.5809615073593,515.0263536195123
35276,14263,35276,22442,35276.0,55156.0,265.7390276847962,138.33748188713258,503.3526081389243
35276,14258,35276,22439,35276.0,55162.0,262.17179888765605,135.01594652173455,491.45245192627186
35276,14255,35276,22433,35276.0,55139.0,258.51851388786497,131.62084003623374,479.33710595231724
35286,14246,35286,22405,35286.0,55132.0,254.78294620784925,128.1563100264305,467.0173527436108
35286,14227,35286,22427,35286.0,55108.0,250.96861392778385,124.62596699163916,454.50344422974536
35286,14235,35286,22451,35286.0,55105.0,247.07862953451541,121.03282824558491,441.8050488086809
35286,14250,35286,22429,35286.0,55081.0,243.11561919632254,117.37961008222291,428.9311968211673
35286,14246,35286,22445,35286.0,55112.0,239.081897543433,113.66911108283863,415.89032327958756
35286,14249,35286,22437,35286.0,55114.0,234.97978858514062,109.90441529276237,402.6905836167566
35297,14256,35297,22446,35297.0,55096.0,230.81189435912293,106.08903052395542,389.3404401486464
35297,14222,35297,22459,35297.0,55096.0,226.58126063938707,102.22709726824948,375.8491789916092
35297,14233,35297,22402,35297.0,55053.0,222.29137080870032,98.32357906033761,362.22712442181773
35297,14196,35297,22380,35297.0,54971.0,217.94595767704124,94.38409619372999,348.485428946807
35297,14190,35297,22363,35297.0,54949.0,213.5487140831005,90.41427108986338,334.63525662081884
35297,14186,35297,22358,35297.0,54967.0,209.10295882494424,86.41900607812272,320.68675185067923
35307,14172,35307,22378,35307.0,54930.0,204.61137922645662,82.40211232188537,306.648550208444
35307,14188,35307,22372,35307.0,54957.0,200.07593320668235,78.36634640040953,292.52786937653525
35307,14163,35307,22347,35307.0,54939.0,195.49787029117545,74.31360955337362,278.33080757905157
35307,14199,35307,22378,35307.0,54917.0,190.87783304977745,70.24501808111123,264.06268533659295
35307,14176,35307,22379,35307.0,54921.0,186.21605915433122,66.16097637747026,249.7282704649814
35307,14193,35307,22400,35307.0,54938.0,181.51265772264384,62.06152170931864,235.33195899135717
35317,14187,35317,22416,35317.0,54955.0,176.76785874991845,57.94687191701283,220.87825585579822
35317,14188,35317,22370,35317.0,54907.0,171.9822234763447,53.81792103794834,206.37248643825637
35317,14160,35317,22357,35317.0,54844.0,167.15677925189016,49.6763408311146,191.8211114014331
35317,14163,35317,22332,35317.0,54838.0,162.29296352534556,45.52417281983173,177.2312743302191
35317,14145,35317,22345,35317.0,54825.0,157.39243561113594,41.36328923647517,162.61008991121275
35317,14142,35317,22327,35317.0,54771.0,152.45690594294894,37.19509517206393,147.96423299430603
35328,14126,35328,22330,35328.0,54770.0,147.48799895131967,33.020453660459054,133.29965022244323
35328,14124,35328,22341,35328.0,54770.0,142.4871151075283,28.83970413463402,118.62126449713594
35328,14123,35328,22364,35328.0,54803.0,137.45533053225586,24.652851126391283,103.93305254389918
35328,14136,35328,22353,35328.0,54740.0,132.39342923778744,20.459985929087424,89.2385541002709
35328,14135,35328,22355,35328.0,54777.0,127.30212058314729,16.2617125367415,74.54132284894911
35328,14118,35328,22350,35328.0,54771.0,122.18231846577649,12.05936535968786,59.845203619046515
35338,14141,35338,22348,35338.0,54740.0,117.0353183007417,7.855083450976053,45.15471500259616
35338,14101,35338,22336,35338.0,54717.0,111.86289199048133,3.6518403594301105,30.475338928616907
35338,14086,35338,22270,35338.0,54694.0,106.66725227112642,-0.5467100971256968,15.813425626358821
35338,14069,35338,22290,35338.0,54634.0,101.45074269410628,-4.736762461483693,1.1758311721332575
35338,14063,35338,22255,35338.0,54603.0,96.2154089999473,-8.915034102040607,-13.430672109792681
35338,14053,35338,22250,35338.0,54593.0,90.96270275295174,-13.079237549629084,-28.00014177963942
35348,14060,35348,22277,35348.0,54612.0,85.69335562405425,-17.22832652158857,-42.527931039068335
35348,14066,35348,22272,35348.0,54574.0,80.4074262989979,-21.36245499324116,-57.0106213389987
35348,14082,35348,22309,35348.0,54594.0,75.10455641241958,-25.482590665089532,-71.44571947833856
35348,14074,35348,22322,35348.0,54588.0,69.78437681279803,-29.58990627408801,-85.83135406292536
35348,14067,35348,22272,35348.0,54587.0,64.44686988614595,-33.68517740715538,-100.16587225321007
35348,14064,35348,22331,35348.0,54608.0,59.09253616514863,-37.76848629798877,-114.44731461106903
35359,14052,35359,22294,35359.0,54546.0,53.72241378889282,-41.83911218950146,-128.67291381871712
35359,14035,35359,22265,35359.0,54501.0,48.33802364834611,-45.8954180340956,-142.8389775645037
35359,14021,35359,22261,35359.0,54492.0,42.9412057802507,-49.93503306612857,-156.94138234621573
35359,13998,35359,22216,35359.0,54477.0,37.53383684270926,-53.9553758193953,-170.97621083196827
35359,14010,35359,22240,35359.0,54445.0,32.11752372983062,-57.954195890135,-184.94006745433262
35359,13993,35359,22245,35359.0,54457.0,26.693427069463837,-61.929875487601635,-198.83019176218306
35369,14015,35369,22270,35369.0,54438.0,21.26228740651851,-65.88128847096903,-212.64446273265173
35369,14029,35369,22240,35369.0,54448.0,15.824664150708486,-69.80736465876754,-226.3812131887289
35369,13994,35369,22243,35369.0,54413.0,10.381320477061308,-73.70680467026276,-240.03895760699413
35369,13996,35369,22233,35369.0,54406.0,4.933446550226506,-77.57809914058603,-253.61623979588978
35369,13998,35369,22251,35369.0,54393.0,-0.5173983558252075,-81.4196014134094,-267.1116429967742
35369,14001,35369,22255,35369.0,54400.0,-5.969305136878518,-85.22940484443046,-280.5237762783265
35379,13997,35379,22212,35379.0,54357.0,-11.419839762995878,-89.00512798102415,-293.8511401365338
35379,13952,35379,22203,35379.0,54322.0,-16.865920766591387,-92.74398206949365,-307.09213240938914
35379,13937,35379,22180,35379.0,54321.0,-22.304044857204644,-96.44322012857634,-320.24538073947406
35379,13929,35379,22185,35379.0,54303.0,-27.73080814444438,-100.10063983336647,-333.310104150534
35379,13912,35379,22154,35379.0,54280.0,-33.1433709514057,-103.71492375545631,-346.2862487940574
35379,13927,35379,22164,35379.0,54336.0,-38.53968621329989,-107.28589392675812,-359.1744221774661
35390,13936,35390,22215,35390.0,54255.0,-43.91847333786626,-110.81459172390339,-371.9755975486995
35390,13933,35390,22192,35390.0,54284.0,-49.27893557222245,-114.30291392612665,-384.69082317599543
35390,13936,35390,22202,35390.0,54271.0,-54.620394962356215,-117.75302550363139,-397.32116315476037
35390,13924,35390,22222,35390.0,54267.0,-59.94203921406887,-121.16697001593045,-409.8675762754574
35390,13923,35390,22226,35390.0,54264.0,-65.24280476757508,-124.54634804034427,-422.3306195965687
35390,13918,35390,22203,35390.0,54234.0,-70.5213374281497,-127.89194214872771,-434.7102094261827
35400,13885,35400,22202,35400.0,54199.0,-75.77601844732521,-131.20356361129575,-447.00561374033487
35400,13882,35400,22140,35400.0,54175.0,-81.00514716637815,-134.4802827020511,-459.2157671115359
35400,13873,35400,22127,35400.0,54130.0,-86.20724384650487,-137.72103856189375,-471.3398191268759
35400,13863,35400,22136,35400.0,54180.0,-91.38127441456692,-140.9254262703367,-483.37762491195576
35400,13849,35400,22157,35400.0,54146.0,-96.52677895698116,-144.09413700934533,-495.3298155410338
35400,13855,35400,22144,35400.0,54157.0,-101.64399303770944,-147.22883074269697,-507.19745441194004
35410,13864,35410,22162,35410.0,54152.0,-106.73387078826602,-150.33179958704625,-518.9816580070703
35410,13869,35410,22138,35410.0,54121.0,-111.79788429373355,-153.40573752512853,-530.6833429120784
35410,13862,35410,22163,35410.0,54108.0,-116.83769031539123,-156.45362651022737,-542.3031496566687
35410,13860,35410,22188,35410.0,54123.0,-121.85486870332656,-159.47855472043767,-553.8415210918454
35410,13852,35410,22198,35410.0,54140.0,-126.85080530452467,-162.48324831025366,-565.2985770897533
35410,13848,35410,22200,35410.0,54098.0,-131.82666063138367,-165.46942989541674,-576.6736621115717
35421,13814,35421,22136,35421.0,54055.0,-136.78342424786393,-168.43745902732957,-587.9650877659299
35421,13825,35421,22098,35421.0,54034.0,-141.7221115000633,-171.38667351477005,-599.170485245977
35421,13813,35421,22133,35421.0,54037.0,-146.64398720652133,-174.316269680323,-610.2874196205782
35421,13814,35421,22110,35421.0,53999.0,-151.5506381873725,-177.22594445771801,-621.3137560767866
35421,13813,35421,22112,35421.0,54006.0,-156.44392089996757,-180.11599376743231,-632.2478024742827
35421,13826,35421,22125,35421.0,53980.0,-161.32583472452313,-182.98724763590718,-643.0884164865022
35431,13817,35431,22142,35431.0,54041.0,-166.19829251145944,-185.84092704647435,-653.8349438205578
35431,13804,35431,22139,35431.0,53988.0,-171.0628976108942,-188.67829095745395,-664.4868054239303
35431,13796,35431,22129,35431.0,54011.0,-175.92090136600865,-191.50027177766816,-675.0429765536276
35431,13815,35431,22168,35431.0,53985.0,-180.77326411980926,-194.30725711409195,-685.5016997441073
35431,13805,35431,22120,35431.0,53963.0,-185.6205728035007,-197.09889027276273,-695.860413501829
35431,13789,35431,22107,35431.0,53919.0,-190.46284543379545,-199.8740068791377,-706.1159069060782
35442,13779,35442,22093,35442.0,53878.0,-195.29949570470194,-202.63096464185872,-716.2648438829024
35442,13757,35442,22098,35442.0,53842.0,-200.12952648119864,-205.36812344864683,-726.3045904684354
35442,13759,35442,22070,35442.0,53844.0,-204.95180650552925,-208.08414395335933,-736.2340618410217
35442,13732,35442,22065,35442.0,53855.0,-209.76532106533938,-210.77821398319554,-746.0542067167319
35442,13733,35442,22083,35442.0,53878.0,-214.56939463402568,-213.45029184971935,-755.7678903419524
35442,13758,35442,22122,35442.0,53881.0,-219.3638207555025,-216.1010711260638,-765.3792974790922
35452,13743,35452,22101,35452.0,53876.0,-224.1487251560555,-218.73149892578692,-774.8932215958832
35452,13753,35452,22117,35452.0,53857.0,-228.92424304179775,-221.34221800720144,-784.3145780955249
35452,13753,35452,22111,35452.0,53865.0,-233.69024938124375,-223.93326659341443,-793.6482142966336
35452,13742,35452,22112,35452.0,53871.0,-238.44616443515196,-226.50393673146579,-802.8987832838907
35452,13724,35452,22081,35452.0,53835.0,-243.19086287408305,-229.05273048127856,-812.070523628543
35452,13723,35452,22050,35452.0,53798.0,-247.92276947708513,-231.57759406845997,-821.1672180342787
35462,13679,35462,22032,35462.0,53781.0,-252.64009895004392,-234.0765028997336,-830.1925938561367
35462,13687,35462,22008,35462.0,53762.0,-257.3412115803264,-236.5481991758627,-839.1509245456257
35462,13676,35462,22018,35462.0,53755.0,-262.024985619609,-238.99281705130198,-848.0474757223085
35462,13682,35462,22057,35462.0,53779.0,-266.6909919307921,-241.41214240896932,-856.8886581172751
35462,13685,35462,22049,35462.0,53794.0,-271.33943450712815,-243.80934332236382,-865.6817799617252
35462,13672,35462,22087,35462.0,53762.0,-275.9709904441222,-246.18837352262938,-874.4344998048343
35473,13680,35473,22070,35473.0,53758.0,-280.5866748311634,-248.55338268928966,-883.1544389163328
35473,13671,35473,22071,35473.0,53774.0,-285.1877548287686,-250.90829939062786,-891.8491088596538
35473,13693,35473,22102,35473.0,53772.0,-289.77561981096915,-253.25659868894633,-900.525773536245
35473,13667,35473,22079,35473.0,53795.0,-294.3515670610222,-255.6010701308603,-909.1910329736493
35473,13659,35473,22086,35473.0,53745.0,-298.9166588053666,-257.9435637538645,-917.8503532621862
35473,13644,35473,22018,35473.0,53705.0,-303.4718144672922,-260.28502162641064,-926.5079694379358
35483,13633,35483,22022,35483.0,53665.0,-308.0180591812379,-262.6259830661633,-935.1674282676104
35483,13627,35483,22000,35483.0,53673.0,-312.55676663883764,-264.96733684352813,-943.83245307023
35483,13632,35483,22010,35483.0,53627.0,-317.0898112352241,-267.3108913163636,-952.5075961911634
35483,13641,35483,22044,35483.0,53708.0,-321.6195444742763,-269.6595216376838,-961.1984685344537
35483,13648,35483,22053,35483.0,53665.0,-326.14856117069695,-272.0168494546008,-969.9114589850738
35483,13629,35483,22036,35483.0,53680.0,-330.6793869183926,-274.3866796421021,-978.6531378215545
35493,13635,35493,22067,35493.0,53670.0,-335.2142951887505,-276.772594657405,-987.4298275887154
35493,13635,35493,22077,35493.0,53699.0,-339.7552580285259,-279.17767199574894,-996.247339203094
35493,13647,35493,22081,35493.0,53655.0,-344.3038319626524,-281.6040615553169,-1005.1106241767848
35493,13622,35493,22038,35493.0,53636.0,-348.8609446380731,-284.05262518932585,-1014.0235775287122
35493,13602,35493,22011,35493.0,53593.0,-353.42682298343,-286.5230694307085,-1022.9893069255841
35493,13583,35493,21988,35493.0,53600.0,-358.00124296629184,-289.0146017154751,-1032.0107019801094
35504,13582,35504,21991,35504.0,53530.0,-362.58394915987554,-291.52669929221355,-1041.0909899244052
35504,13566,35504,21971,35504.0,53550.0,-367.17498103923026,-294.05963061225384,-1050.234267438946
35504,13567,35504,21981,35504.0,53557.0,-371.7748493471972,-296.6147211145691,-1059.445907340465
35504,13582,35504,22003,35504.0,53556.0,-376.3845807402669,-299.19441196172306,-1068.732514174867
35504,13570,35504,22025,35504.0,53566.0,-381.0055821291686,-301.801990261194,-1078.101505444016
35504,13572,35504,22017,35504.0,53543.0,-385.6394177744181,-304.4410372429659,-1087.560688598435
35514,13586,35514,22028,35514.0,53560.0,-390.2876286127529,-307.11492213614815,-1097.1179792706728
35514,13570,35514,22064,35514.0,53546.0,-394.95153508028034,-309.82643068019473,-1106.781183601521
35514,13569,35514,22014,35514.0,53538.0,-399.632047670906,-312.5773763902199,-1116.557775601751
35514,13562,35514,22048,35514.0,53511.0,-404.3296066133905,-315.36834019946116,-1126.4547806050468
35514,13524,35514,21979,35514.0,53522.0,-409.0442688527174,-318.19874079497845,-1136.478829331531
35514,13516,35514,21975,35514.0,53457.0,-413.7759969608702,-321.0672315795985,-1146.636299363053
35524,13519,35524,21942,35524.0,53481.0,-418.5250771180214,-323.9723736801426,-1156.9335680983231
35524,13509,35524,21973,35524.0,53463.0,-423.2923727222945,-326.91328755052086,-1167.3772798408743
35524,13523,35524,21959,35524.0,53478.0,-428.079320525177,-329.88991084463925,-1177.9743394437755
35524,13505,35524,21978,35524.0,53460.0,-432.8878048535296,-332.90287877312204,-1188.7316444392775
35524,13516,35524,21976,35524.0,53460.0,-437.72002320176585,-335.9532657452049,-1199.6558023267485
35524,13526,35524,21993,35524.0,53448.0,-442.5783390886746,-339.0422914883339,-1210.752940057004
35535,13515,35535,22031,35535.0,53485.0,-447.46504318630764,-342.1709086438291,-1222.0284881282325
35535,13506,35535,21985,35535.0,53503.0,-452.38212181043093,-345.3392616874264,-1233.4866679228132
35535,13504,35535,21955,35535.0,53405.0,-457.3311986463137,-348.5464259408911,-1245.129827824797
35535,13487,35535,21956,35535.0,53395.0,-462.313597030874,-351.7907646326803,-1256.9583929524304
35535,13489,35535,21924,35535.0,53351.0,-467.3304256003794,-355.07054381292545,-1268.9716287774934
35535,13456,35535,21900,35535.0,53357.0,-472.382701425924,-358.38446113614833,-1281.1684819778086
35545,13462,35545,21930,35545.0,53317.0,-477.4715530970911,-361.73211689130954,-1293.5480391525684
35545,13465,35545,21937,35545.0,53362.0,-482.59841467517487,-365.1142006589731,-1306.1096702098253
35545,13472,35545,21969,35545.0,53354.0,-487.76500608266986,-368.53215885602305,-1318.8528078845484
35545,13468,35545,21945,35545.0,53347.0,-492.973093812313,-371.98759813755817,-1331.7763876958343
35545,13458,35545,21931,35545.0,53325.0,-498.2242484404749,-375.4818941179835,-1344.8783531114243
35545,13468,35545,21987,35545.0,53350.0,-503.5197162669048,-379.0161004796721,-1358.155426308578
35555,13470,35555,21977,35555.0,53349.0,-508.8602977760937,-382.59070511652027,-1371.6028268801904
35555,13465,35555,21955,35555.0,53309.0,-514.2461316971196,-386.20512602589054,-1385.2138232454888
35555,13430,35555,21955,35555.0,53304.0,-519.676542488681,-389.85747310415735,-1398.9794892886766
35555,13429,35555,21883,35555.0,53261.0,-525.1501698076108,-393.54481466534355,-1412.888838461916
35555,13406,35555,21902,35555.0,53237.0,-530.6653030801763,-397.2638050568309,-1426.929165647894
35555,13409,35555,21875,35555.0,53209.0,-536.2201844417951,-401.0113881144814,-1441.086495946979
35566,13400,35566,21878,35566.0,53179.0,-541.8131768869737,-404.7852446667413,-1455.3460719862453
35566,13406,35566,21903,35566.0,53233.0,-547.4427916128117,-408.583919420673,-1469.6926555637617
35566,13409,35566,21953,35566.0,53205.0,-553.107578656171,-412.4065423072923,-1484.1103304261912
35566,13407,35566,21910,35566.0,53221.0,-558.8059132539202,-416.2521180294838,-1498.5818815527855
35566,13402,35566,21942,35566.0,53190.0,-564.535767019736,-420.1188735880885,-1513.088231088021
35566,13422,35566,21968,35566.0,53193.0,-570.2945064916232,-424.00389250726016,-1527.608143977436
35576,13404,35576,21981,35576.0,53215.0,-576.0786482895637,-427.90261489180676,-1542.1179995343555
35576,13394,35576,21931,35576.0,53190.0,-581.8836357310649,-431.8082236558377,-1556.591382735757
35576,13371,35576,21895,35576.0,53128.0,-587.7038414150791,-435.71156668865683,-1570.9987206490025
35576,13352,35576,21866,35576.0,53093.0,-593.532826277305,-439.6018337396853,-1585.307513272862
35576,13355,35576,21875,35576.0,53090.0,-599.363691374916,-443.467466191833,-1599.4830747500748
35576,13336,35576,21855,35576.0,53094.0,-605.1893364227226,-447.29674758738855,-1613.4890716231407
35586,13336,35586,21901,35586.0,53116.0,-611.0025848257874,-451.07794980102705,-1627.2874403398357
35586,13362,35586,21878,35586.0,53087.0,-616.7961835311102,-454.799116184759,-1640.8378693418272
35586,13352,35586,21907,35586.0,53085.0,-622.5625686505546,-458.44765610608164,-1654.0973063563742
35586,13354,35586,21893,35586.0,53049.0,-628.2934739942549,-462.0099698325563,-1667.0197836160578
35586,13320,35586,21902,35586.0,53058.0,-633.9797045343495,-465.47117095833863,-1679.5564855009688
35586,13352,35586,21915,35586.0,53034.0,-639.611162089341,-468.81485824810807,-1691.6558273631615
35597,13345,35597,21889,35597.0,53020.0,-645.1768300891565,-472.0229009568689,-1703.2634681861853
35597,13321,35597,21805,35597.0,52999.0,-650.6645760885779,-475.075513383426,-1714.3223761230304
35597,13296,35597,21828,35597.0,52955.0,-656.0611083233757,-477.95198148556744,-1724.7730680671807
35597,13294,35597,21809,35597.0,52924.0,-661.3522850252285,-480.63162530245165,-1734.5540979509776
35597,13274,35597,21808,35597.0,52923.0,-666.5235057441598,-483.09431989815,-1743.6027147390103
35597,13290,35597,21814,35597.0,52878.0,-671.5599422852481,-485.32062405566796,-1751.8554310356885
35607,13292,35607,21844,35607.0,52946.0,-676.4465449696208,-487.29171569337456,-1759.2483201700563
35607,13271,35607,21844,35607.0,52921.0,-681.1678752918776,-488.98905570921056,-1765.716877862928
35607,13287,35607,21810,35607.0,52918.0,-685.7079698574383,-490.3939872846269,-1771.1955436362412
35607,13284,35607,21845,35607.0,52899.0,-690.0502684805872,-491.4876355209187,-1775.6174102211096
35607,13301,35607,21857,35607.0,52917.0,-694.1774268511089,-492.2509117136053,-1778.914276891163
35607,13284,35607,21873,35607.0,52935.0,-698.0710203791871,-492.6642039687552,-1781.0166421195183
35617,13268,35617,21832,35617.0,52890.0,-701.7113644153981,-492.70695108259713,-1781.853496105525
35617,13252,35617,21785,35617.0,52824.0,-705.0776234593641,-492.35769934181195,-1781.3524375379063
35617,13234,35617,21776,35617.0,52826.0,-708.1481553519374,-491.5948493261755,-1779.440554008374
35617,13230,35617,21763,35617.0,52801.0,-710.9009130333471,-490.3976421094255,-1776.0456150931018
35617,13214,35617,21789,35617.0,52774.0,-713.3137892096793,-488.746814856586,-1771.0970057088844
35617,13214,35617,21828,35617.0,52805.0,-715.3648823743715,-486.6246816101445,-1764.5264263485383
35628,13231,35628,21817,35628.0,52811.0,-717.0326464450893,-484.014706668927,-1756.2683300882536
35628,13249,35628,21823,35628.0,52823.0,-718.2957871098614,-480.9009981395244,-1746.2599690507504
35628,13223,35628,21809,35628.0,52808.0,-719.132939983956,-477.2681431332463,-1734.4413398082518
35628,13223,35628,21817,35628.0,52821.0,-719.522483395488,-473.1013486981153,-1720.7553596177022
35628,13239,35628,21831,35628.0,52807.0,-719.4426139869162,-468.38661578173514,-1705.1482592351456
35628,13212,35628,21828,35628.0,52837.0,-718.8714328673153,-463.1107767089736,-1687.5700322508992
35638,13196,35638,21822,35638.0,52807.0,-717.7870571848349,-457.2614836453484,-1667.974867798349
35638,13195,35638,21762,35638.0,52795.0,-716.167968290664,-450.8274621455073,-1646.3217240698193
35638,13183,35638,21815,35638.0,52794.0,-713.9934595843944,-443.7991536272703,-1622.5752262425203
35638,13191,35638,21790,35638.0,52837.0,-711.2439661691868,-436.1693342892589,-1596.7066310909322
35638,13201,35638,21808,35638.0,52817.0,-707.901236506513,-427.9333687644989,-1568.6944728836202
35638,13198,35638,21805,35638.0,52879.0,-703.9483487236924,-419.08931932227676,-1538.5249623100658
35649,13188,35649,21843,35649.0,52891.0,-699.3697016805747,-409.6380423059545,-1506.1922787570734
35649,13208,35649,21869,35649.0,52934.0,-694.1511230013684,-399.58306140163893,-1471.6986997083304
35649,13204,35649,21898,35649.0,52990.0,-688.2799893410233,-388.930136762384,-1435.05459375683
35649,13242,35649,21893,35649.0,53031.0,-681.7451954217668,-377.68675451075694,-1396.2782710808622
35649,13222,35649,21915,35649.0,53043.0,-674.5369843897477,-365.8618339244471,-1355.395776040783
35649,13229,35649,21926,35649.0,53085.0,-666.6468381755819,-353.46567027916717,-1312.4409369999835
35659,13214,35659,21914,35659.0,53101.0,-658.0676285215732,-340.5099734242187,-1267.455741326704
35659,13214,35659,21927,35659.0,53144.0,-648.7939945444487,-327.00804425287583,-1220.4908341237706
35659,13217,35659,21888,35659.0,53226.0,-638.8227811130324,-312.97518582207374,-1171.6059167058902
35659,13220,35659,21916,35659.0,53264.0,-628.1534167835132,-298.4293223743772,-1120.8698043761663
35659,13231,35659,21936,35659.0,53350.0,-616.7881848414665,-283.39158493453067,-1068.3601658467976
35659,13271,35659,21978,35659.0,53408.0,-604.7323388941834,-267.88649052788384,-1014.1631545634183
35669,13286,35669,22006,35669.0,53483.0,-591.9939536557641,-251.94164754974742,-958.3729840588678
35669,13306,35669,22033,35669.0,53563.0,-578.5835734902978,-235.58725362402936,-901.0914506189844
35669,13312,35669,22074,35669.0,53675.0,-564.5139235606594,-218.85559552882938,-842.4273253352185
35669,13359,35669,22102,35669.0,53758.0,-549.7997560977014,-201.78055628888015,-782.4954523793599
35669,13366,35669,22140,35669.0,53853.0,-534.4576472213421,-184.39708589799943,-721.4156390304103
35669,13362,35669,22141,35669.0,53889.0,-518.5057660980208,-166.7407236244153,-659.3116919425677
35680,13368,35680,22097,35680.0,53971.0,-501.9639154076779,-148.84747635253012,-596.310899340481
35680,13368,35680,22164,35680.0,54031.0,-484.8538971692917,-130.75424001521594,-532.5438964479308
35680,13412,35680,22184,35680.0,54142.0,-467.19990579144263,-112.49925094530568,-468.1445295685162
35680,13435,35680,22206,35680.0,54196.0,-449.0286400307194,-94.12201144797794,-403.24946162191475
35680,13471,35680,22233,35680.0,54308.0,-430.3690703357985,-75.66295750804693,-337.9976078924268
35680,13469,35680,22285,35680.0,54415.0,-411.2521055825551,-57.16317091230076,-272.52945220796835
35690,13524,35690,22316,35690.0,54517.0,-391.7103909912784,-38.66395234729501,-206.98607918396078
35690,13542,35690,22332,35690.0,54602.0,-371.7781330174377,-20.206248076493523,-141.50799489360134
35690,13573,35690,22380,35690.0,54750.0,-351.4908004055893,-1.8301757589276804,-76.23394389829821
35690,13619,35690,22424,35690.0,54780.0,-330.8847670836974,16.425400479381608,-11.299710006782561
35690,13612,35690,22402,35690.0,54874.0,-309.9969787248093,34.52335629500067,53.16288110865207
35690,13639,35690,22394,35690.0,54923.0,-288.86477738960315,52.428471446220385,117.02644005668196
35700,13672,35700,22413,35700.0,54956.0,-267.52594376521444,70.10699815920304,180.1680598708399
35700,13684,35700,22409,35700.0,55049.0,-246.0187271097949,87.526035383487,242.4691062976957
35700,13711,35700,22458,35700.0,55101.0,-224.3817807286046,104.65313906643337,303.8150051338679
35700,13739,35700,22488,35700.0,55186.0,-202.6541170929228,121.45629903701399,364.09529961545127
35700,13780,35700,22529,35700.0,55298.0,-180.8750084953753,137.90430581214378,423.2040159775223
35700,13806,35700,22535,35700.0,55376.0,-159.08372472141662,153.96729789267238,481.040403495467
35711,13843,35711,22561,35711.0,55413.0,-137.3191752732015,169.6171647361232,537.509866252595
35711,13863,35711,22615,35711.0,55523.0,-115.61957225253548,184.82780636817557,592.524624435554
35711,13907,35711,22646,35711.0,55569.0,-94.02214300168833,199.57556826199448,646.0041628557269
35711,13926,35711,22641,35711.0,55645.0,-72.56284472190384,213.83986244355668,697.8757548797353
35711,13941,35711,22626,35711.0,55626.0,-51.27611022198221,227.60347977321226,748.0748174816201
35711,13947,35711,22626,35711.0,55702.0,-30.194783506977217,240.8523006295789,796.5447355052131
35721,13970,35721,22632,35721.0,55706.0,-9.350290635939643,253.5746959726743,843.2363231799336
35721,13999,35721,22635,35721.0,55777.0,11.227153542862027,265.7610159004307,888.1073395971132
35721,14017,35721,22633,35721.0,55763.0,31.508498078003015,277.40323489100086,931.1221346297937
35721,14039,35721,22628,35721.0,55869.0,51.46592852971196,288.49461036762955,972.2513315613446
35721,14069,35721,22688,35721.0,55886.0,71.07294712788297,299.0293933033505,1011.4717256736019
35721,14098,35721,22698,35721.0,55930.0,90.30449780162132,309.00289869295545,1048.7664827249125
35731,14111,35731,22699,35731.0,55950.0,109.13716931794363,318.4119259602039,1084.1252879710469
35731,14150,35731,22748,35731.0,56027.0,127.54939436816898,327.2551348245131,1117.5443289023215
35731,14162,35731,22776,35731.0,56077.0,145.52163119324752,335.5334030343088,1149.0264945164465
35731,14163,35731,22717,35731.0,56021.0,163.0365021376657,343.25026516748824,1178.5817568497691
35731,14172,35731,22722,35731.0,56020.0,180.07872382105944,350.4119103494795,1206.2269535229102
35731,14191,35731,22715,35731.0,56033.0,196.63483758856427,357.026562713708,1231.9847159999952
35742,14202,35742,22712,35742.0,56033.0,212.6929734672928,363.1038211709532,1255.882301927652
35742,14224,35742,22697,35742.0,56048.0,228.24275127975687,368.65422131468813,1277.9508145097723
35742,14246,35742,22720,35742.0,56057.0,243.27528692320755,373.6888754772365,1298.2246582993678
35742,14256,35742,22728,35742.0,56063.0,257.7832798687899,378.2192695270604,1316.7411049442373
35742,14271,35742,22743,35742.0,56102.0,271.76110324456727,382.2573415217046,1333.5399819504728
35742,14273,35742,22744,35742.0,56136.0,285.20480162559807,385.81570625626034,1348.6636208785017
35752,14291,35752,22768,35752.0,56174.0,298.11199671550276,388.9078694933397,1362.157193204774
35752,14318,35752,22790,35752.0,56150.0,310.48181640251096,391.54849622243535,1374.0692078463965
35752,14339,35752,22807,35752.0,56133.0,322.3150010717461,393.7538478591757,1384.4516487909893
35752,14337,35752,22751,35752.0,56116.0,333.61414470476836,395.5421794625255,1393.3594902056043
35752,14312,35752,22742,35752.0,56123.0,344.38375301922576,396.93362491510413,1400.8499010277978
35752,14318,35752,22730,35752.0,56057.0,354.6298858399899,397.94953912312906,1406.98147523445
35762,14340,35762,22691,35762.0,56094.0,364.35962236082275,398.6117438341752,1411.8134313140647
35762,14343,35762,22671,35762.0,56071.0,373.58077813621355,398.9418018643066,1415.404876200216
35762,14349,35762,22712,35762.0,56121.0,382.3018897705459,398.9603230882781,1417.8144818655046
35762,14367,35762,22722,35762.0,56096.0,390.5322262331248,398.68671838966236,1419.1005989794016
35762,14372,35762,22726,35762.0,56100.0,398.28180224016114,398.13954054437477,1419.3214697978933
35762,14393,35762,22740,35762.0,56109.0,405.5614662587034,397.33696214221663,1418.535281385548
35773,14377,35773,22695,35773.0,56116.0,412.3830041214785,396.2970236488967,1416.8001827569033
35773,14397,35773,22748,35773.0,56112.0,418.75914457433464,395.0376206614391,1414.1744401185852
35773,14401,35773,22717,35773.0,56065.0,424.70349268469863,393.57647464216944,1410.7165219130877
35773,14384,35773,22695,35773.0,56024.0,430.2304756974971,391.93118166729437,1406.4847373945347
35773,14374,35773,22661,35773.0,56051.0,435.35516936011754,390.1189703024602,1401.536473397871
35773,14365,35773,22668,35773.0,55980.0,440.0928848555483,388.1560789973701,1395.927511094525
35783,14359,35783,22675,35783.0,56040.0,444.4586656181102,386.0572280229744,1389.71162528482
35783,14372,35783,22677,35783.0,56032.0,448.4668857979443,383.8355051798668,1382.940500857508
35783,14422,35783,22693,35783.0,56014.0,452.1311482183937,381.5025514766937,1375.6640334857734
35783,14404,35783,22745,35783.0,56039.0,455.46461290506045,379.0689593333859,1367.9306911158033
35783,14398,35783,22699,35783.0,56002.0,458.4804198078824,376.54489709251277,1359.7877079747159
35783,14420,35783,22713,35783.0,55993.0,461.1917884021108,373.94060533851507,1351.2811520263772
35793,14435,35793,22735,35793.0,55983.0,463.6120102792171,371.2665279150059,1342.455805660066
35793,14411,35793,22713,35793.0,55999.0,465.75461559628604,368.5334294315464,1333.3550281164187
35793,14420,35793,22661,35793.0,55937.0,467.6334660607167,365.75248273102306,1324.020770220497
35793,14388,35793,22676,35793.0,55934.0,469.26256759468504,362.93490301434554,1314.4934506310096
35793,14400,35793,22663,35793.0,55881.0,470.6557196099312,360.0913650407089,1304.811477739583
35793,14404,35793,22662,35793.0,55901.0,471.8262028171258,357.23170088132434,1295.0106587661483
35804,14389,35804,22635,35804.0,55895.0,472.78664071774415,354.3647847963045,1285.1238651568208
35804,14401,35804,22643,35804.0,55891.0,473.5489453093736,351.49833374251483,1275.1810968155987
35804,14414,35804,22640,35804.0,55901.0,474.1242838633458,348.6386940586841,1265.2097680449501
35804,14418,35804,22658,35804.0,55865.0,474.5231999555517,345.79082049961295,1255.2349774483632
35804,14418,35804,22664,35804.0,55875.0,474.75585196172324,342.95849800757173,1245.2796334119346
35804,14437,35804,22701,35804.0,55906.0,474.8322168957317,340.1447655834147,1235.364553751039
35814,14421,35814,22698,35814.0,55877.0,474.7622633075795,337.35251177300734,1225.5088281706483
35814,14416,35814,22651,35814.0,55853.0,474.5560483952106,334.58497858006365,1215.7302384674674
35814,14400,35814,22659,35814.0,55833.0,474.22360746656284,331.8457608687624,1206.0452602808357
35814,14406,35814,22612,35814.0,55790.0,473.77469209308776,329.1383436495812,1196.4686660556893
35814,14401,35814,22643,35814.0,55795.0,473.21855293467377,326.46558188045736,1187.0130039162975
35814,14395,35814,22586,35814.0,55777.0,472.5638357310321,323.8293210024373,1177.6881786375304
35824,14387,35824,22641,35824.0,55776.0,471.8184910015906,321.2301439579593,1168.501282046408
35824,14406,35824,22652,35824.0,55812.0,470.989668844887,318.6673862958515,1159.456694798578
35824,14403,35824,22667,35824.0,55813.0,470.083736194861,316.13960754885045,1150.5565301298548
35824,14408,35824,22659,35824.0,55783.0,469.1064446354119,313.645241650488,1141.801267657692
35824,14412,35824,22664,35824.0,55798.0,468.06311095373485,311.18300549768986,1133.1901319409722
35824,14422,35824,22672,35824.0,55818.0,466.95877786530787,308.7520818931774,1124.7212562520936
35835,14405,35835,22659,35835.0,55812.0,465.79837902141026,306.3522630873629,1116.3920545393353
35835,14414,35835,22645,35835.0,55739.0,464.5868211151659,303.9840164938713,1108.199605336253
35835,14381,35835,22607,35835.0,55778.0,463.3289120966142,301.6482884277078,1100.1405316527253
35835,14380,35835,22596,35835.0,55736.0,462.029125221674,299.34599121450435,1092.2106056240766
35835,14378,35835,22578,35835.0,55719.0,460.6912675902345,297.07735173472355,1084.4045090841446
35835,14382,35835,22603,35835.0,55680.0,459.3182554052777,294.84142089211196,1076.7155356917792
35845,14394,35845,22630,35845.0,55724.0,457.912117256711,292.63601923116096,1069.135153840984
35845,14403,35845,22625,35845.0,55787.0,456.4741868861047,290.4581531381994,1061.6530478094946
35845,14401,35845,22608,35845.0,55763.0,455.00539429793264,288.3045050445315,1054.2580138314797
35845,14403,35845,22647,35845.0,55750.0,453.5065175585494,286.17165369123006,1046.9390294266914
35845,14403,35845,22636,35845.0,55791.0,451.9783223964749,284.0562451433702,1039.685783989285
35845,14420,35845,22677,35845.0,55733.0,450.42167457292965,281.9553817907652,1032.4889118060537
35855,14383,35855,22616,35855.0,55746.0,448.83766749481225,279.86704730442494,1025.3401342528314
35855,14394,35855,22635,35855.0,55725.0,447.2276092157317,277.79020741671576,1018.2321637407172
35855,14384,35855,22562,35855.0,55696.0,445.59283438784655,275.7244530245574,1011.1584850333929
35855,14369,35855,22594,35855.0,55696.0,443.9345171882871,273.6693617174002,1004.1130910766583
35855,14379,35855,22554,35855.0,55664.0,442.25351958375757,271.6238873802289,997.0901593902057
35855,14379,35855,22611,35855.0,55678.0,440.5502890644981,269.5860551426495,990.0837805256923
35866,14385,35866,22621,35866.0,55690.0,438.8249090310602,267.55313575157953,983.0878844911022
35866,14384,35866,22623,35866.0,55718.0,437.0772552741743,265.5222306226959,976.096541397067
35866,14385,35866,22610,35866.0,55720.0,435.3071431921541,263.4908305298791,969.104622350907
35866,14400,35866,22616,35866.0,55712.0,433.5144637245246,261.45701005902424,962.1085010354602
35866,14398,35866,22624,35866.0,55740.0,431.69937883594,259.41943801396735,955.1065573304504
35866,14384,35866,22669,35866.0,55710.0,429.86252798266116,257.3775721508307,948.0995559396406
35876,14392,35876,22613,35876.0,55690.0,428.005093775827,255.33209696809078,941.0908798331097
35876,14354,35876,22603,35876.0,55643.0,426.12869848863045,253.285141134905,934.0863574187914
35876,14376,35876,22548,35876.0,55623.0,424.23518601139625,251.23985360164502,927.0936509573561
35876,14357,35876,22575,35876.0,55584.0,422.32640253349683,249.1995973646689,920.1214610284865
35876,14370,35876,22571,35876.0,55570.0,420.4041114847207,247.16736588365012,913.1787572784419
35876,14378,35876,22587,35876.0,55594.0,418.4700527967527,245.14571346531932,906.2742213604984
35887,14351,35887,22630,35887.0,55600.0,416.5260695264991,243.1370983325496,899.4161648681609
35887,14364,35887,22579,35887.0,55618.0,414.5741479819799,241.14441163576433,892.6129503133081
35887,14368,35887,22572,35887.0,55601.0,412.6163631961136,239.17126126960414,885.8735769146223
35887,14368,35887,22593,35887.0,55603.0,410.65493610318896,237.22178576550095,879.2080970049277
35887,14394,35887,22608,35887.0,55608.0,408.69245496667736,235.30051014318326,872.6278263325136
35887,14371,35887,22598,35887.0,55569.0,406.73216789289796,233.41260785598996,866.1454592308842
35897,14347,35897,22550,35897.0,55559.0,404.7781419484789,231.56412548805656,859.7750032929114
35897,14335,35897,22529,35897.0,55511.0,402.8350459297494,229.7616580350911,853.5313975509539
35897,14337,35897,22514,35897.0,55471.0,400.90770236300835,228.01157778710154,847.4298379996204
35897,14335,35897,22508,35897.0,55468.0,399.0007829771282,226.3192982530848,841.4849233153582
35897,14340,35897,22560,35897.0,55443.0,397.1187507064986,224.68894124719338,835.7098995651922
35897,14326,35897,22550,35897.0,55510.0,395.265908438779,223.1235587440069,830.1163454496846
35907,14320,35907,22553,35907.0,55472.0,393.4463904424659,221.6256665213319,824.7144332435772
35907,14327,35907,22569,35907.0,55504.0,391.6640619323958,220.19764224439572,819.5134898310143
35907,14333,35907,22551,35907.0,55486.0,389.9224784189604,218.84193123959648,814.5224426369291
35907,14341,35907,22554,35907.0,55548.0,388.22502411524755,217.561154991432,809.7502027611217
35907,14349,35907,22580,35907.0,55470.0,386.57517464497755,216.3581526368913,805.2061529862606
35907,14330,35907,22553,35907.0,55434.0,384.97674632574103,215.23610512561737,800.9002890769294
35918,14284,35918,22514,35918.0,55419.0,383.433885019369,214.198584102781,796.8425830139003
35918,14282,35918,22520,35918.0,55445.0,381.95060015063666,213.2491773336069,793.042130439113
35918,14297,35918,22493,35918.0,55398.0,380.5301412521648,212.39088078788308,789.5067862499562
35918,14298,35918,22479,35918.0,55402.0,379.17474307872226,211.62558916510363,786.2430573514234
35918,14324,35918,22542,35918.0,55388.0,377.8858140669819,210.95378393269766,783.2558516189995
35918,14319,35918,22538,35918.0,55459.0,376.6643191498596,210.37468797329456,780.5483560649171
35928,14305,35928,22539,35928.0,55429.0,375.5111160530403,209.8868584906875,778.1224366479835
35928,14305,35928,22535,35928.0,55425.0,374.4270426666509,209.4886434581129,775.9792540373355
35928,14307,35928,22544,35928.0,55440.0,373.41281010296456,209.17829523003195,774.1195448110175
35928,14323,35928,22564,35928.0,55430.0,372.4689725909275,208.9540530190315,772.5436672078467
35928,14308,35928,22528,35928.0,55404.0,371.5960652516392,208.81432583350858,771.2516400850709
35928,14301,35928,22552,35928.0,55407.0,370.79471950644006,208.7577695120002,770.2430050773287
35938,14289,35938,22523,35938.0,55388.0,370.06557194136633,208.78317493236466,769.516511957427
35938,14286,35938,22478,35938.0,55359.0,369.40902327260085,208.8891897013095,769.069768876587
35938,14284,35938,22508,35938.0,55351.0,368.8250113161373,209.0737883721609,768.8987806283344
35938,14276,35938,22487,35938.0,55386.0,368.3128627106696,209.33374218191895,768.9974944181841
35938,14295,35938,22548,35938.0,55377.0,367.8712233980684,209.66451335914059,769.3577256356343
35938,14290,35938,22537,35938.0,55425.0,367.4981103819441,210.06062065358714,769.9695063221621
35949,14308,35949,22540,35949.0,55423.0,367.1910949256908,210.51618279124932,770.8216420804201
35949,14323,35949,22549,35949.0,55420.0,366.947578800672,211.02527170906208,771.9022773903243
35949,14330,35949,22576,35949.0,55447.0,366.7651677059466,211.58210206159833,773.1992713608488
35949,14305,35949,22569,35949.0,55411.0,366.6420144440927,212.1813364592595,774.7003802463073
35949,14308,35949,22567,35949.0,55395.0,366.5768830093251,212.81841960068596,776.3932187837679
35949,14284,35949,22522,35949.0,55415.0,366.5689235279487,213.489609578887,778.2649258701027
35959,14270,35959,22532,35959.0,55424.0,366.6173118959566,214.19159318025146,780.3018871076076
35959,14266,35959,22515,35959.0,55373.0,366.72082295274197,214.9209402899251,782.4897129604615
35959,14280,35959,22506,35959.0,55427.0,366.8774788834612,215.67368488498036,784.8131370265319
35959,14290,35959,22523,35959.0,55416.0,367.08448133649495,216.4450529698206,787.2558834592578
35959,14270,35959,22542,35959.0,55440.0,367.3383686334043,217.2293942496686,789.8008419926467
35959,14296,35959,22550,35959.0,55412.0,367.63513912507216,218.02043304848934,792.430356816046
35969,14299,35969,22560,35969.0,55439.0,367.97033878001093,218.81168484812082,795.1263141485406
35969,14315,35969,22598,35969.0,55451.0,368.3392952658937,219.59688079573024,797.8701626454715
35969,14310,35969,22589,35969.0,55465.0,368.7374460480497,220.370463116809,800.6431323266733
35969,14313,35969,22565,35969.0,55447.0,369.16057649340036,221.12800389786167,803.4265615545296
35969,14309,35969,22542,35969.0,55472.0,369.60491145965636,221.86616493130435,806.2020655336266
35969,14278,35969,22540,35969.0,55446.0,370.0670483619764,222.5822028135018,808.9515469312486
35980,14267,35980,22509,35980.0,55440.0,370.5436488681269,223.27338165418095,811.6571018281026
35980,14284,35980,22538,35980.0,55469.0,371.0309804034341,223.93650598396403,814.3008236080119
35980,14294,35980,22539,35980.0,55469.0,371.5246799418865,224.5677034722367,816.8647502356068
35980,14291,35980,22555,35980.0,55465.0,372.01988186682524,225.16254862863823,819.331054661636
35980,14320,35980,22543,35980.0,55443.0,372.5114874324082,225.716339406239,821.6821409736123
35980,14298,35980,22567,35980.0,55506.0,372.99443229555914,226.22429816614772,823.9005578223719
35990,14316,35990,22560,35990.0,55498.0,373.4638915674388,226.68172750745723,825.9691506232169
35990,14316,35990,22605,35990.0,55540.0,373.91538611782926,227.08426277308914,827.871623083104
35990,14316,35990,22597,35990.0,55486.0,374.3448813529301,227.42829827973114,829.5931038570676
35990,14297,35990,22586,35990.0,55497.0,374.7488502774971,227.7114336039272,831.1202776823076
35990,14292,35990,22554,35990.0,55452.0,375.1241471688013,227.9325696955348,832.4410308743609
35990,14292,35990,22532,35990.0,55448.0,375.4677385231298,228.09149704504964,833.5438463691869
36000,14277,36000,22520,36000.0,55479.0,375.7764613714064,228.18820057733274,834.4172603605682
36000,14283,36000,22505,36000.0,55474.0,376.0468394208634,228.22218686823453,835.0497127995361
36000,14280,36000,22563,36000.0,55505.0,376.27493891407977,228.19209677614904,835.4298305767412
36000,14301,36000,22553,36000.0,55474.0,376.4563452676114,228.09583825942954,835.5468138911506
36000,14303,36000,22585,36000.0,55502.0,376.5863273994261,227.93113823565483,835.3906651065311
36000,14280,36000,22543,36000.0,55514.0,376.6600603675278,227.69604606520315,834.9523373394545
36010,14313,36010,22559,36010.0,55517.0,376.67270612196796,227.38906493124466,834.2240317757327
36010,14340,36010,22588,36010.0,55498.0,376.6195285864459,227.00908521477263,833.1995448389614
36010,14302,36010,22564,36010.0,55471.0,376.4962698782124,226.55550846447153,831.874311306897
36010,14295,36010,22542,36010.0,55448.0,376.2993952142109,226.02842640624868,830.245028221815
36010,14284,36010,22533,36010.0,55430.0,376.0258585594421,225.42842395936577,828.3090378314141
36010,14289,36010,22520,36010.0,55410.0,375.6727088800649,224.75610339606658,826.0636963288904
36020,14279,36020,22507,36020.0,55411.0,375.236868992548,224.01164533043365,823.5058559785223
36020,14297,36020,22511,36020.0,55441.0,374.71507698857783,223.19446723416195,820.6316104715731
36020,14295,36020,22517,36020.0,55436.0,374.1039559323539,222.30301995212696,817.4364634879237
36020,14307,36020,22543,36020.0,55452.0,373.4002038389152,221.33484163740974,813.9157849955626
36020,14287,36020,22552,36020.0,55455.0,372.6007886876838,220.28690355706743,810.0652741281704
36020,14286,36020,22562,36020.0,55440.0,371.7029907250727,219.1561163011641,805.8813215235325
36030,14309,36030,22593,36030.0,55483.0,370.70433465034995,217.93984875352237,801.3612955370547
36030,14309,36030,22541,36030.0,55469.0,369.6026728305624,216.63636682454984,796.50391231178
36030,14303,36030,22546,36030.0,55437.0,368.39645402519113,215.24494715510326,791.3096513302589
36030,14288,36030,22549,36030.0,55379.0,367.08488222391094,213.76561525219915,785.7807247195395
36030,14261,36030,22498,36030.0,55391.0,365.6677713684471,212.19882378074539,779.9204262522367
36030,14275,36030,22518,36030.0,55346.0,364.14518502846414,210.5451094652402,773.7323659047424
36041,14260,36041,22492,36041.0,55325.0,362.51712209985794,208.80467799847446,767.2199055723014
36041,14267,36041,22517,36041.0,55338.0,360.78339828136745,206.97714360050935,760.3856905969278
36041,14283,36041,22500,36041.0,55358.0,358.9436828561457,205.06150619611748,753.2314530652817
36041,14280,36041,22544,36041.0,55334.0,356.9976887587446,203.05630551140212,745.7582851131605
36041,14273,36041,22499,36041.0,55366.0,354.9454329620395,200.9599015258774,737.9670887352331
36041,14272,36041,22543,36041.0,55377.0,352.78736684128836,198.77072144899495,729.8590381335376
36051,14281,36051,22559,36051.0,55394.0,350.52439472470746,196.48750160107596,721.4362326499848
36051,14255,36051,22548,36051.0,55329.0,348.15790810762655,194.1097347096057,712.7023520259808
36051,14256,36051,22501,36051.0,55309.0,345.689756574656,191.6380292164832,703.6627654828803
36051,14223,36051,22483,36051.0,55270.0,343.12204003283495,189.07386456138127,694.3239872420497
36051,14227,36051,22466,36051.0,55269.0,340.4567687430622,186.4188739650103,684.6929599569314
36051,14213,36051,22474,36051.0,55246.0,337.6955246503198,183.67419500366006,674.7765786889726
36061,14240,36061,22482,36061.0,55238.0,334.83929191910835,180.84019958172044,664.5814754432804
36061,14227,36061,22503,36061.0,55256.0,331.888553761927,177.91662350569334,654.11398916304
36061,14242,36061,22510,36061.0,55235.0,328.84355231707656,174.90298029313385,643.3803573908826
36061,14240,36061,22506,36061.0,55229.0,325.70455370559904,171.799050775903,632.3870241518761
36061,14230,36061,22529,36061.0,55219.0,322.47206159010517,168.6052764894229,621.1408371923205
36061,14222,36061,22495,36061.0,55228.0,319.1469124396966,165.32303863424107,609.649178879599
36072,14237,36072,22523,36072.0,55196.0,315.7302585527545,161.9548144949557,597.9201701701896
36072,14213,36072,22473,36072.0,55172.0,312.2235865396093,158.50418495999418,585.9627956217693
36072,14212,36072,22475,36072.0,55128.0,308.62874896520725,154.9756647286552,573.7867083588907
36072,14204,36072,22455,36072.0,55140.0,304.94788767939036,151.37435104372477,561.4017976721711
36072,14198,36072,22448,36072.0,55073.0,301.1833175803796,147.70554865669308,548.8177961880938
36072,14185,36072,22408,36072.0,55082.0,297.3374375246398,143.97443157639896,536.0439424808167
36082,14161,36082,22452,36082.0,55087.0,293.4125792650424,140.1856948883993,523.0887109538955
36082,14194,36082,22432,36082.0,55045.0,289.41080243533133,136.34341908927945,509.95981713409026
36082,14176,36082,22455,36082.0,55057.0,285.33386418552544,132.45128439652757,496.66436453370784
36082,14189,36082,22439,36082.0,55052.0,281.1834301826469,128.51289205274668,483.2089506913915
36082,14179,36082,22443,36082.0,55060.0,276.96131240225225,124.53198608080255,469.59993452524293
36082,14186,36082,22432,36082.0,55061.0,272.6696365135598,120.51255310759763,455.84393560539434
36093,14173,36093,22459,36093.0,55038.0,268.3109772454342,116.45889322272873,441.9483627568371
36093,14154,36093,22415,36093.0,54977.0,263.8884049968806,112.37575685451375,427.92166213842455
36093,14144,36093,22411,36093.0,54936.0,259.40535253949554,108.26836943467092,413.7729809939046
36093,14121,36093,22356,36093.0,54921.0,254.8653300447673,104.14209275693426,399.51138036640623
36093,14130,36093,22380,36093.0,54903.0,250.27162189237396,100.00182202599987,385.1451428882303
36093,14124,36093,22346,36093.0,54892.0,245.6271169266763,95.8514665085155,370.68147486699354
36103,14118,36103,22383,36103.0,54950.0,240.93432062496876,91.6937321947525,356.1266226367935
36103,14115,36103,22395,36103.0,54910.0,236.19542563603756,87.53026098635809,341.48646566939954
36103,14123,36103,22398,36103.0,54917.0,231.41237382276205,83.36210203463534,326.76730290998887
36103,14118,36103,22395,36103.0,54875.0,226.5869886593796,79.19025208574774,311.97630596684166
36103,14112,36103,22417,36103.0,54911.0,221.72115970325623,75.01603003910253,297.12165310439616
36103,14120,36103,22383,36103.0,54826.0,216.8169859869421,70.84134436666409,282.2126392613699
36113,14080,36113,22340,36113.0,54809.0,211.87684183850325,66.66872585147817,267.25959183102907
36113,14077,36113,22337,36113.0,54744.0,206.90326589780832,62.50087868983826,252.27330453344985
36113,14077,36113,22338,36113.0,54757.0,201.89868539398842,58.34005141286272,237.26424605957175
36113,14058,36113,22345,36113.0,54733.0,196.86521642522504,54.18775168786587,222.24204907150158
36113,14059,36113,22289,36113.0,54692.0,191.80459075614826,50.04473612404499,207.21536219497932
36113,14056,36113,22356,36113.0,54723.0,186.71810585476544,45.9109249316858,192.19179553700906
36124,14057,36124,22328,36124.0,54666.0,181.6066466806425,41.78541140156858,177.17792301779923
36124,14056,36124,22356,36124.0,54684.0,176.47081155927694,37.66681107360736,162.1793857870215
36124,14056,36124,22356,36124.0,54693.0,171.3110813989918,33.55372193855365,147.2010641255357
36124,14039,36124,22371,36124.0,54689.0,166.12796342035554,29.445147978484925,132.2474937042133
36124,14063,36124,22346,36124.0,54682.0,160.92208509386094,25.340884059420233,117.32348960345234
36124,14044,36124,22347,36124.0,54643.0,155.6943313563154,21.241698280712626,102.43460152247735
36134,14030,36134,22297,36134.0,54595.0,150.4460068681327,17.149200479884513,87.58713085759393
36134,14008,36134,22285,36134.0,54524.0,145.17879864716872,13.06539686867825,72.78758804191307
36134,13994,36134,22276,36134.0,54563.0,139.89448641924915,8.992068365841476,58.04181053022489
36134,13985,36134,22301,36134.0,54514.0,134.59458479041874,4.930342908014069,43.35437464613881
36134,13991,36134,22286,36134.0,54544.0,129.28009932043258,0.8807025073427326,28.728584425727377
36134,13988,36134,22303,36134.0,54557.0,123.95149561181626,-3.15675509198158,14.16683898128008
36144,13994,36144,22263,36144.0,54529.0,118.6088530486006,-7.182115877044055,-0.3287532733201033
36144,14007,36144,22308,36144.0,54514.0,113.25212828813878,-11.19560527149386,-14.7558131365372
36144,13990,36144,22325,36144.0,54501.0,107.88148195195686,-15.19742688198653,-29.11149765257892
36144,14004,36144,22314,36144.0,54486.0,102.49756530086381,-19.187249533099077,-43.39250575858205
36144,13985,36144,22295,36144.0,54489.0,97.10170212396264,-23.163704836598953,-57.595019561024515
36144,13960,36144,22267,36144.0,54413.0,91.69593950730479,-27.124362790931144,-71.71464408925601
36155,13945,36155,22255,36155.0,54397.0,86.28286018022305,-31.066128793258628,-85.74666135355903
36155,13937,36155,22241,36155.0,54363.0,80.86521303773412,-34.985746440038355,-99.68665551471031
36155,13922,36155,22208,36155.0,54340.0,75.44559246145377,-38.88025038449982,-113.53113897509593
36155,13917,36155,22211,36155.0,54353.0,70.02623515911677,-42.747413871937226,-127.27791240049567
36155,13919,36155,22228,36155.0,54363.0,64.60890408430919,-46.58609188164721,-140.92603331514
36155,13920,36155,22225,36155.0,54321.0,59.19490590903348,-50.39621305154748,-154.4754277498464
36165,13932,36165,22247,36165.0,54322.0,53.78527436888237,-54.17846089827037,-167.9265618678595
36165,13914,36165,22247,36165.0,54332.0,48.381046580167265,-57.93385480666308,-181.28033345399274
36165,13920,36165,22260,36165.0,54342.0,42.983484558619864,-61.66331374662238,-194.5377987548959
36165,13918,36165,22268,36165.0,54382.0,37.5941973789885,-65.36723102458308,-207.69948978300533
36165,13889,36165,22238,36165.0,54259.0,32.21521452312834,-69.04513694885935,-220.76466204808253
36165,13872,36165,22183,36165.0,54238.0,26.84890108127729,-72.69572057926948,-233.73127612663689
36175,13873,36175,22190,36175.0,54207.0,21.497662123779378,-76.31740485272303,-246.59691344519308
36175,13835,36175,22200,36175.0,54182.0,16.163624373787798,-79.90903597578017,-259.3597844732974
36175,13843,36175,22204,36175.0,54184.0,10.848355817229162,-83.47008810917845,-272.01926275602443
36175,13845,36175,22176,36175.0,54204.0,5.552641396946342,-87.00049468357403,-284.5759691249458
36175,13848,36175,22210,36175.0,54195.0,0.27649080396241743,-90.5005374162991,-297.031416229986
36175,13857,36175,22211,36175.0,54175.0,-4.980613566949387,-93.97073232345264,-309.38746432185883
36186,13847,36186,22183,36186.0,54150.0,-10.21940254228366,-97.41156094361446,-321.64603144108025
36186,13851,36186,22192,36186.0,54153.0,-15.440563411756955,-100.82332603330019,-333.8091227212875
36186,13844,36186,22216,36186.0,54111.0,-20.64457284901289,-104.20617219628551,-345.878935905023
36186,13855,36186,22213,36186.0,54153.0,-25.83155473513466,-107.55989300547981,-357.8578871848865
36186,13810,36186,22194,36186.0,54139.0,-31.001164897596993,-110.88356711500063,-369.7484035021847
36186,13797,36186,22139,36186.0,54100.0,-36.152707158689225,-114.17552930205946,-381.5525095645776
36196,13783,36196,22153,36196.0,54053.0,-41.28554951062932,-117.4338768170681,-393.27172758413735
36196,13803,36196,22125,36196.0,54039.0,-46.39950854794648,-120.65712456158454,-404.90756490009517
36196,13783,36196,22132,36196.0,54046.0,-51.49490671279216,-123.84461654803582,-416.4621077926704
36196,13789,36196,22150,36196.0,54039.0,-56.572431877235374,-126.99665725733121,-427.9381912240116
36196,13788,36196,22132,36196.0,54023.0,-61.633013769084414,-130.11440338879623,-439.33919705709513
36196,13779,36196,22171,36196.0,54037.0,-66.67771317558328,-133.19960099124717,-450.6688004139645
36206,13786,36206,22176,36206.0,54041.0,-71.70759961432401,-136.25420841730738,-461.930676214801
36206,13784,36206,22164,36206.0,54041.0,-76.72361946479674,-139.27990707560303,-473.12803424757203
36206,13784,36206,22164,36206.0,54033.0,-81.72641810349302,-142.2777508657665,-484.2631020601556
36206,13766,36206,22147,36206.0,53982.0,-86.71617875164651,-145.24812019253028,-495.33683080750905
36206,13764,36206,22115,36206.0,53946.0,-91.69259134682471,-148.19090564968246,-506.34907088310524
36206,13746,36206,22122,36206.0,53928.0,-96.65494536383767,-151.10587886217365,-517.2991869500379
36217,13719,36217,22081,36217.0,53904.0,-101.60231826374866,-153.99314120516476,-528.1867238202515
36217,13722,36217,22099,36217.0,53891.0,-106.53387780632272,-156.8535249318029,-539.011847972648
36217,13710,36217,22090,36217.0,53898.0,-111.44917885444244,-159.68886980044846,-549.7755586510859
36217,13704,36217,22118,36217.0,53893.0,-116.34831101173882,-162.50203755940345,-560.4796422299544
36217,13730,36217,22129,36217.0,53916.0,-121.23189103639959,-165.29660959049613,-571.1263495829703
36217,13715,36217,22122,36217.0,53876.0,-126.10086765115312,-168.0764092842973,-581.7179380665339
36227,13718,36227,22145,36227.0,53875.0,-130.95621563536992,-170.84507164722282,-592.2563633986015
36227,13726,36227,22167,36227.0,53923.0,-135.79870130882927,-173.60565395385225,-602.7431213695365
36227,13704,36227,22132,36227.0,53829.0,-140.62871735773285,-176.36018614907647,-613.1789620811212
36227,13680,36227,22115,36227.0,53833.0,-145.44624162275818,-179.10945232282205,-623.5637741587152
36227,13690,36227,22083,36227.0,53804.0,-150.25103114285645,-181.85329663333016,-633.8969930665596
36227,13670,36227,22095,36227.0,53776.0,-155.04285920251687,-184.59120675800835,-644.1781368816287
36237,13655,36237,22079,36237.0,53792.0,-159.82164968188698,-187.32274989092622,-654.4071417001444
36237,13649,36237,22087,36237.0,53754.0,-164.58764632871436,-190.04773785177758,-664.5845088331203
36237,13657,36237,22079,36237.0,53781.0,-169.34159469309333,-192.76624476464082,-674.7112840322063
36237,13659,36237,22096,36237.0,53785.0,-174.08473434579855,-195.47855016685259,-684.7888565915068
36237,13661,36237,22070,36237.0,53750.0,-178.81858719221418,-198.18502373720304,-694.8185843704005
36237,13649,36237,22096,36237.0,53750.0,-183.54471588562603,-200.88603056195433,-704.8015280207148
36248,13656,36248,22100,36248.0,53741.0,-188.26457776599386,-203.58181240769903,-714.7384502080804
36248,13662,36248,22147,36248.0,53741.0,-192.9794095194565,-206.27212643245377,-724.629808620675
36248,13650,36248,22061,36248.0,53712.0,-197.69003930624297,-208.955738471777,-734.4756415598861
36248,13648,36248,22069,36248.0,53681.0,-202.39671131751533,-211.63035374362272,-744.2755869244102
36248,13614,36248,22045,36248.0,53657.0,-207.09908261155908,-214.29316310002224,-754.0292025575575
36248,13594,36248,22017,36248.0,53654.0,-211.79647721893264,-216.94150503732772,-763.7364301195423
36258,13587,36258,22019,36258.0,53638.0,-216.4883449091846,-219.57339665453804,-773.3979070343676
36258,13600,36258,22018,36258.0,53650.0,-221.1746433406824,-222.18794578060835,-783.0150212798471
36258,13608,36258,22042,36258.0,53627.0,-225.85586231231235,-224.78547029067767,-792.5897859034869
36258,13596,36258,22045,36258.0,53617.0,-230.53275285466123,-227.36725988085436,-802.124695121242
36258,13605,36258,22061,36258.0,53629.0,-235.2060485169451,-229.935142192258,-811.6226570543824
36258,13595,36258,22056,36258.0,53620.0,-239.87629823020472,-232.49104550248256,-821.086861368947
36268,13601,36268,22080,36268.0,53635.0,-244.54373787418308,-235.03663483401624,-830.5204684021146
36268,13598,36268,22089,36268.0,53636.0,-249.2081519651881,-237.57293642853585,-839.9261844393689
36268,13563,36268,22046,36268.0,53585.0,-253.86879021975813,-240.0999808957639,-849.3058910178668
36268,13569,36268,22013,36268.0,53563.0,-258.52447863987487,-242.61683737175161,-858.6606560178423
36268,13540,36268,22028,36268.0,53531.0,-263.173898835759,-245.12216415565837,-867.9912276696184
36268,13530,36268,21988,36268.0,53544.0,-267.8158919386141,-247.61481241899395,-877.2986168148229
36279,13527,36279,21998,36279.0,53545.0,-272.4497527398794,-250.0942158932366,-886.5843322954775
36279,13550,36279,22015,36279.0,53532.0,-277.0753845744508,-252.5606212074527,-895.8502188450218
36279,13525,36279,22038,36279.0,53539.0,-281.69317331071466,-255.01499092411325,-905.0981706383814
36279,13535,36279,22012,36279.0,53511.0,-286.30376865866776,-257.4585792675852,-914.3299309143265
36279,13523,36279,22015,36279.0,53508.0,-290.9079852777237,-259.8926156180153,-923.5470201130518
36279,13541,36279,22028,36279.0,53509.0,-295.5067325997717,-262.3182657270695,-932.7507459316239
36289,13532,36289,22027,36289.0,53505.0,-300.10083775581825,-264.7365731328237,-941.9421313310636
36289,13539,36289,22028,36289.0,53489.0,-304.69079800793173,-267.1482532444546,-951.1217280777646
36289,13505,36289,22005,36289.0,53453.0,-309.2766164667905,-269.5535505323265,-960.2895464942223
36289,13484,36289,21954,36289.0,53429.0,-313.85790726373745,-271.95241581363103,-969.4453017521325
36289,13475,36289,21973,36289.0,53400.0,-318.43429446157836,-274.34507242958455,-978.5889240898489
36289,13485,36289,21983,36289.0,53382.0,-323.0058173458753,-276.73256454291857,-987.7211285644673
36299,13472,36299,21985,36299.0,53403.0,-327.5730608091628,-279.11682006496744,-996.8438217265928
36299,13486,36299,22012,36299.0,53397.0,-332.13706344255775,-281.5003273396014,-1005.9601306786094
36299,13491,36299,22003,36299.0,53419.0,-336.69912676476645,-283.8857108697821,-1015.0740423145735
36299,13490,36299,21989,36299.0,53408.0,-341.2605296068371,-286.27538814703485,-1024.1898732327356
36299,13482,36299,21982,36299.0,53398.0,-345.8222427307705,-288.671503804364,-1033.3118049523282
36299,13473,36299,22021,36299.0,53439.0,-350.3847934006693,-291.07601554638546,-1042.443536921344
36310,13479,36310,22034,36310.0,53396.0,-354.94825964168547,-293.4904885955833,-1051.5878952917055
36310,13447,36310,22024,36310.0,53342.0,-359.51230108086935,-295.915541931542,-1060.746583531558
36310,13433,36310,21936,36310.0,53320.0,-364.0763012453553,-298.3505675590384,-1069.920562502115
36310,13431,36310,21940,36310.0,53303.0,-368.63968203911895,-300.79429145067917,-1079.110871735825
36310,13423,36310,21947,36310.0,53294.0,-373.20219209170057,-303.24576941101304,-1088.3192645255792
36310,13408,36310,21964,36310.0,53283.0,-377.76404352467284,-305.70489912652516,-1097.548484768677
36320,13412,36320,21931,36320.0,53296.0,-382.3260064231675,-308.172329025838,-1106.802308952218
36320,13415,36320,21948,36320.0,53267.0,-386.8894610054054,-310.6493386873141,-1116.085428069753
36320,13436,36320,21958,36320.0,53294.0,-391.45625973541894,-313.13784862430225,-1125.403264464887
36320,13406,36320,21955,36320.0,53286.0,-396.028419574896,-315.64029025450645,-1134.7617254786078
36320,13423,36320,21964,36320.0,53288.0,-400.60788311738213,-318.15933801760383,-1144.1668309961508
36320,13424,36320,21983,36320.0,53283.0,-405.19640723211324,-320.69763713162075,-1153.6243300608123
36331,13415,36331,21959,36331.0,53264.0,-409.7954071428111,-323.25751071676035,-1163.1394500512122
36331,13376,36331,21981,36331.0,53263.0,-414.40585909720687,-325.8407291780923,-1172.7167964547095
36331,13383,36331,21913,36331.0,53194.0,-419.02850847606777,-328.448505695999,-1182.3604496165476
36331,13357,36331,21908,36331.0,53224.0,-423.6642497434906,-331.08186145053884,-1192.0743190266003
36331,13370,36331,21921,36331.0,53159.0,-428.31439893831845,-333.7422512549691,-1201.8625951351446
36331,13366,36331,21905,36331.0,53160.0,-432.980773678922,-336.43197196164255,-1211.7301467874806
36341,13356,36341,21939,36341.0,53161.0,-437.66562313631715,-339.1541572877785,-1221.682872231594
36341,13364,36341,21962,36341.0,53176.0,-442.37152731751763,-341.91246826708124,-1231.727787000857
36341,13360,36341,21954,36341.0,53197.0,-447.1013060630617,-344.7105257764124,-1241.8726420629132
36341,13389,36341,21952,36341.0,53196.0,-451.85782232666935,-347.5513683468394,-1252.125231887695
36341,13366,36341,21963,36341.0,53153.0,-456.643635128391,-350.4371982324346,-1262.4927766998048
36341,13375,36341,21948,36341.0,53178.0,-461.46066803894803,-353.369273983565,-1272.9816943715757
36351,13345,36351,21962,36351.0,53131.0,-466.31008537054265,-356.3478098198992,-1283.5976403060072
36351,13341,36351,21893,36351.0,53091.0,-471.19239625184224,-359.3720052101678,-1294.3456714189172
36351,13328,36351,21899,36351.0,53069.0,-476.1076853635865,-362.44042523518834,-1305.2307222402792
36351,13308,36351,21853,36351.0,53045.0,-481.05586508291555,-365.5517034222929,-1316.2582958262612
36351,13290,36351,21884,36351.0,53070.0,-486.0369571253674,-368.70521091471903,-1327.4349382633245
36351,13309,36351,21863,36351.0,53072.0,-491.05138749399157,-371.90139857254695,-1338.7682233791336
36362,13310,36362,21897,36362.0,53077.0,-496.10006807629117,-375.1417816646736,-1350.2662980421799
36362,13311,36362,21886,36362.0,53047.0,-501.18417178429746,-378.428682488739,-1361.9373561267262
36362,13299,36362,21882,36362.0,53053.0,-506.3048481045071,-381.7649190786034,-1373.7893687285296
36362,13310,36362,21889,36362.0,53031.0,-511.4630672295333,-385.15362003902817,-1385.8300218019347
36362,13298,36362,21927,36362.0,53057.0,-516.6595178604825,-388.5980541156455,-1398.0666181175184
36362,13288,36362,21911,36362.0,53024.0,-521.8945121058728,-392.1012173915037,-1410.505823894739
36372,13275,36372,21894,36372.0,52986.0,-527.1679986421858,-395.6653783576904,-1423.1534683191446
36372,13256,36372,21865,36372.0,52978.0,-532.4797266242159,-399.2920361016916,-1436.0147013110545
36372,13235,36372,21831,36372.0,52947.0,-537.8295279656254,-402.9823704651564,-1449.0943899560316
36372,13231,36372,21850,36372.0,52937.0,-543.217673472379,-406.7378866308873,-1462.397447845002
36372,13255,36372,21825,36372.0,52957.0,-548.64511260129,-410.5608776815738,-1475.9289737152726
36372,13236,36372,21896,36372.0,52934.0,-554.1133944612227,-414.45446830073206,-1489.6940980458592
36382,13250,36382,21886,36382.0,52943.0,-559.6243954976725,-418.4221585926904,-1503.6976183927095
36382,13238,36382,21866,36382.0,52937.0,-565.1800926124719,-422.46712493812777,-1517.9436357921732
36382,13244,36382,21876,36382.0,52932.0,-570.7823998753656,-426.59183430139984,-1532.435202201633
36382,13263,36382,21938,36382.0,52931.0,-576.4329675813892,-430.7978909448821,-1547.1739545655087
36382,13237,36382,21894,36382.0,52910.0,-582.1328909794736,-435.0855549068702,-1562.159794100678
36382,13212,36382,21849,36382.0,52903.0,-587.8825289706085,-439.4532640862059,-1577.3906653931467
36393,13208,36393,21849,36393.0,52849.0,-593.6816755877754,-443.8978763236324,-1592.8625182840328
36393,13174,36393,21793,36393.0,52820.0,-599.5299466318434,-448.4154230849762,-1608.5695760572885
36393,13181,36393,21805,36393.0,52792.0,-605.4271527856232,-453.00185271997367,-1624.50488981834
36393,13183,36393,21834,36393.0,52765.0,-611.3735418380289,-457.65350437900554,-1640.6609242543198
36393,13188,36393,21811,36393.0,52800.0,-617.3697764563672,-462.3670840324669,-1657.0298835772646
36393,13197,36393,21792,36393.0,52760.0,-623.4166677363978,-467.1394078165989,-1673.603609920872
36403,13175,36403,21832,36403.0,52795.0,-629.5148587887081,-471.9673479124539,-1690.3731677709952
36403,13192,36403,21821,36403.0,52760.0,-635.6646161892934,-476.8477402410085,-1707.3283636155577
36403,13174,36403,21806,36403.0,52783.0,-641.8657130874356,-481.7770678960616,-1724.4572800339483
36403,13184,36403,21870,36403.0,52748.0,-648.117306826477,-486.7511491006554,-1741.745846823176
36403,13163,36403,21803,36403.0,52754.0,-654.4178232291024,-491.7647913551709,-1759.1775041922351
36403,13154,36403,21803,36403.0,52693.0,-660.7649305481982,-496.8115454820701,-1776.7330414561745
36413,13134,36413,21779,36413.0,52682.0,-667.1556577746607,-501.8839240056074,-1794.3907271182047
36413,13117,36413,21786,36413.0,52674.0,-673.5866432098203,-506.9738371794226,-1812.126623702114
36413,13130,36413,21737,36413.0,52654.0,-680.0543960198129,-512.0729048911815,-1829.914752096877
36413,13124,36413,21766,36413.0,52614.0,-686.5553806482937,-517.1727458856979,-1847.7270859473795
36413,13130,36413,21787,36413.0,52648.0,-693.0858634879932,-522.2651292216592,-1865.5335772771455
36413,13118,36413,21776,36413.0,52655.0,-699.6416797767586,-527.3416988406238,-1883.3019714038971
36424,13124,36424,21781,36424.0,52604.0,-706.2180564306807,-532.3935042446722,-1900.9972461782072
36424,13106,36424,21778,36424.0,52612.0,-712.8094970229507,-537.4107139690504,-1918.5811724038679
36424,13122,36424,21820,36424.0,52610.0,-719.4096946616147,-542.3823846502243,-1936.0121928782164
36424,13114,36424,21804,36424.0,52572.0,-726.0114000920294,-547.2960168583277,-1953.2452671418184
36424,13076,36424,21777,36424.0,52536.0,-732.6062897515314,-552.1370903065578,-1970.2317703024714
36424,13073,36424,21723,36424.0,52512.0,-739.1850707860688,-556.8891009645979,-1986.9197570177
36434,13073,36434,21736,36434.0,52469.0,-745.7377868696299,-561.5341956588306,-2003.2544626863742
36434,13059,36434,21690,36434.0,52479.0,-752.2539952582792,-566.0539210176981,-2019.1787723444602
36434,13064,36434,21704,36434.0,52421.0,-758.7227607579251,-570.429759487382,-2034.6335396291934
36434,13047,36434,21717,36434.0,52473.0,-765.1326166975517,-574.6434145554431,-2049.5577333686883
36434,13041,36434,21732,36434.0,52440.0,-771.4715600443363,-578.6767182832568,-2063.8883165689604
36434,13056,36434,21713,36434.0,52426.0,-777.727058770658,-582.511242688423,-2077.559900247674
36444,13051,36444,21713,36444.0,52402.0,-783.8859382965742,-586.1280162640563,-2090.5045627089376
36444,13046,36444,21720,36444.0,52414.0,-789.9341332487372,-589.5074777760076,-2102.651933514131
36444,13053,36444,21756,36444.0,52409.0,-795.8564688857044,-592.6293623728825,-2113.929184123961
36444,13045,36444,21728,36444.0,52357.0,-801.636498955984,-595.4723202964933,-2124.260882965668
36444,13039,36444,21724,36444.0,52333.0,-807.2563600080016,-598.0135663384067,-2133.5691382124533
36444,12996,36444,21697,36444.0,52336.0,-812.6967742267346,-600.2289189340199,-2141.7741258259653
36455,12986,36455,21646,36455.0,52311.0,-817.9373632708733,-602.0932518909625,-2148.7945642039185
36455,12977,36455,21665,36455.0,52258.0,-822.957162425017,-603.5812239382486,-2154.548048963352
36455,12971,36455,21668,36455.0,52285.0,-827.7350220435083,-604.6679145353971,-2158.9515560610234
36455,12973,36455,21651,36455.0,52279.0,-832.2497714877052,-605.3290328396238,-2161.921917584163
36455,12979,36455,21685,36455.0,52275.0,-836.4802069488978,-605.5408746717967,-2163.3759167159596
36455,12974,36455,21684,36455.0,52242.0,-840.404954434148,-605.2801820687073,-2163.2302818105754
36465,12968,36465,21668,36465.0,52249.0,-844.0023138353267,-604.5239061901636,-2161.401964747489
36465,12991,36465,21713,36465.0,52243.0,-847.2501475096085,-603.2490362327881,-2157.8085767357115
36465,12977,36465,21677,36465.0,52237.0,-850.1257128895681,-601.4324768849707,-2152.36872925853
36465,12953,36465,21685,36465.0,52200.0,-852.6055045996827,-599.0509609027463,-2145.0023880488143
36465,12949,36465,21632,36465.0,52197.0,-854.665365850951,-596.0812667069904,-2135.631493658911
36465,12968,36465,21597,36465.0,52149.0,-856.2807666627866,-592.5009097177747,-2124.180863343708
36475,12932,36475,21624,36475.0,52184.0,-857.4269339907834,-588.289130079238,-2110.579192607933
36475,12914,36475,21620,36475.0,52190.0,-858.078984305258,-583.427647275276,-2094.759845156438
36475,12933,36475,21648,36475.0,52178.0,-858.2122921449295,-577.9008463597718,-2076.661271642164
36475,12925,36475,21687,36475.0,52161.0,-857.8028101019161,-571.695542095378,-2056.227427671107
36475,12927,36475,21656,36475.0,52219.0,-856.8271204450799,-564.8005542345959,-2033.4084399368012
36475,12930,36475,21674,36475.0,52227.0,-855.2624134334469,-557.2064424522687,-2008.161107423491
36486,12929,36486,21686,36486.0,52243.0,-853.0865064041425,-548.90557533269,-1980.4490348848929
36486,12952,36486,21726,36486.0,52233.0,-850.2778274707223,-539.8921633765162,-1950.2428431804494
36486,12941,36486,21719,36486.0,52260.0,-846.8153139561839,-530.162001285635,-1917.5207510751204
36486,12916,36486,21703,36486.0,52283.0,-842.678373989371,-519.7122414849106,-1882.2692987364194
36486,12897,36486,21678,36486.0,52276.0,-837.8471972878398,-508.54163816228197,-1844.4839910085736
36486,12886,36486,21701,36486.0,52332.0,-832.3034198344578,-496.65122346348215,-1804.1699398074434
36496,12924,36496,21683,36496.0,52326.0,-826.0307565492747,-484.0449787489265,-1761.3425260020363
36496,12906,36496,21694,36496.0,52406.0,-819.0152564858577,-470.7303106386106,-1716.0279571538968
36496,12908,36496,21747,36496.0,52473.0,-811.2453227325493,-456.7183580146027,-1668.2635404910695
36496,12934,36496,21747,36496.0,52545.0,-802.7118131657826,-442.0239718856014,-1618.0974618156838
36496,12940,36496,21784,36496.0,52574.0,-793.4081232658332,-426.6654102490449,-1565.588277575132
36496,12952,36496,21820,36496.0,52661.0,-783.3301035572624,-410.66400245948245,-1510.8045860135685
36506,12991,36506,21840,36506.0,52732.0,-772.475907001159,-394.0437703733013,-1453.8248451503491
36506,12984,36506,21871,36506.0,52838.0,-760.8457765923868,-376.8309974883861,-1394.7369569276507
36506,12957,36506,21893,36506.0,52876.0,-748.4419351191192,-359.0538748229424,-1333.6375886780718
36506,12985,36506,21854,36506.0,52957.0,-735.2688786081246,-340.742360297829,-1270.631613573526
36506,12987,36506,21889,36506.0,52993.0,-721.3338629116516,-321.9284530802269,-1205.8319340557905
36506,13012,36506,21904,36506.0,53108.0,-706.6471663972252,-302.64671799198067,-1139.3595290231876
36517,13031,36517,21928,36517.0,53203.0,-691.2221143328727,-282.93458336569677,-1071.3432961318017
36517,13050,36517,21983,36517.0,53310.0,-675.0749961728849,-262.8322857527595,-1001.9194039941003
36517,13076,36517,22029,36517.0,53410.0,-658.2249319751932,-242.38249872048368,-931.2303059292818
36517,13115,36517,22041,36517.0,53502.0,-640.6936813515057,-221.62970717418975,-859.4237285859832
36517,13126,36517,22092,36517.0,53624.0,-622.5053538575801,-200.61962938582397,-786.651734042148
36517,13145,36517,22117,36517.0,53730.0,-603.6861374959852,-179.3988087418263,-713.0697372786902
36527,13186,36527,22200,36527.0,53847.0,-584.2641599035602,-158.0141268424254,-638.8353769735888
36527,13209,36527,22184,36527.0,53934.0,-564.2693316212066,-136.51212312360042,-564.1073519690777
36527,13215,36527,22172,36527.0,54003.0,-543.7331138713687,-114.93854042274279,-489.044493542365
36527,13235,36527,22206,36527.0,54103.0,-522.6884385543027,-93.33853412977754,-413.80524441024886
36527,13257,36527,22244,36527.0,54200.0,-501.1698361066196,-71.7571386963038,-338.5473430260872
36527,13295,36527,22226,36527.0,54287.0,-479.21353540140285,-50.23942541761119,-263.4273882905586
36537,13318,36537,22269,36537.0,54387.0,-456.8573767185289,-28.830560489657216,-188.60028159137823
36537,13328,36537,22352,36537.0,54474.0,-434.1406479143899,-7.575840802837774,-114.2186685957256
36537,13406,36537,22359,36537.0,54611.0,-411.1039498218131,13.479739207534692,-40.43230495068974
36537,13417,36537,22393,36537.0,54716.0,-387.78890545037746,34.29223124344378,32.61285939502227
36537,13454,36537,22431,36537.0,54792.0,-364.2376792950424,54.819234311535126,104.77582542705022
36537,13488,36537,22454,36537.0,54907.0,-340.4925907523352,75.02019931427049,175.92154816551397
36548,13518,36548,22499,36548.0,54967.0,-316.59585670885906,94.8567792559108,245.92166255123448
36548,13541,36548,22515,36548.0,55037.0,-292.58934860558685,114.29321423065403,314.6549911270499
36548,13560,36548,22509,36548.0,55076.0,-268.51443951270153,133.29660267659517,382.0076960115298
36548,13565,36548,22522,36548.0,55207.0,-244.41203902010517,151.83684149133683,447.87316206593414
36548,13604,36548,22521,36548.0,55226.0,-220.32278829222855,169.8862482200227,512.1520358810983
36548,13631,36548,22531,36548.0,55257.0,-196.28722170451476,187.4191010485041,574.7523167872196
36558,13676,36558,22583,36558.0,55352.0,-172.34569744073997,204.41130797280817,635.5890477771613
36558,13702,36558,22603,36558.0,55453.0,-148.53811799748382,220.8404265690387,694.5840160994767
36558,13751,36558,22637,36558.0,55500.0,-124.90356476003456,236.6860412167747,751.666097680257
36558,13773,36558,22658,36558.0,55598.0,-101.47990607163621,251.93021922776006,806.7719423295962
36558,13791,36558,22681,36558.0,55641.0,-78.30346455314003,266.557880592021,859.8465446753937
36558,13831,36558,22731,36558.0,55699.0,-55.408845658058,280.5571487005052,910.8436583528799
36569,13866,36569,22695,36569.0,55742.0,-32.828810935510205,293.9197128845941,959.7260026158733
36569,13860,36569,22672,36569.0,55791.0,-10.594085599504183,306.64085912369956,1006.4652669188904
36569,13887,36569,22675,36569.0,55777.0,11.266688167373673,318.71885754144375,1051.0419328981952
36569,13903,36569,22667,36569.0,55784.0,32.72676008272572,330.1540751690933,1093.444679929607
36569,13932,36569,22705,36569.0,55804.0,53.76108860729357,340.9483604485454,1133.6693101535284
36569,13945,36569,22699,36569.0,55866.0,74.3462941276257,351.1048350632608,1171.7176911898819
36579,13964,36579,22705,36579.0,55917.0,94.46064406058088,360.6278967434191,1207.5972873876658
36579,13994,36579,22725,36579.0,55934.0,114.08401195261342,369.52318403079244,1241.3212613504274
36579,14017,36579,22751,36579.0,55931.0,133.1978962768428,377.79756964563774,1272.9085626750648
36579,14042,36579,22762,36579.0,55984.0,151.785552198657,385.4593704796931,1302.383621003628
36579,14090,36579,22776,36579.0,56011.0,169.83221869650686,392.5186728060347,1329.7759686030413
36579,14111,36579,22784,36579.0,56033.0,187.32548407728007,398.98758422891956,1355.1201600088798
36589,14089,36589,22777,36589.0,56044.0,204.25564465469267,404.88035335741915,1378.4557935098983
36589,14108,36589,22729,36589.0,56031.0,220.6156785572972,410.21322527006146,1399.8273034973522
36589,14085,36589,22733,36589.0,56037.0,236.40079046233814,415.00386434607174,1419.2834353880576
36589,14113,36589,22731,36589.0,56050.0,251.6078330723402,419.270572626839,1436.8765615704078
36589,14116,36589,22745,36589.0,56044.0,266.2348442991704,423.0317787204168,1452.662091799194
36589,14138,36589,22740,36589.0,56034.0,280.2808014530293,426.30589987550843,1466.6979723125796
36600,14183,36600,22772,36600.0,56076.0,293.74561881509885,429.1113924752044,1479.0441808250062
36600,14193,36600,22753,36600.0,56068.0,306.6304108906555,431.4669013121727,1489.7624098099282
36600,14189,36600,22777,36600.0,56095.0,318.937845281936,433.3914260989619,1498.9160312562008
36600,14215,36600,22781,36600.0,56067.0,330.6722613494046,434.90445199241003,1506.570091991789
36600,14225,36600,22790,36600.0,56140.0,341.83961123968595,436.0261264884648,1512.7912444389963
36600,14244,36600,22784,36600.0,56086.0,352.4474882487033,436.77746181827297,1517.6478009304678
36610,14236,36610,22748,36610.0,56052.0,362.5052119741197,437.18035375016893,1521.2096989679003
36610,14222,36610,22734,36610.0,56057.0,372.023741334287,437.25723196151466,1523.5479158376716
36610,14229,36610,22708,36610.0,56037.0,381.01531194729546,437.03039996611994,1524.733609605118
36610,14219,36610,22745,36610.0,56010.0,389.4929533491227,436.5214099366143,1524.837461803348
36610,14241,36610,22721,36610.0,56013.0,397.4701022016246,435.7508056222323,1523.9291142962893
36610,14272,36610,22739,36610.0,56026.0,404.96046083154295,434.73817803001805,1522.076696018556
36620,14281,36620,22742,36620.0,56037.0,411.97819376084067,433.5022842893511,1519.346716621582
36620,14254,36620,22758,36620.0,56028.0,418.53822298734667,432.06122299391825,1515.8042843533044
36620,14284,36620,22750,36620.0,56017.0,424.6562330039259,430.4327079102924,1511.5133040140672
36620,14279,36620,22753,36620.0,56063.0,430.3484842370907,428.6342978048409,1506.5365618160722
36620,14293,36620,22785,36620.0,56024.0,435.6317521243784,426.68356359989843,1500.9359338783388
36620,14295,36620,22712,36620.0,56000.0,440.52337309423547,424.59824895301654,1494.7725949037763
36631,14273,36631,22709,36631.0,55969.0,445.0412208450124,422.3961201337198,1488.1067798221584
36631,14270,36631,22701,36631.0,55937.0,449.20347677656343,420.09435892045326,1480.9971146403395
36631,14272,36631,22697,36631.0,55952.0,453.028226381285,417.70898566611095,1473.4999152587543
36631,14279,36631,22696,36631.0,55948.0,456.5331299304959,415.25461756574384,1465.6688044964994
36631,14279,36631,22729,36631.0,55893.0,459.7352963954852,412.74447257002885,1457.5546333705383
36631,14305,36631,22703,36631.0,55955.0,462.65130337224855,410.1905901405802,1449.205385153778
36641,14306,36641,22721,36641.0,55943.0,465.2973523396073,407.6041105680174,1440.6662083020885
36641,14289,36641,22716,36641.0,55901.0,467.6894635998668,404.99543032640577,1431.9797669290576
36641,14311,36641,22727,36641.0,55910.0,469.8435059826618,402.3743302398393,1423.186403463393
36641,14318,36641,22736,36641.0,55922.0,471.77515186190647,399.75018742743646,1414.3239987821062
36641,14321,36641,22712,36641.0,55920.0,473.4999876773047,397.1322019018561,1405.4280587302185
36641,14308,36641,22708,36641.0,55866.0,475.0336641025207,394.5294553820082,1396.5319731873872
36651,14295,36651,22678,36651.0,55858.0,476.3918323922884,391.9506947659876,1387.6669062029782
36651,14296,36651,22675,36651.0,55860.0,477.5898583103409,389.4039310414919,1378.8613404091116
36651,14283,36651,22658,36651.0,55861.0,478.64248920045463,386.8960071596154,1370.1408089718807
36651,14282,36651,22676,36651.0,55845.0,479.56357489596826,384.4322803273483,1361.5279720158892
36651,14303,36651,22682,36651.0,55865.0,480.365878423685,382.01655813899197,1353.042787782709
36651,14304,36651,22716,36651.0,55849.0,481.06108938644377,379.6513592048568,1344.7027049375104
36662,14318,36662,22691,36662.0,55830.0,481.6600416367919,377.33838887062797,1336.522851094061
36662,14324,36662,22707,36662.0,55828.0,482.1729830842048,375.0789324550416,1328.5160470029552
36662,14317,36662,22726,36662.0,55847.0,482.6097981213976,372.8740708311066,1320.6927410308306
36662,14321,36662,22715,36662.0,55844.0,482.9801175779604,370.72493484311354,1313.0611731470499
36662,14310,36662,22670,36662.0,55831.0,483.2932936209045,368.63289531238274,1305.6277215352993
36662,14270,36662,22673,36662.0,55824.0,483.5582089372218,366.5993162316971,1298.3971118163092
36672,14290,36672,22642,36672.0,55781.0,483.78285514233505,364.62497634150435,1291.3723389213308
36672,14292,36672,22652,36672.0,55806.0,483.97391083787113,362.70954355768083,1284.5543763451606
36672,14294,36672,22685,36672.0,55778.0,484.13663881397827,360.8513329372713,1277.9419135106543
36672,14303,36672,22678,36672.0,55805.0,484.27500706962087,359.04748783325795,1271.5313154963053
36672,14308,36672,22704,36672.0,55785.0,484.39183515747163,357.2944446553922,1265.3167606519978
36672,14327,36672,22698,36672.0,55831.0,484.48898596164236,355.58838181479865,1259.2905015815763
36682,14322,36682,22688,36682.0,55814.0,484.5676311475843,353.9255234444014,1253.4432942012504
36682,14325,36682,22692,36682.0,55814.0,484.6284910600457,352.30223527992547,1247.7648777461116
36682,14338,36682,22726,36682.0,55865.0,484.6719741521372,350.7150524585669,1242.244364360197
36682,14337,36682,22705,36682.0,55833.0,484.69830091731023,349.1609105296381,1236.8706984716368
36682,14320,36682,22680,36682.0,55784.0,484.70762040574573,347.63739158197797,1231.633034523207
36682,14322,36682,22663,36682.0,55802.0,484.6999634927553,346.1425565590323,1226.5205477242282
36693,14300,36693,22650,36693.0,55787.0,484.675014683623,344.6744164596623,1221.5219412624137
36693,14330,36693,22637,36693.0,55805.0,484.63186840302546,343.2303885499884,1216.6252574478674
36693,14316,36693,22630,36693.0,55796.0,484.56894787087083,341.8068692009365,1211.818005303085
36693,14320,36693,22695,36693.0,55768.0,484.48408052576156,340.3990489123414,1207.0872973837597
36693,14340,36693,22713,36693.0,55810.0,484.3745904121689,339.0012954601119,1202.419844457531
36693,14344,36693,22710,36693.0,55819.0,484.23745617067027,337.6080365108417,1197.8020654708914
36703,14364,36703,22712,36703.0,55807.0,484.0696237600073,336.2145064296597,1193.2205277479395
36703,14357,36703,22732,36703.0,55828.0,483.8683667490408,334.8170802030353,1188.6624102528372
36703,14348,36703,22684,36703.0,55821.0,483.63152225854344,333.4134111621762,1184.1157960706025
36703,14334,36703,22696,36703.0,55835.0,483.3574710981294,332.0023564332347,1179.5699442727068
36703,14349,36703,22676,36703.0,55775.0,483.04492692875726,330.5836537654263,1175.0154666743588
36703,14343,36703,22653,36703.0,55767.0,482.69278747112025,329.1575481026789,1170.4441062748992
36713,14335,36713,22651,36713.0,55742.0,482.3001206587959,327.7243962458329,1165.848117691178
36713,14327,36713,22615,36713.0,55759.0,481.8661056639735,326.2841990117822,1161.219670793543
36713,14321,36713,22645,36713.0,55811.0,481.38984383283366,324.8361580237659,1156.5507311163913
36713,14336,36713,22649,36713.0,55814.0,480.87017110235456,323.3784655820065,1151.8336034815095
36713,14350,36713,22693,36713.0,55801.0,480.305660136533,321.90853406206264,1147.0617788682123
36713,14350,36713,22687,36713.0,55798.0,479.6948587662072,320.4235981139431,1142.2304473008976
36724,14363,36724,22698,36724.0,55777.0,479.0366049037058,318.92135582556426,1137.3365373228487
36724,14369,36724,22704,36724.0,55830.0,478.3302985770447,317.4004020381302,1132.378654574475
36724,14363,36724,22711,36724.0,55782.0,477.57613718931543,315.8605064978133,1127.357247417893
36724,14339,36724,22678,36724.0,55773.0,476.7752108113867,314.30279557239714,1122.2748094239794
36724,14324,36724,22663,36724.0,55736.0,475.9292956049119,312.729653380862,1117.1356795618535
36724,14328,36724,22636,36724.0,55740.0,475.0404303405021,311.1442573057892,1111.9455067969611
36734,14321,36734,22634,36734.0,55725.0,474.11056535123384,309.54996435551715,1106.7107816843552
36734,14330,36734,22598,36734.0,55748.0,473.1414234978332,307.9497506538117,1101.438643224689
36734,14339,36734,22648,36734.0,55718.0,472.1345305880643,306.345793000548,1096.1369324451157
36734,14344,36734,22645,36734.0,55740.0,471.0913828159604,304.7394049031023,1090.8143143885873
36734,14349,36734,22650,36734.0,55729.0,470.01369045876925,303.13137962543163,1085.4803812376285
36734,14345,36734,22671,36734.0,55714.0,468.9035885003807,301.52241439090466,1080.1457605757298
36744,14358,36744,22709,36744.0,55725.0,467.7637776968153,299.91354082941876,1074.8221576456679
36744,14361,36744,22668,36744.0,55697.0,466.5976668431036,298.3066850855274,1069.5223191186058
36744,14349,36744,22693,36744.0,55678.0,465.409538413496,296.70507422677736,1064.259915972751
36744,14328,36744,22635,36744.0,55655.0,464.20457354302584,295.1132197309623,1059.0492196022396
36744,14305,36744,22600,36744.0,55685.0,462.98857229233784,293.5364718771806,1053.9046982127236
36744,14303,36744,22615,36744.0,55647.0,461.76744998167914,291.980227873796,1048.8408487467286
36755,14287,36755,22578,36755.0,55632.0,460.54674821227076,290.4491800904073,1043.8721525700437
36755,14314,36755,22613,36755.0,55625.0,459.33134050198345,288.94691385792527,1039.0128266112256
36755,14311,36755,22627,36755.0,55590.0,458.1254214044578,287.47586480998524,1034.2764160350252
36755,14303,36755,22652,36755.0,55652.0,456.932693959366,286.03768219563364,1029.6754991729952
36755,14331,36755,22635,36755.0,55605.0,455.75654487066913,284.6338179689216,1025.221724861469
36755,14326,36755,22653,36755.0,55644.0,454.60022752797545,283.2659550653525,1020.9261048788646
36765,14312,36765,22662,36765.0,55601.0,453.4670952569289,281.9362363608367,1016.7992373082445
