c_ts,c_val,d_ts,d_val,e_ts,e_val,c_val_filtered,d_val_filtered,e_val_filtered
345159,22689,345159.0,62068.0,345159.0,90000.0,562.3317324282209,859.1953267768531,914.8747536266566
345159,22667,345159.0,62016.0,345159.0,89974.0,561.0257970302813,853.9679319229471,909.349430038051
345159,22656,345159.0,61981.0,345159.0,89936.0,559.4308853224325,848.1344076622311,903.2127935223396
345159,22651,345159.0,62016.0,345159.0,89926.0,557.5432161227259,841.6856378149876,896.4607633783974
345169,22673,345169.0,62052.0,345169.0,89942.0,555.3588162017325,834.6123776790245,889.0895498079676
345169,22649,345169.0,62029.0,345169.0,89945.0,552.8736331611983,826.90592312688,881.0957183969591
345169,22656,345169.0,62059.0,345169.0,89936.0,550.0837471983309,818.559043078708,872.4766635454208
345169,22650,345169.0,62034.0,345169.0,89949.0,546.9854896291232,809.5666838535785,863.2311590582273
345169,22661,345169.0,62059.0,345169.0,89951.0,543.5755593598786,799.9265184709983,853.3598868055988
345169,22665,345169.0,62008.0,345169.0,89937.0,539.8512730093194,789.6394098589265,842.8660082390169
345180,22667,345180.0,62044.0,345180.0,89899.0,535.8109285445445,778.7097252970926,831.7555986168443
345180,22628,345180.0,61936.0,345180.0,89824.0,531.454106446981,767.1454555131038,820.037593725034
345180,22606,345180.0,61877.0,345180.0,89796.0,526.7816372797027,754.9578306804627,807.7231092569087
345180,22590,345180.0,61820.0,345180.0,89788.0,521.7952012644939,742.1601598616825,794.8245251675294
345180,22577,345180.0,61833.0,345180.0,89724.0,516.49686340113,728.7664541131155,781.3548608156547
345180,22591,345180.0,61847.0,345180.0,89783.0,510.88882537391214,714.7907677889251,767.3275133508923
345190,22581,345190.0,61819.0,345190.0,89756.0,504.9734771518081,700.2474478250149,752.7564135641587
345190,22579,345190.0,61818.0,345190.0,89729.0,498.75364499823036,685.1516996175499,737.6565845944667
345190,22584,345190.0,61846.0,345190.0,89728.0,492.23286176788406,669.5200885617019,722.0446092428706
345190,22580,345190.0,61858.0,345190.0,89735.0,485.4156432022754,653.3712519689345,705.938894091644
345190,22588,345190.0,61908.0,345190.0,89722.0,478.30782676578775,636.7270616309982,689.3601164091987
345190,22539,345190.0,61725.0,345190.0,89648.0,470.9168656115046,619.6137345250984,672.3317095500886
345200,22551,345200.0,61714.0,345200.0,89642.0,463.25188118078563,602.0618122953285,654.8798822651693
345200,22513,345200.0,61665.0,345200.0,89607.0,455.3235045471127,584.1049175904587,637.0332581771681
345200,22493,345200.0,61636.0,345200.0,89558.0,447.14366203347663,565.7785369328229,618.8225575277479
345200,22460,345200.0,61537.0,345200.0,89539.0,438.72526023813657,547.1192965201279,600.2803141980733
345200,22460,345200.0,61583.0,345200.0,89499.0,430.0817781794567,528.1642603185142,581.4405379645601
345200,22448,345200.0,61546.0,345200.0,89462.0,421.22699684762665,508.95047996963035,562.3384160506914
345211,22452,345211.0,61527.0,345211.0,89461.0,412.17500333990074,489.51515350931584,543.0100812052318
345211,22442,345211.0,61511.0,345211.0,89433.0,402.94039830042584,469.8959687365716,523.4925524219612
345211,22433,345211.0,61574.0,345211.0,89419.0,393.53856251906615,450.13147823994257,503.8239118854407
345211,22437,345211.0,61543.0,345211.0,89428.0,383.9858992371255,430.2619439935356,484.0436177739872
345211,22443,345211.0,61499.0,345211.0,89367.0,374.3001224845236,410.3304195533593,464.192890965826
345211,22386,345211.0,61391.0,345211.0,89292.0,364.50057674351063,390.3831052447724,444.31484854221515
345221,22345,345221.0,61297.0,345221.0,89235.0,354.6082149955071,370.46845686823224,424.4539274126307
345221,22328,345221.0,61302.0,345221.0,89201.0,344.6450361989295,350.6355361725218,404.65481118176206
345221,22309,345221.0,61223.0,345221.0,89168.0,334.63340447939765,330.93261744738663,384.9615084404728
345221,22285,345221.0,61160.0,345221.0,89134.0,324.59563787880256,311.4063299587268,365.4168319822621
345221,22279,345221.0,61146.0,345221.0,89135.0,314.55379713650854,292.1008348173332,346.0621722907988
345221,22260,345221.0,61125.0,345221.0,89044.0,304.5295665239309,273.0570934667812,326.93740606141375
345231,22256,345231.0,61136.0,345231.0,89046.0,294.54423411151197,254.3126918187569,308.0806611646426
345231,22230,345231.0,61176.0,345231.0,89070.0,284.6187262415674,235.90231786867218,289.5280359209071
345231,22237,345231.0,61189.0,345231.0,89054.0,274.7736428974073,217.85884096878226,271.3138623714092
345231,22232,345231.0,61202.0,345231.0,89029.0,265.02936209317426,200.21475888698785,253.47145165591144
345231,22196,345231.0,61123.0,345231.0,89022.0,255.4062348730239,183.00341861327024,236.03367278262715
345231,22178,345231.0,61029.0,345231.0,88939.0,245.92463955108377,166.25928939795813,219.03312287624124
345242,22160,345242.0,60975.0,345242.0,88878.0,236.60477108303047,150.01700968482737,202.50177855101174
345242,22119,345242.0,60893.0,345242.0,88838.0,227.46632275827506,134.309759304237,186.47005854787676
345242,22099,345242.0,60869.0,345242.0,88824.0,218.52810205833123,119.16768435864105,170.9657822982689
345242,22096,345242.0,60896.0,345242.0,88799.0,209.8076023072921,104.61683110334081,156.01357995923217
345242,22095,345242.0,60881.0,345242.0,88805.0,201.32077842424633,90.67894807740151,141.6347894497958
345242,22084,345242.0,60864.0,345242.0,88800.0,193.08214156262835,77.37195731625263,127.84768386160442
345252,22081,345252.0,60865.0,345252.0,88785.0,185.10498593406265,64.71044634359362,114.66791116890386
345252,22050,345252.0,60884.0,345252.0,88781.0,177.4015449693876,52.70606095067478,102.10895135785881
345252,22066,345252.0,60915.0,345252.0,88777.0,169.98302781144884,41.368164568829116,90.18249534120696
345252,22061,345252.0,60865.0,345252.0,88767.0,162.859689540969,30.704769913544283,78.8988221107843
345252,22041,345252.0,60839.0,345252.0,88732.0,156.04105214260414,20.72316986817441,68.26712516861517
345252,21992,345252.0,60783.0,345252.0,88683.0,149.5360046958558,11.429830212378874,58.29553695345305
345262,22009,345262.0,60742.0,345262.0,88640.0,143.352535585512,2.829707875443887,48.990678944274464
345262,21972,345262.0,60656.0,345262.0,88653.0,137.49736357347535,-5.074756573690252,40.35696788112466
345262,21968,345262.0,60691.0,345262.0,88602.0,131.97572448597327,-12.28480033448966,32.396133227508244
345262,21976,345262.0,60709.0,345262.0,88620.0,126.79125865864364,-18.806062825353592,25.107034776557043
345262,21970,345262.0,60722.0,345262.0,88625.0,121.94605360810829,-24.648344943403117,18.485679156843958
345262,21959,345262.0,60725.0,345262.0,88621.0,117.44085597386925,-29.824769250748204,12.52552431175468
345273,21954,345273.0,60766.0,345273.0,88603.0,113.27523814340543,-34.35091956785266,7.217932435666512
345273,21953,345273.0,60755.0,345273.0,88619.0,109.44766084257105,-38.24399599513106,2.5524821757487643
345273,21965,345273.0,60785.0,345273.0,88627.0,105.95558752577404,-41.521958569034155,-1.4827503511868372
345273,21950,345273.0,60764.0,345273.0,88600.0,102.79572548730312,-44.202806745276916,-4.9007855748604925
345273,21938,345273.0,60725.0,345273.0,88562.0,99.96424603816354,-46.30417425433825,-7.7155106787868135
345273,21911,345273.0,60652.0,345273.0,88536.0,97.4567733826807,-47.84355040854075,-9.941955449735474
345283,21905,345283.0,60640.0,345283.0,88550.0,95.26812814955952,-48.83922038197102,-11.59684261911616
345283,21893,345283.0,60634.0,345283.0,88543.0,93.39200582916055,-49.31137951085657,-12.698890090836244
345283,21902,345283.0,60633.0,345283.0,88530.0,91.82077849078246,-49.282777471897134,-13.26875321160287
345283,21890,345283.0,60660.0,345283.0,88532.0,90.54548069477994,-48.77878442346207,-13.32891003918212
345283,21904,345283.0,60697.0,345283.0,88572.0,89.55591710824922,-47.826993728197635,-12.903527398319397
345283,21911,345283.0,60696.0,345283.0,88549.0,88.84085973006165,-46.456443419291645,-12.018072254310937
345293,21900,345293.0,60721.0,345293.0,88549.0,88.3883310010915,-44.69674897182779,-10.69883155412515
345293,21936,345293.0,60759.0,345293.0,88577.0,88.18591042020137,-42.57733668638832,-8.972631136805717
345293,21916,345293.0,60759.0,345293.0,88587.0,88.2210771874519,-40.126633060941344,-6.866532288974781
345293,21905,345293.0,60712.0,345293.0,88559.0,88.48152046164648,-37.37137718383099,-4.407365451559485
345293,21884,345293.0,60686.0,345293.0,88539.0,88.95515859486704,-34.336585454253054,-1.6215130504893978
345293,21886,345293.0,60649.0,345293.0,88528.0,89.62986773876423,-31.046230505100652,1.4648287061237397
345304,21879,345304.0,60625.0,345304.0,88497.0,90.49320960405805,-27.524194368907047,4.8251628799266655
345304,21858,345304.0,60601.0,345304.0,88504.0,91.53226804663313,-23.79518345009899,8.432207208654404
345304,21867,345304.0,60653.0,345304.0,88519.0,92.73348357816474,-19.885385960973395,12.257570575779368
345304,21874,345304.0,60654.0,345304.0,88523.0,94.08252466902184,-15.82254115240346,16.2717816544465
345304,21889,345304.0,60687.0,345304.0,88539.0,95.56438650893813,-11.635413424312219,20.444609927870033
345304,21872,345304.0,60725.0,345304.0,88568.0,97.16367518650793,-7.353006366449904,24.745512062085254
345314,21893,345314.0,60747.0,345314.0,88558.0,98.86484706289787,-3.0036433092528796,29.144172217673486
345314,21910,345314.0,60794.0,345314.0,88583.0,100.65241597290475,1.3860865339416932,33.611025971416325
345314,21905,345314.0,60729.0,345314.0,88593.0,102.51129874073837,5.792266289093504,38.11768989086556
345314,21872,345314.0,60642.0,345314.0,88537.0,104.42711736928851,10.193821192070686,42.63726937452225
345314,21868,345314.0,60612.0,345314.0,88537.0,106.38610828218037,14.571434985449287,47.14426639510748
345314,21836,345314.0,60646.0,345314.0,88534.0,108.3746815795156,18.905934074427364,51.614081941179165
345324,21845,345324.0,60608.0,345324.0,88511.0,110.37891609878801,23.17733204938088,56.02256931850843
345324,21862,345324.0,60643.0,345324.0,88542.0,112.38423964075162,27.364634367540475,60.345819218777365
345324,21848,345324.0,60664.0,345324.0,88566.0,114.37544051934492,31.44596671887723,64.56021578544278
345324,21870,345324.0,60720.0,345324.0,88557.0,116.33687329159227,35.399096554450466,68.64285955857883
345324,21872,345324.0,60680.0,345324.0,88540.0,118.25268713832907,39.20232216364218,72.57202211585627
345324,21880,345324.0,60712.0,345324.0,88565.0,120.10710775040343,42.835193719087556,76.32727696643008
345335,21898,345335.0,60758.0,345335.0,88591.0,121.88477524907262,46.27893948165968,79.8895988065808
345335,21900,345335.0,60828.0,345335.0,88577.0,123.57111638134603,49.51722718715962,83.24177379707703
345335,21877,345335.0,60692.0,345335.0,88568.0,125.15266850605627,52.53726727600167,86.36883814760051
345335,21854,345335.0,60591.0,345335.0,88510.0,126.61710287066228,55.329876282197006,89.25807200566078
345335,21844,345335.0,60654.0,345335.0,88497.0,127.952864638655,57.88788355982274,91.89843377845636
345335,21846,345335.0,60594.0,345335.0,88492.0,129.1487113636744,60.204429797871285,94.27974695275873
345345,21842,345345.0,60588.0,345345.0,88465.0,130.19344777247863,62.272244306553034,96.39207487429269
345345,21855,345345.0,60622.0,345345.0,88492.0,131.07590174289692,64.08335287975581,98.22539714745551
345345,21863,345345.0,60609.0,345345.0,88513.0,131.78508314833095,65.62901409833171,99.76960821397529
345345,21854,345345.0,60637.0,345345.0,88486.0,132.31045509472318,66.90004015309285,101.01487283193796
345345,21866,345345.0,60644.0,345345.0,88506.0,132.64218028572225,67.8872778289898,101.9520170021649
345345,21869,345345.0,60685.0,345345.0,88531.0,132.77131249394137,68.58219529482744,102.57279679924488
345355,21862,345355.0,60728.0,345355.0,88530.0,132.6900083269524,68.97773890001702,102.87033478400167
345355,21857,345355.0,60668.0,345355.0,88469.0,132.3916948118889,69.06933274194444,102.83957854443565
345355,21834,345355.0,60590.0,345355.0,88458.0,131.87107162396268,68.85527446451306,102.47720481924932
345355,21823,345355.0,60551.0,345355.0,88442.0,131.12392388330545,68.33590817073389,101.78099971928987
345355,21812,345355.0,60534.0,345355.0,88380.0,130.14681652071,67.51211888892806,100.74918465699454
345355,21783,345355.0,60514.0,345355.0,88386.0,128.9367634400299,66.38412807259601,99.37974067775224
345366,21786,345366.0,60487.0,345366.0,88387.0,127.49088373233616,64.95080665576324,97.66978589536177
345366,21798,345366.0,60544.0,345366.0,88407.0,125.8061482489415,63.20933162382278,95.61540477104757
345366,21792,345366.0,60519.0,345366.0,88422.0,123.87941292616898,61.15530148766993,93.21202848718826
345366,21796,345366.0,60553.0,345366.0,88413.0,121.70766610211649,58.78327431860578,90.45506499952967
345366,21810,345366.0,60560.0,345366.0,88429.0,119.28830373862968,56.08740872731403,87.34047939096945
345366,21794,345366.0,60616.0,345366.0,88433.0,116.619426566627,53.0622180658346,83.86527002078037
345376,21786,345376.0,60624.0,345376.0,88399.0,113.70008435322376,49.70361813363559,80.02788106002481
345376,21773,345376.0,60532.0,345376.0,88382.0,110.53031961408954,46.009890110493984,75.82836127023006
345376,21748,345376.0,60496.0,345376.0,88319.0,107.1110290104395,41.98171696697432,71.26807074376336
345376,21737,345376.0,60479.0,345376.0,88326.0,103.44370718612475,37.6212185250489,66.34904285992627
345376,21719,345376.0,60431.0,345376.0,88277.0,99.53012765601449,32.930861420388624,61.073313066966875
345376,21709,345376.0,60364.0,345376.0,88297.0,95.37205378881691,27.912571749944732,55.44245727418797
345386,21716,345386.0,60427.0,345386.0,88286.0,90.97106077589854,22.56685808212592,49.4574308558216
345386,21711,345386.0,60420.0,345386.0,88294.0,86.32854745220828,16.892412251172004,43.118732497211454
345386,21710,345386.0,60409.0,345386.0,88279.0,81.44592374836759,10.88650766569458,36.42675523182345
345386,21687,345386.0,60429.0,345386.0,88270.0,76.32480170682925,4.545602216658381,29.382093939156903
345386,21696,345386.0,60485.0,345386.0,88305.0,70.96706656348061,-2.134076749541464,21.98581332744311
345386,21698,345386.0,60504.0,345386.0,88258.0,65.3749411647596,-9.155518054572894,14.239842315202168
345397,21684,345397.0,60458.0,345397.0,88254.0,59.5511873372285,-16.519652799031633,6.147338939715496
345397,21653,345397.0,60388.0,345397.0,88185.0,53.499280210348616,-24.22473965134816,-2.287344619511714
345397,21638,345397.0,60333.0,345397.0,88167.0,47.22329838598006,-32.26691927313743,-11.059161768410263
345397,21620,345397.0,60293.0,345397.0,88158.0,40.72759459834117,-40.6414987902275,-20.163036607873437
345397,21605,345397.0,60265.0,345397.0,88114.0,34.01647945962344,-49.344223719878414,-29.59433638814778
345397,21588,345397.0,60262.0,345397.0,88110.0,27.09399100475258,-58.37213679781871,-39.34914539964632
345407,21606,345407.0,60251.0,345407.0,88094.0,19.963770132533227,-67.72394288605972,-49.42447806350037
345407,21598,345407.0,60293.0,345407.0,88118.0,12.6291672800034,-77.39989017557582,-59.81827754967924
345407,21578,345407.0,60290.0,345407.0,88097.0,5.093535684951178,-87.40117380400011,-70.52906443701534
345407,21573,345407.0,60281.0,345407.0,88095.0,-2.6395721990454604,-97.7290764080725,-81.55543179289623
345407,21578,345407.0,60346.0,345407.0,88085.0,-10.566345725010933,-108.38413093359031,-92.8956396971704
345407,21564,345407.0,60353.0,345407.0,88085.0,-18.68257607223501,-119.365121523379,-104.54729712624703
345418,21526,345418.0,60296.0,345418.0,88012.0,-26.983494080445325,-130.6679143926989,-116.50713531215911
345418,21514,345418.0,60171.0,345418.0,88018.0,-35.463863288555444,-142.2850516831361,-128.77110741323884
345418,21492,345418.0,60136.0,345418.0,87967.0,-44.1183020268744,-154.20680054719617,-141.33477615604397
345418,21477,345418.0,60108.0,345418.0,87955.0,-52.941583791879566,-166.4229109472643,-154.19368602376608
345418,21460,345418.0,60054.0,345418.0,87914.0,-61.9288391761944,-178.92394716307854,-167.34366954199038
345418,21440,345418.0,60069.0,345418.0,87921.0,-71.07571821115414,-191.70200511941744,-180.78111006801623
345428,21454,345428.0,60087.0,345428.0,87904.0,-80.37849102016958,-204.75093320789426,-194.5030074183959
345428,21442,345428.0,60086.0,345428.0,87905.0,-89.83395943293078,-218.0659172250413,-208.50676550888784
345428,21423,345428.0,60066.0,345428.0,87881.0,-99.4392039709146,-231.64270688549266,-222.78983770108846
345428,21440,345428.0,60085.0,345428.0,87887.0,-109.19135654408228,-245.47697584369723,-237.34938375304887
345428,21449,345428.0,60135.0,345428.0,87904.0,-119.08732003637601,-259.5636737185405,-252.18185954315175
345428,21413,345428.0,60032.0,345428.0,87841.0,-129.12331143564103,-273.89614766909244,-267.28247288970795
345438,21385,345438.0,60010.0,345438.0,87802.0,-139.29456860164487,-288.4656772425875,-282.6449042647364
345438,21362,345438.0,59945.0,345438.0,87781.0,-149.59551626414577,-303.2619610275839,-298.2616102894184
345438,21321,345438.0,59913.0,345438.0,87724.0,-160.02020724946783,-318.27406970366803,-314.1243803527717
345438,21306,345438.0,59857.0,345438.0,87742.0,-170.56281852921063,-333.49134976648304,-330.22477423303894
345438,21304,345438.0,59850.0,345438.0,87685.0,-181.2180687151968,-348.9041993483871,-346.5543398015524
345438,21306,345438.0,59866.0,345438.0,87664.0,-191.98133862640987,-364.5045060071517,-363.10470215091743
345449,21303,345449.0,59876.0,345449.0,87666.0,-202.8484343897864,-380.2854371652021,-379.8676842981673
345449,21280,345449.0,59858.0,345449.0,87651.0,-213.81522191069672,-396.24070286918266,-396.8352877231051
345449,21256,345449.0,59856.0,345449.0,87682.0,-224.87742427195178,-412.3637950103073,-413.99929219187163
345449,21275,345449.0,59910.0,345449.0,87645.0,-236.0306125579835,-428.647320601548,-431.3505621559474
345449,21261,345449.0,59869.0,345449.0,87607.0,-247.27009680968308,-445.08211364059184,-448.8784323716046
345449,21229,345449.0,59789.0,345449.0,87607.0,-258.59064440567727,-461.65643746775277,-466.57050696153124
345459,21199,345459.0,59733.0,345459.0,87529.0,-269.98639232059804,-478.3561177706549,-484.4127731119812
345459,21184,345459.0,59669.0,345459.0,87476.0,-281.4511092602056,-495.16562280814674,-502.3899751703565
345459,21169,345459.0,59658.0,345459.0,87394.0,-292.9785225206341,-512.0693141980493,-520.4864823222425
345459,21136,345459.0,59601.0,345459.0,87404.0,-304.56251752025776,-529.0523405699907,-538.6874520107632
345459,21127,345459.0,59625.0,345459.0,87398.0,-316.1973073456343,-546.1011098215225,-556.979585342172
345459,21116,345459.0,59582.0,345459.0,87424.0,-327.8775988187243,-563.203384977496,-575.3510115233225
345469,21117,345469.0,59602.0,345469.0,87371.0,-339.5986034960389,-580.3480749257011,-593.7905790167622
345469,21097,345469.0,59592.0,345469.0,87365.0,-351.3558593718718,-597.5248256659994,-612.2872438971806
345469,21100,345469.0,59667.0,345469.0,87376.0,-363.144997011603,-614.7232950688566,-630.829774345832
345469,21104,345469.0,59635.0,345469.0,87372.0,-374.9614785989662,-631.9319455514118,-649.4063507203155
345469,21071,345469.0,59581.0,345469.0,87279.0,-386.80026957267387,-649.136830600844,-668.0040393146066
345469,21043,345469.0,59484.0,345469.0,87267.0,-398.6556433549157,-666.3213185886282,-686.6087716011793
345480,21014,345480.0,59384.0,345480.0,87208.0,-410.5213419490142,-683.4671327692653,-705.2059305650612
345480,20978,345480.0,59349.0,345480.0,87175.0,-422.390995454891,-700.5562020640635,-723.7810325839046
345480,20980,345480.0,59332.0,345480.0,87133.0,-434.25856797606787,-717.5723801507822,-742.3203130700463
345480,20964,345480.0,59311.0,345480.0,87127.0,-446.118615608181,-734.5023514332879,-760.8112143153833
345480,20957,345480.0,59325.0,345480.0,87129.0,-457.96626968475516,-751.3357628542537,-779.2425614695626
345480,20944,345480.0,59332.0,345480.0,87104.0,-469.7970850958043,-768.0648612557691,-797.6043137328777
345490,20922,345490.0,59322.0,345490.0,87080.0,-481.6069157392268,-784.683796506032,-815.8871643351156
345490,20930,345490.0,59325.0,345490.0,87102.0,-493.3918395152318,-801.1878496931779,-834.0822324807655
345490,20932,345490.0,59362.0,345490.0,87103.0,-505.147993367181,-817.5726837302764,-852.1806188943135
345490,20900,345490.0,59371.0,345490.0,87042.0,-516.8712476724819,-833.8333736967302,-870.172748363877
345490,20880,345490.0,59259.0,345490.0,86995.0,-528.556981174999,-849.9634295653048,-888.0480702716347
345490,20855,345490.0,59193.0,345490.0,86932.0,-540.2001711123938,-865.9547484692998,-905.795512052965
345500,20823,345500.0,59152.0,345500.0,86897.0,-551.7956813151253,-881.7987759961059,-923.4043843915204
345500,20808,345500.0,59145.0,345500.0,86884.0,-563.3386067793413,-897.4878790693253,-940.8652265020535
345500,20780,345500.0,59065.0,345500.0,86817.0,-574.8246101191537,-913.0161657187159,-958.1703489936813
345500,20784,345500.0,59119.0,345500.0,86879.0,-586.2501610121053,-928.3799219671191,-975.3140968769349
345500,20776,345500.0,59111.0,345500.0,86833.0,-597.6125775925453,-943.5776559037713,-992.292713564869
345500,20756,345500.0,59090.0,345500.0,86827.0,-608.9098739572407,-958.6095709817923,-1009.1038303433356
345511,20772,345511.0,59072.0,345511.0,86816.0,-620.1405474401435,-973.4769603607594,-1025.7460246353103
345511,20751,345511.0,59112.0,345511.0,86824.0,-631.3033300118102,-988.1818541888558,-1042.2185139301034
345511,20763,345511.0,59162.0,345511.0,86817.0,-642.3968593377795,-1002.7263774401085,-1058.520687948639
345511,20739,345511.0,59125.0,345511.0,86793.0,-653.4193403751568,-1017.1115066049135,-1074.6515316983189
345511,20696,345511.0,59015.0,345511.0,86729.0,-664.368365527398,-1031.3360872867024,-1090.6093118121253
345511,20664,345511.0,58959.0,345511.0,86695.0,-675.2411140051652,-1045.397197397916,-1106.3918216753689
345521,20666,345521.0,58943.0,345521.0,86668.0,-686.0348515465762,-1059.2915686246863,-1121.9970295709418
345521,20633,345521.0,58874.0,345521.0,86642.0,-696.747321795036,-1073.016908677335,-1137.4236685040428
345521,20612,345521.0,58886.0,345521.0,86618.0,-707.3769363295692,-1086.5727196741077,-1152.6715734912675
345521,20627,345521.0,58904.0,345521.0,86617.0,-717.9229253167772,-1099.9606653390765,-1167.7418331358308
345521,20608,345521.0,58895.0,345521.0,86615.0,-728.3853375327243,-1113.1843150132395,-1182.6367170455899
345521,20606,345521.0,58897.0,345521.0,86610.0,-738.764820976602,-1126.248468826703,-1197.3593264473827
345531,20591,345531.0,58897.0,345531.0,86588.0,-749.0623925224701,-1139.158519263798,-1211.913131853727
345531,20601,345531.0,58946.0,345531.0,86611.0,-759.2792613531759,-1151.9198085058313,-1226.3015616130415
345531,20587,345531.0,58923.0,345531.0,86589.0,-769.416590798002,-1164.536730450932,-1240.5275562454588
345531,20575,345531.0,58864.0,345531.0,86517.0,-779.4752208022645,-1177.0118929540197,-1254.593191673502
345531,20532,345531.0,58792.0,345531.0,86488.0,-789.4555553924605,-1189.3460848839852,-1268.4998427846529
345531,20519,345531.0,58749.0,345531.0,86442.0,-799.3577628445247,-1201.5392158849304,-1282.2489196392414
345542,20519,345542.0,58717.0,345542.0,86453.0,-809.1821185504768,-1213.5915994319384,-1295.8426055860511
345542,20482,345542.0,58729.0,345542.0,86406.0,-818.9292032091628,-1225.5048890840126,-1309.2842167755502
345542,20481,345542.0,58684.0,345542.0,86423.0,-828.5999927581653,-1237.2824372095167,-1322.5782659693914
345542,20465,345542.0,58711.0,345542.0,86408.0,-838.1959735935656,-1248.9292926641324,-1335.7303560106689
345542,20462,345542.0,58719.0,345542.0,86387.0,-847.719191979902,-1260.4519729038368,-1348.7469270984202
345542,20460,345542.0,58705.0,345542.0,86388.0,-857.1721647505047,-1271.8579375225154,-1361.635001375184
345552,20456,345552.0,58751.0,345552.0,86384.0,-866.5576795676212,-1283.1548864604986,-1374.4019671238948
345552,20465,345552.0,58820.0,345552.0,86421.0,-875.8785008560483,-1294.3498057558115,-1387.0551716516015
345552,20441,345552.0,58701.0,345552.0,86380.0,-885.1370298959088,-1305.4476998957095,-1399.6012396581016
345552,20420,345552.0,58678.0,345552.0,86348.0,-894.3350849365828,-1316.4509353979884,-1412.0455074405297
345552,20379,345552.0,58613.0,345552.0,86285.0,-903.4739995825926,-1327.3598713899257,-1424.3920766336757
345552,20366,345552.0,58610.0,345552.0,86262.0,-912.5550333221862,-1338.1740182118522,-1436.644481243687
345562,20366,345562.0,58524.0,345562.0,86255.0,-921.5798169034293,-1348.8929792944348,-1448.8064639327447
345562,20328,345562.0,58438.0,345562.0,86181.0,-930.5505876438629,-1359.5174616548732,-1460.8825093053601
345562,20353,345562.0,58561.0,345562.0,86243.0,-939.4702631880201,-1370.0504582195085,-1472.8781927571347
345562,20329,345562.0,58523.0,345562.0,86209.0,-948.3424062574184,-1380.4976143659896,-1484.80022938593
345562,20329,345562.0,58534.0,345562.0,86215.0,-957.171056016626,-1390.8664325307357,-1496.6560811277614
345562,20329,345562.0,58544.0,345562.0,86202.0,-965.960529153552,-1401.1653488264662,-1508.4534821279362
345573,20341,345573.0,58613.0,345573.0,86218.0,-974.7151763822657,-1411.4029870228635,-1520.2000784146624
345573,20316,345573.0,58570.0,345573.0,86201.0,-983.4390234047576,-1421.5871059661692,-1531.9030035473363
345573,20302,345573.0,58526.0,345573.0,86169.0,-992.1354965449111,-1431.7236509890613,-1543.56847499603
345573,20262,345573.0,58430.0,345573.0,86110.0,-1000.8074656563413,-1441.8168055774179,-1555.2017732731429
345573,20263,345573.0,58433.0,345573.0,86070.0,-1009.4575576489909,-1451.8700653628293,-1566.8077938460203
345573,20240,345573.0,58419.0,345573.0,86078.0,-1018.0884895988168,-1461.8874135048877,-1578.3918660735153
345583,20209,345583.0,58319.0,345583.0,86039.0,-1026.7033039768985,-1471.874030695571,-1589.9602986677016
345583,20218,345583.0,58365.0,345583.0,86046.0,-1035.3056010217506,-1481.8369180791524,-1601.5205321028006
345583,20218,345583.0,58389.0,345583.0,86046.0,-1043.8996750636152,-1491.785366129162,-1613.0810778754797
345583,20206,345583.0,58354.0,345583.0,86041.0,-1052.490376597511,-1501.7306803516972,-1624.6512504497273
345583,20195,345583.0,58387.0,345583.0,86023.0,-1061.082871984282,-1511.685507549612,-1636.2407745882683
345583,20185,345583.0,58428.0,345583.0,86046.0,-1069.6825313300496,-1521.6631953658996,-1647.8594397912811
345593,20218,345593.0,58487.0,345593.0,86046.0,-1078.2948249812316,-1531.6767475886952,-1659.5166821362807
345593,20184,345593.0,58391.0,345593.0,86015.0,-1086.9250119279054,-1541.737419324693,-1671.2210324991013
345593,20157,345593.0,58327.0,345593.0,85937.0,-1095.5778243386012,-1551.8540808704415,-1682.9798841699505
345593,20124,345593.0,58291.0,345593.0,85935.0,-1104.257571016392,-1562.03398537084,-1694.7999661205693
345593,20114,345593.0,58275.0,345593.0,85897.0,-1112.9686130772493,-1572.2840981055474,-1706.688141220578
345593,20105,345593.0,58226.0,345593.0,85898.0,-1121.7158029163452,-1582.6120441018825,-1718.6519362274805
345604,20090,345604.0,58228.0,345604.0,85862.0,-1130.5046819208078,-1593.026683952418,-1730.6997466572288
345604,20079,345604.0,58235.0,345604.0,85869.0,-1139.3415318836314,-1603.5384470988488,-1742.8409166355066
345604,20084,345604.0,58265.0,345604.0,85889.0,-1148.2333791006376,-1614.1591834930869,-1755.0856489358273
345604,20085,345604.0,58256.0,345604.0,85855.0,-1157.1878740470825,-1624.9014988979231,-1767.444615386933
345604,20066,345604.0,58274.0,345604.0,85842.0,-1166.213028195701,-1635.7779255788537,-1779.9285283836741
345604,20092,345604.0,58322.0,345604.0,85815.0,-1175.3169311792574,-1646.8000878653347,-1792.5480313587916
345614,20079,345614.0,58282.0,345614.0,85840.0,-1184.5074237589192,-1657.977740766938,-1805.3137500218272
345614,20057,345614.0,58157.0,345614.0,85841.0,-1193.7917263422473,-1669.3181851859483,-1818.236077018604
345614,20032,345614.0,58165.0,345614.0,85774.0,-1203.1762939797468,-1680.8268689012211,-1831.3247240738742
345614,20001,345614.0,58123.0,345614.0,85748.0,-1212.6670392680178,-1692.5086914358192,-1844.5886362567285
345614,19987,345614.0,58105.0,345614.0,85739.0,-1222.2697549799836,-1704.368911715953,-1858.036450188816
345614,19982,345614.0,58073.0,345614.0,85701.0,-1231.9904933796688,-1716.4135875182992,-1871.6769697355694
345624,19973,345624.0,58082.0,345624.0,85709.0,-1241.8357259659128,-1728.6498844861285,-1885.519377598003
345624,19973,345624.0,58108.0,345624.0,85676.0,-1251.812279399182,-1741.086090592935,-1899.5732837013932
345624,19968,345624.0,58092.0,345624.0,85699.0,-1261.9271465645347,-1753.7311395214597,-1913.8486282957267
345624,19960,345624.0,58091.0,345624.0,85681.0,-1272.1872454060742,-1766.5939280391058,-1928.355392912874
345624,19983,345624.0,58128.0,345624.0,85706.0,-1282.599131381471,-1779.682718504039,-1943.1031087436613
345624,19972,345624.0,58193.0,345624.0,85723.0,-1293.1685823689795,-1793.0042943356184,-1958.1001540248358
345635,19953,345635.0,58074.0,345635.0,85688.0,-1303.9001286745074,-1806.5627568905907,-1973.3529109667954
345635,19931,345635.0,58017.0,345635.0,85606.0,-1314.7968173487145,-1820.3590017038455,-1988.8652636055165
345635,19910,345635.0,58014.0,345635.0,85607.0,-1325.860303761198,-1834.39150738743,-2004.6389099256123
345635,19882,345635.0,57949.0,345635.0,85592.0,-1337.0911145062432,-1848.657486004482,-2020.6740348128267
345635,19864,345635.0,57925.0,345635.0,85560.0,-1348.48897027808,-1863.153660343171,-2036.969617259892
345635,19833,345635.0,57925.0,345635.0,85540.0,-1360.0531322662966,-1877.8768442292203,-2053.523460856184
345645,19839,345645.0,57926.0,345645.0,85537.0,-1371.7827073157387,-1892.8242146686075,-2070.3322531716294
345645,19854,345645.0,57952.0,345645.0,85520.0,-1383.6767216411936,-1907.9930209312759,-2087.3915326814035
345645,19836,345645.0,57938.0,345645.0,85525.0,-1395.733819440965,-1923.3798763767963,-2104.695447986546
345645,19834,345645.0,57940.0,345645.0,85498.0,-1407.951809052278,-1938.9799751269215,-2122.236404591339
345645,19838,345645.0,57996.0,345645.0,85543.0,-1420.327315733155,-1954.7863450091813,-2140.004629786252
345645,19826,345645.0,58007.0,345645.0,85526.0,-1432.8554682928993,-1970.7888273107676,-2157.987512204723
345656,19824,345656.0,57927.0,345656.0,85509.0,-1445.5295549262746,-1986.9728948867505,-2176.168777090018
345656,19774,345656.0,57846.0,345656.0,85436.0,-1458.3408042386977,-2003.3192803461857,-2194.528003617567
345656,19765,345656.0,57828.0,345656.0,85417.0,-1471.2784636970187,-2019.8048397681175,-2213.0408369298448
345656,19748,345656.0,57792.0,345656.0,85402.0,-1484.3300928156611,-2036.4037783153012,-2231.679555557087
345656,19730,345656.0,57748.0,345656.0,85311.0,-1497.4817901255105,-2053.0884613706967,-2250.4135538335368
345656,19734,345656.0,57802.0,345656.0,85355.0,-1510.718243019709,-2069.829799874325,-2269.2097907891875
345666,19708,345666.0,57822.0,345666.0,85360.0,-1524.0226515169002,-2086.597024565716,-2288.0330041277493
345666,19703,345666.0,57770.0,345666.0,85330.0,-1537.376607385615,-2103.3567913875268,-2306.845277519071
345666,19698,345666.0,57779.0,345666.0,85321.0,-1550.7599898853332,-2120.0723819944596,-2325.605383282188
345666,19721,345666.0,57861.0,345666.0,85335.0,-1564.1507471796358,-2136.7032149698844,-2344.2683772649534
345666,19699,345666.0,57839.0,345666.0,85337.0,-1577.5244325340727,-2153.203889818281,-2362.7851416791073
345666,19674,345666.0,57745.0,345666.0,85287.0,-1590.8537287444585,-2169.5229876671992,-2381.1017559284846
345676,19657,345676.0,57699.0,345676.0,85257.0,-1604.1083015751742,-2185.6029111695407,-2399.1591705740157
345676,19628,345676.0,57641.0,345676.0,85218.0,-1617.2549588080092,-2201.3809352611624,-2416.8934270041796
345676,19609,345676.0,57626.0,345676.0,85150.0,-1630.2579074377877,-2216.7904870989432,-2434.23622032171
345676,19572,345676.0,57554.0,345676.0,85147.0,-1643.07905746702,-2231.7621067386763,-2451.1156294189677
345676,19590,345676.0,57583.0,345676.0,85098.0,-1655.6783248825845,-2246.2241554478005,-2467.456812044089
345676,19567,345676.0,57572.0,345676.0,85110.0,-1668.013740765174,-2260.1031706782287,-2483.182428374686
345687,19555,345687.0,57564.0,345687.0,85113.0,-1680.041335446123,-2273.323704065483,-2498.212698373528
345687,19547,345687.0,57590.0,345687.0,85101.0,-1691.7150237010255,-2285.8078694628316,-2512.465083283747
345687,19552,345687.0,57545.0,345687.0,85100.0,-1702.9865288300416,-2297.4748645144273,-2525.853798241239
345687,19544,345687.0,57613.0,345687.0,85123.0,-1713.8051852194567,-2308.2405067433606,-2538.2893448617124
345687,19532,345687.0,57600.0,345687.0,85094.0,-1724.1176553512726,-2318.016626901671,-2549.6779896817716
345687,19511,345687.0,57491.0,345687.0,85024.0,-1733.8677571787448,-2326.710476115195,-2559.92142812964
345697,19484,345697.0,57449.0,345697.0,84984.0,-1742.996520969656,-2334.2250198756346,-2568.917169295219
345697,19451,345697.0,57432.0,345697.0,84949.0,-1751.4424936224468,-2340.4602675803385,-2576.55957586531
345697,19443,345697.0,57399.0,345697.0,84924.0,-1759.1422154558527,-2345.3145985284477,-2582.740957433782
345697,19411,345697.0,57308.0,345697.0,84896.0,-1766.0307055076105,-2348.685725341869,-2587.3524129816524
345697,19405,345697.0,57350.0,345697.0,84870.0,-1772.041870366714,-2350.47175948538,-2590.284519085069
345697,19411,345697.0,57354.0,345697.0,84880.0,-1777.1088062542294,-2350.572108975755,-2591.427926048833
345707,19392,345707.0,57362.0,345707.0,84875.0,-1781.1639114890095,-2348.8876145668446,-2590.673727881447
345707,19381,345707.0,57350.0,345707.0,84846.0,-1784.1389086372142,-2345.3202514528152,-2587.913613687949
345707,19392,345707.0,57318.0,345707.0,84866.0,-1785.9649444744005,-2339.773081687824,-2583.0400630333015
345707,19369,345707.0,57401.0,345707.0,84866.0,-1786.572697112389,-2332.1504847758492,-2575.9465907974454
345707,19370,345707.0,57344.0,345707.0,84803.0,-1785.8924662069596,-2322.358202084616,-2566.527980235527
345707,19325,345707.0,57287.0,345707.0,84758.0,-1783.8544205004716,-2310.3033884016286,-2554.6809569433094
345718,19302,345718.0,57225.0,345718.0,84744.0,-1780.389154702511,-2295.8955539884023,-2540.3055580567316
345718,19307,345718.0,57178.0,345718.0,84726.0,-1775.4284891508764,-2279.048491184807,-2523.3066697908107
345718,19290,345718.0,57148.0,345718.0,84681.0,-1768.9061906906938,-2259.6824659941353,-2503.5953398773095
345718,19282,345718.0,57126.0,345718.0,84731.0,-1760.758477327922,-2237.726193733516,-2481.0899630672475
345718,19282,345718.0,57217.0,345718.0,84709.0,-1750.924480804485,-2213.118285595242,-2455.7172292250207
345718,19286,345718.0,57297.0,345718.0,84774.0,-1739.34670152747,-2185.807621997771,-2427.4126423587486
345728,19288,345728.0,57266.0,345728.0,84775.0,-1725.9713647214235,-2155.7526547011616,-2396.1207181776936
345728,19282,345728.0,57341.0,345728.0,84776.0,-1710.7487342951536,-2122.920683577923,-2361.7951293835727
345728,19315,345728.0,57385.0,345728.0,84873.0,-1693.6334468658026,-2087.2876355522076,-2324.3989724975513
345728,19300,345728.0,57432.0,345728.0,84854.0,-1674.5847926634774,-2048.8378125052213,-2283.904933079771
345728,19314,345728.0,57434.0,345728.0,84877.0,-1653.5669832264057,-2007.5635401174568,-2240.2953687400923
345728,19315,345728.0,57437.0,345728.0,84907.0,-1630.5495569495724,-1963.465270625347,-2193.5627701951507
345738,19318,345738.0,57410.0,345738.0,84937.0,-1605.507907444645,-1916.5524149558507,-2143.7105017672034
345738,19320,345738.0,57434.0,345738.0,84991.0,-1578.4238830675786,-1866.84475242541,-2090.753404664192
345738,19352,345738.0,57516.0,345738.0,85013.0,-1549.286421969181,-1814.3738490078094,-2034.7182305357005
345738,19394,345738.0,57626.0,345738.0,85115.0,-1518.0920127757845,-1759.183661876153,-1975.6439675432036
345738,19416,345738.0,57689.0,345738.0,85168.0,-1484.844821372838,-1701.3300458610922,-1913.5819123586114
345738,19456,345738.0,57781.0,345738.0,85251.0,-1449.5566478177468,-1640.879757394377,-1848.5954159892362
345749,19504,345749.0,57873.0,345749.0,85356.0,-1412.2468893043597,-1577.9095369641,-1780.7594515177354
345749,19540,345749.0,57979.0,345749.0,85461.0,-1372.9424521285089,-1512.505219357933,-1710.159969324976
345749,19617,345749.0,58149.0,345749.0,85548.0,-1331.677541192594,-1444.7605433994136,-1636.892970587593
345749,19662,345749.0,58170.0,345749.0,85635.0,-1288.4932917727886,-1374.7755956745225,-1561.063577567895
345749,19687,345749.0,58185.0,345749.0,85708.0,-1243.4373476740805,-1302.6556582844964,-1482.7853930545775
345749,19726,345749.0,58258.0,345749.0,85805.0,-1196.5637163294066,-1228.5113235395957,-1402.1801536464613
345759,19790,345759.0,58337.0,345759.0,85871.0,-1147.9329397707647,-1152.4593460115525,-1319.3775376090043
345759,19820,345759.0,58412.0,345759.0,85958.0,-1097.6122478273637,-1074.623165897121,-1234.5150788343071
345759,19895,345759.0,58499.0,345759.0,86051.0,-1045.6755762308308,-995.132972401849,-1147.7381806738301
345759,19974,345759.0,58632.0,345759.0,86193.0,-992.2034494678794,-914.1255176500608,-1059.1999965025425
345759,20040,345759.0,58747.0,345759.0,86333.0,-937.2825883702317,-831.743523098083,-969.0607999373849
345759,20128,345759.0,58855.0,345759.0,86464.0,-881.0052843559771,-748.1346477156283,-877.4867608269972
345769,20200,345769.0,59017.0,345769.0,86589.0,-823.468709533011,-663.450270332034,-784.6484739577456
345769,20275,345769.0,59145.0,345769.0,86720.0,-764.7742244393711,-577.8440813770012,-690.7195973527439
345769,20373,345769.0,59285.0,345769.0,86845.0,-705.026698492175,-491.47039818000644,-595.8756452443729
345769,20432,345769.0,59327.0,345769.0,86944.0,-644.3338095121711,-404.4826015869685,-500.2929118943357
345769,20478,345769.0,59389.0,345769.0,87043.0,-582.8054484499069,-317.03237090187804,-404.1476723629644
345769,20548,345769.0,59427.0,345769.0,87162.0,-520.5534929590153,-229.26998741374246,-307.61571928131
345780,20648,345780.0,59500.0,345780.0,87279.0,-457.6917803115841,-141.3453029140885,-210.87198302388128
345780,20709,345780.0,59638.0,345780.0,87353.0,-394.33583283590644,-53.40863168604528,-114.09007780838488
345780,20794,345780.0,59768.0,345780.0,87476.0,-330.6023382593687,34.389133041045625,-17.441966378604548
345780,20875,345780.0,59901.0,345780.0,87609.0,-266.60864227544903,121.89736720638712,78.90229271105386
345780,20966,345780.0,60000.0,345780.0,87726.0,-202.4722293207899,208.96702351030467,174.77509314517056
345780,21045,345780.0,60137.0,345780.0,87837.0,-138.31008860301176,295.4518529021934,270.01212771465407
345790,21116,345790.0,60201.0,345790.0,87987.0,-74.23806074009099,381.20939502546435,364.4532662251713
345790,21243,345790.0,60451.0,345790.0,88142.0,-10.370209795829851,466.10196495539003,457.94359725603
345790,21295,345790.0,60469.0,345790.0,88215.0,53.181934813774205,549.9980516476819,550.3347623936834
345790,21344,345790.0,60511.0,345790.0,88267.0,116.3101204771583,632.773658995834,641.4859788089886
345790,21421,345790.0,60553.0,345790.0,88342.0,178.90968230635326,714.312413923918,731.2640972724284
345790,21473,345790.0,60628.0,345790.0,88436.0,240.87951334476202,794.5045669592803,819.5430158719819
345800,21560,345800.0,60670.0,345800.0,88539.0,302.12208398733424,873.2459575938287,906.2032531273655
345800,21623,345800.0,60782.0,345800.0,88627.0,362.5436332917784,950.4373466828706,991.131986132229
345800,21684,345800.0,60893.0,345800.0,88745.0,422.0544645129862,1025.9842265301795,1074.2233896350085
345800,21744,345800.0,60950.0,345800.0,88794.0,480.5691900496506,1099.7972130697976,1155.3790631793477
345800,21827,345800.0,61071.0,345800.0,88883.0,538.0068963309736,1171.7926710828278,1234.508300818089
345800,21891,345800.0,61138.0,345800.0,88960.0,594.2914115219796,1241.8932819051138,1311.5280973122135
345811,21975,345811.0,61276.0,345811.0,89068.0,649.3517616415018,1310.028714182337,1386.3631730322968
345811,22014,345811.0,61316.0,345811.0,89152.0,703.1226880416107,1376.1364851694484,1458.9463076251682
345811,22061,345811.0,61338.0,345811.0,89159.0,755.544991771508,1440.1626101056336,1529.2187541849057
345811,22085,345811.0,61340.0,345811.0,89227.0,806.5655146881857,1502.0614062434101,1597.1301613759883
345811,22128,345811.0,61380.0,345811.0,89256.0,856.1367895930434,1561.7944107934377,1662.6379184018497
345811,22178,345811.0,61442.0,345811.0,89320.0,904.2165979013116,1619.3291327050338,1725.7064000391829
345821,22216,345821.0,61484.0,345821.0,89329.0,950.7676670968644,1674.6382749991049,1786.306325628117
345821,22246,345821.0,61535.0,345821.0,89420.0,995.757495184971,1727.6994186077281,1844.414150219266
345821,22315,345821.0,61559.0,345821.0,89490.0,1039.1581880080148,1778.494808398595,1900.011693238324
345821,22336,345821.0,61633.0,345821.0,89517.0,1080.9463853624416,1827.0110862962106,1953.086211863496
345821,22385,345821.0,61674.0,345821.0,89570.0,1121.1032909936262,1873.239140054769,2003.6305574688972
345821,22413,345821.0,61773.0,345821.0,89658.0,1159.6146554530037,1917.1742826378827,2051.6431686607125
345831,22484,345831.0,61841.0,345831.0,89700.0,1196.4707589776785,1958.816861666708,2097.128261365803
345831,22493,345831.0,61858.0,345831.0,89702.0,1231.6665446143475,1998.1731270710357,2140.0961957910363
345831,22518,345831.0,61829.0,345831.0,89734.0,1265.2017440572777,2035.255693151203,2180.5634393169325
345831,22527,345831.0,61811.0,345831.0,89700.0,1297.0807069784232,2070.082971547688,2218.551932746699
345831,22526,345831.0,61803.0,345831.0,89728.0,1327.3119136300365,2102.6777528123403,2254.0880759322204
345831,22541,345831.0,61818.0,345831.0,89729.0,1355.9073021333284,2133.065646335278,2287.201601243742
345842,22561,345842.0,61817.0,345842.0,89778.0,1382.8815700678756,2161.273863610646,2317.9246841546183
345842,22600,345842.0,61901.0,345842.0,89802.0,1408.2516887891816,2187.3304978402266,2346.291510584817
345842,22631,345842.0,61944.0,345842.0,89839.0,1432.036777742332,2211.2644912641726,2372.3382352170515
345842,22641,345842.0,61941.0,345842.0,89866.0,1454.258226926122,2233.106196226385,2396.103131363998
345842,22658,345842.0,61983.0,345842.0,89887.0,1474.939781549941,2252.8878814496406,2417.6267753957836
345842,22694,345842.0,62051.0,345842.0,89911.0,1494.107491057066,2270.6440044506535,2436.952195686845
345852,22710,345852.0,62089.0,345852.0,89961.0,1511.7897200746029,2286.4117914043186,2454.125043460297
345852,22710,345852.0,62033.0,345852.0,89881.0,1528.0172589020626,2300.2320363194913,2469.1937497378876
345852,22692,345852.0,61982.0,345852.0,89906.0,1542.823241210248,2312.149150983985,2482.209239920546
345852,22693,345852.0,61985.0,345852.0,89899.0,1556.2426838029073,2322.210096049099,2493.2241396839213
345852,22702,345852.0,61978.0,345852.0,89894.0,1568.3118537985106,2330.463029652355,2502.2920675521145
345852,22687,345852.0,61949.0,345852.0,89875.0,1579.0677494794081,2336.9563965712314,2509.4671784072502
345862,22706,345862.0,61992.0,345862.0,89890.0,1588.547713884333,2341.738369350044,2514.8037032495276
345862,22705,345862.0,61964.0,345862.0,89915.0,1596.789137459551,2344.856546755491,2518.35562715085
345862,22738,345862.0,62000.0,345862.0,89908.0,1603.8293436830622,2346.35793836724,2520.1767465020757
345862,22723,345862.0,62021.0,345862.0,89913.0,1609.7056766947312,2346.289166985698,2520.3209176297
345862,22735,345862.0,62061.0,345862.0,89891.0,1614.455613664716,2344.696988522028,2518.842165178928
345862,22773,345862.0,62098.0,345862.0,89951.0,1618.1168379588971,2341.6292027345316,2515.794699115375
345873,22749,345873.0,62034.0,345873.0,89927.0,1620.7274418820089,2337.135623424338,2511.2331826313284
345873,22734,345873.0,62012.0,345873.0,89882.0,1622.3261181439761,2331.2684508518514,2505.213129803629
345873,22716,345873.0,61938.0,345873.0,89869.0,1622.9519644318111,2324.0817128724784,2497.7908362637727
345873,22709,345873.0,61890.0,345873.0,89843.0,1622.6439787661725,2315.6300685760402,2489.0228208515937
345873,22696,345873.0,61852.0,345873.0,89781.0,1621.4405742523718,2305.9673895871133,2478.965183208539
345873,22687,345873.0,61869.0,345873.0,89797.0,1619.3792111363628,2295.1455544039577,2467.6729301357295
345883,22702,345883.0,61905.0,345883.0,89835.0,1616.4961489793318,2283.213992360625,2455.19954211601
345883,22703,345883.0,61879.0,345883.0,89791.0,1612.8264148832773,2270.2200949424296,2441.5972214217895
345883,22683,345883.0,61876.0,345883.0,89766.0,1608.403954218763,2256.209903954365,2426.917378910158
345883,22685,345883.0,61864.0,345883.0,89773.0,1603.261713806242,2241.2285144347534,2411.210716297736
345883,22693,345883.0,61877.0,345883.0,89779.0,1597.4316200273552,2225.32030414823,2394.527211880124
345883,22691,345883.0,61904.0,345883.0,89759.0,1590.944677458198,2208.5293767489934,2376.9164552973434
345894,22692,345894.0,61847.0,345894.0,89709.0,1583.8312234190576,2190.900255624195,2358.428028193662
345894,22662,345894.0,61741.0,345894.0,89660.0,1576.1211370894316,2172.4781814204703,2339.1114151435804
345894,22633,345894.0,61713.0,345894.0,89620.0,1567.8437876932883,2153.3083419647496,2319.015392651023
345894,22625,345894.0,61706.0,345894.0,89605.0,1559.027680317051,2133.4345552458103,2298.187285208153
345894,22601,345894.0,61643.0,345894.0,89578.0,1549.7000250729518,2112.898413845816,2276.6724814718536
345894,22596,345894.0,61652.0,345894.0,89573.0,1539.8864330887884,2091.73893191784,2254.514300103983
345904,22588,345904.0,61631.0,345904.0,89528.0,1529.6107546405246,2069.992383744736,2231.7540500096625
345904,22607,345904.0,61660.0,345904.0,89530.0,1518.8951071728216,2047.6924843994475,2208.43110346357
345904,22589,345904.0,61658.0,345904.0,89529.0,1507.7601470775828,2024.8710368014945,2184.583031381432
345904,22596,345904.0,61691.0,345904.0,89520.0,1496.2254489244779,2001.5589266956863,2160.246007904302
345904,22610,345904.0,61699.0,345904.0,89546.0,1484.309878143845,1977.7873349925462,2135.4555012885257
345904,22588,345904.0,61670.0,345904.0,89466.0,1472.0320192593306,1953.5889640829823,2110.2470232671644
345914,22578,345914.0,61582.0,345914.0,89473.0,1459.4105619173438,1928.9987772455165,2084.6565653873286
345914,22541,345914.0,61517.0,345914.0,89379.0,1446.4644113817474,1904.053740104168,2058.720528917346
345914,22515,345914.0,61438.0,345914.0,89355.0,1433.2124824151558,1878.791666220152,2032.4752604894466
345914,22509,345914.0,61386.0,345914.0,89314.0,1419.6733297417393,1853.2497423967343,2005.956394679367
345914,22486,345914.0,61354.0,345914.0,89308.0,1405.8648553079365,1827.4632202112457,1979.1983484125608
345914,22495,345914.0,61394.0,345914.0,89283.0,1391.8042293589776,1801.4646854285998,1952.234225087299
345925,22487,345925.0,61394.0,345925.0,89254.0,1377.5080227311573,1775.2842704589743,1925.0959937397174
345925,22471,345925.0,61391.0,345925.0,89250.0,1362.99248504523,1748.950634764253,1897.814711475649
345925,22463,345925.0,61361.0,345925.0,89230.0,1348.2738002944154,1722.4920099982678,1870.4207901563952
345925,22467,345925.0,61376.0,345925.0,89208.0,1333.3682687059336,1695.9369082442445,1842.944367041189
345925,22459,345925.0,61444.0,345925.0,89222.0,1318.292566128647,1669.3148728815072,1815.4157358996672
345925,22457,345925.0,61285.0,345925.0,89152.0,1303.0641188668167,1642.657524110397,1787.865799162842
345935,22402,345935.0,61217.0,345935.0,89100.0,1287.7013930690396,1615.9989065484929,1760.326266925847
345935,22377,345935.0,61146.0,345935.0,89040.0,1272.2238208575102,1589.3743324358682,1732.8292537231864
345935,22360,345935.0,61145.0,345935.0,89023.0,1256.6513706972964,1562.8187170527865,1705.4065088307477
345935,22337,345935.0,61118.0,345935.0,88977.0,1241.0041216039103,1536.3656680250017,1678.088813326423
345935,22319,345935.0,61093.0,345935.0,88970.0,1225.302034826415,1510.0473759709375,1650.905712882841
345935,22307,345935.0,61057.0,345935.0,88963.0,1209.56483331797,1483.89474079178,1623.8855428036313
345945,22304,345945.0,61030.0,345945.0,88930.0,1193.8119782320948,1457.9373784128645,1597.055722086173
345945,22289,345945.0,61022.0,345945.0,88914.0,1178.0627964476198,1432.2035636401442,1570.4431233375888
345945,22263,345945.0,61040.0,345945.0,88893.0,1162.336657306043,1406.7203975638909,1544.0743274232498
345945,22263,345945.0,61107.0,345945.0,88896.0,1146.6530522270155,1381.5145588111334,1517.9758753010938
345945,22246,345945.0,61019.0,345945.0,88845.0,1131.0316372856325,1356.6136175206045,1492.1746214110137
345945,22225,345945.0,60925.0,345945.0,88802.0,1115.4923312109406,1332.0469175171781,1466.697942885952
345956,22179,345956.0,60851.0,345956.0,88728.0,1100.0553103196617,1307.8450078563758,1441.5734698017995
345956,22171,345956.0,60794.0,345956.0,88710.0,1084.7407418921982,1284.038031586281,1416.8283760580694
345956,22135,345956.0,60741.0,345956.0,88672.0,1069.5683949782165,1260.6541291609117,1392.4886509373082
345956,22111,345956.0,60712.0,345956.0,88630.0,1054.557295953166,1237.7182663667684,1368.5786337933694
345956,22103,345956.0,60760.0,345956.0,88607.0,1039.7254261681505,1215.2516255057951,1345.120689612921
345956,22086,345956.0,60722.0,345956.0,88597.0,1025.0895217936363,1193.2717897386665,1322.134953837973
345966,22086,345966.0,60752.0,345966.0,88579.0,1010.6650643215254,1171.7934912207647,1299.6393096490046
345966,22077,345966.0,60709.0,345966.0,88577.0,996.4664288050429,1150.8293740259178,1277.64962134191
345966,22079,345966.0,60764.0,345966.0,88581.0,982.507140764308,1130.3906337563562,1256.1801402438264
345966,22067,345966.0,60745.0,345966.0,88568.0,968.8001967668852,1110.4877742396404,1235.2440644343649
345966,22027,345966.0,60680.0,345966.0,88510.0,955.3583025338705,1091.1313918946641,1214.8540393124176
345966,22005,345966.0,60616.0,345966.0,88463.0,942.193813634543,1072.3323195913047,1195.0221735953858
345976,21985,345976.0,60589.0,345976.0,88421.0,929.3183864542328,1054.1008766951625,1175.7594651080458
345976,21967,345976.0,60555.0,345976.0,88430.0,916.7426041462268,1036.4458765906911,1157.0750872640367
345976,21955,345976.0,60501.0,345976.0,88397.0,904.4757350454136,1019.3738831239912,1138.9760438440685
345976,21948,345976.0,60485.0,345976.0,88382.0,892.5256171338144,1002.8885801033326,1121.4671836845373
345976,21940,345976.0,60530.0,345976.0,88347.0,880.8986642124723,986.9903285315149,1104.5512148296111
345976,21937,345976.0,60523.0,345976.0,88355.0,869.5999773361001,971.6763789326137,1088.2286066850947
345987,21930,345987.0,60502.0,345987.0,88354.0,858.6335188032546,956.9416234063498,1072.4976209084552
345987,21924,345987.0,60525.0,345987.0,88356.0,848.0023080599234,942.779243948432,1057.3546531514216
345987,21928,345987.0,60594.0,345987.0,88377.0,837.7086252188734,929.1813239731905,1042.7948168995426
345987,21915,345987.0,60588.0,345987.0,88334.0,827.7542403070238,916.1399777432458,1028.812583334406
345987,21893,345987.0,60474.0,345987.0,88329.0,818.1405973333108,903.6485223730515,1015.402198094207
345987,21861,345987.0,60418.0,345987.0,88301.0,808.8687709833465,891.7014258035355,1002.5577233266475
345997,21864,345997.0,60423.0,345997.0,88251.0,799.9391756573452,880.2930046557899,990.272812474847
345997,21839,345997.0,60389.0,345997.0,88208.0,791.3512615705914,869.4161976888599,978.540201801601
345997,21830,345997.0,60384.0,345997.0,88219.0,783.1033314718821,859.0620565780755,967.3509735046343
345997,21835,345997.0,60394.0,345997.0,88228.0,775.1924274077978,849.2196223627546,956.6940945709506
345997,21841,345997.0,60410.0,345997.0,88265.0,767.6143604424267,839.8760785734268,946.55664652467
345997,21845,345997.0,60393.0,345997.0,88226.0,760.3639765176066,831.01720769817,936.9245379788291
346006,21823,346006.0,60420.0,346006.0,88235.0,753.4355007358012,822.627906526273,927.7831155468148
346006,21845,346006.0,60406.0,346006.0,88261.0,746.8227619032401,814.6926373738961,919.1174813064158
346006,21837,346006.0,60506.0,346006.0,88232.0,740.5193723931689,807.1960423270497,910.9128451245781
346006,21819,346006.0,60449.0,346006.0,88243.0,734.5189545921708,800.1239395535389,903.1549386260615
346006,21796,346006.0,60328.0,346006.0,88195.0,728.8152056904523,793.4640464837777,895.8301856977587
346006,21782,346006.0,60344.0,346006.0,88172.0,723.4016553143347,787.2053820282499,888.9255065403411
346017,21780,346017.0,60311.0,346017.0,88168.0,718.2713084599069,781.3368480919776,882.4278447515537
346017,21762,346017.0,60279.0,346017.0,88140.0,713.4163925023297,775.8462312934721,876.3236930942344
346017,21773,346017.0,60280.0,346017.0,88145.0,708.8282327949519,770.7196515699026,870.5987924164733
346017,21760,346017.0,60346.0,346017.0,88152.0,704.497226755596,765.9412901040102,865.2380021406917
346017,21780,346017.0,60332.0,346017.0,88147.0,700.4129288624692,761.4937795049682,860.2253953999611
346017,21761,346017.0,60364.0,346017.0,88155.0,696.5642266314309,757.3590867560947,855.5445145501386
346027,21774,346027.0,60361.0,346027.0,88179.0,692.9395229134118,753.5193086730523,851.1786904295681
346027,21812,346027.0,60422.0,346027.0,88191.0,689.5269653418804,749.9573460387466,847.111521006559
346027,21788,346027.0,60399.0,346027.0,88160.0,686.3148851973654,746.6577018500307,843.3274310201314
346027,21755,346027.0,60350.0,346027.0,88143.0,683.292193101847,743.6071249439586,839.8119124407447
346027,21736,346027.0,60295.0,346027.0,88118.0,680.4482381294733,740.7944498844988,836.5512661402558
346027,21734,346027.0,60281.0,346027.0,88092.0,677.7722480688284,738.2095971125566,833.5320658262062
346037,21748,346037.0,60225.0,346037.0,88074.0,675.2529056840585,735.8423590594916,830.7405511085841
346037,21731,346037.0,60206.0,346037.0,88076.0,672.8782879841176,733.6813105265634,828.1620695402214
346037,21736,346037.0,60223.0,346037.0,88104.0,670.6359543537499,731.7128942690631,825.7807987849146
346037,21736,346037.0,60316.0,346037.0,88115.0,668.5129856066778,729.9211375008965,823.579943665959
346037,21753,346037.0,60283.0,346037.0,88108.0,666.4960613809646,728.2883741463302,821.5422467055726
346037,21738,346037.0,60316.0,346037.0,88112.0,664.5716612880041,726.7963642074636,819.6504140188906
346048,21769,346048.0,60369.0,346048.0,88162.0,662.7263072697986,725.4271409533793,817.8874146143805
346048,21757,346048.0,60380.0,346048.0,88154.0,660.946827360001,724.1638657766832,816.2369835171031
346048,21762,346048.0,60324.0,346048.0,88126.0,659.2206372319881,722.9917256859654,814.6842219993475
346048,21730,346048.0,60286.0,346048.0,88083.0,657.5358679396415,721.8981069792145,813.2156923697166
346048,21733,346048.0,60231.0,346048.0,88051.0,655.8812147851283,720.8717642776847,811.8187912625365
346048,21725,346048.0,60237.0,346048.0,88052.0,654.2456473343727,719.9015641190604,810.4808147061465
346058,21708,346058.0,60189.0,346058.0,88053.0,652.6181711775168,718.9754146502557,809.1882597664672
346058,21694,346058.0,60207.0,346058.0,88036.0,650.9875972722601,718.0795295255516,807.9265473432399
346058,21715,346058.0,60243.0,346058.0,88070.0,649.3422787541067,717.1980648614343,806.6799904957896
346058,21726,346058.0,60266.0,346058.0,88057.0,647.6700523516269,716.313362423869,805.4319278196327
346058,21716,346058.0,60275.0,346058.0,88053.0,645.9584879920212,715.4067024165128,804.1649677376747
346058,21740,346058.0,60262.0,346058.0,88066.0,644.1952061642701,714.4590200272223,802.8611459151668
346068,21727,346068.0,60388.0,346068.0,88135.0,642.3681318947415,713.4514871631516,801.5021663476878
346068,21737,346068.0,60372.0,346068.0,88098.0,640.4657201330996,712.3665266166925,800.0700666791179
346068,21736,346068.0,60262.0,346068.0,88072.0,638.477130673316,711.1889698631562,798.5478853742425
346068,21700,346068.0,60216.0,346068.0,88032.0,636.3922942913932,709.9059424455372,796.9195926623211
346068,21696,346068.0,60195.0,346068.0,88033.0,634.2017409308967,708.505311493005,795.1693829365698
346068,21688,346068.0,60180.0,346068.0,88034.0,631.8962145475354,706.9740800252225,793.2810070778703
346079,21683,346079.0,60197.0,346079.0,88024.0,629.466348123673,705.2975298451909,791.237493298914
346079,21678,346079.0,60183.0,346079.0,88038.0,626.9025064119156,703.4589697694059,789.0211356143047
346079,21702,346079.0,60216.0,346079.0,88041.0,624.1947602850275,701.4398205205166,786.6136088240617
346079,21697,346079.0,60236.0,346079.0,88040.0,621.3330577608913,699.2199538467945,783.9961943889545
346079,21692,346079.0,60249.0,346079.0,88048.0,618.3075232132655,696.7783026511985,781.1500368360953
346079,21702,346079.0,60302.0,346079.0,88081.0,615.1086746217122,694.0936618206684,778.0564414121552
346089,21707,346089.0,60338.0,346089.0,88096.0,611.7275814354235,691.1456905403566,774.6973997671339
346089,21695,346089.0,60287.0,346089.0,88055.0,608.1560766806865,687.9160115275242,771.0562329585315
346089,21669,346089.0,60232.0,346089.0,88023.0,604.3868697939376,684.3887096451123,767.1178099927383
346089,21655,346089.0,60207.0,346089.0,87970.0,600.4133600942291,680.549754908583,762.8680307866573
346089,21654,346089.0,60186.0,346089.0,88002.0,596.2292624354253,676.3858988310648,758.2929403341928
346089,21637,346089.0,60162.0,346089.0,87964.0,591.828310360882,671.8837629903715,753.3781039173325
346100,21657,346100.0,60149.0,346100.0,88002.0,587.2041381515746,667.0292194199658,748.1084603560968
346100,21654,346100.0,60198.0,346100.0,87985.0,582.3503581598244,661.8070531449944,742.4684857963275
346100,21657,346100.0,60256.0,346100.0,88013.0,577.2608174413615,656.2012736135976,736.4425430471358
346100,21636,346100.0,60203.0,346100.0,88006.0,571.9298497289775,650.1961220526362,730.0153420842202
346100,21640,346100.0,60243.0,346100.0,87993.0,566.3523529493982,643.777014333617,723.172372578802
346100,21655,346100.0,60298.0,346100.0,88037.0,560.523809837723,636.9311304507819,715.9002441782088
346110,21645,346110.0,60265.0,346110.0,88016.0,554.4404764430145,629.6482096125433,708.187104989185
346110,21635,346110.0,60207.0,346110.0,87959.0,548.0996637885178,621.9213064771452,700.0230476209982
346110,21589,346110.0,60139.0,346110.0,87955.0,541.499791031737,613.7465799689204,691.4000053301005
346110,21588,346110.0,60049.0,346110.0,87887.0,534.6400665251181,605.1219853830844,682.3111143008375
346110,21563,346110.0,60069.0,346110.0,87913.0,527.5200052723707,596.0455235769925,672.749983496942
346110,21549,346110.0,60042.0,346110.0,87910.0,520.1390377978041,586.5139013416973,662.7102608651105
346120,21565,346120.0,60032.0,346120.0,87875.0,512.4962772302647,576.521997658604,652.1856458545659
346120,21563,346120.0,60133.0,346120.0,87879.0,504.59053164030524,566.062982151383,641.1700165667196
346120,21550,346120.0,60131.0,346120.0,87908.0,496.42056165637484,555.1291870784427,629.6575057892774
346120,21564,346120.0,60134.0,346120.0,87883.0,487.9853587605555,543.7135610545006,617.6428418053005
346120,21559,346120.0,60204.0,346120.0,87921.0,479.28439370409916,531.8109964260212,605.1219501101102
346120,21567,346120.0,60187.0,346120.0,87896.0,470.31794839588423,519.4194900294256,592.0925794196284
346131,21548,346131.0,60100.0,346131.0,87862.0,461.08747258531696,506.5411192616208,578.5547942389928
346131,21509,346131.0,60038.0,346131.0,87820.0,451.5957487856407,493.182013907974,564.5110304963464
346131,21487,346131.0,59975.0,346131.0,87811.0,441.84667718061064,479.35112533431766,549.9656778081965
346131,21468,346131.0,59968.0,346131.0,87770.0,431.84477756281865,465.0586772186507,534.9245829220022
346131,21454,346131.0,59903.0,346131.0,87755.0,421.5947238801659,450.3150159685719,519.3946806151922
346131,21452,346131.0,59929.0,346131.0,87738.0,411.1010852870854,435.1299131242623,503.38370936523495
346141,21450,346141.0,59952.0,346141.0,87756.0,400.36829176379797,419.512359893419,486.9001208465561
346141,21451,346141.0,59937.0,346141.0,87712.0,389.4008059396603,403.4710234919394,469.95328418567016
346141,21419,346141.0,59950.0,346141.0,87719.0,378.20336740711036,387.0150492902601,452.55376815705785
346141,21417,346141.0,59929.0,346141.0,87689.0,366.78109890931205,370.15473289714447,434.71350268451357
346141,21437,346141.0,59992.0,346141.0,87704.0,355.13953090705775,352.90212662851906,416.44593464958166
346141,21408,346141.0,59946.0,346141.0,87696.0,343.2848155316518,335.27185523749915,397.7663536759831
346151,21378,346151.0,59848.0,346151.0,87609.0,331.223992126412,317.281758018184,378.69223566712793
346151,21342,346151.0,59814.0,346151.0,87585.0,318.9648832396518,298.9525392189215,359.24309766572907
346151,21348,346151.0,59758.0,346151.0,87533.0,306.5156694087205,280.30655975331604,339.4397643057205
346151,21312,346151.0,59711.0,346151.0,87524.0,293.88454520240776,261.3666154618956,319.30358556091426
346151,21294,346151.0,59675.0,346151.0,87486.0,281.0795372073191,242.15496632108125,298.85596534300623
346151,21306,346151.0,59673.0,346151.0,87474.0,268.1083521518091,222.69259361203422,278.11814157355167
346162,21293,346162.0,59669.0,346162.0,87450.0,254.97838644765517,202.9988988490253,257.1111016842503
346162,21258,346162.0,59704.0,346162.0,87452.0,241.69691915702782,183.091993542527,235.85563083126772
346162,21272,346162.0,59679.0,346162.0,87435.0,228.2712068443239,162.9894638086585,214.3725467781577
346162,21273,346162.0,59692.0,346162.0,87439.0,214.70854483066432,142.70925912137568,192.68310255297263
346162,21262,346162.0,59704.0,346162.0,87401.0,201.01656983553067,122.27047594069381,170.80943679529673
346162,21237,346162.0,59620.0,346162.0,87359.0,187.20363579373378,101.69399919214152,148.77483634373402
346172,21199,346172.0,59562.0,346172.0,87285.0,173.27890237178275,81.00259824732098,126.60352904307967
346172,21162,346172.0,59491.0,346172.0,87264.0,159.25203067586057,60.22011448065564,104.31998375513365
346172,21168,346172.0,59497.0,346172.0,87221.0,145.13268215559998,39.37023952861989,81.94809320394052
346172,21142,346172.0,59414.0,346172.0,87218.0,130.9301826384127,18.475597862035215,59.51063956506027
346172,21120,346172.0,59394.0,346172.0,87167.0,116.65344225036466,-2.442879227250728,37.029086550329566
346172,21118,346172.0,59406.0,346172.0,87148.0,102.3109123595126,-23.36648727519696,14.523464523346775
346182,21098,346182.0,59423.0,346182.0,87150.0,87.91054687126427,-44.27881217068068,-7.987745142817289
346182,21088,346182.0,59390.0,346182.0,87123.0,73.45985057119236,-65.16513596156005,-30.487532841364327
346182,21076,346182.0,59414.0,346182.0,87124.0,58.965957589878144,-86.01168534185831,-52.960044700439994
346182,21100,346182.0,59440.0,346182.0,87121.0,44.4357842635622,-106.80491758860046,-75.39016591726966
346182,21070,346182.0,59383.0,346182.0,87128.0,29.876385670783975,-127.53066227693341,-97.76296957954321
346182,21043,346182.0,59386.0,346182.0,87032.0,15.295323359986241,-148.17343088055463,-120.06317516010404
346193,21013,346193.0,59270.0,346193.0,86966.0,0.7006838111549314,-168.71636018359754,-142.27523643519032
346193,20986,346193.0,59189.0,346193.0,86958.0,-13.899248569668316,-189.14199035734987,-164.38424955225116
346193,20956,346193.0,59171.0,346193.0,86958.0,-28.49642133861755,-209.43376288841728,-186.37682773826452
346193,20946,346193.0,59152.0,346193.0,86887.0,-43.0834094377916,-229.57743144626545,-208.24131982076847
346193,20938,346193.0,59131.0,346193.0,86893.0,-57.65366308499097,-249.56168195877717,-229.96782428248684
346193,20928,346193.0,59174.0,346193.0,86897.0,-72.20151932633416,-269.3780756790321,-251.54826838355302
346203,20918,346203.0,59118.0,346203.0,86867.0,-86.72205032027063,-289.02058476725585,-272.97620055135553
346203,20914,346203.0,59146.0,346203.0,86864.0,-101.21086794083789,-308.48500601511546,-294.2463529708351
346203,20905,346203.0,59174.0,346203.0,86866.0,-115.66390307954049,-327.7683885095049,-315.35425386710506
346203,20889,346203.0,59184.0,346203.0,86852.0,-130.07717193718963,-346.8681556402188,-336.295788476902
346203,20869,346203.0,59130.0,346203.0,86825.0,-144.4466205112655,-365.7810288218918,-357.06671088899725
346203,20846,346203.0,59053.0,346203.0,86743.0,-158.76812229070453,-384.5025706111743,-377.66247723721017
346213,20838,346213.0,59004.0,346213.0,86738.0,-173.03758679512111,-403.0277864808146,-398.07865132973245
346213,20798,346213.0,58970.0,346213.0,86707.0,-187.25109612175595,-421.35230981824566,-418.3115509731449
346213,20775,346213.0,58936.0,346213.0,86661.0,-201.40511820275913,-439.47344783342874,-438.35867777162423
346213,20771,346213.0,58941.0,346213.0,86693.0,-215.49681916020597,-457.3907930437242,-458.2189203995624
346213,20780,346213.0,58942.0,346213.0,86661.0,-229.52421988499862,-475.10635589591686,-477.8924990509415
346213,20757,346213.0,58948.0,346213.0,86635.0,-243.48601075144074,-492.6242225877818,-497.38064908289834
346224,20754,346224.0,58978.0,346224.0,86608.0,-257.38124107420253,-509.9498635034,-516.6854405019651
346224,20737,346224.0,58946.0,346224.0,86622.0,-271.2091221554215,-527.089272254609,-535.8098162319618
346224,20746,346224.0,58959.0,346224.0,86620.0,-284.96888324811766,-544.0481982510669,-554.757430194348
346224,20725,346224.0,58981.0,346224.0,86614.0,-298.6595529737501,-560.8315515455168,-573.5321272633814
346224,20703,346224.0,58888.0,346224.0,86592.0,-312.27974515021197,-577.4428806202629,-592.1373584280145
346224,20674,346224.0,58834.0,346224.0,86520.0,-325.8276514386928,-593.8843600882705,-610.5759276954302
346234,20645,346234.0,58795.0,346234.0,86478.0,-339.3012954977265,-610.1576706779049,-628.8503478806024
346234,20622,346234.0,58704.0,346234.0,86447.0,-352.6989313273067,-626.2653079925904,-646.9636817434614
346234,20609,346234.0,58733.0,346234.0,86455.0,-366.0194340860255,-642.2118100003095,-664.9202936515208
346234,20601,346234.0,58783.0,346234.0,86466.0,-379.2625437992614,-658.0044073488223,-682.7260097822736
346234,20601,346234.0,58794.0,346234.0,86463.0,-392.4288850932478,-673.6525216212515,-700.3876644650172
346234,20589,346234.0,58776.0,346234.0,86463.0,-405.5197953455672,-689.1665221214196,-717.9123846096484
346244,20586,346244.0,58790.0,346244.0,86428.0,-418.53707658895837,-704.5567183565599,-735.3069924725935
346244,20602,346244.0,58826.0,346244.0,86424.0,-431.4827095824937,-719.8326789682433,-752.5777046293285
346244,20595,346244.0,58836.0,346244.0,86437.0,-444.35843488565774,-735.0023546768764,-769.7299792108824
346244,20556,346244.0,58756.0,346244.0,86383.0,-457.16530813718873,-750.0711304174413,-786.7682663416913
346244,20528,346244.0,58693.0,346244.0,86341.0,-469.9036018540784,-765.0416482886428,-803.6958943359564
346244,20503,346244.0,58590.0,346244.0,86305.0,-482.5731508589233,-779.9148362434287,-820.5154638755305
346255,20490,346255.0,58632.0,346255.0,86290.0,-495.17382360287445,-794.6915454300427,-837.2295173334953
346255,20472,346255.0,58579.0,346255.0,86266.0,-507.7058482086218,-809.3737397573036,-853.8410257952091
346255,20466,346255.0,58580.0,346255.0,86253.0,-520.1699649035206,-823.9648774214179,-870.3536026239412
346255,20462,346255.0,58623.0,346255.0,86258.0,-532.5674372152947,-838.4698344288174,-886.7715223994733
346255,20469,346255.0,58600.0,346255.0,86239.0,-544.8998976245927,-852.8944448846439,-903.0995430928976
346255,20443,346255.0,58606.0,346255.0,86256.0,-557.1690620418422,-867.2447651559112,-919.3425637247115
346265,20449,346265.0,58611.0,346265.0,86211.0,-569.3764749594264,-881.5264604053532,-935.5052428310182
346265,20432,346265.0,58642.0,346265.0,86233.0,-581.5233520126193,-895.7442465306651,-951.591707106254
346265,20428,346265.0,58624.0,346265.0,86232.0,-593.6104409804207,-909.9011343751297,-967.6052772265887
346265,20398,346265.0,58570.0,346265.0,86181.0,-605.6379194052058,-923.9977796277797,-983.5480994244936
346265,20363,346265.0,58508.0,346265.0,86137.0,-617.6054785653904,-938.0325292505077,-999.4210328174736
346265,20360,346265.0,58457.0,346265.0,86097.0,-629.5126423658227,-952.0022939303929,-1015.2241324084255
346275,20325,346275.0,58422.0,346275.0,86088.0,-641.3591390199215,-965.9037892426277,-1030.9574059571376
346275,20328,346275.0,58376.0,346275.0,86061.0,-653.1451616158646,-979.7346761077822,-1046.621354975841
346275,20329,346275.0,58422.0,346275.0,86051.0,-664.8714669813482,-993.4943395764853,-1062.2172067526135
346275,20311,346275.0,58419.0,346275.0,86052.0,-676.5392642728879,-1007.1840064994917,-1077.7469486898738
346275,20304,346275.0,58412.0,346275.0,86046.0,-688.1500187391196,-1020.8062101987991,-1093.2131669444634
346275,20294,346275.0,58419.0,346275.0,86046.0,-699.7053446631436,-1034.3641343454315,-1108.6186974056984
346286,20295,346286.0,58459.0,346286.0,86070.0,-711.2069267296632,-1047.861038345566,-1123.9661435761573
346286,20295,346286.0,58485.0,346286.0,86037.0,-722.6563422750896,-1061.2994079721802,-1139.25727948782
346286,20275,346286.0,58473.0,346286.0,86032.0,-734.0548025847064,-1074.6797927026819,-1154.4925338811488
346286,20250,346286.0,58368.0,346286.0,85953.0,-745.4029973494089,-1088.0000157386653,-1169.670885464415
346286,20235,346286.0,58246.0,346286.0,85959.0,-756.7011899781002,-1101.2556815380965,-1184.7902603108716
346286,20205,346286.0,58283.0,346286.0,85925.0,-767.9494888671285,-1114.4419667583124,-1199.8481116780165
346296,20186,346296.0,58217.0,346296.0,85888.0,-779.1481792650966,-1127.5553712239898,-1214.841842327274
346296,20163,346296.0,58219.0,346296.0,85879.0,-790.29808739457,-1140.5945629050632,-1229.769144299627
346296,20173,346296.0,58249.0,346296.0,85856.0,-801.4008796800294,-1153.5606165146723,-1244.6283311054422
346296,20160,346296.0,58275.0,346296.0,85843.0,-812.4591331327374,-1166.456722669412,-1259.4185308596054
346296,20180,346296.0,58231.0,346296.0,85854.0,-823.4761363653972,-1179.287391868482,-1274.1397019658666
346296,20178,346296.0,58285.0,346296.0,85813.0,-834.4554899645593,-1192.0577137690468,-1288.7924976886932
346306,20161,346306.0,58318.0,346306.0,85839.0,-845.4006356396943,-1204.77269388688,-1303.3780747330873
346306,20150,346306.0,58314.0,346306.0,85831.0,-856.314542720579,-1217.4362223552332,-1317.8978478398997
346306,20125,346306.0,58216.0,346306.0,85802.0,-867.1996692733784,-1230.0501380266999,-1332.3531235834264
346306,20116,346306.0,58169.0,346306.0,85760.0,-878.0580985803484,-1242.614373352649,-1346.7449087945836
346306,20089,346306.0,58114.0,346306.0,85719.0,-888.891735552268,-1255.1281880749232,-1361.0742193884155
346306,20075,346306.0,58060.0,346306.0,85684.0,-899.7025306254434,-1267.5916842563126,-1375.3427681384132
346317,20050,346317.0,58066.0,346317.0,85683.0,-910.4927391747419,-1280.0070683931237,-1389.5536731603045
346317,20045,346317.0,58099.0,346317.0,85681.0,-921.2651860214615,-1292.3793246531388,-1403.7118409869286
346317,20031,346317.0,58096.0,346317.0,85672.0,-932.0234519885596,-1304.716023934478,-1417.8239108013593
346317,20036,346317.0,58085.0,346317.0,85673.0,-942.7719156283765,-1317.0266267840518,-1431.897962042885
346317,20037,346317.0,58095.0,346317.0,85692.0,-953.515619652187,-1329.3219072913262,-1445.9431308835954
346317,20038,346317.0,58142.0,346317.0,85667.0,-964.259972042093,-1341.6134673061576,-1459.9691090139727
346327,20041,346327.0,58184.0,346327.0,85676.0,-975.0103565654641,-1353.912844833703,-1473.9856458733764
346327,20031,346327.0,58113.0,346327.0,85658.0,-985.7717476385217,-1366.2302890997453,-1488.0021997278743
346327,19992,346327.0,58065.0,346327.0,85623.0,-996.5484730555319,-1378.574122718932,-1502.0277494292288
346327,19979,346327.0,58028.0,346327.0,85564.0,-1007.3443004897883,-1390.9512329978784,-1516.0709345203213
346327,19937,346327.0,57969.0,346327.0,85564.0,-1018.1628253656229,-1403.3681639102645,-1530.1406266044532
346327,19935,346327.0,57944.0,346327.0,85538.0,-1029.0079576039855,-1415.832225677585,-1544.246559329092
346338,19937,346338.0,57974.0,346338.0,85535.0,-1039.8842764165063,-1428.3523485267665,-1558.399634208019
346338,19929,346338.0,57959.0,346338.0,85517.0,-1050.797068859772,-1440.9393242030797,-1572.6119566028742
346338,19903,346338.0,57956.0,346338.0,85521.0,-1061.752171400643,-1453.6054875624686,-1586.8967593600594
346338,19922,346338.0,57967.0,346338.0,85500.0,-1072.7558733590463,-1466.364303351334,-1601.2682460928534
346338,19907,346338.0,58013.0,346338.0,85532.0,-1083.814815259681,-1479.2298739713297,-1615.7413354699654
346338,19924,346338.0,58011.0,346338.0,85562.0,-1094.9357159479537,-1492.2160824596886,-1630.331134041099
346348,19908,346348.0,57984.0,346348.0,85498.0,-1106.124990995237,-1505.3356090395423,-1645.0521270066597
346348,19874,346348.0,57948.0,346348.0,85478.0,-1117.388468600759,-1518.599436013074,-1659.9176834492405
346348,19847,346348.0,57888.0,346348.0,85453.0,-1128.7314456321678,-1532.0170915343167,-1674.940262093221
346348,19841,346348.0,57822.0,346348.0,85410.0,-1140.1590633788198,-1545.5975044090408,-1690.131920511044
346348,19825,346348.0,57814.0,346348.0,85415.0,-1151.6766588115233,-1559.3502004470736,-1705.5047630984407
346348,19817,346348.0,57834.0,346348.0,85380.0,-1163.2899029726186,-1573.2862531845406,-1721.071246472538
346358,19829,346358.0,57857.0,346358.0,85364.0,-1175.0047688198954,-1587.4183896362301,-1736.8443378496515
346358,19786,346358.0,57794.0,346358.0,85370.0,-1186.8273870290263,-1601.7604429695084,-1752.8376028965947
346358,19784,346358.0,57834.0,346358.0,85384.0,-1198.7639737210707,-1616.3269065376587,-1769.0650890707147
346358,19801,346358.0,57877.0,346358.0,85377.0,-1210.8208744394742,-1631.1326050214948,-1785.5408400907586
346358,19800,346358.0,57903.0,346358.0,85384.0,-1223.0043943114292,-1646.1918083216838,-1802.278231319636
346358,19783,346358.0,57947.0,346358.0,85395.0,-1235.3203514562806,-1661.5167432143364,-1819.2893219141263
346369,19780,346369.0,57848.0,346369.0,85366.0,-1247.7737096161334,-1677.1162146749205,-1836.5842314133756
346369,19754,346369.0,57818.0,346369.0,85319.0,-1260.3684416041383,-1692.9951500251987,-1854.1707488268712
346369,19727,346369.0,57741.0,346369.0,85262.0,-1273.107572819461,-1709.155296326955,-1872.0545240005517
346369,19710,346369.0,57708.0,346369.0,85263.0,-1285.9934067234071,-1725.5964839771104,-1890.2397479150259
346369,19684,346369.0,57668.0,346369.0,85236.0,-1299.0278532506145,-1742.3178412204659,-1908.729759131491
346369,19682,346369.0,57682.0,346369.0,85236.0,-1312.2127103213052,-1759.3186539859898,-1927.5272261385287
346379,19692,346379.0,57671.0,346379.0,85230.0,-1325.5497526815022,-1776.5986545237151,-1946.6340046493108
346379,19681,346379.0,57706.0,346379.0,85240.0,-1339.040522778671,-1794.157722669911,-1966.0507830913966
346379,19673,346379.0,57699.0,346379.0,85215.0,-1352.6859592066698,-1811.995171767911,-1985.776570873764
346379,19657,346379.0,57741.0,346379.0,85200.0,-1366.4861217097582,-1830.1088013919118,-2005.808239881236
346379,19669,346379.0,57776.0,346379.0,85204.0,-1380.4400289089372,-1848.4937472657705,-2026.140244703754
346379,19654,346379.0,57756.0,346379.0,85204.0,-1394.5454347124023,-1867.141142630969,-2046.764317311158
346389,19651,346389.0,57690.0,346389.0,85160.0,-1408.7985130893985,-1886.0370830016293,-2067.6690331477707
346389,19618,346389.0,57617.0,346389.0,85123.0,-1423.1936192521503,-1905.1625948099056,-2088.8395848544496
346389,19603,346389.0,57539.0,346389.0,85084.0,-1437.723269032138,-1924.4946812444537,-2110.2580230242124
346389,19587,346389.0,57548.0,346389.0,85075.0,-1452.3782921116306,-1944.0077942449357,-2131.9037236444656
346389,19564,346389.0,57522.0,346389.0,85092.0,-1467.14800352447,-1963.6748773452573,-2153.75360925126
346389,19558,346389.0,57501.0,346389.0,85052.0,-1482.0203208659252,-1983.467674594541,-2175.78190589746
346400,19561,346400.0,57507.0,346400.0,85037.0,-1496.9817789860215,-2003.3566706916224,-2197.9597503584037
346400,19538,346400.0,57544.0,346400.0,85027.0,-1512.0173737503078,-2023.310792763898,-2220.255000537907
346400,19536,346400.0,57513.0,346400.0,85022.0,-1527.1103385144588,-2043.2966986864785,-2242.63209620861
346400,19548,346400.0,57571.0,346400.0,85028.0,-1542.2419286779657,-2063.2778290192728,-2265.051706022099
346400,19535,346400.0,57559.0,346400.0,85031.0,-1557.3910792739991,-2083.213399716785,-2287.4701376592593
346400,19507,346400.0,57514.0,346400.0,85003.0,-1572.5340070362051,-2103.057435969573,-2309.838650012691
346410,19492,346410.0,57448.0,346410.0,84909.0,-1587.6440551139863,-2122.758384792347,-2332.103087731618
346410,19466,346410.0,57384.0,346410.0,84899.0,-1602.6918115630135,-2142.2596842598327,-2354.2042606403934
346410,19458,346410.0,57371.0,346410.0,84859.0,-1617.6452960528356,-2161.5008822594564,-2376.0787662196026
346410,19426,346410.0,57265.0,346410.0,84839.0,-1632.470110506834,-2180.4187500530247,-2397.659597323109
346410,19408,346410.0,57319.0,346410.0,84840.0,-1647.1296032747405,-2198.948240805844,-2418.876371226872
346410,19395,346410.0,57329.0,346410.0,84784.0,-1661.5850823500753,-2217.022965248537,-2439.6553440688435
346420,19402,346420.0,57355.0,346420.0,84809.0,-1675.7959412021592,-2234.5747109963722,-2459.919378898614
346420,19394,346420.0,57330.0,346420.0,84811.0,-1689.719534551611,-2251.532378018039,-2479.587800916276
346420,19381,346420.0,57297.0,346420.0,84832.0,-1703.3108823049063,-2267.8211986213264,-2498.5758530067324
346420,19404,346420.0,57391.0,346420.0,84776.0,-1716.5223608804088,-2283.3623636654866,-2516.79391203608
346420,19380,346420.0,57351.0,346420.0,84759.0,-1729.3033510058638,-2298.0723916252628,-2534.1470636318163
346420,19357,346420.0,57280.0,346420.0,84719.0,-1741.5999103151046,-2311.8622956811387,-2550.535260959263
346431,19327,346431.0,57263.0,346431.0,84690.0,-1753.3547557044574,-2324.637535068234,-2565.853787242315
346431,19298,346431.0,57178.0,346431.0,84632.0,-1764.5076118332925,-2336.2989012925145,-2579.99383907567
346431,19300,346431.0,57115.0,346431.0,84600.0,-1774.9956786998985,-2346.743810022951,-2592.8433006875416
346431,19266,346431.0,57100.0,346431.0,84579.0,-1784.753983461001,-2355.867805547735,-2604.2876337346297
346431,19261,346431.0,57114.0,346431.0,84583.0,-1793.7156164962573,-2363.5658318253527,-2614.210566495275
346431,19243,346431.0,57118.0,346431.0,84553.0,-1801.811967142337,-2369.7327088744896,-2622.4944100919247
346441,19235,346441.0,57120.0,346441.0,84539.0,-1808.9729470905377,-2374.2629555040785,-2629.0202220332876
346441,19231,346441.0,57118.0,346441.0,84529.0,-1815.1271490230365,-2377.050475807877,-2633.668073843033
346441,19227,346441.0,57113.0,346441.0,84540.0,-1820.2019285856359,-2377.988384015833,-2636.317331502216
346441,19225,346441.0,57167.0,346441.0,84519.0,-1824.1234120047798,-2376.968876021121,-2636.846782588359
346441,19205,346441.0,57074.0,346441.0,84519.0,-1826.8165065747057,-2373.8830539033097,-2635.1347253129866
346441,19191,346441.0,57039.0,346441.0,84440.0,-1828.2050499677653,-2368.621202743278,-2631.0593269315787
346451,19139,346451.0,56962.0,346451.0,84429.0,-1828.2122303105477,-2361.0740635748944,-2624.499518536195
346451,19125,346451.0,56901.0,346451.0,84376.0,-1826.761348287597,-2351.1348510135185,-2615.336355278473
346451,19102,346451.0,56852.0,346451.0,84357.0,-1823.7767841084572,-2338.701529324655,-2603.454499862206
346451,19105,346451.0,56892.0,346451.0,84334.0,-1819.184866223034,-2323.678917275489,-2588.743642898581
346451,19104,346451.0,56920.0,346451.0,84345.0,-1812.9144661300897,-2305.9799875666968,-2571.099764667976
346451,19116,346451.0,56949.0,346451.0,84344.0,-1804.897331769411,-2285.526135221327,-2550.4260961269065
346462,19101,346462.0,56962.0,346462.0,84332.0,-1795.0682811899942,-2262.246958066811,-2526.6338452409364
346462,19105,346462.0,56973.0,346462.0,84347.0,-1783.3654549961432,-2236.080165035056,-2499.642934602969
346462,19117,346462.0,57052.0,346462.0,84397.0,-1769.7306883614074,-2206.9716651479553,-2469.3827127194063
346462,19110,346462.0,57096.0,346462.0,84415.0,-1754.1098791333625,-2174.875422314464,-2435.7923359591923
346462,19105,346462.0,57062.0,346462.0,84433.0,-1736.4533721157472,-2139.753069592026,-2398.8208942700985
346462,19102,346462.0,57033.0,346462.0,84386.0,-1716.7165150705641,-2101.574120191644,-2358.427826999373
346472,19093,346472.0,57037.0,346472.0,84460.0,-1694.8603900581452,-2060.3172621479744,-2314.583917818958
346472,19122,346472.0,57050.0,346472.0,84443.0,-1670.8525819090737,-2015.9721082417182,-2267.2724592332806
346472,19118,346472.0,57105.0,346472.0,84491.0,-1644.6678272221357,-1968.5406044901188,-2216.4901909437144
346472,19152,346472.0,57177.0,346472.0,84591.0,-1616.288506472199,-1918.0377777668289,-2162.2479761607988
346472,19196,346472.0,57266.0,346472.0,84641.0,-1585.7049840806708,-1864.4917617577753,-2104.5709731069273
346472,19222,346472.0,57354.0,346472.0,84728.0,-1552.915703918151,-1807.9432221807583,-2043.4982750387232
346482,19261,346482.0,57429.0,346482.0,84798.0,-1517.9271133980676,-1748.4444859390962,-1979.0824510448574
346482,19309,346482.0,57539.0,346482.0,84915.0,-1480.753596317292,-1686.0586420514408,-1911.3890895616305
346482,19373,346482.0,57637.0,346482.0,85010.0,-1441.4173393538545,-1620.8586106467405,-1840.4961223195191
346482,19397,346482.0,57749.0,346482.0,85049.0,-1399.9480427098506,-1552.926056566617,-1766.4930379031575
346482,19431,346482.0,57730.0,346482.0,85154.0,-1356.3827109537492,-1482.3504346133634,-1689.4804397624728
346482,19481,346482.0,57800.0,346482.0,85229.0,-1310.765737610825,-1409.2288599606225,-1609.5699943449695
346493,19528,346493.0,57863.0,346493.0,85311.0,-1263.1491042107286,-1333.6668595117685,-1526.8844018168218
346493,19566,346493.0,57916.0,346493.0,85426.0,-1213.5924940229177,-1255.7792340575118,-1441.557280516376
346493,19651,346493.0,58000.0,346493.0,85533.0,-1162.1633349788463,-1175.6906473374193,-1353.7329146147274
346493,19713,346493.0,58164.0,346493.0,85675.0,-1108.9366727041565,-1093.5358755354682,-1263.5656845895462
346493,19799,346493.0,58279.0,346493.0,85780.0,-1053.994750051566,-1009.4592983014704,-1171.2191859592208
346493,19863,346493.0,58388.0,346493.0,85924.0,-997.4264121275141,-923.613663360821,-1076.8652174639556
346503,19938,346503.0,58543.0,346503.0,86055.0,-939.3265223576185,-836.1587534682011,-980.6827325655713
346503,20033,346503.0,58758.0,346503.0,86195.0,-879.7954211205408,-747.2599244641359,-882.8566981177829
346503,20105,346503.0,58864.0,346503.0,86337.0,-818.938314601163,-657.0860195394635,-783.5768523982541
346503,20171,346503.0,58887.0,346503.0,86439.0,-756.8646209734713,-565.8072918452617,-683.036498182857
346503,20257,346503.0,58937.0,346503.0,86546.0,-693.6874627626271,-473.5947304086865,-581.431585786388
346503,20323,346503.0,59043.0,346503.0,86687.0,-629.5232957742037,-380.62085872106354,-478.96017897725505
346513,20402,346513.0,59187.0,346513.0,86786.0,-564.4915616473443,-287.06059801352467,-375.82202422024625
346513,20482,346513.0,59266.0,346513.0,86912.0,-498.71435823668435,-193.09124858911855,-272.2180610065964
346513,20563,346513.0,59413.0,346513.0,87047.0,-432.3160915750244,-98.89190935516353,-168.3499416786833
346513,20667,346513.0,59584.0,346513.0,87183.0,-365.4230204671413,-4.642679915909184,-64.41943484261515
346513,20754,346513.0,59686.0,346513.0,87341.0,-298.1626229049974,89.47656091595127,39.37245808103307
346513,20843,346513.0,59794.0,346513.0,87480.0,-230.66282271774844,183.28753888122424,142.82666350682803
346524,20950,346524.0,60003.0,346524.0,87631.0,-163.05119375699644,276.6147192372773,245.74736468333776
346524,21045,346524.0,60130.0,346524.0,87755.0,-95.45411724444466,369.28666616106693,347.94333346021995
346524,21106,346524.0,60230.0,346524.0,87863.0,-27.995908395273318,461.13783463275945,449.22906473453986
346524,21183,346524.0,60227.0,346524.0,87986.0,39.20181856741124,552.0097905033958,549.4255659584123
346524,21248,346524.0,60338.0,346524.0,88069.0,106.020421511721,641.7510667564613,648.3608279482323
346524,21329,346524.0,60420.0,346524.0,88184.0,172.34433987256148,730.2162803581596,745.8700698127009
346534,21387,346534.0,60492.0,346534.0,88277.0,238.06121431756378,817.2655264754012,841.7958424995372
346534,21479,346534.0,60594.0,346534.0,88405.0,303.06203451558736,902.7641559729877,935.9881662951059
346534,21571,346534.0,60708.0,346534.0,88504.0,367.24140769321866,986.5827403854446,1028.3048551131833
346534,21636,346534.0,60863.0,346534.0,88619.0,430.49805471999343,1068.597491814477,1118.6120061251504
346534,21702,346534.0,60942.0,346534.0,88715.0,492.73534488162636,1148.6912836038073,1206.7845277964802
346534,21792,346534.0,61081.0,346534.0,88822.0,553.8616581060139,1226.754891288083,1292.706631741602
346545,21874,346545.0,61200.0,346545.0,88951.0,613.790751809905,1302.6881742784717,1376.2723673263122
346545,21909,346545.0,61301.0,346545.0,89004.0,672.4422486608505,1376.40132120934,1457.3862655019452
346545,21981,346545.0,61299.0,346545.0,89063.0,729.7419566321937,1447.8158990955058,1535.9637735323086
346545,22035,346545.0,61296.0,346545.0,89120.0,785.6219065801233,1516.8648794810451,1611.9310911082466
346545,22064,346545.0,61333.0,346545.0,89184.0,840.0202898604573,1583.4913749746447,1685.2245886852265
346545,22124,346545.0,61443.0,346545.0,89233.0,892.8812880748083,1647.6470415347599,1755.790207097708
346555,22162,346555.0,61417.0,346555.0,89267.0,944.154782790562,1709.2911440425964,1823.5828729089221
346555,22217,346555.0,61528.0,346555.0,89380.0,993.7961089493222,1768.3900864048246,1888.5659110272145
346555,22288,346555.0,61547.0,346555.0,89417.0,1041.7659628767217,1824.9169663531793,1950.7107434327886
346555,22300,346555.0,61638.0,346555.0,89509.0,1088.0304643237962,1878.8513240112252,2009.9969824722116
346555,22371,346555.0,61739.0,346555.0,89542.0,1132.561201802885,1930.1792935527474,2066.4126282397438
346555,22420,346555.0,61769.0,346555.0,89619.0,1175.3352137514617,1978.8941829037008,2119.9541825062292
346565,22475,346565.0,61882.0,346565.0,89696.0,1216.3351310812432,2024.9972492091742,2170.62678684723
346565,22507,346565.0,61875.0,346565.0,89679.0,1255.5494697173913,2068.49835255538,2218.44443163449
346565,22507,346565.0,61869.0,346565.0,89699.0,1292.9727438276864,2109.4161782762176,2263.4298087277693
346565,22534,346565.0,61876.0,346565.0,89716.0,1328.6051572731708,2147.777649096263,2305.6134977977754
346565,22550,346565.0,61852.0,346565.0,89722.0,1362.4519867958184,2183.6166722283447,2345.032886259527
346565,22552,346565.0,61823.0,346565.0,89724.0,1394.5229281286638,2216.972631393221,2381.731155762564
346576,22586,346576.0,61898.0,346576.0,89756.0,1424.8314716557784,2247.888861491531,2415.75630369568
346576,22615,346576.0,61911.0,346576.0,89792.0,1453.3943801771434,2276.411634894685,2447.1603602275004
346576,22652,346576.0,61968.0,346576.0,89825.0,1480.2314525124589,2302.5899736722713,2475.9990280276497
346576,22669,346576.0,61980.0,346576.0,89836.0,1505.3655380073415,2326.4758835503476,2502.3316215741897
346576,22695,346576.0,61943.0,346576.0,89830.0,1528.8225847696299,2348.124443402725,2526.220933914446
346576,22723,346576.0,62063.0,346576.0,89901.0,1550.6316318574277,2367.593574557678,2547.7329196876944
346586,22734,346586.0,62100.0,346586.0,89891.0,1570.824801247577,2384.9441154946426,2566.936526299408
346586,22737,346586.0,62051.0,346586.0,89895.0,1589.4372461517492,2400.24054004244,2583.903727784837
346586,22730,346586.0,61979.0,346586.0,89878.0,1606.5068947732998,2413.5511656162325,2598.7093098733226
346586,22745,346586.0,61967.0,346586.0,89836.0,1622.0739782570645,2424.9469650497367,2611.430177277734
346586,22754,346586.0,61993.0,346586.0,89849.0,1636.1805541053764,2434.4998621700875,2622.144334606948
346586,22732,346586.0,61917.0,346586.0,89855.0,1648.8701370974313,2442.281559152598,2630.9299209134233
346596,22743,346596.0,61945.0,346596.0,89838.0,1660.187278511854,2448.362709193886,2637.8646292832645
346596,22764,346596.0,61994.0,346596.0,89844.0,1670.177098326098,2452.812221735353,2643.0253591995465
346596,22766,346596.0,62005.0,346596.0,89866.0,1678.8850421619513,2455.6972301996934,2646.4879231127497
346596,22777,346596.0,62006.0,346596.0,89860.0,1686.3568716431073,2457.0836754932566,2648.3269625875846
346596,22790,346596.0,62042.0,346596.0,89877.0,1692.6386903985085,2457.0368494399886,2648.6160736017196
346596,22797,346596.0,62070.0,346596.0,89887.0,1697.7769900675507,2455.6218676759063,2647.4279928769183
346607,22797,346607.0,62060.0,346607.0,89860.0,1701.818731007348,2452.9043147552447,2644.8347882211287
346607,22760,346607.0,61957.0,346607.0,89819.0,1704.8112902557527,2448.9506040206593,2640.9078137556453
346607,22761,346607.0,61947.0,346607.0,89820.0,1706.8020931010988,2443.8273600298403,2635.717223305165
346607,22774,346607.0,61860.0,346607.0,89781.0,1707.8380926780092,2437.599985322333,2629.3313027348995
346607,22735,346607.0,61870.0,346607.0,89759.0,1707.9654218822284,2430.3311379299216,2621.8158759884514
346607,22741,346607.0,61840.0,346607.0,89740.0,1707.2291250267776,2422.079578946005,2613.233719895643
346617,22732,346617.0,61864.0,346617.0,89749.0,1705.6727957388084,2412.899582423281,2603.6440645564776
346617,22760,346617.0,61866.0,346617.0,89767.0,1703.3383463028786,2402.84091380535,2593.1024666712497
346617,22737,346617.0,61878.0,346617.0,89745.0,1700.2660770372643,2391.9492091951774,2581.6611065209995
346617,22740,346617.0,61886.0,346617.0,89753.0,1696.494829835975,2380.266545405239,2569.3691951488518
346617,22754,346617.0,62009.0,346617.0,89785.0,1692.0620485101128,2367.832290372523,2556.2733463666586
346617,22751,346617.0,61903.0,346617.0,89732.0,1687.0038944271407,2354.6844349358707,2542.4180576983895
346627,22736,346627.0,61866.0,346627.0,89707.0,1681.3554627820902,2340.8606194859435,2527.8460397125077
346627,22698,346627.0,61793.0,346627.0,89657.0,1675.1508109634433,2326.397812036902,2512.5979693469653
346627,22678,346627.0,61717.0,346627.0,89643.0,1668.4225955094698,2311.3309279225005,2496.7118378661253
346627,22688,346627.0,61769.0,346627.0,89616.0,1661.2015229787091,2295.6913633463555,2480.2223373609404
346627,22663,346627.0,61731.0,346627.0,89593.0,1653.5159981925135,2279.5062147368512,2463.1604626615735
346627,22660,346627.0,61742.0,346627.0,89587.0,1645.3920133852248,2262.798344801853,2445.5532830269417
346638,22666,346638.0,61742.0,346638.0,89583.0,1636.8531033081197,2245.5867783628896,2427.423890709119
346638,22666,346638.0,61715.0,346638.0,89577.0,1627.9204200888441,2227.887097361092,2408.7915923022497
346638,22664,346638.0,61748.0,346638.0,89594.0,1618.612985772841,2209.7118364384896,2389.672317843053
346638,22683,346638.0,61792.0,346638.0,89628.0,1608.9480287698002,2191.0710850035875,2370.079293579185
346638,22683,346638.0,61841.0,346638.0,89633.0,1598.9414096571961,2171.9736920139035,2350.0240770427913
346638,22665,346638.0,61776.0,346638.0,89610.0,1588.6080953042672,2152.428860642147,2329.517705070776
346648,22635,346648.0,61722.0,346648.0,89535.0,1577.962409621112,2132.44712875901,2308.57135738908
346648,22622,346648.0,61628.0,346648.0,89526.0,1567.0179025974,2112.040050908672,2287.196207554842
346648,22621,346648.0,61624.0,346648.0,89480.0,1555.7870618020027,2091.218974041173,2265.402831236839
346648,22600,346648.0,61574.0,346648.0,89457.0,1544.28116339583,2069.9938355287263,2243.200699669963
346648,22584,346648.0,61572.0,346648.0,89478.0,1532.5102399969303,2048.37249106906,2220.5979421089837
346648,22604,346648.0,61580.0,346648.0,89455.0,1520.4830598024707,2026.3605539528942,2197.601502449377
346658,22596,346658.0,61648.0,346658.0,89458.0,1508.2072724698526,2003.961842582988,2174.2176513011427
346658,22579,346658.0,61592.0,346658.0,89444.0,1495.6897558752341,1981.1794927204655,2150.4525557991938
346658,22605,346658.0,61630.0,346658.0,89413.0,1482.9369469614433,1958.017175775782,2126.3127389722554
346658,22595,346658.0,61704.0,346658.0,89439.0,1469.9551928751935,1934.4801639900925,2101.805444653888
346658,22575,346658.0,61641.0,346658.0,89426.0,1456.7511909868642,1910.57668151533,2076.939106042601
346658,22568,346658.0,61545.0,346658.0,89369.0,1443.3322747370712,1886.3190393227314,2051.7239419542557
346669,22541,346669.0,61494.0,346669.0,89369.0,1429.7064459281676,1861.7234244295278,2026.1722777681794
346669,22520,346669.0,61436.0,346669.0,89310.0,1415.8822685750486,1836.8086142251425,2000.298485498847
346669,22501,346669.0,61466.0,346669.0,89314.0,1401.8686645329155,1811.5948255688913,1974.1188421041338
346669,22504,346669.0,61370.0,346669.0,89260.0,1387.6747138378757,1786.1032444698815,1947.6514472264314
346669,22480,346669.0,61381.0,346669.0,89237.0,1373.3096173244942,1760.3558653647667,1920.9161472256403
346669,22499,346669.0,61381.0,346669.0,89231.0,1358.7828293224907,1734.375351944311,1893.934440634655
346679,22470,346679.0,61365.0,346679.0,89191.0,1344.1043014459692,1708.185242611392,1866.7294959375265
346679,22461,346679.0,61355.0,346679.0,89176.0,1329.2847319331256,1681.8105241176786,1839.326293116141
346679,22467,346679.0,61363.0,346679.0,89193.0,1314.3357230730976,1655.2782306017361,1811.7518275020157
346679,22466,346679.0,61395.0,346679.0,89151.0,1299.269992078167,1628.618164347191,1784.0355228512778
346679,22439,346679.0,61307.0,346679.0,89104.0,1284.1017240656279,1601.8638082034395,1756.2096847945481
346679,22411,346679.0,61175.0,346679.0,89016.0,1268.8467935323445,1575.052631349538,1728.309429088345
346689,22364,346689.0,61122.0,346689.0,88978.0,1253.5226008964905,1548.2249758067662,1700.3719095840886
346689,22349,346689.0,61071.0,346689.0,88935.0,1238.1475863302048,1521.4221316388268,1672.4352859572784
346689,22316,346689.0,61048.0,346689.0,88899.0,1222.740677338165,1494.6848461652207,1644.5379318885132
346689,22295,346689.0,60994.0,346689.0,88878.0,1207.3208496036202,1468.05257145334,1616.7179917525962
346689,22293,346689.0,61026.0,346689.0,88856.0,1191.9068268044175,1441.5631492733953,1589.0132016082468
346689,22281,346689.0,61002.0,346689.0,88825.0,1176.516979500553,1415.2529302191647,1561.4609105204913
346700,22276,346700.0,60954.0,346700.0,88790.0,1161.1694487966954,1389.157236723534,1534.098141120109
346700,22260,346700.0,60945.0,346700.0,88789.0,1145.8823606183703,1363.3106588100015,1506.9615950985294
346700,22256,346700.0,60998.0,346700.0,88769.0,1130.6740166833386,1337.7472138099283,1480.087766358264
346700,22236,346700.0,60970.0,346700.0,88737.0,1115.563051459464,1312.5010023408129,1453.5132314572998
346700,22198,346700.0,60894.0,346700.0,88686.0,1100.5684917788467,1287.607122659078,1427.2748328412877
346700,22179,346700.0,60807.0,346700.0,88664.0,1085.7095869627733,1263.10176160962,1401.4095270203957
346710,22141,346710.0,60755.0,346710.0,88584.0,1071.0054270571898,1239.0211433112026,1375.953973399496
346710,22134,346710.0,60741.0,346710.0,88564.0,1056.4745185520665,1215.4001398557143,1350.9439374477847
346710,22115,346710.0,60648.0,346710.0,88489.0,1042.1344687507926,1192.271255212876,1326.4135475024736
346710,22100,346710.0,60656.0,346710.0,88505.0,1028.0018368822089,1169.66388206465,1302.3945942878295
346710,22097,346710.0,60657.0,346710.0,88475.0,1014.0921028181233,1147.603765768954,1278.9161594194218
346710,22081,346710.0,60663.0,346710.0,88459.0,1000.4197144095621,1126.1130691299406,1256.0046649594028
346720,22069,346720.0,60617.0,346720.0,88451.0,986.9981846072408,1105.2109278585413,1233.6841022576355
346720,22071,346720.0,60697.0,346720.0,88437.0,973.8401893271785,1084.9140305432297,1211.9762773216485
346720,22068,346720.0,60700.0,346720.0,88447.0,960.957728356368,1065.2374390362793,1190.901154904372
346720,22043,346720.0,60634.0,346720.0,88394.0,948.3623691215195,1046.1957458378972,1170.4772702406688
346720,22020,346720.0,60552.0,346720.0,88361.0,936.0653685335376,1027.8036006395212,1150.721910293198
346720,21982,346720.0,60471.0,346720.0,88328.0,924.0774924205737,1010.0748830813786,1131.6508534372683
346731,21977,346731.0,60487.0,346731.0,88262.0,912.4086070641404,993.0211506328811,1113.2778026153276
346731,21965,346731.0,60430.0,346731.0,88254.0,901.0673035529451,976.6504458745042,1095.6136814480546
346731,21946,346731.0,60439.0,346731.0,88243.0,890.0607246310062,960.9667785218601,1078.6660114278163
346731,21959,346731.0,60455.0,346731.0,88261.0,879.3945411472987,945.9700350458845,1062.4387381623126
346731,21940,346731.0,60444.0,346731.0,88230.0,869.0730374007231,931.6562752844529,1046.932536781253
346731,21936,346731.0,60466.0,346731.0,88222.0,859.0992748386113,918.0183269991524,1032.1451896063195
346741,21927,346741.0,60473.0,346741.0,88208.0,849.4752125439379,905.0464579091552,1018.0717486883738
346741,21935,346741.0,60572.0,346741.0,88249.0,840.2017985746934,892.7292873173276,1004.7046795778251
346741,21942,346741.0,60484.0,346741.0,88264.0,831.279181843285,881.0550732149622,992.0343892003432
346741,21896,346741.0,60447.0,346741.0,88193.0,822.7069939076857,870.0126304871044,980.0500126013894
346741,21872,346741.0,60405.0,346741.0,88166.0,814.4843505630097,859.5910751477954,968.7396878237155
346741,21883,346741.0,60369.0,346741.0,88148.0,806.6094740822858,849.7788118516079,958.0900399916018
346751,21866,346751.0,60375.0,346751.0,88176.0,799.0793671885776,840.5626089321233,948.0855954297685
346751,21854,346751.0,60317.0,346751.0,88156.0,791.889755355852,831.927000152016,938.7087414628487
346751,21840,346751.0,60346.0,346751.0,88177.0,785.0350425484592,823.8538739648486,929.9400806162644
346751,21843,346751.0,60349.0,346751.0,88132.0,778.5081793514329,816.3222710300912,921.7587709922919
346751,21837,346751.0,60391.0,346751.0,88162.0,772.3005994984511,809.3086556737329,914.142667260436
346751,21854,346751.0,60388.0,346751.0,88178.0,766.4023201390455,802.7876538709539,907.0684551832226
346762,21873,346762.0,60443.0,346762.0,88197.0,760.8022465931333,796.7329670849114,900.5121203718282
346762,21876,346762.0,60487.0,346762.0,88210.0,755.4886920278265,791.1184344337862,894.4497155888241
346762,21867,346762.0,60453.0,346762.0,88142.0,750.4499262248771,785.9192521123662,888.8579740510262
346762,21831,346762.0,60408.0,346762.0,88109.0,745.6744320374808,781.1127700895368,883.714245355073
346762,21822,346762.0,60314.0,346762.0,88086.0,741.1507181325333,776.6781686914459,878.9956940665168
346762,21803,346762.0,60317.0,346762.0,88127.0,736.8668644544348,772.5951352043876,874.6784517978181
346772,21814,346772.0,60331.0,346772.0,88081.0,732.810124580478,768.8424943541695,870.7373387314822
346772,21812,346772.0,60308.0,346772.0,88105.0,728.9667796336643,765.397600796287,867.145938825699
346772,21808,346772.0,60304.0,346772.0,88135.0,725.322213810455,762.2362797967598,863.8767239342875
346772,21828,346772.0,60373.0,346772.0,88126.0,721.86108042356,759.3328959043693,860.9014118478159
346772,21827,346772.0,60364.0,346772.0,88137.0,718.5675447623286,756.6607993080852,858.1915024744077
346772,21815,346772.0,60407.0,346772.0,88148.0,715.4255779533956,754.1932033157809,855.71868343724
346783,21843,346783.0,60429.0,346783.0,88173.0,712.4191728102585,751.9041153668747,853.4551950441551
346783,21831,346783.0,60426.0,346783.0,88173.0,709.5325428961937,749.7691888636765,851.3743336229948
346783,21831,346783.0,60409.0,346783.0,88132.0,706.7503720955498,747.7663468915271,849.4508735258141
346783,21805,346783.0,60348.0,346783.0,88124.0,704.0579209226146,745.8758305258871,847.6610282000888
346783,21792,346783.0,60328.0,346783.0,88108.0,701.4408484007084,744.0795550619687,845.9819855432846
346783,21790,346783.0,60300.0,346783.0,88088.0,698.8848592692577,742.3600803929453,844.3913846056108
346793,21791,346793.0,60295.0,346793.0,88063.0,696.3754157833989,740.6996737293566,842.8668335452479
346793,21795,346793.0,60284.0,346793.0,88111.0,693.8976643252971,739.0796898671272,841.3854857540841
346793,21805,346793.0,60289.0,346793.0,88068.0,691.4365489647146,737.4802311343462,839.9239116549938
346793,21800,346793.0,60359.0,346793.0,88137.0,688.9770254261277,735.8801645232165,838.4582972643773
346793,21799,346793.0,60336.0,346793.0,88129.0,686.5042646402636,734.2576686622376,836.9648690861103
346793,21826,346793.0,60408.0,346793.0,88145.0,684.0038180293167,732.5911271432403,835.4205157416659
346803,21836,346803.0,60458.0,346803.0,88153.0,681.4619149918892,730.8601766399386,833.8033763898973
346803,21817,346803.0,60400.0,346803.0,88153.0,678.8659072137978,729.0468922837185,832.0932448934443
346803,21805,346803.0,60359.0,346803.0,88115.0,676.2045222823332,727.1364491820835,830.2717762629953
346803,21777,346803.0,60345.0,346803.0,88100.0,673.467710470454,725.1166818663048,828.322321987823
346803,21761,346803.0,60274.0,346803.0,88091.0,670.6462044539608,722.9770379590805,826.2294252004344
346803,21754,346803.0,60244.0,346803.0,88060.0,667.7310007329753,720.707404062774,823.9782797740013
346814,21733,346814.0,60252.0,346814.0,88081.0,664.712918888339,718.2969054102978,821.5543036113411
346814,21765,346814.0,60268.0,346814.0,88093.0,661.5823320591369,715.7331248361426,818.9429480298894
346814,21765,346814.0,60283.0,346814.0,88084.0,658.3291923859349,713.0020672445738,816.1298631117846
346814,21783,346814.0,60333.0,346814.0,88113.0,654.9433861309986,710.0886797453178,813.1012434210882
346814,21775,346814.0,60352.0,346814.0,88076.0,651.4151982084619,706.9777275507859,809.8441319352787
346814,21785,346814.0,60412.0,346814.0,88130.0,647.7356739525379,703.6549411082649,806.346654296663
346824,21769,346824.0,60374.0,346824.0,88104.0,643.8968440264193,700.1082082829384,802.5982991460694
346824,21754,346824.0,60304.0,346824.0,88083.0,639.8917904944171,696.3282332509913,798.5902165825298
346824,21735,346824.0,60298.0,346824.0,88043.0,635.714495623735,692.308152506863,794.3151586705437
346824,21735,346824.0,60255.0,346824.0,88028.0,631.3595404214151,688.0425029095886,789.766922642851
346824,21725,346824.0,60225.0,346824.0,88004.0,626.8218494021089,683.5262442280132,784.9396349956506
346824,21710,346824.0,60233.0,346824.0,88043.0,622.0965505691445,678.7539760086127,779.8272591641934
346834,21710,346834.0,60229.0,346834.0,88017.0,617.1788556579814,673.7194339328819,774.4235455318081
346834,21712,346834.0,60302.0,346834.0,88007.0,612.0639688934091,668.4155451140407,768.7222398070519
346834,21719,346834.0,60253.0,346834.0,88019.0,606.747149883221,662.83505669633,762.7171776014347
346834,21729,346834.0,60271.0,346834.0,88013.0,601.2239652022313,656.9712360927194,756.4023261150803
346834,21704,346834.0,60303.0,346834.0,88046.0,595.4906073904907,650.8182686950447,749.7720341818765
346834,21715,346834.0,60318.0,346834.0,88036.0,589.5440912725772,644.3717256247103,742.8215131213146
346845,21696,346845.0,60306.0,346845.0,88013.0,583.3822973589995,637.629314189044,735.547325959702
346845,21685,346845.0,60234.0,346845.0,87973.0,577.0039555125804,630.5913404855221,727.9475047064295
346845,21659,346845.0,60177.0,346845.0,87970.0,570.4085264474766,623.2602892470572,720.0211885337819
346845,21662,346845.0,60120.0,346845.0,87921.0,563.595954792111,615.6395532998661,711.7680804084941
346845,21633,346845.0,60096.0,346845.0,87899.0,556.5664212272591,607.7318812297294,703.1878820796846
346845,21629,346845.0,60125.0,346845.0,87922.0,549.3201402466522,599.5382089656594,694.2797560050751
346855,21614,346855.0,60122.0,346855.0,87905.0,541.8571610361581,591.0572961363084,685.0421117132981
346855,21621,346855.0,60155.0,346855.0,87899.0,534.1772341988845,582.2860963400437,675.4727732912825
346855,21619,346855.0,60143.0,346855.0,87888.0,526.2798495557174,573.2204444753941,665.5691698444416
346855,21622,346855.0,60196.0,346855.0,87906.0,518.1644470487279,563.8558062275382,655.3284559016038
346855,21624,346855.0,60186.0,346855.0,87931.0,509.83071980867044,554.1881161369103,644.7478390876386
346855,21624,346855.0,60217.0,346855.0,87920.0,501.27894463753137,544.2146962833458,633.8252365677395
346865,21602,346865.0,60131.0,346865.0,87897.0,492.51026907726947,533.9349501183543,622.559936544685
346865,21559,346865.0,60112.0,346865.0,87846.0,483.526762795567,523.3503741589134,610.9527953616264
346865,21550,346865.0,60015.0,346865.0,87825.0,474.3310895637784,512.4637479214041,599.0058568969653
346865,21542,346865.0,60055.0,346865.0,87800.0,464.9260264162103,501.2779290566251,586.7217078984627
346865,21514,346865.0,59966.0,346865.0,87775.0,455.31415572473026,489.7948647685905,574.1029253668017
346865,21532,346865.0,60048.0,346865.0,87753.0,445.49774021820576,478.0150825169409,561.1516786431376
346876,21531,346876.0,60035.0,346876.0,87783.0,435.4787727665575,465.9377671992827,547.8695002836338
346876,21512,346876.0,60036.0,346876.0,87759.0,425.25924132531804,453.5614166949498,534.2574077825677
346876,21499,346876.0,60025.0,346876.0,87743.0,414.8413681473235,440.8845658076327,520.3162708534694
346876,21492,346876.0,60076.0,346876.0,87766.0,404.2276370084313,427.9062953201658,506.04710447893524
346876,21508,346876.0,60091.0,346876.0,87788.0,393.4208107412807,414.62695522023387,491.45145161043536
346876,21477,346876.0,60053.0,346876.0,87744.0,382.42413124404754,401.0491830581451,476.5320639143962
346886,21479,346886.0,59963.0,346886.0,87695.0,371.2415521134262,387.1784382775868,461.29336850112077
346886,21435,346886.0,59931.0,346886.0,87627.0,359.87777915793424,373.02243316685394,445.74113568357427
346886,21402,346886.0,59856.0,346886.0,87635.0,348.33803366312503,358.5898225004305,429.8815601109916
346886,21408,346886.0,59831.0,346886.0,87591.0,336.62760301460077,343.8888316013886,413.7204573248806
346886,21375,346886.0,59836.0,346886.0,87590.0,324.7514618313447,328.9262009937231,397.2628952883483
346886,21381,346886.0,59879.0,346886.0,87562.0,312.71413140742294,313.70683594076456,380.5130745205023
346896,21372,346896.0,59780.0,346896.0,87570.0,300.5196943273056,298.2341667231119,363.4743271501553
346896,21379,346896.0,59848.0,346896.0,87593.0,288.1719620801691,282.51051118940836,346.1493622405817
346896,21351,346896.0,59823.0,346896.0,87565.0,275.6747611311425,266.53725327710913,328.5408442863745
346896,21365,346896.0,59882.0,346896.0,87566.0,263.0321774446463,250.3154020329613,310.65204574562347
346896,21345,346896.0,59873.0,346896.0,87551.0,250.2487512328239,233.8466363063044,292.48728613815024
346896,21315,346896.0,59777.0,346896.0,87523.0,237.3296400027241,217.13423604401805,274.05219401785575
346907,21294,346907.0,59766.0,346907.0,87464.0,224.28057975720117,200.1831553892706,255.35374714715977
346907,21264,346907.0,59701.0,346907.0,87407.0,211.10759358627263,182.99924556596193,236.39984581646638
346907,21243,346907.0,59696.0,346907.0,87419.0,197.8166093598369,165.58835997606855,217.19853645843773
346907,21240,346907.0,59677.0,346907.0,87362.0,184.41313405893868,147.95578047293077,197.75740944687175
346907,21218,346907.0,59620.0,346907.0,87361.0,170.90209383462673,130.10592415057465,178.0833509324608
346907,21219,346907.0,59673.0,346907.0,87353.0,157.2878436615689,112.04217869951708,158.18246633483602
346917,21223,346917.0,59622.0,346917.0,87344.0,143.5743059484921,93.76697141565387,138.0602137127472
346917,21194,346917.0,59629.0,346917.0,87324.0,129.76523188660985,75.28212031461305,117.72174275937277
346917,21193,346917.0,59670.0,346917.0,87318.0,115.8644396938613,56.589281081021454,97.17222472163644
346917,21191,346917.0,59697.0,346917.0,87345.0,101.87595070069017,37.69073262541633,76.41721353921571
346917,21160,346917.0,59665.0,346917.0,87267.0,87.80414052212745,18.59060843306372,55.463147303995356
346917,21146,346917.0,59563.0,346917.0,87237.0,73.65384042038818,-0.7042621841850405,34.317595223326066
346927,21115,346927.0,59521.0,346927.0,87202.0,59.430240980125404,-20.184712567232623,12.988909886512374
346927,21087,346927.0,59470.0,346927.0,87165.0,45.138636387253996,-39.84047942014547,-8.514359239344117
346927,21073,346927.0,59420.0,346927.0,87133.0,30.78409616228373,-59.66146595963846,-30.183937203661117
346927,21045,346927.0,59409.0,346927.0,87128.0,16.371157268055413,-79.63867772087315,-52.01216191822812
346927,21045,346927.0,59410.0,346927.0,87105.0,1.9036214237303284,-99.76475241244884,-73.99210068119646
346927,21048,346927.0,59422.0,346927.0,87108.0,-12.615463598522751,-120.03390197546673,-96.11739049081098
346938,21035,346938.0,59381.0,346938.0,87073.0,-27.18357406292739,-140.44140470354466,-118.38192987610432
346938,21021,346938.0,59398.0,346938.0,87040.0,-41.79837553524624,-160.98309486351752,-140.7796450688595
346938,21034,346938.0,59467.0,346938.0,87070.0,-56.457453406422246,-181.65480343834452,-163.304395483005
346938,21010,346938.0,59423.0,346938.0,87041.0,-71.15803388205882,-202.45130492707597,-185.94971515025634
346938,20975,346938.0,59367.0,346938.0,87022.0,-85.89673802252571,-223.36520545573808,-208.70830330217836
346938,20967,346938.0,59301.0,346938.0,86944.0,-100.66960165794319,-244.3867781725271,-231.57175203472866
346948,20916,346948.0,59232.0,346948.0,86881.0,-115.47234105439634,-265.504837241553,-254.53094639874473
346948,20918,346948.0,59215.0,346948.0,86896.0,-130.3006944688567,-286.7079748246696,-277.5769368413364
346948,20883,346948.0,59170.0,346948.0,86857.0,-145.15073449778572,-307.9855725014313,-300.70156182381834
346948,20891,346948.0,59166.0,346948.0,86850.0,-160.019042076799,-329.32836690216993,-323.897491037931
346948,20878,346948.0,59178.0,346948.0,86841.0,-174.9026815490355,-350.728573941679,-347.1580051879305
346948,20864,346948.0,59144.0,346948.0,86825.0,-189.7990173918222,-372.17959826525237,-370.4766947190574
346958,20853,346958.0,59152.0,346958.0,86805.0,-204.70551436327912,-393.67555887141725,-393.847095933995
346958,20842,346958.0,59190.0,346958.0,86791.0,-219.61960818101727,-415.21075863149383,-417.26238209189194
346958,20838,346958.0,59223.0,346958.0,86803.0,-234.53857599194566,-436.7787498333962,-440.7150611412943
346958,20814,346958.0,59152.0,346958.0,86753.0,-249.45936827220805,-458.37103845264244,-464.19656092061405
346958,20805,346958.0,59080.0,346958.0,86699.0,-264.378481177029,-479.97636436029495,-487.6969671863628
346958,20763,346958.0,58992.0,346958.0,86652.0,-279.29196051215604,-501.58126403236406,-511.20530937958733
346969,20745,346969.0,58969.0,346969.0,86624.0,-294.1955900610095,-523.171495191473,-534.7102487457212
346969,20728,346969.0,58895.0,346969.0,86594.0,-309.08520368563654,-544.7334515826976,-558.20068954067
346969,20691,346969.0,58908.0,346969.0,86558.0,-323.9569756306963,-566.2551575155439,-581.6661396475797
346969,20707,346969.0,58949.0,346969.0,86565.0,-338.80762643010655,-587.7266280892902,-605.0968897698249
346969,20708,346969.0,58919.0,346969.0,86566.0,-353.63441704785464,-609.1393728816533,-628.4839083336835
346969,20688,346969.0,58871.0,346969.0,86545.0,-368.4348241072819,-630.4855716237073,-651.818361356497
346979,20669,346979.0,58912.0,346979.0,86522.0,-383.2061776017357,-651.7576769962427,-675.0910530467115
346979,20657,346979.0,58946.0,346979.0,86519.0,-397.9455465206122,-672.9480501900193,-698.2920727789492
346979,20647,346979.0,58937.0,346979.0,86474.0,-412.6497530847338,-694.0479515448931,-721.4105819712909
346979,20622,346979.0,58862.0,346979.0,86466.0,-427.31535176999853,-715.0464167468785,-744.4346865546586
346979,20595,346979.0,58777.0,346979.0,86402.0,-441.93865215116216,-735.9300894285661,-767.3514783650623
346979,20586,346979.0,58758.0,346979.0,86352.0,-456.51587472397,-756.684168384448,-790.1473551288364
346989,20564,346989.0,58677.0,346989.0,86340.0,-471.0433305468,-777.2936927214253,-812.808619459003
346989,20537,346989.0,58660.0,346989.0,86300.0,-485.5175459009963,-797.7446169842806,-835.3220395781334
346989,20532,346989.0,58634.0,346989.0,86290.0,-499.93540089723547,-818.0246301829131,-857.6751192443851
346989,20517,346989.0,58635.0,346989.0,86252.0,-514.2942416682354,-838.1235896509602,-879.8561906381126
346989,20509,346989.0,58665.0,346989.0,86254.0,-528.5918610184337,-858.0334001410358,-901.8544439445932
346989,20503,346989.0,58661.0,346989.0,86233.0,-542.8263739290483,-877.7473486105496,-923.6598393760914
347000,20491,347000.0,58680.0,347000.0,86241.0,-556.9960426359703,-897.2591216303474,-945.2628331838387
347000,20506,347000.0,58714.0,347000.0,86228.0,-571.0990371823914,-916.5617363566287,-966.6539301372197
347000,20495,347000.0,58617.0,347000.0,86197.0,-585.1330748465646,-935.6465593309217,-987.8232024273962
347000,20452,347000.0,58549.0,347000.0,86141.0,-599.0950538647894,-954.5030346318679,-1008.7600788708753
347000,20422,347000.0,58485.0,347000.0,86112.0,-612.9810316339756,-973.1195992611867,-1029.4536192563294
347000,20394,347000.0,58474.0,347000.0,86050.0,-626.7866405888253,-991.4851445816516,-1049.8931365653439
347009,20373,347009.0,58412.0,347009.0,86022.0,-640.5076302280379,-1009.5901418276446,-1070.0689367143787
347009,20349,347009.0,58403.0,347009.0,86016.0,-654.1402966289847,-1027.427347038699,-1089.9729798580274
347009,20359,347009.0,58368.0,347009.0,85970.0,-667.6817429216358,-1044.9923204672411,-1109.5992530962703
347009,20362,347009.0,58391.0,347009.0,85985.0,-681.1298575137348,-1062.2837100985266,-1128.9438771060684
347009,20334,347009.0,58400.0,347009.0,85981.0,-694.4830121888303,-1079.3030930084701,-1148.0050055823283
347009,20328,347009.0,58423.0,347009.0,85977.0,-707.7397857332439,-1096.054309851488,-1166.782426553824
347020,20346,347020.0,58517.0,347020.0,85992.0,-720.8988285039022,-1112.5423045847845,-1185.2769526641446
347020,20327,347020.0,58477.0,347020.0,85947.0,-733.9586089548161,-1128.7714956353489,-1203.4898189994424
347020,20304,347020.0,58411.0,347020.0,85940.0,-746.9170644343067,-1144.7443462026624,-1221.4223070106523
347020,20268,347020.0,58332.0,347020.0,85889.0,-759.7715246257444,-1160.4612041199412,-1239.0757341367384
347020,20240,347020.0,58268.0,347020.0,85865.0,-772.5190271017882,-1175.9214820306815,-1256.451740286044
347020,20223,347020.0,58233.0,347020.0,85840.0,-785.1568146118191,-1191.1253056377398,-1273.5527153078453
347030,20198,347030.0,58234.0,347030.0,85817.0,-797.6827794442531,-1206.074838753306,-1290.38219133656
347030,20201,347030.0,58216.0,347030.0,85786.0,-810.095747692897,-1220.7749168140354,-1306.945127075573
347030,20195,347030.0,58243.0,347030.0,85804.0,-822.3955508780946,-1235.2330494960088,-1323.2480960483936
347030,20194,347030.0,58229.0,347030.0,85786.0,-834.582866749395,-1249.4590310734964,-1339.2992430697727
347030,20172,347030.0,58245.0,347030.0,85785.0,-846.6589648692441,-1263.4643647061353,-1355.107972301834
347030,20171,347030.0,58273.0,347030.0,85800.0,-858.6255390962995,-1277.2615995117699,-1370.684530561033
347040,20162,347040.0,58341.0,347040.0,85834.0,-870.4846228857693,-1290.8633736489417,-1386.039416775816
347040,20168,347040.0,58292.0,347040.0,85759.0,-882.2384477209205,-1304.281071955067,-1401.1826071586524
347040,20135,347040.0,58238.0,347040.0,85730.0,-893.8892324729941,-1317.5238040286688,-1416.1231826425783
347040,20102,347040.0,58132.0,347040.0,85694.0,-905.4391323022874,-1330.5986070022643,-1430.8697427728812
347040,20098,347040.0,58116.0,347040.0,85669.0,-916.8905008337854,-1343.5118200946706,-1445.431146376235
347040,20070,347040.0,58111.0,347040.0,85650.0,-928.2462550710702,-1356.2706228914667,-1459.817091007949
347051,20071,347051.0,58085.0,347051.0,85626.0,-939.5101061961318,-1368.8838709818804,-1474.0384904108948
347051,20063,347051.0,58085.0,347051.0,85636.0,-950.6866338988953,-1381.3622975146593,-1488.1076820484961
347051,20075,347051.0,58082.0,347051.0,85621.0,-961.7811798334817,-1393.718499292872,-1502.0384056713315
347051,20056,347051.0,58095.0,347051.0,85630.0,-972.799568152328,-1405.9667515845397,-1515.8455565689114
347051,20048,347051.0,58104.0,347051.0,85630.0,-983.7478290144802,-1418.1225743464693,-1529.5448061594454
347051,20073,347051.0,58194.0,347051.0,85669.0,-994.6320017874484,-1430.2019482236685,-1543.152063136551
347061,20043,347061.0,58141.0,347061.0,85628.0,-1005.4578619279735,-1442.2200928179238,-1556.6827503927284
347061,20026,347061.0,58150.0,347061.0,85600.0,-1016.2306421827409,-1454.1902964668327,-1570.1512574388614
347061,20003,347061.0,58048.0,347061.0,85573.0,-1026.955041366152,-1466.1235599981405,-1583.5709624539656
347061,19990,347061.0,57989.0,347061.0,85527.0,-1037.6354841212371,-1478.0292948579702,-1596.9546980324776
347061,19970,347061.0,58006.0,347061.0,85500.0,-1048.2763947365893,-1489.916656341437,-1610.3153788963862
347061,19945,347061.0,57956.0,347061.0,85527.0,-1058.8824403525111,-1501.795649504023,-1623.6665644944812
347071,19941,347071.0,57956.0,347071.0,85498.0,-1069.45878995662,-1513.6776310328514,-1637.022620129534
347071,19937,347071.0,57978.0,347071.0,85495.0,-1080.0113019966502,-1525.575473876796,-1650.3985085534725
347071,19938,347071.0,57979.0,347071.0,85498.0,-1090.546502830479,-1537.5033780775982,-1663.8095636957235
347071,19926,347071.0,57987.0,347071.0,85506.0,-1101.0713922527323,-1549.4763010821694,-1677.2712339042141
347071,19933,347071.0,57986.0,347071.0,85490.0,-1111.5932135038404,-1561.509324808809,-1690.7986626681798
347071,19921,347071.0,58104.0,347071.0,85533.0,-1122.119225990957,-1573.6168942367963,-1704.4061812089099
347082,19917,347082.0,58026.0,347082.0,85477.0,-1132.6564804919024,-1585.8115830155953,-1718.106761027075
347082,19901,347082.0,57938.0,347082.0,85409.0,-1143.2116573237445,-1598.103077754138,-1731.9117578412033
347082,19865,347082.0,57890.0,347082.0,85400.0,-1153.7910603425562,-1610.4985948232113,-1745.8314038601802
347082,19853,347082.0,57884.0,347082.0,85363.0,-1164.4008434607447,-1623.0043529433244,-1759.8757039867135
347082,19836,347082.0,57816.0,347082.0,85379.0,-1175.0473763854795,-1635.6268202979693,-1774.0550293351728
347082,19824,347082.0,57779.0,347082.0,85344.0,-1185.7375348623123,-1648.3735841742537,-1788.3802680966253
347092,19841,347092.0,57846.0,347092.0,85336.0,-1196.4787978398124,-1661.2540877769939,-1802.862794472139
347092,19829,347092.0,57870.0,347092.0,85339.0,-1207.279098716334,-1674.2796491096576,-1817.5144394808747
347092,19819,347092.0,57851.0,347092.0,85325.0,-1218.1465235211174,-1687.4625228201733,-1832.3473803049662
347092,19815,347092.0,57849.0,347092.0,85320.0,-1229.0890864812227,-1700.814889020039,-1847.3738951748608
347092,19817,347092.0,57906.0,347092.0,85352.0,-1240.1145948599483,-1714.348240219882,-1862.6060279277533
347092,19799,347092.0,57903.0,347092.0,85361.0,-1251.2304732935286,-1728.072635787936,-1878.0549999517586
347102,19790,347102.0,57828.0,347102.0,85307.0,-1262.4436040413282,-1741.9958154773012,-1893.7304419900217
347102,19763,347102.0,57754.0,347102.0,85270.0,-1273.7603104061736,-1756.1231046385876,-1909.6400566131972
347102,19751,347102.0,57687.0,347102.0,85197.0,-1285.1864932218944,-1770.458531799991,-1925.7900854400266
347102,19740,347102.0,57727.0,347102.0,85193.0,-1296.7278271119462,-1785.0063590619286,-1942.1862712232903
347102,19716,347102.0,57666.0,347102.0,85163.0,-1308.3899171643664,-1799.7719971102583,-1958.8347337814455
347102,19697,347102.0,57700.0,347102.0,85173.0,-1320.1784502407816,-1814.7621812499472,-1975.7423872149386
347113,19711,347113.0,57726.0,347113.0,85155.0,-1332.0993549023385,-1829.9847340974957,-1992.9169123689267
347113,19708,347113.0,57727.0,347113.0,85170.0,-1344.1587673963088,-1845.447884362749,-2010.366466452737
347113,19706,347113.0,57724.0,347113.0,85157.0,-1356.3627144698542,-1861.1593215874263,-2028.09924289971
347113,19683,347113.0,57706.0,347113.0,85193.0,-1368.7167556624381,-1877.125482396817,-2046.122895376777
347113,19699,347113.0,57756.0,347113.0,85150.0,-1381.2257710689403,-1893.351080169118,-2064.443845924933
347113,19676,347113.0,57712.0,347113.0,85157.0,-1393.8937891648711,-1909.8385318684727,-2083.0666874591734
347123,19650,347123.0,57650.0,347123.0,85093.0,-1406.7238262070891,-1926.5874781972843,-2101.993935416335
347123,19629,347123.0,57610.0,347123.0,85075.0,-1419.7179354056009,-1943.595018273874,-2121.22618506962
347123,19617,347123.0,57536.0,347123.0,85060.0,-1432.8774657683703,-1960.8566689615432,-2140.762498363374
347123,19585,347123.0,57495.0,347123.0,85022.0,-1446.2033261546426,-1978.3675935936558,-2160.60071871049
347123,19568,347123.0,57515.0,347123.0,84985.0,-1459.6962322284166,-1996.1237035734846,-2180.737695564154
347123,19594,347123.0,57504.0,347123.0,85002.0,-1473.356899852079,-2014.1221513457242,-2201.1695442987148
347133,19570,347133.0,57532.0,347133.0,84970.0,-1487.1859481207516,-2032.3610489194227,-2221.891726984779
347133,19569,347133.0,57540.0,347133.0,84954.0,-1501.1835524898092,-2050.8387196412605,-2242.898871210192
347133,19558,347133.0,57529.0,347133.0,84952.0,-1515.3491555839225,-2069.5527969653276,-2264.1845780350286
347133,19568,347133.0,57577.0,347133.0,84980.0,-1529.6812498525512,-2088.4993402783425,-2285.7411403325823
347133,19552,347133.0,57579.0,347133.0,84971.0,-1544.1770742442434,-2107.6718727560187,-2307.558884360704
347133,19522,347133.0,57504.0,347133.0,84902.0,-1558.8323241147618,-2127.0604182931247,-2329.6254140940327
347144,19506,347144.0,57454.0,347144.0,84872.0,-1573.641107188637,-2146.651223766644,-2351.92543253414
347144,19488,347144.0,57397.0,347144.0,84834.0,-1588.5961234530203,-2166.4274745608773,-2374.4412233723724
347144,19465,347144.0,57392.0,347144.0,84830.0,-1603.6888627535247,-2186.3703683439244,-2397.1532086412053
347144,19444,347144.0,57350.0,347144.0,84796.0,-1618.9097737794957,-2206.459875751224,-2420.0401882948845
347144,19450,347144.0,57346.0,347144.0,84812.0,-1634.2484067344608,-2226.67509345698,-2443.0792886556656
347144,19416,347144.0,57353.0,347144.0,84781.0,-1649.6934348840773,-2246.9943056253605,-2466.2457013594067
347154,19445,347154.0,57348.0,347154.0,84781.0,-1665.2325350816027,-2267.3947098937933,-2489.512302586063
