c_ts,c_val,d_ts,d_val,e_ts,e_val,c_val_filtered,d_val_filtered,e_val_filtered
104171,14150,104171,36783,104171,51897,347.83655075658123,100.4812401249594,203.86038071168906
104171,14143,104171,36810,104171,51868,349.03689639805305,100.31866151315975,204.68019713962525
104171,14142,104171,36755,104171,51857,350.2665552173235,100.18595081232455,205.54630385838414
104171,14134,104171,36754,104171,51838,351.5285295722034,100.08515563262526,206.46274903470714
104171,14147,104171,36775,104171,51904,352.8253712229908,100.01765471973003,207.43217636178437
104171,14154,104171,36814,104171,51908,354.15921352836637,99.98402757667749,208.45599740740008
104182,14156,104182,36792,104182,51900,355.5319544832297,99.98448362766581,209.53503993281817
104182,14142,104182,36770,104182,51887,356.94544886594434,100.01930247371257,210.6700063268741
104182,14112,104182,36742,104182,51878,358.40147063219933,100.08871049440525,211.8614223751924
104182,14116,104182,36749,104182,51874,359.901366570317,100.1923212813753,213.10934347039992
104182,14141,104182,36766,104182,51888,361.4456925781446,100.32868225729845,214.41311978201148
104182,14131,104182,36805,104182,51898,363.03419881284236,100.49532212198177,215.7713802597479
104192,14140,104192,36814,104192,51900,364.6660665566586,100.68930726615307,217.18223346678965
104192,14136,104192,36791,104192,51905,366.3400851513476,100.90790855398687,218.64351529223026
104192,14127,104192,36755,104192,51884,368.0547022412708,101.14881596846169,220.1529136078868
104192,14129,104192,36762,104192,51899,369.8079797414381,101.40974740271065,221.70791732030227
104192,14143,104192,36814,104192,51917,371.5975345045262,101.68801831475638,223.30575381265834
104192,14148,104192,36821,104192,51923,373.4206236216931,101.98073610076322,224.94355770225494
104202,14142,104202,36795,104202,51892,375.2743582419401,102.28543106583106,226.61864148276283
104202,14126,104202,36750,104202,51858,377.1558173154335,102.60028626183525,228.32841078148883
104202,14117,104202,36742,104202,51866,379.06191159697073,102.92361414398897,230.06979884962846
104202,14134,104202,36776,104202,51908,380.9891275218907,103.25312853631057,231.83874856416733
104202,14136,104202,36788,104202,51918,382.9334323518659,103.58574050514437,233.63031475601247
104202,14145,104202,36819,104202,51921,384.8904236761675,103.91798547398524,235.4392392628264
104213,14130,104213,36808,104213,51906,386.85552911951686,104.24666681280237,237.26040388748385
104213,14123,104213,36745,104213,51894,388.8240439054147,104.56919186408632,239.08886798705032
104213,14126,104213,36747,104213,51903,390.7909882074717,104.88321802319938,240.91963251553904
104213,14151,104213,36788,104213,51904,392.7510070491649,105.18597120503281,242.7474342386673
104213,14155,104213,36836,104213,51929,394.69854361542264,105.47417780545486,244.56676658392092
104213,14144,104213,36823,104213,51938,396.6281768650057,105.74482476032263,246.37214146091046
104223,14133,104223,36785,104223,51913,398.5347816106432,105.99590795851762,248.15842223370092
104223,14120,104223,36769,104223,51869,400.4133776737276,106.2264182998131,249.92082732328458
104223,14121,104223,36755,104223,51887,402.25882815287207,106.43572735849905,251.65441235319196
104223,14135,104223,36783,104223,51931,404.0656237439688,106.62301623245773,253.35356930572019
104223,14148,104223,36809,104223,51933,405.82792529468196,106.78719282129643,255.01218234576018
104223,14160,104223,36807,104223,51916,407.53986476925127,106.92730767963961,256.62418550367045
104233,14151,104233,36760,104233,51906,409.19591862536026,107.04297266601058,258.1838080376513
104233,14129,104233,36753,104233,51903,410.7910927274778,107.13422589241152,259.6853741024673
104233,14129,104233,36749,104233,51905,412.32078338258464,107.20095024506931,261.12301713256335
104233,14134,104233,36793,104233,51938,413.7804988174191,107.24247890294863,262.49060256371916
104233,14142,104233,36807,104233,51954,415.1657488518245,107.25779867550116,263.782000742503
104233,14144,104233,36804,104233,51926,416.47216160095627,107.2461649965506,264.9915665334372
104244,14108,104244,36757,104244,51926,417.6955986694578,107.20752148560777,266.11437655130754
104244,14119,104244,36754,104244,51933,418.83202208359484,107.14230113929523,267.14610075018453
104244,14129,104244,36741,104244,51932,419.8772385651106,107.05083176468,268.0828667251157
104244,14137,104244,36801,104244,51920,420.8268855463477,106.9329527604442,268.9212625739419
104244,14146,104244,36826,104244,51946,421.6766975110154,106.78829857411984,269.6583469026384
104244,14135,104244,36790,104244,51913,422.422805903704,106.61707074949737,270.2916660832656
104254,14115,104254,36761,104254,51887,423.0618562031475,106.42047693933844,270.8191675542401
104254,14131,104254,36736,104254,51913,423.590889664252,106.20035927502059,271.2388473463613
104254,14108,104254,36733,104254,51925,424.00717197061846,105.95842084758068,271.54847795839214
104254,14137,104254,36830,104254,51937,424.30813888516855,105.69581521220455,271.74579508289384
104254,14130,104254,36800,104254,51946,424.4914933890528,105.41360276900342,271.8289469505053
104254,14104,104254,36747,104254,51903,424.5553653452821,105.11353364591741,271.7968097116759
104264,14100,104264,36720,104264,51877,424.49827067523216,104.79800959643546,271.6488552350812
104264,14077,104264,36715,104264,51890,424.3187972537565,104.46919652331314,271.3845835020542
104264,14104,104264,36744,104264,51915,424.01528267894304,104.12825691819685,271.0030781640931
104264,14113,104264,36796,104264,51937,423.5857733548338,103.77533557792628,270.5031628791173
104264,14117,104264,36795,104264,51926,423.02832969783987,103.4102682037665,269.8839662004884
104264,14098,104264,36764,104264,51913,422.341396228124,103.03339968465518,269.1453587647239
104275,14089,104275,36729,104275,51878,421.5239047131383,102.64576328555452,268.2879329339647
104275,14085,104275,36740,104275,51900,420.5751164808063,102.24857418101959,267.3126260813363
104275,14083,104275,36738,104275,51913,419.49443868674973,101.84267072706282,266.22044081398667
104275,14097,104275,36794,104275,51917,418.2813885985414,101.42843365062433,265.0125879228392
104275,14093,104275,36720,104275,51866,416.935740317382,101.00611837144675,263.6907565619274
104275,14065,104275,36682,104275,51862,415.45770217027757,100.5759002367349,262.2569712832886
104285,14048,104285,36706,104285,51858,413.8478414562809,100.13720160994615,260.71307432386004
104285,14052,104285,36734,104285,51881,412.10674034919117,99.68803137506549,259.06037341444176
104285,14076,104285,36753,104285,51883,410.23476946881556,99.22512005824181,257.2997383734335
104285,14062,104285,36760,104285,51905,408.2322462318919,98.7445814756988,255.43199466216538
104285,14058,104285,36749,104285,51881,406.0997452397943,98.24248984404313,253.4583528079048
104285,14043,104285,36738,104285,51841,403.8382146318676,97.71510129233789,251.3805640324953
104295,14019,104295,36722,104295,51852,401.4488437414012,97.15873204092027,249.20061383888333
104295,14037,104295,36780,104295,51881,398.9328176112019,96.56957668796846,246.92034205314192
104295,14051,104295,36794,104295,51901,396.2912295079075,95.9439402716867,244.5415903019431
104295,14048,104295,36787,104295,51861,393.52534567100344,95.27893077206353,242.06675746334875
104295,14025,104295,36752,104295,51844,390.63696929126604,94.57298076437974,239.4990587718299
104295,13996,104295,36705,104295,51838,387.6284807151446,93.82565798007518,236.84223148353695
104306,14000,104306,36699,104306,51816,384.50251131556945,93.03686398946222,234.1000755517474
104306,14003,104306,36735,104306,51843,381.26161724501503,92.20603623826085,231.27616513186064
104306,14008,104306,36785,104306,51859,377.90826463848936,91.33206377313724,228.37387852628427
104306,14005,104306,36769,104306,51840,374.44506142267863,90.41400167044623,225.39675859317254
104306,13979,104306,36733,104306,51793,370.87496446864816,89.45180506613278,222.34876638218344
104306,13962,104306,36689,104306,51799,367.20123939019004,88.44628344181429,219.2340028990234
104316,13963,104316,36710,104316,51811,363.4271931269144,87.39837432973428,216.05622873660914
104316,13976,104316,36758,104316,51823,359.55598681083245,86.3086066140279,212.8187804623455
104316,13958,104316,36760,104316,51840,355.59073117983223,85.17737468235538,209.5249443502284
104316,13946,104316,36738,104316,51809,351.5346559898969,84.00563080733394,206.17843117015659
104316,13934,104316,36680,104316,51773,347.39108821457205,82.79510327959127,202.78352694062522
104316,13913,104316,36696,104316,51760,343.16326118532567,81.54776503371218,199.34470905531734
104326,13902,104326,36693,104326,51788,338.8540597978289,80.26513959267581,195.86609393933873
104326,13933,104326,36741,104326,51781,334.465837268796,78.9481161469462,192.35128880523052
104326,13931,104326,36749,104326,51777,330.0005563129026,77.5973931193096,188.80364130480515
104326,13921,104326,36749,104326,51759,325.46022227911953,76.21419805441566,185.226439715595
104326,13894,104326,36684,104326,51747,320.8471791477923,74.80070097122939,181.62284903583688
104326,13887,104326,36690,104326,51752,316.1640315424995,73.35972853259099,177.99571442123525
104337,13868,104337,36697,104337,51760,311.41336874123226,71.89412097138698,174.34747470674017
104337,13893,104337,36726,104337,51786,306.59757189873983,70.40646224808896,170.68036400648225
104337,13896,104337,36721,104337,51763,301.71891688517985,68.89937560292508,166.9968466676106
104337,13848,104337,36688,104337,51705,296.7798755214462,67.37590681959186,163.2998625427375
104337,13837,104337,36649,104337,51704,291.78314563040294,65.83943656608685,159.59246156505947
104337,13833,104337,36655,104337,51682,286.73128839822647,64.29306505102298,155.87707240261236
104347,13839,104347,36673,104347,51730,281.6264363892943,62.73901731857586,152.15505268820496
104347,13836,104347,36686,104347,51745,276.47034735699026,61.17857703985791,148.42687489948963
104347,13828,104347,36695,104347,51738,271.26462973886265,59.6124698046053,144.6927960624796
104347,13822,104347,36668,104347,51705,266.0109191887883,58.04126886277274,140.95342032897045
104347,13787,104347,36656,104347,51672,260.7109008554617,56.4654752084067,137.2096586011182
104347,13799,104347,36664,104347,51695,255.36615913740758,54.885280079583055,133.46224100725664
104358,13800,104358,36714,104358,51699,249.9780410398601,53.300457099781866,129.711389316431
104358,13795,104358,36708,104358,51719,244.5477597360491,51.710772606081534,125.95699532442643
104358,13778,104358,36671,104358,51704,239.07661483844464,50.116582276846884,122.1990805681265
104358,13761,104358,36638,104358,51661,233.56605006286003,48.518885522528095,118.43806988663141
104358,13741,104358,36633,104358,51632,228.01748955175992,46.91872429892665,114.6745327687724
104358,13739,104358,36629,104358,51665,222.432078279013,45.31649497996338,110.90857258489848
104368,13762,104368,36667,104368,51676,216.81055921684327,43.71166300261801,107.13954568029718
104368,13756,104368,36697,104368,51677,211.15348959691107,42.10304824230887,103.36639162414988
104368,13742,104368,36671,104368,51655,205.4616505280523,40.489507091843066,99.58809905705007
104368,13711,104368,36627,104368,51644,199.73624520208983,38.870369756387234,95.80383361527299
104368,13706,104368,36613,104368,51632,193.9787318543884,37.24513293860372,92.01274819734542
104368,13698,104368,36677,104368,51662,188.190532260333,35.61286529665699,88.21379736974166
104378,13698,104378,36691,104378,51673,182.37289499295127,33.97224850881341,84.40588377989951
104378,13700,104378,36680,104378,51658,176.52696803448475,32.32231670789115,80.5883224399673
104378,13682,104378,36645,104378,51608,170.65397344070863,30.66303019408167,76.76113114735489
104378,13666,104378,36627,104378,51600,164.75530795245533,28.995139070922278,72.92473826919834
104378,13648,104378,36589,104378,51597,158.83244606386575,27.31954929593327,69.07936692695
104378,13637,104378,36618,104378,51624,152.88670823515196,25.636624203150504,65.22469459105929
104389,13656,104389,36659,104389,51636,146.91909859652304,23.945899072910734,61.36005521083072
104389,13644,104389,36678,104389,51617,140.93039625675812,22.2465345567377,57.484947111071705
104389,13634,104389,36621,104389,51581,134.921417207202,20.538086010194633,53.599326575068005
104389,13612,104389,36597,104389,51569,128.8931493039379,18.820690223169137,49.703375472824916
104389,13602,104389,36608,104389,51588,122.84664899240141,17.094513732896573,45.79703839833343
104389,13590,104389,36635,104389,51594,116.78283937625497,15.359258038507278,41.879875715040214
104399,13607,104399,36662,104399,51605,110.70240387168093,13.61433287725822,37.95135798143835
104399,13594,104399,36630,104399,51582,104.60590290877292,11.859454724007719,34.01127392368616
104399,13572,104399,36585,104399,51537,98.49399020668784,10.09494198898392,30.059837104786794
104399,13558,104399,36579,104399,51533,92.36743920788558,8.321300153149394,26.097299041421877
104399,13560,104399,36609,104399,51577,86.22697357529654,6.5385602644037135,22.123459340062084
104399,13558,104399,36642,104399,51583,80.0731830214242,4.746164079961943,18.137738648681676
104409,13553,104409,36623,104409,51579,73.90664181864457,2.943495015953218,14.13979418997556
104409,13543,104409,36634,104409,51537,67.72809033069854,1.130455896865442,10.129987799890642
104409,13522,104409,36592,104409,51521,61.53851764408739,-0.6923517005324555,6.109267329168915
104409,13505,104409,36586,104409,51505,55.33907039360389,-2.523854604084974,2.0786394818909457
104409,13506,104409,36572,104409,51522,49.130850482723076,-4.362965658821679,-1.9613025053834576
104409,13507,104409,36625,104409,51551,42.91480807930628,-6.208901485511944,-6.010426033240833
104420,13502,104420,36616,104420,51533,36.69185127134148,-8.060996149917855,-10.068650822926827
104420,13458,104420,36575,104420,51500,30.462982118609318,-9.918259687448625,-14.135538436408893
104420,13453,104420,36554,104420,51487,24.229159557069636,-11.779381714299248,-18.21036938051904
104420,13444,104420,36552,104420,51479,17.99094780965686,-13.643289438045272,-22.292586388263942
104420,13465,104420,36574,104420,51474,11.748338825661222,-15.509644896202673,-26.382164751855754
104420,13465,104420,36574,104420,51532,5.500963242371938,-17.37886456760134,-30.479638545599357
104430,13455,104430,36610,104430,51479,-0.7514781050880401,-19.251758505831745,-34.58572405374997
104430,13422,104430,36555,104430,51470,-7.00893043818445,-21.12909659115634,-38.700953229702975
104430,13400,104430,36525,104430,51466,-13.271095943947728,-23.011553168332256,-42.82577250487438
104430,13407,104430,36543,104430,51454,-19.537799706375893,-24.90021015694164,-46.960853967575076
104430,13418,104430,36609,104430,51479,-25.8091856898248,-26.79693459353112,-51.10720403543087
104430,13405,104430,36608,104430,51483,-32.085534338927516,-28.703902032166866,-55.26598258083047
104440,13403,104440,36588,104440,51465,-38.36694666493315,-30.622678587062722,-59.43814176184955
104440,13366,104440,36584,104440,51458,-44.65321051569697,-32.55375199218379,-63.62419213193792
104440,13353,104440,36520,104440,51415,-50.94395426428599,-34.49673019561888,-67.8243145636475
104440,13357,104440,36516,104440,51437,-57.2389563833878,-36.450999029211005,-72.038718808554
104440,13351,104440,36587,104440,51429,-63.53830736048582,-38.41637957582711,-76.2679289389373
104440,13359,104440,36584,104440,51460,-69.84229444489671,-40.39305266390643,-80.51271234341411
104451,13334,104451,36554,104451,51421,-76.1511751726797,-42.38086180081255,-84.77374535321385
104451,13315,104451,36530,104451,51390,-82.46508251175322,-44.37899223731834,-89.05146676773981
104451,13313,104451,36505,104451,51396,-88.78415471417588,-46.38637829857281,-93.3463863907399
104451,13320,104451,36547,104451,51426,-95.10867536015058,-48.40227843678477,-97.65943572471195
104451,13325,104451,36568,104451,51442,-101.43895646162991,-50.42636842258953,-101.99178000058689
104451,13307,104451,36576,104451,51420,-107.77502533278977,-52.45821306350692,-106.34421293986014
104461,13285,104461,36525,104461,51395,-114.11642282872936,-54.49667703489364,-110.71676561889575
104461,13260,104461,36484,104461,51381,-120.46231735225138,-56.53998516808785,-115.10884309213048
104461,13252,104461,36477,104461,51356,-126.81184762597456,-58.586496990855736,-119.5196661657508
104461,13251,104461,36536,104461,51369,-133.1644291494452,-60.63545489060867,-123.94869251981152
104461,13262,104461,36548,104461,51385,-139.51980580768708,-62.68691872186656,-128.39577435496398
104461,13239,104461,36544,104461,51368,-145.87785677122082,-64.74101640133762,-132.86096353794403
104471,13228,104471,36507,104471,51360,-152.23841773643557,-66.79735843355203,-137.3442435269513
104471,13207,104471,36512,104471,51356,-158.60132698166365,-68.85507575391887,-141.84547949489468
104471,13206,104471,36477,104471,51331,-164.96661732255654,-70.91322389181752,-146.36452999029672
104471,13230,104471,36541,104471,51371,-171.33458886713368,-72.9711001666459,-150.9013420546192
104471,13220,104471,36547,104471,51365,-177.70556222505724,-75.0280894397088,-155.45581731223763
104471,13193,104471,36502,104471,51332,-184.0794963258013,-77.08311939605534,-160.02747737092244
104482,13176,104482,36474,104482,51327,-190.45589379889122,-79.13447820367585,-164.61536566334763
104482,13159,104482,36458,104482,51294,-196.83405665726718,-81.18035885520288,-169.218347644986
104482,13165,104482,36470,104482,51323,-203.21338064877375,-83.2195737212694,-173.83548356058458
104482,13168,104482,36484,104482,51316,-209.59342319186112,-85.25185856032755,-178.46613990046495
104482,13160,104482,36533,104482,51326,-215.9737186091686,-87.2776182893389,-183.1097748192916
104482,13150,104482,36500,104482,51301,-222.3535369788396,-89.29728047226814,-187.76564848212593
104492,13121,104492,36486,104492,51265,-228.73180923327305,-91.31077661654783,-192.432798344451
104492,13118,104492,36455,104492,51256,-235.10727317348483,-93.31761267723553,-197.11040890933674
104492,13105,104492,36496,104492,51307,-241.4786987753521,-95.31729402129594,-201.7982238647499
104492,13119,104492,36502,104492,51319,-247.8449823631617,-97.30945727681865,-206.49638339299645
104492,13108,104492,36495,104492,51273,-254.2050226727904,-99.29353706733161,-211.20476963725895
104492,13079,104492,36453,104492,51264,-260.5575366944096,-101.26848571706174,-215.9226799329445
104502,13055,104502,36423,104502,51258,-266.90111686837565,-103.2330478294306,-220.6490929200795
104502,13049,104502,36407,104502,51239,-273.23457824708726,-105.18651084473066,-225.38303579731223
104502,13051,104502,36481,104502,51265,-279.5572799682517,-107.12932449504518,-230.12374716723508
104502,13066,104502,36500,104502,51281,-285.86913371012565,-109.06290718271299,-234.87055455585693
104502,13053,104502,36503,104502,51266,-292.17031129471377,-110.98869998246641,-239.62244842129064
104502,13042,104502,36447,104502,51221,-298.4609165548933,-112.90738092787711,-244.37775135194187
104513,13008,104513,36445,104513,51224,-304.7409068105296,-114.81890534735308,-249.1342993768073
104513,13011,104513,36428,104513,51203,-311.0103024050461,-116.72309700413791,-253.88991890514473
104513,13020,104513,36440,104513,51236,-317.2694050325164,-118.62015661403348,-258.6427116469944
104513,13008,104513,36476,104513,51248,-323.5187435594646,-120.51075180429393,-263.39090878534864
104513,12995,104513,36466,104513,51228,-329.75886673409866,-122.39566624575949,-268.1324017218653
104513,12985,104513,36407,104513,51176,-335.9902701381948,-124.27542482613472,-272.86446348340326
104523,12973,104523,36406,104523,51165,-342.21347355772434,-126.15050398035271,-277.5840959603218
104523,12976,104523,36419,104523,51163,-348.42909900401287,-128.0219632387084,-282.28871771874464
104523,12980,104523,36471,104523,51204,-354.6378279481097,-129.89167027307107,-286.9765185814496
104523,12963,104523,36490,104523,51191,-360.84022156244134,-131.76173692410578,-291.6461997620354
104523,12942,104523,36468,104523,51163,-367.03659013420133,-133.63360125509433,-296.29650435786476
104523,12931,104523,36416,104523,51145,-373.22709174711997,-135.50755898998244,-300.92613929292645
104533,12916,104533,36397,104533,51145,-379.4119752273332,-137.38315713271322,-305.5341130387106
104533,12910,104533,36408,104533,51161,-385.591791285152,-139.26002275132572,-310.12000548633284
104533,12937,104533,36468,104533,51201,-391.76744030343923,-141.13827494975104,-314.6837915664879
104533,12931,104533,36455,104533,51154,-397.93992319251015,-143.0181173164379,-319.22528744172575
104533,12899,104533,36395,104533,51139,-404.10994706710756,-144.89921189319597,-323.7437798479014
104533,12890,104533,36418,104533,51098,-410.2778107000282,-146.78069474234817,-328.2382797660231
104544,12873,104544,36380,104544,51124,-416.44363651638344,-148.6617056304913,-332.70811915024103
104544,12881,104544,36411,104544,51116,-422.6076152069252,-150.5417923584575,-337.15330790941573
104544,12879,104544,36445,104544,51131,-428.77003225314627,-152.42091453605983,-341.5744528368672
104544,12863,104544,36430,104544,51139,-434.93111885812937,-154.29901039008192,-345.972428718875
104544,12863,104544,36405,104544,51109,-441.0909195309184,-156.17550909459544,-350.34804445373186
104544,12832,104544,36380,104544,51092,-447.2492936966463,-158.04935527090302,-354.7019591465359
104554,12825,104554,36378,104554,51098,-453.40605942849527,-159.9194991309401,-359.0349189859961
104554,12830,104554,36425,104554,51123,-459.56119431087586,-161.78528160644115,-363.3479344234113
104554,12830,104554,36431,104554,51104,-465.71487690299375,-163.64624701706717,-367.6420859780682
104554,12801,104554,36402,104554,51093,-471.8673505921263,-165.5015775778419,-371.918227793377
104554,12794,104554,36366,104554,51057,-478.0188931541868,-167.34988032741848,-376.17701186907647
104554,12781,104554,36358,104554,51052,-484.16998915457975,-169.18963208696704,-380.41927341708936
104564,12788,104564,36382,104564,51071,-490.3214886439207,-171.0197846570756,-384.6464454274911
104564,12780,104564,36381,104564,51076,-496.47458821297573,-172.8399494901956,-388.86061790889266
104564,12799,104564,36413,104564,51096,-502.6306404532686,-174.65011734837046,-393.0641891409148
104564,12772,104564,36368,104564,51065,-508.79087071466745,-176.4502549700899,-397.2594124334705
104564,12752,104564,36362,104564,51033,-514.9562055173045,-178.24018349434942,-401.44824104097
104564,12733,104564,36348,104564,51035,-521.1274129300042,-180.01987625710504,-405.6326391297797
104575,12743,104575,36385,104575,51055,-527.3054091788122,-181.78980157692442,-409.8149762517806
104575,12758,104575,36405,104575,51091,-533.4913449308627,-183.5508248365667,-413.99794266613986
104575,12743,104575,36403,104575,51058,-539.6863376605456,-185.303659729199,-418.1839834112216
104575,12731,104575,36368,104575,51075,-545.8911435043823,-187.04837457637032,-422.3747812604476
104575,12699,104575,36321,104575,51007,-552.1061105819757,-188.78449200821322,-426.5711790671298
104575,12689,104575,36323,104575,50996,-558.3314461408761,-190.51170021604773,-430.7735940625849
104585,12689,104585,36345,104585,51018,-564.5675647862075,-192.23058486026218,-434.98267111182173
104585,12703,104585,36374,104585,51009,-570.8152162531645,-193.94275428438206,-439.1996264803229
104585,12691,104585,36387,104585,51024,-577.0752935476997,-195.65032563555144,-443.42610400061113
104585,12674,104585,36345,104585,51007,-583.3485663045437,-197.35530610572982,-447.6638957272394
104585,12648,104585,36339,104585,50982,-589.6356550378387,-199.05944396736854,-451.91483058791215
104585,12664,104585,36342,104585,50995,-595.9372361435933,-200.76455338882775,-456.1809078764641
104596,12660,104596,36364,104596,51003,-602.2541497926651,-202.47276859199397,-460.46444077772236
104596,12661,104596,36397,104596,51012,-608.5872326068982,-204.18633266739857,-464.76790630274013
104596,12635,104596,36347,104596,51007,-614.9370855611103,-205.90708894917316,-469.09358453481775
104596,12615,104596,36339,104596,50964,-621.3040644555311,-207.63625366478928,-473.44333923723434
104596,12616,104596,36283,104596,50938,-627.6885071072921,-209.37482597599362,-477.8188433089837
104596,12601,104596,36325,104596,50967,-634.0909584507873,-211.12432776215135,-482.22212760319275
104606,12608,104606,36352,104606,50985,-640.5122316380231,-212.88719111442538,-486.65583581661036
104606,12608,104606,36371,104606,51005,-646.9533172644093,-214.66639683937296,-491.122835280472
104606,12595,104606,36353,104606,50971,-653.4151953370884,-216.464738284861,-495.6255741491041
104606,12581,104606,36304,104606,50952,-659.898693641487,-218.28446726891542,-500.1657980867554
104606,12559,104606,36300,104606,50934,-666.4045402088714,-220.12764379604866,-504.7448044646637
104606,12565,104606,36338,104606,50966,-672.9335552190336,-221.99672807844175,-509.3638373627013
104616,12572,104616,36355,104616,50972,-679.4867455398968,-223.89465387362426,-514.024105259962
104616,12567,104616,36356,104616,50944,-686.0651420051335,-225.82429199143786,-518.7264314928434
104616,12545,104616,36349,104616,50930,-692.6695453451873,-227.7878826634365,-523.4710595635881
104616,12510,104616,36288,104616,50911,-699.3005166788132,-229.7869203562949,-528.2578763575289
104616,12513,104616,36296,104616,50885,-705.958697536578,-231.82260428637005,-533.0868468409731
104616,12520,104616,36301,104616,50902,-712.6451335782829,-233.89648828952215,-537.958433581681
104627,12540,104627,36350,104627,50917,-719.3612174762327,-236.01068038850443,-542.8737683615204
104627,12522,104627,36346,104627,50933,-726.1082731936979,-238.16737951569402,-547.8343815882538
104627,12484,104627,36332,104627,50913,-732.8872207652622,-240.36821073499263,-552.841685774139
104627,12478,104627,36278,104627,50880,-739.698685809706,-242.614014582595,-557.8966926584437
104627,12468,104627,36285,104627,50887,-746.5433817304507,-244.90529689538275,-563.0001865404254
104627,12478,104627,36334,104627,50887,-753.4223335297115,-247.24277245571588,-568.1530340426627
104637,12479,104637,36338,104637,50906,-760.3367873857992,-249.62726175217608,-573.3562032734148
104637,12461,104637,36312,104637,50901,-767.2879557172284,-252.05908856538983,-578.6104640281906
104637,12436,104637,36291,104637,50856,-774.2768850644986,-254.53779189093294,-583.9161069628458
104637,12428,104637,36264,104637,50854,-781.3046086499326,-257.06245170180625,-589.2730500322607
104637,12410,104637,36272,104637,50842,-788.3724378737876,-259.63226429366085,-594.6812573067932
104637,12432,104637,36295,104637,50857,-795.4821417703546,-262.24689571052704,-600.1410330426734
104647,12442,104647,36334,104647,50867,-802.6358241517152,-264.9062935263064,-605.6529603011004
104647,12424,104647,36314,104647,50870,-809.8355145745466,-267.6100338967701,-611.2175589841027
104647,12402,104647,36268,104647,50817,-817.082835312389,-270.35681100538017,-616.8349749246715
104647,12390,104647,36255,104647,50820,-824.3790356873111,-273.1446254434362,-622.5050784519626
104647,12381,104647,36268,104647,50836,-831.7252378837035,-275.9714125297896,-628.2278287423442
104647,12389,104647,36320,104647,50854,-839.1225906451652,-278.83530923832365,-634.0033150573757
104658,12403,104658,36298,104658,50841,-846.5721628491502,-281.73422386085116,-639.8313453521639
104658,12363,104658,36289,104658,50810,-854.0746457306275,-284.6652265410836,-645.71107806536
104658,12346,104658,36238,104658,50785,-861.6302279923804,-287.6244488160496,-651.641120057087
104658,12334,104658,36222,104658,50768,-869.2388461526022,-290.6076136839346,-657.6200239380864
104658,12334,104658,36215,104658,50806,-876.9005146596999,-293.610817882397,-663.6467436600462
104658,12350,104658,36271,104658,50807,-884.6153876946566,-296.63100188988193,-669.7206092625947
104668,12343,104668,36276,104668,50779,-892.3835040912275,-299.6657050517718,-675.8409139018846
104668,12300,104668,36267,104668,50778,-900.2044885736568,-302.7123528262021,-682.0066676833638
104668,12298,104668,36208,104668,50764,-908.0775857247775,-305.7678492951534,-688.2166984353435
104668,12288,104668,36231,104668,50740,-916.0019680092227,-308.828863581992,-694.4698586326749
104668,12291,104668,36250,104668,50782,-923.976921225789,-311.89228410784574,-700.765176608847
104668,12292,104668,36255,104668,50810,-932.0017657539188,-314.9551709416835,-707.1016728197651
104678,12284,104678,36237,104678,50765,-940.0756350412177,-318.0143540754891,-713.4777420318633
104678,12265,104678,36223,104678,50725,-948.1972833727015,-321.0662463870568,-719.8907713219564
104678,12236,104678,36186,104678,50715,-956.3651010390929,-324.10707174225115,-726.3375221328943
104678,12241,104678,36200,104678,50724,-964.5773511103436,-327.1333424055658,-732.8147887507807
104678,12235,104678,36230,104678,50731,-972.8323809710826,-330.14218517990776,-739.3196492857421
104678,12237,104678,36239,104678,50763,-981.1285961820156,-333.1311399743791,-745.849197951736
104689,12222,104689,36191,104689,50730,-989.4642817168525,-336.0976838588186,-752.400015754291
104689,12202,104689,36194,104689,50707,-997.837493236634,-339.0391363723777,-758.96782085559
104689,12193,104689,36165,104689,50686,-1006.2461297624048,-341.95304735401055,-765.5476245488398
104689,12183,104689,36200,104689,50719,-1014.6881007886999,-344.83759989976977,-772.1341157301003
104689,12199,104689,36244,104689,50705,-1023.1613895800668,-347.69156913880096,-778.7217296461436
104689,12208,104689,36238,104689,50702,-1031.6638528446053,-350.51368915674516,-785.3043828750817
104699,12171,104699,36191,104699,50671,-1040.1928398246027,-353.30194618434496,-791.8753057722981
104699,12161,104699,36153,104699,50666,-1048.745005264705,-356.0535913948465,-798.4271870932322
104699,12138,104699,36162,104699,50642,-1057.316492408297,-358.7658713513166,-804.952493397167
104699,12133,104699,36182,104699,50664,-1065.9032432826898,-361.43668086514487,-811.4437388318106
104699,12157,104699,36225,104699,50674,-1074.501136884425,-364.06452111446316,-817.8934849534387
104699,12141,104699,36233,104699,50685,-1083.1058056393028,-366.6478116597729,-824.2939797577408
104709,12140,104709,36178,104709,50644,-1091.7122739559695,-369.1841513847325,-830.6367073429979
104709,12099,104709,36151,104709,50637,-1100.3147711440638,-371.6702508869828,-836.912283559445
104709,12110,104709,36173,104709,50628,-1108.9068463537424,-374.10254246838497,-843.1107303001565
104709,12109,104709,36192,104709,50659,-1117.4815327579358,-376.47764214992003,-849.221693635744
104709,12111,104709,36213,104709,50658,-1126.0312657221566,-378.7921396796131,-855.2342600580046
104709,12094,104709,36174,104709,50640,-1134.5476219700734,-381.04207888880694,-861.1365310420751
104720,12065,104720,36147,104720,50638,-1143.0211936672279,-383.22280240824324,-866.9153751928243
104720,12064,104720,36159,104720,50597,-1151.4417353085562,-385.32934098371476,-872.5565182359514
104720,12048,104720,36152,104720,50598,-1159.7984096724488,-387.3568638699607,-878.0448761623511
104720,12056,104720,36198,104720,50623,-1168.0799044896671,-389.3007290515672,-883.3648830654753
104720,12056,104720,36203,104720,50626,-1176.2743533927564,-391.1560808295169,-888.5004478633683
104720,12041,104720,36175,104720,50611,-1184.3691282946506,-392.91728027176936,-893.4345788587923
104730,12042,104730,36151,104730,50589,-1192.3506573842292,-394.5777049750459,-898.149162352058
104730,12023,104730,36145,104730,50578,-1200.2043561686703,-396.1301085509218,-902.62513060833
104730,12012,104730,36150,104730,50615,-1207.9146517648173,-397.5671170904556,-906.8427263246356
104730,12034,104730,36232,104730,50607,-1215.4650240092678,-398.88130024340876,-910.7814372067603
104730,12017,104730,36194,104730,50593,-1222.8378959219467,-400.06457835209915,-914.4196579588637
104730,11993,104730,36173,104730,50546,-1230.014434769472,-401.10751026552094,-917.7346125877024
104740,11979,104740,36124,104740,50556,-1236.9745860678909,-401.9993161088125,-920.7027785413312
104740,11966,104740,36117,104740,50520,-1243.6973654168823,-402.7286555497049,-923.3004936659752
104740,11958,104740,36118,104740,50552,-1250.1611538217287,-403.2845001465547,-925.5043966303151
104740,11963,104740,36174,104740,50594,-1256.3438555167968,-403.6565173037693,-927.2914728959965
104740,11955,104740,36187,104740,50570,-1262.2228967253986,-403.83472131639576,-928.6385977081015
104740,11939,104740,36152,104740,50540,-1267.7751551126403,-403.80875813358136,-929.5220605213233
104751,11941,104751,36117,104751,50529,-1272.9769704153678,-403.56764579848993,-929.9176969406519
104751,11910,104751,36132,104751,50517,-1277.8042633039524,-403.10024005571887,-929.8014710912166
104751,11923,104751,36165,104751,50569,-1282.2327166928178,-402.3957414616311,-929.149904100945
104751,11929,104751,36159,104751,50523,-1286.2378988521439,-401.443633190925,-927.940070194139
104751,11912,104751,36156,104751,50529,-1289.7951995869516,-400.2333129704751,-926.1494910176975
104751,11899,104751,36108,104751,50511,-1292.87975431191,-398.7540265971304,-923.7563498722002
104761,11886,104761,36075,104761,50477,-1295.466597638343,-396.99538670100253,-920.7399840718952
104761,11881,104761,36100,104761,50496,-1297.5309683492526,-394.9482625807789,-917.0814881626442
104761,11917,104761,36162,104761,50541,-1299.0484974107949,-392.6053108747794,-912.7641392649103
104761,11896,104761,36163,104761,50568,-1299.995091612052,-389.96060500147547,-907.7732039774509
104761,11888,104761,36187,104761,50548,-1300.3467078969015,-387.00877240002484,-902.0952953510598
104761,11876,104761,36108,104761,50518,-1300.0793935543136,-383.7444877073701,-895.7180534721057
104771,11870,104771,36100,104771,50538,-1299.169586971093,-380.1628057179849,-888.6304920977755
104771,11872,104771,36150,104771,50547,-1297.5944328231653,-376.26000038106326,-880.8235240223356
104771,11886,104771,36162,104771,50566,-1295.3319627063934,-372.03394669779686,-872.2901474511498
104771,11881,104771,36184,104771,50586,-1292.3611014670257,-367.4837299342365,-863.0253220025801
104771,11879,104771,36163,104771,50585,-1288.6616213622688,-362.60911969022925,-853.0257693134806
104771,11866,104771,36113,104771,50567,-1284.214234959165,-357.4105301382048,-842.2899311376668
104782,11861,104782,36132,104782,50572,-1279.0008780147596,-351.8896040504953,-830.8182691984285
104782,11870,104782,36164,104782,50615,-1273.0050716506084,-346.0499025229427,-818.613700419952
104782,11901,104782,36231,104782,50630,-1266.2121377426877,-339.89691310867414,-805.6817061083947
104782,11907,104782,36213,104782,50646,-1258.6091000861138,-333.43729934430445,-792.0300765330633
104782,11906,104782,36221,104782,50644,-1250.184431680737,-326.67812610636776,-777.6686934481717
104782,11897,104782,36187,104782,50660,-1240.927998659101,-319.62669198836613,-762.609583029349
104792,11895,104792,36189,104792,50661,-1230.831324673321,-312.2909401396407,-746.8671437868487
104792,11920,104792,36232,104792,50724,-1219.887975714523,-304.67997579840545,-730.458318357024
104792,11948,104792,36278,104792,50754,-1208.0937418369201,-296.8041054019448,-713.4024253813064
104792,11964,104792,36275,104792,50770,-1195.446478376402,-288.6742553178162,-695.7206408052692
104792,11953,104792,36209,104792,50761,-1181.945857737956,-280.30148221376,-677.4355934287535
104792,11966,104792,36231,104792,50779,-1167.5933859696468,-271.69731134714283,-658.5714403153314
104802,11981,104802,36255,104802,50811,-1152.3926679399694,-262.87452195263046,-639.1541987160074
104802,12006,104802,36296,104802,50860,-1136.349615482375,-253.84743022383742,-619.2118520751118
104802,12040,104802,36324,104802,50902,-1119.4724202969562,-244.63145900406698,-598.7740127344201
104802,12049,104802,36347,104802,50917,-1101.7713460542407,-235.24242882404386,-577.8713387542107
104802,12068,104802,36320,104802,50918,-1083.2585357342953,-225.69601298840757,-556.53513292371
104802,12074,104802,36306,104802,50943,-1063.9480018350673,-216.0077083301838,-534.7973718863739
104813,12110,104813,36356,104813,50984,-1043.855750483882,-206.1932502951119,-512.6909255656549
104813,12146,104813,36400,104813,51038,-1022.9998163846051,-196.26878378665666,-490.2495105152332
104813,12173,104813,36413,104813,51066,-1001.4000623706725,-186.25036832742964,-467.5072425623044
104813,12175,104813,36403,104813,51069,-979.0779109462333,-176.1533128281489,-444.4981256140909
104813,12202,104813,36358,104813,51078,-956.056300609058,-165.99206596259603,-421.25591871853106
104813,12205,104813,36362,104813,51078,-932.3598885185019,-155.78083569161134,-397.81446931954946
104823,12256,104823,36424,104823,51140,-908.0152903164822,-145.53437081975628,-374.20818376471027
104823,12287,104823,36444,104823,51200,-883.0511336871537,-135.26809462884032,-350.47211791357483
104823,12336,104823,36477,104823,51220,-857.4978195554067,-124.99752332480773,-326.64147828593127
104823,12353,104823,36458,104823,51238,-831.3871255844267,-114.73762650995556,-302.750996047225
104823,12378,104823,36460,104823,51231,-804.7519181184798,-104.50263106510877,-278.83474742923715
104823,12418,104823,36450,104823,51277,-777.6260707031951,-94.30629021933987,-254.92642350791414
104834,12457,104834,36514,104834,51324,-750.0444059823619,-84.16223890797306,-231.0595706326328
104834,12490,104834,36536,104834,51400,-722.042491903024,-74.08391487439178,-207.26732686193895
104834,12526,104834,36549,104834,51400,-693.6563700241404,-64.08399245754043,-183.58168569888505
104834,12545,104834,36512,104834,51397,-664.922358459407,-54.173923606063,-160.03291138544955
104834,12578,104834,36493,104834,51407,-635.8769910202413,-44.36414425680016,-136.64963493597065
104834,12611,104834,36553,104834,51454,-606.5570488810677,-34.66473726004671,-113.45935874783481
104844,12650,104844,36559,104844,51496,-576.9995520376336,-25.085766304698552,-90.48868686226774
104844,12700,104844,36593,104844,51544,-547.2416102008956,-15.636983024994322,-67.7630290379135
104844,12723,104844,36578,104844,51541,-517.3201460909927,-6.327382536541393,-45.30608740314824
104844,12740,104844,36563,104844,51556,-487.27167408592493,2.834911267387895,-23.139604486466283
104844,12776,104844,36585,104844,51567,-457.1323212321943,11.842362144443427,-1.28354589607477
104844,12824,104844,36613,104844,51605,-426.9379437228107,20.687714311015952,20.243566380621132
104854,12868,104854,36644,104854,51643,-396.7240300628205,29.3640949527329,41.42454307501362
104854,12906,104854,36644,104854,51672,-366.5253634494575,37.865455842723804,62.243740923272185
104854,12922,104854,36660,104854,51659,-336.37569113345137,46.18696168653298,82.68733963963882
104854,12941,104854,36617,104854,51653,-306.3076465269993,54.32505420846928,102.74325001071531
104854,12973,104854,36627,104854,51678,-276.3529431986394,62.27710107025865,122.40057059155595
104854,13025,104854,36638,104854,51726,-246.54257458467225,70.04083211452257,141.64908112038552
104865,13065,104865,36684,104865,51795,-216.9067350631501,77.61405883694499,160.47932548809854
104865,13100,104865,36696,104865,51776,-187.47448971457868,84.99493620036219,178.88324412182476
104865,13121,104865,36670,104865,51779,-158.27346499154737,92.18241878252593,196.85465588123463
104865,13145,104865,36678,104865,51781,-129.32975767856715,99.17635681659942,214.38907772763207
104865,13171,104865,36681,104865,51798,-100.66804303036315,105.97719775566111,231.4831778334419
104865,13230,104865,36726,104865,51838,-72.31167886602043,112.58577501362066,248.1343985714101
104875,13257,104875,36724,104875,51856,-44.282578158078195,119.00348540528842,264.3409538954928
104875,13279,104875,36738,104875,51874,-16.60091816276963,125.23266300523915,280.10206156441575
104875,13287,104875,36713,104875,51865,10.714974636727675,131.27676891993372,295.4180844498085
104875,13303,104875,36662,104875,51858,37.64840051105193,137.1401176248902,310.2903401349405
104875,13342,104875,36708,104875,51884,64.1839101726141,142.82715595041805,324.72063546297704
104875,13374,104875,36724,104875,51937,90.30708634967482,148.34187336892165,338.7109428862767
104885,13409,104885,36764,104885,51974,116.00460315426767,153.68791211139552,352.2636394975947
104885,13444,104885,36727,104885,51967,141.26444026947047,158.86908961791937,365.3821407117962
104885,13443,104885,36726,104885,51948,166.0760641850236,163.88962085390693,378.0712586687765
104885,13463,104885,36697,104885,51945,190.43038462128266,168.75377930867336,390.3369007414602
104885,13489,104885,36736,104885,51967,214.31947637021153,173.46533652916492,402.185427746601
104885,13543,104885,36785,104885,52012,237.73638457910647,178.02737300609203,413.623282839691
104896,13555,104896,36785,104896,52028,260.6752565866841,182.4427476609942,424.65717016877215
104896,13572,104896,36754,104896,52024,283.13159007484023,186.71472799737813,435.2944855948343
104896,13580,104896,36743,104896,52012,305.1022476263706,190.84703811555886,445.5434670244523
104896,13588,104896,36721,104896,52032,326.5851912943356,194.84329817813006,455.41292650459604
104896,13625,104896,36771,104896,52042,347.579137641083,198.70641780556826,464.91191594506734
104896,13651,104896,36811,104896,52063,368.08337819186636,202.43852207524282,474.0496297477754
104906,13683,104906,36813,104906,52087,388.097872609231,206.04154966791543,482.8355359601593
104906,13707,104906,36782,104906,52056,407.6234911690035,209.5179200211271,491.27954947551655
104906,13709,104906,36767,104906,52047,426.6622061939447,212.87057326344706,499.3919211583118
104906,13714,104906,36782,104906,52064,445.21705635693706,216.102475942519,507.18274746464385
104906,13754,104906,36819,104906,52124,463.2919020089902,219.2162683780635,514.6616162815587
104906,13779,104906,36817,104906,52119,480.89129118804453,222.21444210196324,521.8378622141206
104916,13780,104916,36850,104916,52123,498.02057582650195,225.09981862007902,528.7211011453992
104916,13789,104916,36795,104916,52082,514.6859724343337,227.8759024074547,535.321367844982
104916,13787,104916,36743,104916,52086,530.8943384102367,230.5466850872549,541.6486600164178
104916,13817,104916,36774,104916,52097,546.6528115186275,233.1157812860996,547.7122648783736
104916,13837,104916,36828,104916,52128,561.9685855214109,235.58568124878036,553.5203921090256
104916,13851,104916,36842,104916,52155,576.8489229272618,237.95796601687715,559.0803273746997
104927,13870,104927,36822,104927,52168,591.3012589237728,240.23409046637045,564.398924044568
104927,13873,104927,36805,104927,52132,605.3332384117618,242.41576883527387,569.4830179913677
104927,13868,104927,36799,104927,52146,618.952613052197,244.50471984499546,574.3393928914609
104927,13897,104927,36810,104927,52145,632.166989989943,246.5022186037624,578.974411157566
104927,13921,104927,36858,104927,52174,644.9836424775906,248.40895307600084,583.3937737218062
104927,13936,104927,36873,104927,52176,657.4095906024525,250.22541780619196,587.6025986981476
104937,13934,104937,36847,104937,52171,669.4517859411887,251.95256964591022,591.6056183946382
104937,13935,104937,36797,104937,52171,681.1170963611071,253.59203918652736,595.40722130996
104937,13941,104937,36786,104937,52154,692.4120482503765,255.1455396688355,599.0112640860416
104937,13961,104937,36835,104937,52191,703.3425303578176,256.6140257987104,602.4208111298026
104937,13997,104937,36872,104937,52203,713.9137059322813,257.9975130947429,605.6380871282681
104937,13998,104937,36866,104937,52227,724.1302119015568,259.29571154253466,608.6647860446863
104947,14010,104947,36848,104947,52188,733.9964263651711,260.5087085862848,611.5024552266009
104947,14006,104947,36831,104947,52186,743.5165371223902,261.63706196703345,614.1525032818561
104947,14012,104947,36838,104947,52212,752.6943949076267,262.68143394516295,616.6158519123035
104947,14054,104947,36862,104947,52238,761.5333555986151,263.6422849642445,618.892784138919
104947,14054,104947,36883,104947,52244,770.036354124207,264.5199768415941,620.9832701885585
104947,14072,104947,36867,104947,52225,778.2061715161055,265.31518226144624,622.8873885506644
104958,14060,104958,36838,104958,52213,786.0455995489594,266.02912093564674,624.6053787728787
104958,14065,104958,36821,104958,52220,793.5573591976456,266.66327837799014,626.1373300421125
104958,14063,104958,36814,104958,52201,800.7438497278099,267.2187812968777,627.4828192251031
104958,14103,104958,36861,104958,52248,807.6069367813948,267.6959314479156,628.640714910353
104958,14105,104958,36854,104958,52263,814.1480060420515,268.09426218504046,629.6093093670122
104958,14120,104958,36855,104958,52256,820.3682338545657,268.41293759126273,630.3867825054613
104968,14112,104968,36854,104968,52222,826.2687914348023,268.65101660455787,630.971532437868
104968,14110,104968,36820,104968,52223,831.8508207367797,268.80740610071643,631.3619720017422
104968,14123,104968,36838,104968,52282,837.1152487256913,268.8805859372777,631.5561616417143
104968,14142,104968,36900,104968,52286,842.0626585869854,268.8684459814871,631.5519687921922
104968,14174,104968,36890,104968,52287,846.6934303365597,268.7686965797143,631.3477153732031
104968,14155,104968,36892,104968,52248,851.0081002223158,268.57961171023015,630.9425990930122
104978,14151,104978,36842,104978,52241,855.0075847549256,268.3003540885155,630.3364980326975
104978,14144,104978,36833,104978,52228,858.6930285300875,267.9306171717017,629.5294074596047
104978,14163,104978,36847,104978,52260,862.0654862840904,267.4699685995305,628.520984455336
104978,14164,104978,36874,104978,52294,865.1257710420268,266.91751029925143,627.310572729471
104978,14188,104978,36899,104978,52307,867.8745351130003,266.27214871194764,625.8977703666857
104978,14184,104978,36886,104978,52282,870.3124766522026,265.53320196580813,624.2831337571531
104989,14191,104989,36860,104989,52272,872.440538204726,264.70080369427114,622.4684632193196
104989,14192,104989,36858,104989,52275,874.2600020949362,263.7758019835736,620.4566156545858
104989,14207,104989,36902,104989,52255,875.772529178209,262.7594792642088,618.2512145183683
104989,14212,104989,36881,104989,52287,876.9802603149435,261.6536253582815,615.8564877238597
104989,14205,104989,36902,104989,52262,877.8859663491364,260.4608988822231,613.2772738401231
104989,14200,104989,36840,104989,52252,878.4930947455032,259.184995300791,610.5190750270883
104999,14202,104999,36843,104999,52239,878.8056581581843,257.83035441537226,607.5879137076366
104999,14202,104999,36824,104999,52238,878.82809231798,256.40155287921124,604.4900211345496
104999,14214,104999,36855,104999,52264,878.5652085834568,254.90282479748578,601.2316531251273
104999,14223,104999,36891,104999,52319,878.0222835141799,253.3380907287978,597.8193403692809
104999,14215,104999,36880,104999,52269,877.2052428143986,251.71149495131198,594.2605852486778
104999,14217,104999,36835,104999,52241,876.1207937699583,250.02791660107448,590.5643533134021
105008,14191,105008,36807,105008,52209,874.7763845654104,248.2928130266867,586.7407540799106
105008,14210,105008,36844,105008,52247,873.1800145524662,246.51155103103838,582.8003115599323
105008,14222,105008,36873,105008,52241,871.3401097473056,244.6890859086464,578.7536336879243
105008,14225,105008,36879,105008,52254,869.2656717443119,242.83038880413056,574.6116300674908
105008,14206,105008,36839,105008,52232,866.9665399014398,240.9410596356102,570.3858405712191
105008,14191,105008,36796,105008,52194,864.4534164038218,239.02735033446362,566.0884676729065
105019,14185,105019,36797,105019,52199,861.7375952021696,237.0954929879166,561.7320089305508
105019,14197,105019,36837,105019,52193,858.83065959184,235.1510086103956,557.3287786220773
105019,14195,105019,36852,105019,52207,855.744401037557,233.19869857882702,552.8907046658225
105019,14204,105019,36867,105019,52225,852.490952801742,231.24325784283417,548.4294793561972
105019,14176,105019,36836,105019,52210,849.0829376485906,229.2898965628433,543.95691782074
105019,14168,105019,36791,105019,52170,845.5334187662838,227.34443778087626,539.4851878807881
105029,14155,105029,36784,105029,52152,841.8556190990485,225.41276953188753,535.0265547591972
105029,14181,105029,36836,105029,52235,838.0626494940288,223.50018142720722,530.5929458257856
105029,14168,105029,36849,105029,52189,834.1675042757774,221.61135453768338,526.1960695960946
105029,14165,105029,36860,105029,52187,830.1832388309786,219.7510266668697,521.847932771525
105029,14142,105029,36805,105029,52151,826.1230232030393,217.92458812975943,517.5609393821647
105029,14137,105029,36774,105029,52125,821.9999579480773,216.13797040789615,513.3474279603863
105040,14137,105040,36772,105040,52143,817.8268076563613,214.3968902435237,509.21905918765447
105040,14141,105040,36812,105040,52160,813.6158621869376,212.70616538453305,505.18649074625205
105040,14134,105040,36801,105040,52172,809.3789757992154,211.0696785619829,501.25957780165095
105040,14148,105040,36820,105040,52144,805.1276866475467,209.49078110404602,497.44781342635474
105040,14133,105040,36805,105040,52143,800.8733575678386,207.97264834200692,493.7605168800385
105040,14105,105040,36785,105040,52098,796.6272305262996,206.51838432427343,490.20661968281513
105050,14133,105050,36790,105050,52111,792.4002850836996,205.1308615683926,486.7942029858116
105050,14126,105050,36822,105050,52164,788.203129194018,203.81254062180983,483.53018462795717
105050,14128,105050,36828,105050,52157,784.0461405458216,202.56564777420084,480.4206069092905
105050,14112,105050,36819,105050,52140,779.9396456137944,201.39262989119467,477.4712799850869
105050,14105,105050,36759,105050,52106,775.8939094287294,200.2963358431863,474.6880177395673
105050,14087,105050,36789,105050,52086,771.9189579945153,199.27962696304922,472.0762332223898
105060,14086,105060,36768,105060,52102,768.0243261148998,198.3448171406096,469.6403063025757
105060,14093,105060,36795,105060,52124,764.2188598283881,197.49344434900976,467.38326168089463
105060,14092,105060,36828,105060,52144,760.5107006408932,196.72644638552705,465.30700199313907
105060,14087,105060,36812,105060,52109,756.9074067503392,196.04463554206097,463.41280044277096
105060,14070,105060,36754,105060,52079,753.4160167238931,195.44904718985998,461.7014498305565
105060,14066,105060,36755,105060,52095,750.0429420564036,194.94061584702902,460.1728675919059
105071,14075,105071,36800,105071,52129,746.7937936181922,194.5195207068743,458.82571536549506
105071,14083,105071,36823,105071,52133,743.6733603490105,194.1851173451262,457.6575855737431
105071,14084,105071,36832,105071,52128,740.6858007295823,193.93658714278573,456.66552233052664
105071,14054,105071,36767,105071,52094,737.8348303378984,193.77352935654363,455.8462797537652
105071,14055,105071,36741,105071,52093,735.1236503675177,193.69577136844615,455.1960911204517
105071,14055,105071,36769,105071,52097,732.554685796183,193.70254486152405,454.71022419735874
105081,14054,105081,36773,105081,52129,730.1294204726552,193.79189408546597,454.3827761866724
105081,14070,105081,36791,105081,52159,727.8484302325704,193.96073717760788,454.2069553357283
105081,14059,105081,36806,105081,52164,725.7115370953953,194.2052568091743,454.17573809433054
105081,14072,105081,36788,105081,52120,723.7179853612938,194.52128229215174,454.2824325303188
105081,14049,105081,36763,105081,52107,721.8665424743382,194.9044163725758,454.52064027281773
105081,14054,105081,36814,105081,52136,720.1554680125957,195.3498602984618,454.88374874177595
105091,14071,105091,36845,105091,52173,718.5824317948309,195.8524533520924,455.3647046735639
105091,14075,105091,36827,105091,52165,717.1445956753295,196.4072487704665,455.95641926176984
105091,14079,105091,36800,105091,52126,715.8388854103301,197.01003124327494,456.65224254582023
105091,14055,105091,36775,105091,52100,714.6621976980333,197.65716093435182,457.44581313977324
105091,14029,105091,36770,105091,52114,713.6112915503764,198.3449262995322,458.33036649104014
105091,14055,105091,36776,105091,52146,712.6823985028269,199.06893199191805,459.2982162541873
105102,14064,105102,36844,105102,52157,711.8709646099675,199.82394089165683,460.3408643406821
105102,14071,105102,36849,105102,52176,711.1718056488763,200.60438896522328,461.4495233560396
105102,14071,105102,36807,105102,52141,710.5794389029227,201.40517646965247,462.6155639787699
105102,14053,105102,36788,105102,52143,710.0882618257933,202.2218836903169,463.8305617426485
105102,14054,105102,36778,105102,52126,709.6924846709304,203.05023531172694,465.08596980932475
105102,14057,105102,36828,105102,52178,709.3859386919771,203.88552996435237,466.3728045371303
105112,14075,105112,36849,105112,52193,709.1619989026242,204.72269684613656,467.68177315310277
105112,14076,105112,36837,105112,52199,709.0137329013431,205.55689862206455,469.0038417938682
105112,14066,105112,36817,105112,52176,708.934124196131,206.384002815825,470.33074232859076
105112,14051,105112,36779,105112,52138,708.9161132405417,207.20043817732935,471.6549447021032
105112,14061,105112,36798,105112,52142,708.9524058156471,208.0025980588648,472.969093042892
105112,14074,105112,36809,105112,52185,709.0353039768914,208.78633934867509,474.2654258806883
105122,14084,105122,36867,105122,52209,709.156794554987,209.5470425387097,475.5358040220551
105122,14092,105122,36825,105122,52192,709.3088367718553,210.28017841990103,476.77228562384227
105122,14080,105122,36817,105122,52178,709.4836306670302,210.98175622097347,477.9675464937341
105122,14060,105122,36789,105122,52183,709.6736642207356,211.6481575230118,479.1147917202956
105122,14081,105122,36815,105122,52186,709.8715131177618,212.27561713941776,480.2074846873271
105122,14070,105122,36870,105122,52183,710.0696443382923,212.86003105116518,481.23922153685794
105133,14086,105133,36855,105133,52217,710.2604079766625,213.39742138592706,482.20376950789904
105133,14082,105133,36879,105133,52176,710.4361345606565,213.8846639445214,483.09520459898744
105133,14076,105133,36803,105133,52180,710.5892187192972,214.31982473528544,483.90793221790915
105133,14082,105133,36762,105133,52160,710.7121226642339,214.7017251559136,484.63640280557564
105133,14088,105133,36810,105133,52186,710.7973462763405,215.02893219174865,485.2747432033434
105133,14095,105133,36867,105133,52219,710.8374895119725,215.2991835126673,485.8166985714342
105143,14104,105143,36861,105143,52233,710.8254215367867,215.50992141767136,486.25605099314595
105143,14110,105143,36845,105143,52222,710.7544981368004,215.65919906361228,486.58724580779227
105143,14072,105143,36814,105143,52200,710.6187001408955,215.74596540772285,486.80571589015955
105143,14076,105143,36794,105143,52190,710.412484626276,215.76963987950253,486.9077016806312
105143,14097,105143,36851,105143,52235,710.1304583842378,215.72954345960332,486.88990912222914
105143,14113,105143,36843,105143,52228,709.7673291642847,215.62481556524116,486.7495176285595
105153,14093,105153,36857,105153,52206,709.3182036778968,215.45484509751054,486.4844835489335
105153,14073,105153,36818,105153,52188,708.7787589818684,215.21963082071176,486.0935725797473
105153,14068,105153,36795,105153,52185,708.1450040783006,214.91964408634632,485.57596738603695
105153,14075,105153,36813,105153,52202,707.4128888853234,214.5553092548946,484.9308633145778
105153,14095,105153,36840,105153,52213,706.5781492649434,214.12664618461258,484.15740233176035
105153,14099,105153,36861,105153,52208,705.6364954977523,213.6334957093413,483.2549027153357
105164,14100,105164,36850,105164,52215,704.5839541111754,213.0761075174059,482.22310727602394
105164,14078,105164,36802,105164,52192,703.4170778521841,212.45547926843307,481.0622700171922
105164,14068,105164,36804,105164,52179,702.1328579857498,211.77308064416957,479.7730286226174
105164,14070,105164,36835,105164,52184,700.7284260510037,211.03032252432303,478.3560991923598
105164,14096,105164,36849,105164,52219,699.2008588509605,210.22847144959147,476.81208462368033
105164,14101,105164,36849,105164,52218,697.5473356869409,209.36908218063016,475.14169612455805
105174,14086,105174,36815,105174,52188,695.7655022227366,208.45437964409467,473.3461591574727
105174,14069,105174,36792,105174,52166,693.8536363227821,207.4871409467787,471.42724726490394
105174,14054,105174,36782,105174,52172,691.8104418988839,206.47013405115325,469.38685874015437
105174,14061,105174,36802,105174,52171,689.6346792655271,205.40555419857745,467.22659952021075
105174,14087,105174,36833,105174,52218,687.3249841754196,204.29490523762587,464.9477567488992
105174,14086,105174,36837,105174,52213,684.8800698533171,203.1394087601301,462.55171759802386
105184,14070,105184,36817,105184,52202,682.2990975557673,201.9405504143761,460.0405418841217
105184,14054,105184,36788,105184,52152,679.581800832576,200.7002371839612,457.41715416792846
105184,14059,105184,36788,105184,52160,676.728294708508,199.4204542776182,454.68494480108404
105184,14060,105184,36812,105184,52169,673.738875375361,198.10284857487108,451.8472189744815
105184,14069,105184,36813,105184,52194,670.6140330004969,196.74869187910454,448.90706637465183
105184,14060,105184,36828,105184,52168,667.3546189537942,195.35919559316707,445.8676634846032
105195,14047,105195,36788,105195,52141,663.9619711343705,193.93580238576814,442.7324842841512
105195,14029,105195,36739,105195,52125,660.4378395176961,192.48004803989488,439.505040810011
105195,14021,105195,36781,105195,52134,656.7841179511491,190.99293475094387,436.18837405015313
105195,14043,105195,36805,105195,52159,653.0025926098805,189.47447960939132,432.78480503911567
105195,14041,105195,36795,105195,52171,649.0949620413476,187.9239704763302,429.2961828322469
105195,14037,105195,36799,105195,52159,645.0630983837405,186.3404759371879,425.7244006002048
105205,14020,105205,36788,105205,52123,640.9092420951364,184.72306497183592,422.0716940855995
105205,14008,105205,36769,105205,52120,636.63594799516,183.0707485094887,418.34045117849064
105205,14004,105205,36780,105205,52123,632.2458695656192,181.38228051080443,414.53279157425334
105205,14011,105205,36844,105205,52150,627.74158582373,179.6561201437745,410.6504041547464
105205,14010,105205,36836,105205,52145,623.12561639025,177.89094769240023,406.69480796947306
105205,14000,105205,36776,105205,52136,618.4005659801205,176.08636390134976,402.6677554616799
105215,14001,105215,36789,105215,52102,613.5692302630748,174.24293295079968,398.5713731421069
105215,13965,105215,36772,105215,52102,608.6345678927894,172.36165002128,394.40791215675875
105215,13976,105215,36757,105215,52110,603.599516352446,170.44349114183262,390.1793920011112
105215,13994,105215,36806,105215,52114,598.4668275846856,168.4892314768683,385.88750562663034
105215,13985,105215,36814,105215,52145,593.2392025832064,166.49962916026413,381.53387086974794
105215,13973,105215,36786,105215,52099,587.9195953362268,164.47593822132671,377.12043184423544
105226,13945,105226,36737,105226,52085,582.5112873584901,162.4201131028006,372.6496156143952
105226,13944,105226,36753,105226,52068,577.0176497415735,160.3343364123814,368.12401945153346
105226,13951,105226,36786,105226,52107,571.4418698659811,158.22047898622176,363.5460090547236
105226,13959,105226,36800,105226,52086,565.7869401531063,156.0802065692391,358.9177173935303
105226,13951,105226,36782,105226,52111,560.0559087524701,153.91555901081813,354.2413732648323
105226,13927,105226,36733,105226,52063,554.2521026721107,151.72924707064917,349.519574984557
105236,13905,105236,36694,105236,52036,548.379058143042,149.5242114300774,344.75520355699274
105236,13905,105236,36712,105236,52025,542.4401925124682,147.30270488536303,339.95090440812174
105236,13908,105236,36747,105236,52079,536.4385251577862,145.06567676775427,335.1085888822506
105236,13924,105236,36750,105236,52066,530.3767023001468,142.81294116802883,330.22954432084316
105236,13910,105236,36759,105236,52056,524.2572871672775,140.54378692563995,325.3149705248604
105236,13884,105236,36741,105236,52049,518.0830118579354,138.25744655145246,320.3662929402178
105246,13869,105246,36726,105246,52032,511.85670345323524,135.9532014914289,315.38510681421917
105246,13875,105246,36722,105246,52042,505.5809814235277,133.6301905359787,310.3730214286679
105246,13877,105246,36786,105246,52045,499.2580945563094,131.28727554882255,305.3316188717867
105246,13878,105246,36789,105246,52054,492.8900450514989,128.92343809123648,300.26262240970686
105246,13881,105246,36745,105246,52032,486.47885400065,126.53850864868694,295.16816512236755
105246,13849,105246,36712,105246,51996,480.02677187988155,124.13337042991574,290.0508511388399
105257,13825,105257,36708,105257,51999,473.5362316153369,121.7093847773064,284.91344143347135
105257,13829,105257,36741,105257,51991,467.00951379157846,119.26775658308642,279.7584251593663
105257,13844,105257,36746,105257,52006,460.44848009931223,116.80948928558293,274.58784677301054
105257,13849,105257,36761,105257,52010,453.85471088562394,114.33584036370844,269.40345160544325
105257,13828,105257,36744,105257,52010,447.2298868696308,111.84881183731025,264.2070041029913
105257,13804,105257,36692,105257,51967,440.5759798679079,109.35128110178718,259.0005176166709
105267,13803,105267,36690,105267,51973,433.8950925975021,106.84658584872881,253.7861447383776
105267,13791,105267,36696,105267,51981,427.18919640866324,104.33786654079044,248.5658920388698
105267,13802,105267,36724,105267,52000,420.46002996277446,101.82777750107246,243.34161245014946
105267,13790,105267,36741,105267,51979,413.70918509922893,99.31878507925661,238.1153399843274
105267,13782,105267,36674,105267,51950,406.93825233807604,96.81363996738672,232.8895336492039
105267,13759,105267,36624,105267,51913,400.1488539475638,94.3152646884433,227.66684800920362
105278,13750,105278,36673,105278,51912,393.3424936926838,91.82591451041766,222.4495132856774
105278,13759,105278,36670,105278,51989,386.52036082418783,89.34653856013453,217.2389219115834
105278,13760,105278,36713,105278,51957,379.68332098617907,86.87698258738888,212.03598203889183
105278,13746,105278,36719,105278,51921,372.83211423864464,84.41669336244186,206.84180284991717
105278,13724,105278,36686,105278,51906,365.96749303257195,81.9653823472393,201.65777060837416
105278,13727,105278,36663,105278,51904,359.09013618911973,79.52321152676741,196.4850477903158
105288,13704,105288,36668,105288,51904,352.2004784930681,77.09043664767846,191.32418331548013
105288,13731,105288,36695,105288,51949,345.2986400359556,74.6670522399349,186.1751495437823
105288,13731,105288,36728,105288,51941,338.38457671579545,72.2529686287206,181.03780804019473
105288,13708,105288,36702,105288,51921,331.45841343423956,69.84863188990225,175.91251066275407
105288,13679,105288,36630,105288,51889,324.5206038130649,67.45538046878727,170.80030373240098
105288,13673,105288,36628,105288,51847,317.57169178980683,65.07494751984405,165.70253087432081
105298,13672,105298,36653,105298,51879,310.61195637403114,62.70856021698194,160.62015424628066
105298,13686,105298,36670,105298,51887,303.6413119113295,60.35659927492448,155.5533830175582
105298,13673,105298,36682,105298,51908,296.65951039028624,58.01898459035259,150.50192679243025
105298,13662,105298,36655,105298,51880,289.66639889756584,55.69570415672128,145.46554207855047
105298,13657,105298,36662,105298,51858,282.66200961523043,53.38702484176818,140.44430718529247
105298,13637,105298,36640,105298,51848,275.6465046218061,51.093389071147726,135.43843127818462
105309,13643,105309,36643,105309,51862,268.62008679821196,48.815213946816044,130.4479112621803
105309,13630,105309,36677,105309,51880,261.582953732838,46.55279920578218,125.47248575246874
105309,13630,105309,36660,105309,51879,254.53533104405864,44.30652006873353,120.51198326986486
105309,13620,105309,36662,105309,51849,247.4775405891611,42.077165329329745,115.56672467908857
105309,13591,105309,36598,105309,51797,240.4100064109104,39.86597747458305,110.63749620235546
105309,13592,105309,36598,105309,51803,233.3331134130775,37.67416815465745,105.72496347892513
105319,13591,105319,36651,105319,51846,226.24701993602355,35.502307638298134,100.82908924254116
105319,13597,105319,36652,105319,51862,219.15165896984155,33.35031878064535,95.94926289862082
105319,13593,105319,36630,105319,51845,212.04695632908118,31.218030962784297,91.08501855252462
105319,13563,105319,36630,105319,51817,204.93304520140504,29.105518917270757,86.23655225064653
105319,13549,105319,36613,105319,51799,197.81023422196938,27.012991689271303,81.404625603787
105319,13538,105319,36623,105319,51799,190.67872906708686,24.940573737755898,76.59013100939677
105329,13561,105329,36635,105329,51803,183.53841111445314,22.888233159152435,71.79377581032509
105329,13541,105329,36641,105329,51812,176.38891803224573,20.85594809660978,67.01608571066686
105329,13534,105329,36616,105329,51796,169.2298724954722,18.843969672882423,62.257612072804136
105329,13518,105329,36582,105329,51768,162.06095750305735,16.852813128590753,57.519041541351896
105329,13505,105329,36585,105329,51774,154.88180390097347,14.882829426573636,52.801021791802214
105329,13509,105329,36600,105329,51789,147.6918459458862,12.933727649558648,48.103942179197986
105340,13522,105340,36642,105340,51782,140.49032300676532,11.004562207167396,43.428007226152545
105340,13518,105340,36629,105340,51767,133.2765326525368,9.094253666987072,38.773475440818174
105340,13485,105340,36607,105340,51757,126.05014086802026,7.202145400037949,34.1407173991401
105340,13471,105340,36573,105340,51741,118.8111972887126,5.3280375236741975,29.530044511204096
105340,13454,105340,36555,105340,51728,111.55982713034479,3.4716556637302745,24.941446072177314
105340,13475,105340,36607,105340,51758,104.29593777224756,1.632060476323801,20.37438839146239
105350,13465,105350,36635,105350,51765,97.01922938201932,-0.1923463734955817,15.827912774932088
105350,13458,105350,36611,105350,51766,89.7294367281371,-2.0031610593568416,11.3010688005038
105350,13443,105350,36614,105350,51719,82.42650469915054,-3.8013755943262026,6.793276144763013
105350,13416,105350,36550,105350,51699,75.11053765980421,-5.5873772965473165,2.3041798872938557
105350,13415,105350,36566,105350,51717,67.78156918904631,-7.361470763827839,-2.1668772424033023
105350,13431,105350,36605,105350,51735,60.43937278109024,-9.124406292746272,-6.62114842772138
105360,13428,105360,36628,105360,51730,53.08357456642187,-10.87727118716623,-11.060240581870573
105360,13417,105360,36591,105360,51735,45.7139891309709,-12.620841072146078,-15.485676366296957
105360,13397,105360,36583,105360,51701,38.3308323840248,-14.355204718176196,-19.898657013667844
105360,13369,105360,36569,105360,51689,30.934629341283085,-16.079978055262785,-24.30016150002234
105360,13376,105360,36552,105360,51713,23.5259159761884,-17.794739057349375,-28.691234297351855
105360,13385,105360,36585,105360,51712,16.105042727389673,-19.499345544996515,-33.073060979030174
105371,13376,105371,36614,105371,51730,8.672300228996505,-21.193882952624335,-37.446671772475895
105371,13368,105371,36568,105371,51698,1.228193208890616,-22.87822587706023,-41.81256039339394
105371,13334,105371,36542,105371,51663,-6.226461254139394,-24.551816476243573,-46.170612758552124
105371,13328,105371,36545,105371,51647,-13.690718391496716,-26.214064467163638,-50.5205256740054
105371,13321,105371,36534,105371,51670,-21.16380943047534,-27.864913402244753,-54.86239575244349
105371,13335,105371,36576,105371,51720,-28.645278990907514,-29.505051119532112,-59.19683300065242
105381,13340,105381,36604,105381,51680,-36.13480848794825,-31.135614611962296,-63.5244169409533
105381,13311,105381,36598,105381,51665,-43.63187733923064,-32.757488460386924,-67.84514891377853
105381,13289,105381,36530,105381,51620,-51.135626261594325,-34.37077356139838,-72.15855825700555
105381,13283,105381,36547,105381,51615,-58.64507445710825,-35.97500490971552,-76.46434094029286
105381,13300,105381,36539,105381,51651,-66.15936894668079,-37.56978856565422,-80.7629356924366
105381,13276,105381,36572,105381,51674,-73.67774836043685,-39.15509690076294,-85.05550134291235
105391,13262,105391,36552,105391,51646,-81.19939525438167,-40.73108047133306,-89.34334191097128
105391,13258,105391,36517,105391,51635,-88.72346637282146,-42.2978720946237,-93.62745533295123
105391,13235,105391,36531,105391,51614,-96.24924422165373,-43.855775725638836,-97.90860648822405
105391,13234,105391,36536,105391,51632,-103.77627843953502,-45.405605378160516,-102.18763510253308
105391,13238,105391,36557,105391,51635,-111.30446842175934,-46.94869850533078,-106.46556542869911
105391,13242,105391,36560,105391,51651,-118.83397186191212,-48.48657952965948,-110.74338411302028
105402,13232,105402,36586,105402,51609,-126.36494124248543,-50.020502163732914,-115.02171692220259
105402,13199,105402,36514,105402,51600,-133.89733516830114,-51.551111301455194,-119.30079285693478
105402,13195,105402,36502,105402,51596,-141.4310170324623,-53.07861097256597,-123.5807603930383
105402,13189,105402,36512,105402,51600,-148.96601554781887,-54.60344238532667,-127.86198954918547
105402,13198,105402,36575,105402,51632,-156.50263347292963,-56.12669493834349,-132.1450420521632
105402,13200,105402,36562,105402,51620,-164.04128513410603,-57.64968759203947,-136.43029947154008
105412,13186,105412,36535,105412,51608,-171.58219832730254,-59.173250782196845,-140.71753263201958
105412,13171,105412,36508,105412,51555,-179.12521534358552,-60.69757094308031,-145.0058453725042
105412,13141,105412,36471,105412,51552,-186.6698529894249,-62.222733204600814,-149.2941484872893
105412,13145,105412,36515,105412,51572,-194.21557101603935,-63.74944822886661,-153.5817692506023
105412,13150,105412,36560,105412,51583,-201.76198589047937,-65.27927106591946,-157.86861777249607
105412,13154,105412,36568,105412,51600,-209.30878910450838,-66.8139841628859,-162.15481306956355
105422,13129,105422,36538,105422,51546,-216.8554752703343,-68.35470910032518,-166.44022621809376
105422,13122,105422,36487,105422,51545,-224.40120381282253,-69.90164553736864,-170.72444449727857
105422,13094,105422,36488,105422,51533,-231.94491570175467,-71.45463363367747,-175.00716057663067
105422,13110,105422,36552,105422,51557,-239.48554942693397,-73.01380532904227,-179.28849702022865
105422,13106,105422,36541,105422,51585,-247.02210935789805,-74.57949273407817,-183.56887958707102
105422,13091,105422,36548,105422,51543,-254.5535177182379,-76.15156362102118,-187.84856456011988
105433,13080,105433,36496,105433,51534,-262.0784768665977,-77.72902587600987,-192.12734828618915
105433,13059,105433,36459,105433,51537,-269.59552608114313,-79.31034006791975,-196.4047301012729
105433,13050,105433,36448,105433,51528,-277.1032362275819,-80.89428028902927,-200.68016033316502
105433,13051,105433,36503,105433,51516,-284.6003986745279,-82.48070988501718,-204.95312043220127
105433,13054,105433,36516,105433,51520,-292.08605672435147,-84.07059011433361,-209.22317690808774
105433,13041,105433,36528,105433,51523,-299.5593553162689,-85.66528852394848,-213.4900171849663
105443,13020,105443,36499,105443,51530,-307.0194073606367,-87.26590138982877,-217.75333989690864
105443,13011,105443,36475,105443,51487,-314.4653588701351,-88.87311635218097,-222.01270284635495
105443,13001,105443,36498,105443,51497,-321.89658208849175,-90.48753021768408,-226.26759576819455
105443,13012,105443,36520,105443,51521,-329.31278617866724,-92.1098613359955,-230.51763268196828
105443,13013,105443,36516,105443,51492,-336.7139099034375,-93.74069428562561,-234.7624914859877
105443,12998,105443,36492,105443,51519,-344.0998570231436,-95.38009683317915,-239.00167163793185
105453,12971,105453,36473,105453,51481,-351.4703395245515,-97.02761710316892,-243.23435325687723
105453,12964,105453,36440,105453,51457,-358.825010822168,-98.68272369200594,-247.459475041369
105453,12960,105453,36459,105453,51460,-366.16372704549235,-100.34540743957888,-251.67608769447207
105453,12969,105453,36512,105453,51465,-373.4866450082792,-102.01646322515586,-255.8837278995183
105453,12975,105453,36519,105453,51473,-380.79404758539874,-103.69706120937553,-260.08246074834483
105453,12947,105453,36478,105453,51462,-388.08604018034,-105.38798188931656,-264.27266551524787
105464,12927,105464,36467,105464,51423,-395.3624319555764,-107.08935680245526,-268.4549249988131
105464,12914,105464,36448,105464,51439,-402.6229495569645,-108.80106866052853,-272.6302329352794
105464,12929,105464,36510,105464,51465,-409.86752227957084,-110.5231693893532,-276.80022400203535
105464,12927,105464,36512,105464,51464,-417.09629465191574,-112.25571503237293,-280.9669750915543
105464,12929,105464,36494,105464,51469,-424.30935632450826,-113.99814703670887,-285.13250327667856
105464,12911,105464,36470,105464,51443,-431.5064462750054,-115.74893632145069,-289.29841371981956
105474,12879,105474,36425,105474,51406,-438.68688024965536,-117.50588275121561,-293.4659463831377
105474,12871,105474,36433,105474,51410,-445.84978847214984,-119.26683328704604,-297.6364113702133
105474,12871,105474,36444,105474,51426,-452.9944673412041,-121.03030890157285,-301.8116404921448
105474,12873,105474,36465,105474,51446,-460.1205253964247,-122.79562545957546,-305.99398753436486
105474,12868,105474,36469,105474,51440,-467.22776488767965,-124.56254503713649,-310.1858933559758
105474,12845,105474,36430,105474,51385,-474.3160195483971,-126.33089887520364,-314.3895317983507
105484,12836,105484,36419,105484,51393,-481.3851630965049,-128.1006211255099,-318.60698356965827
105484,12826,105484,36432,105484,51406,-488.4352783518784,-129.87214684934412,-322.84068709412793
105484,12838,105484,36454,105484,51408,-495.4667805559899,-131.64664000770486,-327.0935550947993
105484,12847,105484,36508,105484,51412,-502.4803046630601,-133.4256527562087,-331.36870421374874
105484,12818,105484,36466,105484,51406,-509.4764071857179,-135.2103596960558,-335.66915375324123
105484,12792,105484,36397,105484,51362,-516.455430658415,-137.0011137903043,-339.9977362875954
105495,12783,105495,36414,105495,51353,-523.4177512884601,-138.79793507365426,-344.3573718283988
105495,12802,105495,36413,105495,51370,-530.3641102734207,-140.6013796660248,-348.75154355224566
105495,12791,105495,36453,105495,51413,-537.2956260523717,-142.4128399587209,-353.18441240042716
105495,12790,105495,36472,105495,51435,-544.2135461560706,-144.23413226826136,-357.66024057373835
105495,12787,105495,36447,105495,51393,-551.1190259916787,-146.06681713446216,-362.1825163967299
105495,12751,105495,36397,105495,51355,-558.0130559492239,-147.91188563494126,-366.75357979158963
105505,12752,105505,36420,105505,51344,-564.8965853643505,-149.77012129746348,-371.375053835478
105505,12744,105505,36430,105505,51370,-571.7707623569025,-151.64259926789936,-376.04849342189624
105505,12753,105505,36466,105505,51371,-578.6370345259596,-153.53064273638486,-380.7755527868344
105505,12750,105505,36424,105505,51355,-585.497013326432,-155.43534384445186,-385.5577123219562
105505,12731,105505,36403,105505,51331,-592.3522599332156,-157.35731483695434,-390.39610697915157
105505,12709,105505,36402,105505,51310,-599.2042333665106,-159.29699119680689,-395.2917456123814
105516,12693,105516,36370,105516,51317,-606.0545080865878,-161.25515889832133,-400.2459330130666
105516,12705,105516,36426,105516,51336,-612.9050768518568,-163.23329899269888,-405.2605020022887
105516,12718,105516,36443,105516,51348,-619.7584089223387,-165.23347022400182,-410.33761269059596
105516,12709,105516,36429,105516,51324,-626.6171623594701,-167.25771141685908,-415.479300983695
105516,12685,105516,36407,105516,51306,-633.4838539040012,-169.30753426348645,-420.68723565308306
105516,12686,105516,36388,105516,51294,-640.3608020505106,-171.38398809428824,-425.96288223378355
105526,12670,105526,36372,105526,51291,-647.2502602675876,-173.48812052021793,-431.30783084900224
105526,12678,105526,36424,105526,51311,-654.1545014909509,-175.6213664304196,-436.72395399902615
105526,12667,105526,36442,105526,51312,-661.0757809632612,-177.7854099721798,-442.21324450723586
105526,12668,105526,36408,105526,51284,-668.0162238941839,-179.98157006199693,-447.7774995099608
105526,12639,105526,36356,105526,51269,-674.9777471508652,-182.21049862777426,-453.41823695904344
105526,12624,105526,36366,105526,51272,-681.9621545481098,-184.47266711517292,-459.13692755293584
105536,12632,105536,36372,105536,51281,-688.9713773440894,-186.76906649772906,-464.9351818253945
105536,12633,105536,36404,105536,51255,-696.0075907280351,-189.10138413641573,-470.8146919952163
105536,12642,105536,36418,105536,51289,-703.0730382692927,-191.47158864840753,-476.77708839932274
105536,12624,105536,36399,105536,51253,-710.169716039132,-193.88131735949966,-482.82378938199287
105536,12594,105536,36372,105536,51232,-717.2992117996139,-196.3315620939734,-488.9559275625305
105536,12588,105536,36354,105536,51221,-724.4628691896518,-198.82289407522634,-495.1745669501405
105547,12587,105547,36357,105547,51248,-731.6620947220264,-201.35597291498843,-501.4810226619786
105547,12596,105547,36403,105547,51253,-738.8984635143321,-203.93181957301053,-507.8768137065034
105547,12592,105547,36385,105547,51255,-746.1735387121036,-206.55155780118656,-514.363224506586
105547,12563,105547,36383,105547,51218,-753.4886352591719,-209.21592962253675,-520.9409061697471
105547,12548,105547,36345,105547,51203,-760.844823430101,-211.9251393117913,-527.6098837614555
105547,12535,105547,36352,105547,51192,-768.2432024385289,-214.67913311249143,-534.369916944657
105557,12546,105557,36364,105557,51200,-775.6851668358053,-217.4779402946167,-541.2208416179419
105557,12556,105557,36385,105557,51222,-783.1723924609518,-220.32166676128335,-548.1625788815423
105557,12551,105557,36351,105557,51206,-790.7065236844372,-223.2101735831154,-555.194797170619
105557,12538,105557,36359,105557,51176,-798.2888108128427,-226.14287353483363,-562.3165756417202
105557,12503,105557,36339,105557,51159,-805.9199971158365,-229.1188277754105,-569.5264614272592
105557,12502,105557,36329,105557,51163,-813.6005343619117,-232.1369646036222,-576.8228256735952
105567,12512,105567,36367,105567,51187,-821.3308617308116,-235.19623008787852,-584.2040387867299
105567,12500,105567,36363,105567,51191,-829.1114202441895,-238.29545406658306,-591.6681897121649
105567,12500,105567,36349,105567,51161,-836.9424553168403,-241.43296798232558,-599.2125941750487
105567,12486,105567,36321,105567,51128,-844.8238583571925,-244.60643195086178,-606.8336201370977
105567,12463,105567,36288,105567,51123,-852.7551485972629,-247.81314836944964,-614.5270126939131
105567,12467,105567,36325,105567,51125,-860.73558908524,-251.0506091724314,-622.2883279504946
105578,12478,105578,36347,105578,51150,-868.7642668636748,-254.31670005712914,-630.1130146018028
105578,12475,105578,36350,105578,51165,-876.8399167725345,-257.6092824873394,-637.9960219388586
105578,12459,105578,36344,105578,51127,-884.9605981898083,-260.9255724559739,-645.9312015632117
105578,12421,105578,36284,105578,51104,-893.1235789042039,-264.26191105546707,-653.9110271225153
105578,12419,105578,36271,105578,51068,-901.3255799863053,-267.61416979392305,-661.9268953522084
105578,12431,105578,36311,105578,51098,-909.5631004481454,-270.97843459753426,-669.9696646329213
105588,12439,105588,36350,105588,51103,-917.8324028855928,-274.35114699820235,-678.0298525543071
105588,12422,105588,36322,105588,51080,-926.1291642646956,-277.7284739525113,-686.0973652849768
105588,12386,105588,36289,105588,51059,-934.4482290985303,-281.1057179225668,-694.1612447486712
105588,12378,105588,36262,105588,51060,-942.7837666904203,-284.47746957734955,-702.2097638014344
105588,12363,105588,36236,105588,51053,-951.1296565455532,-287.8383150599918,-710.2306127525846
105588,12374,105588,36292,105588,51030,-959.4797419143532,-291.1834726602094,-718.2109570225357
105598,12379,105598,36333,105598,51049,-967.8277816704164,-294.5087458748733,-726.1374553780028
105598,12368,105598,36309,105598,51033,-976.1671675051666,-297.8097140879105,-733.9962249938394
105598,12379,105598,36263,105598,51006,-984.4906029448904,-301.08101097372514,-741.7727497263942
105598,12347,105598,36241,105598,50998,-992.7898820208246,-304.31647799965356,-749.4519587041722
105598,12338,105598,36255,105598,51013,-1001.0558447325702,-307.5098754771511,-757.0184392775094
105598,12350,105598,36303,105598,51037,-1009.2784812389773,-310.65525282532667,-764.4563780472124
105609,12345,105609,36339,105609,51021,-1017.4469260370068,-313.74648243547847,-771.7491029787119
105609,12325,105609,36298,105609,50988,-1025.5492675752232,-316.7762952950941,-778.8786541219537
105609,12306,105609,36243,105609,50971,-1033.5724691170103,-319.7357677022752,-785.8258307221814
105609,12281,105609,36230,105609,50927,-1041.502573254671,-322.6148016663731,-792.5706808988506
105609,12295,105609,36253,105609,50944,-1049.3250225252027,-325.40301240212,-799.0931167845857
105609,12286,105609,36247,105609,50989,-1057.0248092079541,-328.09014494235225,-805.3732186400155
105619,12299,105619,36276,105619,50982,-1064.5863434686976,-330.66590889486196,-811.3908703937059
105619,12273,105619,36243,105619,50938,-1071.9932022336418,-333.11963439521855,-817.125119856373
105619,12267,105619,36218,105619,50921,-1079.2279980984324,-335.4401543343814,-822.5540737513709
105619,12250,105619,36196,105619,50912,-1086.2724558243667,-337.61614795808987,-827.6553808575271
105619,12262,105619,36250,105619,50920,-1093.1075532997022,-339.6366446619471,-832.4067029247769
105619,12259,105619,36257,105619,50950,-1099.7135150656798,-341.4910367079192,-836.7857733845852
105629,12248,105629,36229,105629,50928,-1106.069646880048,-343.1685850273385,-840.7700688613802
105629,12228,105629,36196,105629,50896,-1112.154230519903,-344.6581733028894,-844.3365131168572
105629,12214,105629,36202,105629,50890,-1117.944647461863,-345.9486810187717,-847.4616411620642
105629,12206,105629,36190,105629,50872,-1123.4176552388512,-347.0295225229495,-850.1220886925379
105629,12221,105629,36237,105629,50886,-1128.549594592786,-347.89085664535634,-852.294998809563
105629,12210,105629,36216,105629,50896,-1133.3163703221815,-348.52337614424687,-853.9581484534702
105640,12198,105640,36210,105640,50901,-1137.6933158696952,-348.91797478682236,-855.0897892149235
105640,12193,105640,36198,105640,50869,-1141.655181227526,-349.06569711119556,-855.6684339475555
105640,12181,105640,36176,105640,50854,-1145.1762672188256,-348.9580136625925,-855.6729541549356
105640,12179,105640,36173,105640,50866,-1148.2305855467762,-348.5872358083688,-855.0830009872998
105640,12164,105640,36223,105640,50894,-1150.7920090125963,-347.946817437719,-853.8792972144412
105640,12183,105640,36253,105640,50886,-1152.8343945265833,-347.03113904916404,-852.0435013197634
105650,12162,105650,36217,105650,50858,-1154.3316190433316,-345.8348189622159,-849.5579762278801
105650,12151,105650,36195,105650,50842,-1155.257608189708,-344.3523147819833,-846.4059691878283
105650,12149,105650,36179,105650,50839,-1155.586520325426,-342.57826455892916,-842.5721912366502
105650,12145,105650,36189,105650,50852,-1155.293014022277,-340.5081408159667,-838.0433697734061
105650,12147,105650,36224,105650,50894,-1154.3524298014318,-338.1386003756892,-832.8084205803578
105650,12159,105650,36251,105650,50918,-1152.7408545651263,-335.4672650230266,-826.8581203181493
105660,12150,105660,36221,105660,50904,-1150.4350938025123,-332.492165840393,-820.1845166310743
105660,12133,105660,36203,105660,50868,-1147.412685906781,-329.2114766250287,-812.7806650666596
105660,12135,105660,36180,105660,50877,-1143.652127319429,-325.623876438214,-804.6410249569037
105660,12147,105660,36223,105660,50879,-1139.1331938721041,-321.72916088251213,-795.762140093026
105660,12161,105660,36292,105660,50928,-1133.8370777199486,-317.52835539306454,-786.14301343887
105660,12150,105660,36244,105660,50939,-1127.74632432714,-313.023079607472,-775.7849675457089
105671,12157,105671,36227,105671,50931,-1120.8448170039806,-308.2149662011522,-764.6912699722009
105671,12155,105671,36204,105671,50926,-1113.1179269332854,-303.10592743592787,-752.8670255492145
105671,12147,105671,36210,105671,50937,-1104.5527543259313,-297.6989395004067,-740.31947906678
105671,12166,105671,36243,105671,50962,-1095.1384045090294,-291.9986059149106,-727.0583781099942
105671,12200,105671,36296,105671,51020,-1084.8661516269535,-286.01110527274676,-713.0959991559321
105671,12204,105671,36302,105671,51042,-1073.7293081693065,-279.7435312635719,-698.446696977763
105681,12208,105681,36253,105681,51023,-1061.7229766699102,-273.20321368619875,-683.1263048038783
105681,12195,105681,36267,105681,51028,-1048.8440521085347,-266.3977204328844,-667.1519817671692
105681,12229,105681,36283,105681,51051,-1035.0915075502621,-259.3353621207784,-650.5425739145164
105681,12259,105681,36311,105681,51076,-1020.4666028962683,-252.0254402279611,-633.318960026178
105681,12267,105681,36320,105681,51132,-1004.972765833694,-244.47802192364765,-615.5040092655867
105681,12291,105681,36303,105681,51132,-988.6153493366878,-236.70363996381718,-597.1222025984762
105691,12279,105691,36304,105691,51118,-971.4015651165648,-228.71330385748956,-578.199326032426
105691,12292,105691,36304,105691,51151,-953.3406778411729,-220.5188199380014,-558.7626254618929
105691,12321,105691,36329,105691,51206,-934.4443445325201,-212.13310630241276,-538.8411146757176
105691,12355,105691,36359,105691,51206,-914.7267973021268,-203.57022093617152,-518.4654892378704
105691,12391,105691,36413,105691,51278,-894.2046848833195,-194.84497511004906,-497.66773636750037
105691,12397,105691,36378,105691,51294,-872.8967445136756,-185.97227730594798,-476.4806846963494
105702,12419,105702,36370,105702,51297,-850.8236132569737,-176.96676574386908,-454.9375738208542
105702,12431,105702,36372,105702,51321,-828.0078935086665,-167.84308318035465,-433.0719076954664
105702,12476,105702,36428,105702,51356,-804.4743020209276,-158.61630983386593,-410.9175928145044
105702,12520,105702,36474,105702,51413,-780.2496305332688,-149.30182339813507,-388.5089169018948
105702,12550,105702,36460,105702,51423,-755.362413996507,-139.91457351407843,-365.8801767806251
105702,12559,105702,36441,105702,51429,-729.8425422976064,-130.46851898351935,-343.06530441563814
105712,12575,105712,36381,105712,51432,-703.7211606172689,-120.97689102325349,-320.0979089299259
105712,12595,105712,36421,105712,51473,-677.0308959007259,-111.45315460898077,-297.0116565908802
105712,12655,105712,36489,105712,51522,-649.8061028465761,-101.91176489230696,-273.8404959100457
105712,12701,105712,36503,105712,51574,-622.0827701539438,-92.36793506852646,-250.61838677767736
105712,12729,105712,36544,105712,51559,-593.8980616288161,-82.83672080879575,-227.37874502346398
105712,12754,105712,36512,105712,51583,-565.2898633491513,-73.33226061497732,-204.1541740180581
105722,12767,105722,36487,105722,51614,-536.2966453154663,-63.86764516732157,-180.97664008400585
105722,12819,105722,36506,105722,51655,-506.957565528822,-54.45541723192156,-157.87763329782945
105722,12875,105722,36588,105722,51712,-477.31246919157616,-45.10803792044001,-134.88794837627046
105722,12907,105722,36595,105722,51735,-447.40154498577897,-35.83754987977895,-112.03714533903502
105722,12935,105722,36582,105722,51709,-417.2648536766991,-26.654750686872603,-89.35309167374021
105722,12961,105722,36562,105722,51746,-386.942081891941,-17.56885149578909,-66.86203228918873
105733,12989,105733,36533,105733,51752,-356.4725501343281,-8.587930218721596,-44.589044691276456
105733,13027,105733,36561,105733,51786,-325.8952956534746,0.2802622333032332,-22.558382714527056
105733,13074,105733,36615,105733,51838,-295.24906092993206,9.027806700189274,-0.7935157369069543
105733,13102,105733,36631,105733,51860,-264.5721176980446,17.64686282195666,20.683141458071646
105733,13139,105733,36617,105733,51895,-233.90203453170346,26.130310563952662,41.850673342248854
105733,13167,105733,36598,105733,51859,-203.27552841256977,34.472007336757116,62.689917257721504
105743,13183,105743,36588,105743,51909,-172.72843953657264,42.6664079753819,83.18327774619627
105743,13231,105743,36643,105743,51937,-142.29581197633854,50.708013235585895,103.3143855374467
105743,13279,105743,36693,105743,51995,-112.01191308993214,58.59134719840722,123.06814615116275
105743,13307,105743,36667,105743,52002,-81.91001649804878,66.31159732649587,142.43122518922593
105743,13332,105743,36639,105743,51991,-52.02211346311094,73.86512404892508,161.39245678161967
105743,13351,105743,36639,105743,51990,-22.378832888051306,81.24918434291803,179.9427182566888
105754,13385,105754,36628,105754,51997,6.99042908038507,88.4612154894244,198.07434425563895
105754,13431,105754,36671,105754,52039,36.057395472944336,95.49831454669811,215.7805622399768
105754,13454,105754,36700,105754,52052,64.79498189281458,102.35722123720228,233.05530784767018
105754,13506,105754,36729,105754,52088,93.17750721029961,109.03481648557786,249.89337580142956
105754,13517,105754,36702,105754,52107,121.18091494174848,115.52875827352415,266.2906839583612
105754,13546,105754,36691,105754,52089,148.78290091237602,121.83769838491787,282.24445436872384
105764,13573,105764,36702,105764,52114,175.96288524929264,127.96097083470863,297.7531172003014
105764,13613,105764,36749,105764,52145,202.70195287755587,133.89827819401387,312.8160489259835
105764,13635,105764,36738,105764,52181,228.98291496853653,139.64984129090152,327.4335718339547
105764,13654,105764,36761,105764,52173,254.79041100818029,145.21680182995584,341.6072654756904
105764,13663,105764,36692,105764,52151,280.1108638398832,150.60135175509743,355.34010435015875
105764,13678,105764,36711,105764,52154,304.9322254494655,155.80631814132795,368.6360656016941
105774,13716,105774,36739,105774,52152,329.24365155201053,160.83452532098062,381.49942722773505
105774,13749,105774,36765,105774,52220,353.03535429561987,165.68862424702314,393.9342828445566
105774,13784,105774,36768,105774,52266,376.29874271973733,170.37150030952535,405.9447059553056
105774,13794,105774,36769,105774,52250,399.0266833194737,174.88672323226956,417.53548466306347
105774,13801,105774,36725,105774,52241,421.21359969924765,179.23861801956832,428.7126718466409
105774,13830,105774,36726,105774,52232,442.85531238771364,183.43185362860294,439.4834163796529
105785,13854,105785,36774,105785,52270,463.9488294664444,187.47088719336034,449.85544149258726
105785,13889,105785,36803,105785,52291,484.4923289757469,191.35993350453043,459.83681359480227
105785,13909,105785,36796,105785,52287,504.4853291514646,195.10355674047764,469.4361207110229
105785,13913,105785,36783,105785,52291,523.9288603723087,198.70720433962788,478.6626514826336
105785,13903,105785,36719,105785,52271,542.8253939663987,202.17709800855494,487.5262567337752
105785,13913,105785,36732,105785,52258,561.1784226162285,205.51946954988688,496.03690342451273
105795,13944,105795,36757,105795,52301,578.9919331134331,208.73970795862368,504.20413317037685
105795,13975,105795,36812,105795,52327,596.270163961156,211.84217851235042,512.0368580895068
105795,13986,105795,36788,105795,52337,613.0177286508765,214.83079463268916,519.5436859253446
105795,14015,105795,36769,105795,52305,629.239841396889,217.70958145575054,526.7333026308092
105795,13998,105795,36741,105795,52312,644.9424124532982,220.48257327317862,533.6143859681233
105795,14014,105795,36749,105795,52322,660.1319116618308,223.15319649354734,540.1951773401977
105805,14045,105805,36812,105805,52360,674.8150931353812,225.72383011083417,546.4832458391023
105805,14068,105805,36835,105805,52396,688.9989066922356,228.19610819030896,552.4857518538429
105805,14066,105805,36814,105805,52365,702.6906666570139,230.57175382542016,558.210011667254
105805,14064,105805,36770,105805,52332,715.898125679839,232.85304597586298,563.6637334311839
105805,14072,105805,36761,105805,52341,728.6292469216239,235.04242736432906,568.8545579913015
105805,14076,105805,36780,105805,52362,740.8918463764915,237.14173905405858,573.7894021521923
105816,14129,105816,36849,105816,52391,752.6933884012799,239.1519356440824,578.4742820887141
105816,14123,105816,36843,105816,52381,764.041106220717,241.07363315219322,582.9146126369754
105816,14135,105816,36810,105816,52374,774.9422792006449,242.90790267278732,587.1154844363597
105816,14135,105816,36777,105816,52396,785.4043185771591,244.6563991107788,591.0816475682783
105816,14148,105816,36794,105816,52377,795.4346371235085,246.32076019731386,594.8173917572941
105816,14157,105816,36795,105816,52378,805.04051096167,247.90201034818682,598.3264403591926
105826,14179,105826,36836,105826,52449,814.2290466115955,249.4004712007856,601.6118984749238
105826,14190,105826,36862,105826,52428,823.0072773307322,250.8161787985536,604.6765586277753
105826,14174,105826,36794,105826,52391,831.3822812591709,252.14944921092717,607.523365577379
105826,14171,105826,36783,105826,52397,839.361084370702,253.40091059107988,610.1553359253596
105826,14178,105826,36776,105826,52391,846.9503115786231,254.57082559908577,612.5750113449701
105826,14200,105826,36799,105826,52418,854.1558792146136,255.65841045437645,614.7840949560424
105836,14225,105836,36855,105836,52425,860.9829998504551,256.6617860633521,616.7834913544814
105836,14208,105836,36852,105836,52443,867.4364284443523,257.57859160440387,618.5736045352153
105836,14222,105836,36821,105836,52426,873.5206218022108,258.4067182695633,620.1546609503803
105836,14225,105836,36807,105836,52410,879.2396837069302,259.1444650500864,621.5267966281838
105836,14224,105836,36820,105836,52432,884.5972675900157,259.79013889310204,622.6898597763729
105836,14256,105836,36854,105836,52440,889.5965580392719,260.3417792557308,623.643250639509
105847,14264,105847,36847,105847,52475,894.240407928143,260.797381501645,624.3861082454227
105847,14257,105847,36862,105847,52453,898.5316088034042,261.1553439767575,624.9177469212037
105847,14264,105847,36797,105847,52432,902.4730475453978,261.41466122821953,625.2379317889541
105847,14253,105847,36810,105847,52431,906.0676419543308,261.5746084294287,625.3467079183977
105847,14262,105847,36809,105847,52442,909.3181826661221,261.63415584611846,625.2440280160455
105847,14276,105847,36844,105847,52446,912.2272229677556,261.5916901324051,624.9296056582823
105857,14289,105857,36872,105857,52476,914.7971439194073,261.4453156950218,624.4030810928423
105857,14291,105857,36855,105857,52450,917.03038660736,261.19349332922536,623.6643437911979
105857,14267,105857,36830,105857,52446,918.9296227708123,260.83547989641124,622.7137365360267
105857,14282,105857,36809,105857,52440,920.4976734950742,260.37118458298175,621.5519568881854
105857,14281,105857,36844,105857,52437,921.7373155239393,259.80069877748036,620.1798219683948
105857,14303,105857,36887,105857,52504,922.6512564000327,259.1241916836461,618.598246636816
105867,14319,105867,36884,105867,52464,923.2423633415046,258.34247724753413,616.8086434868799
105867,14305,105867,36816,105867,52460,923.5140223199985,257.4576392023178,614.8134066597856
105867,14274,105867,36803,105867,52414,923.4703115457523,256.4728642394866,612.6158824348452
105867,14288,105867,36785,105867,52414,923.1157727132575,255.39156823711318,610.2198123535455
105867,14288,105867,36829,105867,52448,922.4550672470998,254.2166593412544,607.6287891077598
105867,14313,105867,36829,105867,52456,921.4929282203161,252.9504700355936,604.8462330303166
105878,14309,105878,36872,105878,52451,920.2344260104398,251.59524680330824,601.87583848023
105878,14293,105878,36824,105878,52435,918.6852662428875,250.15376422522132,598.721951700386
105878,14286,105878,36807,105878,52399,916.8518405835267,248.6295595297493,595.3895258748144
105878,14292,105878,36819,105878,52422,914.741056504879,247.02663369989776,591.8837483602367
105878,14284,105878,36845,105878,52469,912.3602068812849,245.3491451905836,588.209841816946
105878,14294,105878,36847,105878,52474,909.7169783547082,243.60158991567698,584.373512621422
105888,14289,105888,36819,105888,52467,906.8195375255689,241.78919619102638,580.3817691377769
105888,14274,105888,36801,105888,52412,903.6766157954914,239.91797998709535,576.2433548093045
105888,14253,105888,36772,105888,52379,900.2974448675235,237.99433080420297,571.9684052622529
105888,14268,105888,36775,105888,52405,896.6915183392651,236.02440522972466,567.5676428186284
105888,14270,105888,36811,105888,52406,892.8684421768014,234.01373474477572,563.051856873998
105888,14278,105888,36822,105888,52436,888.8380680414822,231.96737138011386,558.4320421633246
105898,14267,105898,36798,105898,52403,884.6107654748896,229.89039902505195,553.7198667238329
105898,14242,105898,36784,105898,52352,880.1975594199886,227.78821120151173,548.9278661284015
105898,14232,105898,36764,105898,52357,875.6099829878369,225.66629812391506,544.0690276739656
105898,14233,105898,36819,105898,52384,870.8597685624483,223.52992535377524,539.1562052939212
105898,14248,105898,36803,105898,52392,865.9586925743163,221.3842138496836,534.2020831981647
105898,14241,105898,36813,105898,52378,860.9187212968443,219.23458076698785,529.2196271147875
105909,14219,105909,36776,105909,52339,855.7522427705762,217.08702883728066,524.222369059409
105909,14188,105909,36734,105909,52331,850.4720323408077,214.94793809444812,519.2241771311476
105909,14194,105909,36734,105909,52282,845.0908927216404,212.82339820675165,514.2386738210166
105909,14199,105909,36782,105909,52328,839.6213203041689,210.71858916852062,509.2786443993975
105909,14197,105909,36763,105909,52346,834.0754988323339,208.63778894378257,504.3558599288422
105909,14196,105909,36812,105909,52334,828.4655107629634,206.58488849523442,499.4814966247376
105919,14184,105919,36760,105919,52330,822.8035190211796,204.5639121734555,494.6666735821169
105919,14172,105919,36748,105919,52305,817.1018155489643,202.57918108897186,489.92261269089147
105919,14156,105919,36724,105919,52292,811.3727241109356,200.63496350908875,485.2604487088132
105919,14163,105919,36798,105919,52324,805.6284318386739,198.73503105175828,480.69097447429704
105919,14166,105919,36788,105919,52311,799.8809292276243,196.88281062832294,476.2246487426996
105919,14147,105919,36751,105919,52288,794.1421209284612,195.08197416157805,471.8718177275214
105929,14146,105929,36744,105929,52259,788.423924810223,193.33661802690844,467.64268252914883
105929,14118,105929,36705,105929,52245,782.738209154734,191.65080948735502,463.5468502201599
105929,14119,105929,36732,105929,52257,777.0966020009708,190.02798163852339,459.5928102702067
105929,14116,105929,36742,105929,52287,771.510299752026,188.47062600358555,455.7877670566374
105929,14124,105929,36746,105929,52287,765.9900345443046,186.98043647337659,452.13797794251496
105929,14095,105929,36756,105929,52251,760.5461858515072,185.55867785398667,448.64923039326646
105940,14078,105940,36736,105940,52232,755.1887749167888,184.20646326293635,445.32689128425363
105940,14076,105940,36704,105940,52245,749.9272162078687,182.92475212408544,442.1755099979478
105940,14078,105940,36738,105940,52245,744.7700643719866,181.7140545592239,439.1985033295772
105940,14099,105940,36766,105940,52272,739.7250336376268,180.57427926982865,436.39823775667867
105940,14076,105940,36765,105940,52272,734.7992731963266,179.50511546947837,433.7764057516608
105940,14066,105940,36745,105940,52232,729.9996028499286,178.5065765022283,431.3343844040055
105950,14045,105950,36704,105950,52222,725.3324557252149,177.5790777998571,429.0731897639629
105950,14035,105950,36686,105950,52225,720.8035905710183,176.72291156456527,426.993045077195
105950,14062,105950,36742,105950,52243,716.4178466342371,175.93758767079356,425.0930647623052
105950,14048,105950,36764,105950,52252,712.1791817530273,175.22177336812456,423.37135566096845
105950,14053,105950,36759,105950,52244,708.0909287514486,174.57394310539468,421.8253534539225
105950,14049,105950,36723,105950,52237,704.1560069218042,173.99297759605838,420.4520563398808
105961,14028,105961,36696,105961,52217,700.3769953929996,173.47807469773446,419.2479860653747
105961,14022,105961,36681,105961,52217,696.7560561469281,173.02809154193164,418.2089350902663
105961,14029,105961,36772,105961,52279,693.2947592168221,172.6409999382148,417.329811655556
105961,14033,105961,36751,105961,52252,689.9940285602191,172.31412696814505,416.6049410874223
105961,14021,105961,36755,105961,52248,686.8542712912463,172.0449400095004,416.0285766052323
105961,14016,105961,36707,105961,52226,683.8754858459715,171.83144940858404,415.59501674487706
105971,13993,105971,36671,105971,52231,681.0571932405392,171.67182413486427,415.29831136797554
105971,13990,105971,36709,105971,52246,678.3982076125922,171.56359689738986,415.13198951822187
105971,14015,105971,36740,105971,52238,675.896426174512,171.50322780188299,415.08904609479356
105971,14023,105971,36765,105971,52273,673.5489178910223,171.4864880397355,415.1621288646295
105971,14014,105971,36742,105971,52242,671.3523008289093,171.50923469173807,415.34379247245266
105971,14004,105971,36726,105971,52236,669.3030359058754,171.56783002422833,415.626621358835
105981,13986,105981,36697,105981,52242,667.3974044169565,171.6589443468597,416.00307611850184
105981,14007,105981,36747,105981,52272,665.631311112224,171.77909670082136,416.4653387641241
105981,14004,105981,36769,105981,52254,664.0002104332996,171.92457905372277,417.0054667685607
105981,14007,105981,36779,105981,52287,662.4992531796489,172.09199684058828,417.61569828643604
105981,13986,105981,36759,105981,52247,661.123437212726,172.2789240836036,418.2886558438577
105981,13983,105981,36686,105981,52236,659.8675539104336,172.4839952488255,419.01729494210394
105992,13970,105992,36675,105992,52222,658.725964937118,172.70617488268888,419.7945087713836
105992,13985,105992,36742,105992,52259,657.6923875865718,172.94377576807574,420.6126746105466
105992,13994,105992,36756,105992,52276,656.7598669692868,173.19426380898733,421.4636217671623
105992,14005,105992,36730,105992,52262,655.9209959582384,173.45489422259305,422.33902737568303
105992,13985,105992,36722,105992,52247,655.1682191940522,173.7231733294243,423.2307222429095
105992,13974,105992,36705,105992,52249,654.4939340178851,173.9966906895018,424.1305872594391
106001,13981,106001,36720,106001,52266,653.8903258393402,174.27273045557047,425.03031384247504
106001,14005,106001,36762,106001,52297,653.3492437666171,174.54815176330627,425.9214496059784
106001,13994,106001,36757,106001,52292,652.8623697159978,174.81974466604564,426.79580237912654
106001,13994,106001,36739,106001,52285,652.4214950801684,175.0847480351293,427.6458749992455
106001,13972,106001,36712,106001,52247,652.0185895216041,175.34095681312613,428.4649284196346
106001,13972,106001,36697,106001,52262,651.6456196569458,175.58629728498792,429.24661468557633
106011,13964,106011,36707,106011,52271,651.2942797905062,175.81824078243636,429.984562481788
106011,13987,106011,36746,106011,52283,650.9558312596374,176.0335253971136,430.672310084586
106011,13996,106011,36775,106011,52292,650.6212004163849,176.22847517772777,431.3035515222908
106011,13994,106011,36734,106011,52301,650.2812970753354,176.399676090764,431.87245532736836
106011,13978,106011,36718,106011,52260,649.9272805152244,176.5443005557939,432.37385977894473
106011,14001,106011,36742,106011,52263,649.5506073794537,176.6598438872793,432.8031363790665
106022,13987,106022,36719,106022,52280,649.1430337745842,176.74380699538574,433.1558269632649
106022,14001,106022,36747,106022,52294,648.696713501356,176.79364922448033,433.4275200519985
106022,13990,106022,36768,106022,52315,648.2043117341968,176.80694462788523,433.61414467408156
106022,13968,106022,36742,106022,52276,647.6590150016045,176.78170735533658,433.7123681248158
106022,13963,106022,36725,106022,52265,647.0543365182112,176.71658874135872,433.7196566158945
106022,13972,106022,36692,106022,52256,646.3838101813167,176.61059200707615,433.6338916664832
106032,13980,106032,36732,106032,52267,645.6408648586809,176.4625211593341,433.4529146838325
106032,13987,106032,36743,106032,52287,644.818976315333,176.27074695444026,433.17438431180005
106032,13997,106032,36756,106032,52287,643.9119553289871,176.03351864671336,432.7959850686823
106032,13981,106032,36731,106032,52281,642.9142183976701,175.74942289954907,432.3157404534793
106032,13962,106032,36695,106032,52264,641.8208712429748,175.41745160247362,431.7321290575577
106032,13963,106032,36719,106032,52255,640.6275182675512,175.03659971381384,431.0439146995236
106042,13982,106042,36775,106042,52270,639.3300328763618,174.60557801777458,430.2498707434419
106042,13974,106042,36777,106042,52271,637.9245883141909,174.12323984858307,429.3486698198631
106042,13975,106042,36757,106042,52285,636.407866179013,173.58937981016228,428.33902398525765
106042,13961,106042,36692,106042,52257,634.7771695300846,173.00498980074866,427.2198891783645
106042,13941,106042,36696,106042,52239,633.030333438371,172.37165259941239,425.99044664473524
106042,13954,106042,36692,106042,52259,631.1654937773918,171.6906456992849,424.64981279289447
106053,13949,106053,36732,106053,52295,629.1809146731594,170.96250007310485,423.1969004661713
106053,13960,106053,36768,106053,52288,627.0750284759416,170.18727894112092,421.6307837836678
106053,13965,106053,36737,106053,52266,624.8466336675765,169.36529927169164,419.9512104064214
106053,13926,106053,36695,106053,52229,622.4950746877751,168.497581632757,418.1586500905993
106053,13919,106053,36692,106053,52243,620.0201547979811,167.58553459243362,416.25383096441044
106053,13920,106053,36698,106053,52246,617.4217779560198,166.63029052281846,414.2372795639775
106063,13935,106063,36726,106063,52277,614.6997082627622,165.63240916244,412.10929970661084
106063,13927,106063,36748,106063,52264,611.8536675694218,164.592151275072,409.8703416140953
106063,13914,106063,36699,106063,52240,608.8835405472694,163.50998037571497,407.52135045688965
106063,13908,106063,36683,106063,52214,605.7894079523728,162.38668134794966,405.0636956277317
106063,13898,106063,36678,106063,52231,602.571414157461,161.2229036832425,402.4987414245581
106063,13900,106063,36705,106063,52216,599.2296288208586,160.01867369955247,399.82750229472
106073,13914,106073,36736,106073,52248,595.7640322049444,158.77343224368266,397.05062139702613
106073,13917,106073,36736,106073,52237,592.1747071116191,157.4865877566255,394.1686016177904
106073,13903,106073,36700,106073,52227,588.462146363512,156.15807676065464,391.18209271531094
106073,13892,106073,36677,106073,52222,584.6274208342999,154.78838133035876,388.0919937493889
106073,13875,106073,36669,106073,52205,580.672092656107,153.37800354811006,384.89933434452826
106073,13876,106073,36717,106073,52224,576.5979970142381,151.92697976310262,381.6051168913027
106084,13893,106084,36729,106084,52272,572.4071231820312,150.4349911626831,378.21040904267153
106084,13875,106084,36716,106084,52207,568.1017343714374,148.9019613725442,374.71679574934757
106084,13844,106084,36671,106084,52200,563.684509794283,147.32843481284775,371.12665653285353
106084,13849,106084,36666,106084,52162,559.1583992296069,145.71529666228332,367.44278832079476
106084,13834,106084,36655,106084,52201,554.526323574523,144.0631420189236,363.6677845832269
106084,13822,106084,36668,106084,52201,549.7909843669562,142.37182242521115,359.803826367446
106094,13851,106094,36739,106094,52219,544.9548064705461,140.64049151288617,355.8529984761736
106094,13835,106094,36727,106094,52184,540.0200725200566,138.86827726463991,351.8177340653492
106094,13808,106094,36671,106094,52173,534.9891559536322,137.05508105305347,347.70094034649645
106094,13800,106094,36647,106094,52177,529.8644984034754,135.20159685237164,343.5057749552109
106094,13817,106094,36686,106094,52170,524.6483799347235,133.3086295494768,339.235422993912
106094,13810,106094,36713,106094,52195,519.3428969136359,131.37676466724287,334.89312153979233
106104,13807,106104,36704,106104,52188,513.9501919504077,129.4068043381015,330.48241734669614
106104,13802,106104,36681,106104,52173,508.47266466601116,127.40031382066452,326.00748156732567
106104,13771,106104,36653,106104,52115,502.9130215482925,125.35963903365513,321.4731231784682
106104,13769,106104,36631,106104,52094,497.2741364841472,123.2874112447021,316.88423991395064
106104,13759,106104,36628,106104,52118,491.55880889885896,121.18589299325933,312.24501011185066
106104,13772,106104,36672,106104,52147,485.76964404165426,119.05657800740656,307.5585457667619
106115,13771,106115,36709,106115,52136,479.90917877180016,116.90042752694289,302.8272656890086
106115,13744,106115,36673,106115,52125,473.9801171678581,114.71863977047632,298.0534463096676
106115,13738,106115,36622,106115,52110,467.98540064753433,112.51313290231847,293.2394117365013
106115,13724,106115,36647,106115,52087,461.9280517954164,110.28621326480065,288.38736298199836
106115,13740,106115,36669,106115,52138,455.8110326235835,108.04006628498001,283.49916401011035
106115,13730,106115,36665,106115,52138,449.6373154894737,105.77682482960878,278.5764953433483
106125,13719,106125,36657,106125,52122,443.4100856227643,103.49896804362949,273.6213893311363
106125,13696,106125,36609,106125,52082,437.13282421952704,101.20942122391476,268.63655204511133
106125,13672,106125,36588,106125,52050,430.8091323605721,98.91112189585844,263.6250507979585
106125,13679,106125,36613,106125,52054,424.4424049209796,96.60632722763897,258.5896161161423
106125,13663,106125,36659,106125,52069,418.03559922453286,94.29633254312076,253.53212876072783
106125,13687,106125,36669,106125,52107,411.5912440403409,91.98198334360771,248.4536964543403
106135,13671,106135,36627,106135,52083,405.11166251447986,89.66447283779013,243.35523323057495
106135,13641,106135,36633,106135,52062,398.5992065776352,87.34564176537286,238.23798483980457
106135,13635,106135,36588,106135,52058,392.05621942808295,85.02768333187612,233.10356912206615
106135,13645,106135,36627,106135,52031,385.48481303051454,82.71269436635599,227.95368915252487
106135,13635,106135,36649,106135,52078,378.88683291654263,80.40253606498736,222.78991575509022
106135,13639,106135,36625,106135,52068,372.2640506899508,78.09916817409128,217.61381860139264
106146,13622,106146,36606,106146,52052,365.61836358684167,75.80499109381053,212.42737096245574
106146,13598,106146,36569,106146,51983,358.95185127276534,73.52266562229501,207.23305939265836
106146,13594,106146,36567,106146,52004,352.26663517116367,71.25451144954171,202.03336234315506
106146,13578,106146,36585,106146,52014,345.5646495347216,69.00195787010755,196.8301278404819
106146,13587,106146,36614,106146,52034,338.8475103719931,66.7654675775278,191.62453416929046
106146,13586,106146,36629,106146,52036,332.1165691846569,64.54501039518668,186.41758290502992
106156,13571,106156,36594,106156,52005,325.37310491367094,62.34068825024974,181.21059403758062
106156,13552,106156,36567,106156,51990,318.61845167369506,60.152930577510006,176.0053064970725
106156,13546,106156,36576,106156,51971,311.8539205696516,57.98212860506389,170.80357391653092
106156,13546,106156,36588,106156,52007,305.08065720931137,55.82823062805765,165.60702996237887
106156,13537,106156,36595,106156,52001,298.2996271201032,53.690751572831104,160.41712791646745
106156,13530,106156,36602,106156,51996,291.51170272165706,51.56908554813859,155.23550993201638
106166,13512,106166,36573,106166,51941,284.7177101587217,49.462781411062366,150.06421010047222
106166,13500,106166,36536,106166,51932,277.91836310863187,47.371475782131114,144.90532902748794
106166,13496,106166,36558,106166,51937,271.1141260318729,45.29443293191804,139.76042472284325
106166,13492,106166,36576,106166,51972,264.3051302872588,43.23016510364201,134.63023292574678
106166,13504,106166,36602,106166,51953,257.49124630330925,41.17661494205461,129.51496168499295
106166,13483,106166,36616,106166,51967,250.67229560729334,39.131790792730754,124.41478577776428
106177,13467,106177,36567,106177,51931,243.8482165283728,37.09436114339394,119.33012204311814
106177,13459,106177,36556,106177,51912,237.01901560699707,35.0637266195678,114.2615581240882
106177,13464,106177,36571,106177,51920,230.18463625046076,33.03960600205255,109.20952364636076
106177,13471,106177,36587,106177,51919,223.34500771434915,31.02176161557722,104.17402963353385
106177,13454,106177,36586,106177,51932,216.50029464432907,29.010193964687716,99.15472708566045
106177,13446,106177,36564,106177,51897,209.6511164707086,27.00545551949523,94.15112484474184
106187,13410,106187,36524,106187,51877,202.79853427293182,25.008612122293556,89.16260046190803
106187,13389,106187,36513,106187,51883,195.94376056899569,23.020726527039216,84.1880968230447
106187,13393,106187,36526,106187,51880,189.08772556092498,21.042202002820545,79.22583239535504
106187,13417,106187,36532,106187,51914,182.23086001953993,19.072469641406656,74.27335297094208
106187,13412,106187,36557,106187,51918,175.37334976486022,17.110146853259465,69.32795329337893
106187,13375,106187,36549,106187,51884,168.51556625967442,15.153450530239354,64.38720757972675
106198,13358,106198,36516,106198,51869,161.6581390419268,13.200514811392424,59.4491476097312
106198,13354,106198,36529,106198,51886,154.80163355232753,11.24933827958887,54.512029767976514
106198,13376,106198,36565,106198,51880,147.94631193227377,9.297617659448605,49.57417679253069
106198,13357,106198,36571,106198,51885,141.09227628201677,7.342996269540748,44.63412094109003
106198,13344,106198,36565,106198,51875,134.23975354381002,5.383646350049617,39.69082399318199
106198,13329,106198,36527,106198,51849,127.38916380287708,3.418604528801751,34.743755569331654
106208,13304,106208,36488,106208,51817,120.54094568587823,1.44750430649961,29.79269016162823
106208,13306,106208,36500,106208,51828,113.69529669115923,-0.5301426266286171,24.83724920138627
106208,13318,106208,36548,106208,51836,106.85202675994753,-2.5154747065978142,19.87655244272628
106208,13312,106208,36553,106208,51864,100.01069911918296,-4.51005785481118,14.909326754046958
106208,13303,106208,36534,106208,51853,93.17093899756253,-6.515211356413005,9.93439746456022
106208,13273,106208,36511,106208,51812,86.33259249874902,-8.531663368845017,4.951108986792008
106218,13270,106218,36474,106218,51815,79.49560814419704,-10.559833508957695,-0.04072594960337028
106218,13255,106218,36505,106218,51821,72.65979691384689,-12.600420722718354,-5.041154157848609
106218,13280,106218,36554,106218,51823,65.82472779676232,-14.654654901861733,-10.050181013502254
106218,13253,106218,36547,106218,51811,58.98987218307218,-16.72381152835095,-15.06759813492505
106218,13248,106218,36522,106218,51804,52.15481497178189,-18.80847500499891,-20.09284935703039
106218,13221,106218,36480,106218,51772,45.319267299120725,-20.908378338284734,-25.125102976964968
106229,13212,106229,36482,106229,51752,38.4828647072942,-23.02292641478573,-30.16356267079209
106229,13218,106229,36482,106229,51756,31.64494706160974,-25.151832187956586,-35.20792401526438
106229,13214,106229,36521,106229,51769,24.804524621532437,-27.295329504169104,-40.258664985549956
106229,13217,106229,36530,106229,51802,17.960460639403323,-29.453833057919866,-45.31688509455131
106229,13201,106229,36502,106229,51763,11.111708615697239,-31.627369267821678,-50.3838004199651
106229,13189,106229,36443,106229,51744,4.257438296386681,-33.815421607919575,-55.460416609823596
106239,13178,106239,36470,106239,51740,-2.6029981285103077,-36.01746562090375,-60.54770362756312
106239,13204,106239,36495,106239,51768,-9.470107823848366,-38.233548060813376,-65.64688365294097
106239,13179,106239,36530,106239,51756,-16.344096622755615,-40.46414319069879,-70.75934236933108
106239,13180,106239,36496,106239,51779,-23.2246029823076,-42.70945825180655,-75.88624252613988
106239,13132,106239,36479,106239,51726,-30.11063823324605,-44.96898341669797,-81.02820400722993
106239,13129,106239,36441,106239,51698,-37.00085456247484,-47.24170715836655,-86.18538226283965
106249,13118,106249,36445,106249,51701,-43.89395255540887,-49.52674813405085,-91.35800174991181
106249,13118,106249,36483,106249,51735,-50.78892883099422,-51.82383494655399,-96.54681618346996
106249,13114,106249,36499,106249,51744,-57.68507476829768,-54.13318049560982,-101.752943115839
106249,13114,106249,36479,106249,51751,-64.5818396884656,-56.45489663786877,-106.97722662617184
106249,13101,106249,36447,106249,51690,-71.47866375354965,-58.78863114709371,-112.21974330282961
106249,13076,106249,36437,106249,51675,-78.37490202878087,-61.13380338685349,-117.47992909603227
106260,13080,106260,36455,106260,51697,-85.26992067962465,-63.490086580102115,-122.75715097652056
106260,13074,106260,36518,106260,51702,-92.16322164378334,-65.85747493652104,-128.0510090447944
106260,13088,106260,36492,106260,51700,-99.05437926425202,-68.23567256716518,-133.36110602768838
106260,13052,106260,36430,106260,51697,-105.94282735473621,-70.62345785335557,-138.68668892218068
106260,13040,106260,36411,106260,51656,-112.82778206064177,-73.01891169690458,-144.02652302706747
106260,13023,106260,36382,106260,51626,-119.70844624563983,-75.42038421881236,-149.3791542165701
106270,13018,106270,36443,106270,51647,-126.5843031778926,-77.82730952460813,-154.74346235651
106270,13033,106270,36461,106270,51663,-133.45524050675522,-80.24022504007712,-160.1189878358229
106270,13026,106270,36472,106270,51656,-140.32140336327404,-82.6600541238314,-165.50571352540823
106270,13001,106270,36437,106270,51644,-147.18293241947072,-85.08735215324083,-170.90366847578497
106270,12986,106270,36441,106270,51624,-154.03990867853452,-87.52209687019305,-176.31280464887078
106270,12981,106270,36400,106270,51626,-160.89255356489014,-89.9639561908202,-181.7331507348618
106280,12995,106280,36445,106280,51626,-167.74137873288248,-92.41265909145531,-187.1649759271944
106280,12989,106280,36465,106280,51638,-174.587056909718,-94.86804459916908,-192.6087531891926
106280,12981,106280,36448,106280,51638,-181.43012708934054,-97.32962902318914,-198.06491188852812
106280,12953,106280,36389,106280,51597,-188.27082547722574,-99.79625605371496,-203.53359632681355
106280,12942,106280,36379,106280,51566,-195.10919192918072,-102.26646519345326,-209.0147883525006
106280,12942,106280,36404,106280,51609,-201.94531629033298,-104.73925273805827,-214.50876976834496
106291,12931,106291,36433,106291,51580,-208.77947774097987,-107.21436122022453,-220.01636598708762
106291,12929,106291,36448,106291,51643,-215.6121245315062,-109.69182819380654,-225.5386896299791
106291,12928,106291,36407,106291,51614,-222.44378921543506,-112.17133065585449,-231.0765803472279
106291,12904,106291,36395,106291,51566,-229.27500008224325,-114.65199091553504,-236.63014355294706
106291,12893,106291,36371,106291,51564,-236.10628996294201,-117.13275725196223,-242.19886767488128
106291,12888,106291,36399,106291,51580,-242.938340845239,-119.61290607446136,-247.78212159341365
106301,12894,106301,36445,106301,51561,-249.77208417269412,-122.09211111777128,-253.37935838730306
106301,12895,106301,36425,106301,51587,-256.6085908641503,-124.56990768047694,-258.98995862371896
106301,12876,106301,36387,106301,51552,-263.44883400052606,-127.04511249295962,-264.6130187943066
106301,12862,106301,36367,106301,51521,-270.2935629487238,-129.51590348885819,-270.2473257440604
106301,12835,106301,36361,106301,51521,-277.14342448491675,-131.98044214328795,-275.89168306849353
106301,12847,106301,36363,106301,51539,-283.99922161455413,-134.43742726950293,-281.5453041735361
106311,12845,106311,36418,106311,51533,-290.8620429387571,-136.8861978453762,-287.20782277070543
106311,12844,106311,36375,106311,51548,-297.7331249306901,-139.3263586031076,-292.87897749879244
106311,12835,106311,36389,106311,51538,-304.61360291759956,-141.75734731723855,-298.55826008117714
106311,12821,106311,36338,106311,51502,-311.5043591775012,-144.17841735816558,-304.2447213105159
106311,12800,106311,36379,106311,51504,-318.40604299673544,-146.588954582532,-309.93709273183254
106311,12817,106311,36388,106311,51507,-325.3191938570859,-148.98864086804207,-315.63407430079593
106322,12804,106322,36376,106322,51519,-332.24425929149436,-151.37721337151623,-321.3343954576568
106322,12803,106322,36379,106322,51483,-339.1814365644839,-153.7541392705988,-327.03663347039185
106322,12769,106322,36330,106322,51468,-346.1305547050141,-156.11860264951136,-332.7391837157616
106322,12749,106322,36318,106322,51451,-353.0912154507746,-158.46989056659248,-338.44057217494174
106322,12743,106322,36341,106322,51473,-360.06315668384525,-160.80796178839398,-344.13982080348603
106322,12743,106322,36390,106322,51483,-367.0465631445369,-163.13362144962917,-349.83647322108595
106332,12763,106332,36398,106332,51497,-374.0420714673412,-165.44794951408753,-355.5302099249361
106332,12749,106332,36363,106332,51476,-381.0504675125676,-167.75147478037428,-361.22033636851427
106332,12726,106332,36339,106332,51428,-388.0723572760875,-170.04389175095295,-366.9055790225041
106332,12708,106332,36320,106332,51434,-395.1081392003399,-172.32448022527487,-372.58440800598834
