c_ts,c_val,d_ts,d_val,e_ts,e_val,c_val_filtered,d_val_filtered,e_val_filtered
266.0,71487.0,266.0,108103.0,266.0,60894.0,215.68906206725183,55.468516231608724,276.2374626107459
266.0,71498.0,266.0,108111.0,266.0,60874.0,218.737941933046,55.8877979181194,275.6436047581189
266.0,71500.0,266.0,108122.0,266.0,60902.0,221.74185293001656,56.24987168144186,274.92441292493044
266.0,71523.0,266.0,108139.0,266.0,60877.0,224.69066071434946,56.54982389018994,274.0789621674589
266.0,71513.0,266.0,108125.0,266.0,60879.0,227.57456491171928,56.78348271870224,273.106332721164
266.0,71516.0,266.0,108108.0,266.0,60877.0,230.38429167939347,56.94758082714916,272.0055870496702
276.0,71490.0,276.0,108103.0,276.0,60857.0,233.11108612704385,57.039598406521414,270.775678255254
276.0,71488.0,276.0,108091.0,276.0,60851.0,235.74645430305281,57.0574162132969,269.41530809462466
276.0,71504.0,276.0,108105.0,276.0,60863.0,238.28182502473084,56.99902557265033,267.92274272967984
276.0,71524.0,276.0,108121.0,276.0,60879.0,240.70845157753786,56.862461366790164,266.2958027932396
276.0,71518.0,276.0,108173.0,276.0,60878.0,243.01765069930948,56.64610985199002,264.53215127055637
276.0,71524.0,276.0,108104.0,276.0,60865.0,245.20110188104633,56.3492861301106,262.6296465352916
286.0,71531.0,286.0,108119.0,286.0,60875.0,247.25100286596788,55.972510632621066,260.5865116929924
286.0,71522.0,286.0,108089.0,286.0,60881.0,249.16014839508804,55.5172033402676,258.4014113639905
286.0,71528.0,286.0,108102.0,286.0,60878.0,250.92197090048543,54.98521665565703,256.0736302361331
286.0,71555.0,286.0,108143.0,286.0,60877.0,252.5305878999028,54.37866424761713,253.60330080990894
286.0,71525.0,286.0,108189.0,286.0,60844.0,253.98096355959837,53.7003169857838,250.99149214968097
286.0,71527.0,286.0,108062.0,286.0,60877.0,255.26902271711376,52.95428864270153,248.24012118348108
297.0,71510.0,297.0,108076.0,297.0,60847.0,256.3914989637945,52.14598322121064,245.3518848395929
297.0,71505.0,297.0,108078.0,297.0,60828.0,257.3456282249271,51.28115806770144,242.3302554554022
297.0,71518.0,297.0,108078.0,297.0,60850.0,258.12889436484346,50.365209576688656,239.17935723623606
297.0,71531.0,297.0,108089.0,297.0,60855.0,258.7389827353402,49.40311236049861,235.9039017384044
297.0,71545.0,297.0,108032.0,297.0,60833.0,259.1740186493919,48.39947542832859,232.5093947311316
297.0,71525.0,297.0,108083.0,297.0,60805.0,259.43292085935417,47.35836106440266,229.00226417930745
307.0,71522.0,307.0,108110.0,307.0,60820.0,259.5155685622334,46.283190050978845,225.38964810740316
307.0,71524.0,307.0,108108.0,307.0,60840.0,259.4227172049048,45.17717832069583,221.67921854727012
307.0,71555.0,307.0,108127.0,307.0,60821.0,259.1559524832532,44.04402767260211,217.87938941673383
307.0,71534.0,307.0,108078.0,307.0,60793.0,258.71790916553624,42.888322012560614,213.9995903543761
307.0,71506.0,307.0,108071.0,307.0,60781.0,258.1124875553596,41.71543066844484,210.0501569698402
307.0,71501.0,307.0,108058.0,307.0,60770.0,257.3446789536704,40.53102588935336,206.04194041335666
317.0,71481.0,317.0,108080.0,317.0,60765.0,256.42010522770283,39.34062517376577,201.9859819878648
317.0,71506.0,317.0,108055.0,317.0,60772.0,255.3446507646388,38.149451687568074,197.893386020338
317.0,71499.0,317.0,108071.0,317.0,60738.0,254.12438900318836,36.962458793018435,193.77532182942184
317.0,71479.0,317.0,108073.0,317.0,60755.0,252.76570014402927,35.78435864685966,189.64299455554755
317.0,71477.0,317.0,108057.0,317.0,60747.0,251.27527021283208,34.619689108717935,185.5075905617734
317.0,71508.0,317.0,108045.0,317.0,60736.0,249.65998138715887,33.47280952621968,181.38032655869492
328.0,71476.0,328.0,108081.0,328.0,60703.0,247.92699490304506,32.34777668021307,177.27245638236172
328.0,71489.0,328.0,108082.0,328.0,60736.0,246.08393929707276,31.248412401392528,173.19509744799595
328.0,71497.0,328.0,108058.0,328.0,60735.0,244.13899530645142,30.17861534122688,169.1591800721534
328.0,71479.0,328.0,108026.0,328.0,60703.0,242.1009945527336,29.142425008473992,165.17567512726757
328.0,71449.0,328.0,108052.0,328.0,60697.0,239.97946293543856,28.143647715419988,161.25569897620647
328.0,71439.0,328.0,108005.0,328.0,60686.0,237.78434536668698,27.18543285948904,157.41029902891535
338.0,71428.0,338.0,108023.0,338.0,60688.0,235.52552689277405,26.26997750967754,153.65021907099404
338.0,71439.0,338.0,108045.0,338.0,60680.0,233.21248582230822,25.398330868028964,149.98583423677357
338.0,71428.0,338.0,108058.0,338.0,60675.0,230.85420806219165,24.57052721663206,146.4271783774308
338.0,71445.0,338.0,108041.0,338.0,60662.0,228.45928140685098,23.786010886497287,142.98395015882997
338.0,71421.0,338.0,108049.0,338.0,60675.0,226.03604401745935,23.043922191411824,139.6654854199208
338.0,71405.0,338.0,108053.0,338.0,60667.0,223.59262491340036,22.343147201951126,136.48080070897666
348.0,71435.0,348.0,108064.0,348.0,60638.0,221.136827635284,21.682390420137274,133.43867733743187
348.0,71437.0,348.0,108080.0,348.0,60661.0,218.6761522776539,21.06040597747451,130.54761566503035
348.0,71430.0,348.0,108038.0,348.0,60652.0,216.2181134863943,20.476253829800314,127.81576861092881
348.0,71426.0,348.0,108050.0,348.0,60632.0,213.77054049726178,19.929303737137445,125.25100791629043
348.0,71404.0,348.0,108060.0,348.0,60614.0,211.34162219326925,19.419021461614875,122.8608901655158
348.0,71391.0,348.0,108079.0,348.0,60634.0,208.93973132834225,18.944952066294206,120.65242314864847
359.0,71383.0,359.0,108048.0,359.0,60581.0,206.57311872024704,18.506969137519434,118.6318569531575
359.0,71397.0,359.0,108040.0,359.0,60632.0,204.24966130279284,18.105366987413916,116.80454408138695
359.0,71375.0,359.0,108048.0,359.0,60608.0,201.97681150312468,17.740631918601025,115.1749088657015
359.0,71380.0,359.0,108043.0,359.0,60621.0,199.7616343613827,17.413208242711583,113.7466271917952
359.0,71358.0,359.0,108019.0,359.0,60603.0,197.6107581109988,17.123398675720637,112.52282008311434
359.0,71383.0,359.0,108055.0,359.0,60590.0,195.53028048835074,16.871249342995235,111.50605258079872
369.0,71378.0,369.0,108078.0,369.0,60593.0,193.52581066699958,16.65658937654571,110.69817019556766
369.0,71374.0,369.0,108052.0,369.0,60615.0,191.6026749488605,16.479413306681977,110.10018129075345
369.0,71345.0,369.0,108080.0,369.0,60595.0,189.76603913453516,16.340264240780172,109.7123735411316
369.0,71358.0,369.0,108048.0,369.0,60610.0,188.02077538209744,16.240352717751698,109.53452479569154
369.0,71346.0,369.0,108029.0,369.0,60576.0,186.37125956860496,16.181447644992808,109.56596750901033
369.0,71358.0,369.0,108020.0,369.0,60587.0,184.82132160625594,16.165500829473693,109.8054642477181
379.0,71367.0,379.0,108035.0,379.0,60610.0,183.3743667840963,16.194181113401612,110.25106833240278
379.0,71354.0,379.0,108054.0,379.0,60603.0,182.0335992020856,16.26871470470693,110.90023476041111
379.0,71356.0,379.0,108031.0,379.0,60585.0,180.80220147567027,16.39007010019101,111.75007016529733
379.0,71324.0,379.0,108037.0,379.0,60588.0,179.68332084904074,16.559123292210344,112.79735357533332
379.0,71314.0,379.0,108006.0,379.0,60607.0,178.67981911506666,16.776552284645433,114.03840091591516
379.0,71338.0,379.0,108044.0,379.0,60598.0,177.79392992536594,17.042590408582043,115.46910120038049
390.0,71350.0,390.0,108053.0,390.0,60595.0,177.02718564538742,17.356978401242444,117.08507393330126
390.0,71333.0,390.0,108035.0,390.0,60600.0,176.38070677210104,17.71922249715108,118.8817171530741
390.0,71322.0,390.0,107988.0,390.0,60569.0,175.85543899941692,18.128705225889696,120.85411994439943
390.0,71313.0,390.0,108025.0,390.0,60586.0,175.45205861887058,18.58430692434655,122.9968638538785
390.0,71311.0,390.0,108017.0,390.0,60565.0,175.17071824004233,19.083985227623046,125.30377003269905
390.0,71296.0,390.0,108058.0,390.0,60567.0,175.0108331577232,19.624818506816936,127.76768739791171
400.0,71325.0,400.0,108053.0,400.0,60607.0,174.97096097975563,20.20342629969428,130.3803928436206
400.0,71311.0,400.0,108078.0,400.0,60597.0,175.0488494116679,20.816477431927908,133.13276158215257
400.0,71345.0,400.0,108032.0,400.0,60593.0,175.24167247986276,21.46104308529685,136.01511073894457
400.0,71316.0,400.0,108039.0,400.0,60599.0,175.54633181495382,22.1345723071571,139.0173542462617
400.0,71320.0,400.0,108055.0,400.0,60611.0,175.9596348763468,22.834601359875386,142.12899160548687
400.0,71340.0,400.0,108082.0,400.0,60607.0,176.47830569205442,23.558686732891367,145.33917773465703
410.0,71316.0,410.0,108058.0,410.0,60632.0,177.09902046810538,24.30471772340779,148.6368843566286
410.0,71295.0,410.0,108054.0,410.0,60602.0,177.8184236491809,25.071169515318374,152.01105613662082
410.0,71309.0,410.0,108021.0,410.0,60596.0,178.63289788240385,25.856946719882846,155.45060204927861
410.0,71298.0,410.0,108029.0,410.0,60610.0,179.5382761993071,26.660926709313564,158.944153525321
410.0,71302.0,410.0,108041.0,410.0,60610.0,180.5297393803043,27.481548838986686,162.4798588915459
410.0,71326.0,410.0,108078.0,410.0,60619.0,181.60185816344188,28.316789583202183,166.0454067251949
421.0,71323.0,421.0,108012.0,421.0,60630.0,182.74879056911095,29.164452805022407,169.62816517687722
421.0,71292.0,421.0,108063.0,421.0,60661.0,183.96451511380766,30.022281437301377,173.21541337176987
421.0,71307.0,421.0,108025.0,421.0,60635.0,185.24279249360825,30.887795529341048,176.79468755336111
421.0,71320.0,421.0,108044.0,421.0,60628.0,186.57697533003923,31.758162314034834,180.3539813158527
421.0,71321.0,421.0,108061.0,421.0,60659.0,187.96005270931119,32.630181348911485,183.8816505698914
421.0,71329.0,421.0,108046.0,421.0,60694.0,189.3849013958478,33.50039696496822,187.36644455983972
431.0,71348.0,431.0,108083.0,431.0,60652.0,190.8445456188016,34.36531384030225,190.79791424645998
431.0,71312.0,431.0,108062.0,431.0,60659.0,192.3323770874867,35.22162676336386,194.16669248469006
431.0,71331.0,431.0,108021.0,431.0,60619.0,193.84220593924735,36.066308869796714,197.46425170607716
431.0,71300.0,431.0,108033.0,431.0,60632.0,195.36809021549863,36.896297400170326,200.68237011332607
431.0,71311.0,431.0,108067.0,431.0,60658.0,196.90408977370726,37.70804623390735,203.81272557595284
431.0,71304.0,431.0,108086.0,431.0,60627.0,198.44405006282068,38.49759086648615,206.8468441527682
442.0,71327.0,442.0,108052.0,442.0,60658.0,199.9815171417697,39.26104094808045,209.7762072098805
442.0,71321.0,442.0,108076.0,442.0,60663.0,201.5098569930764,39.99486506028058,212.5923312242656
442.0,71310.0,442.0,108067.0,442.0,60652.0,203.02243363051318,40.69585857195493,215.28692577768797
442.0,71295.0,442.0,108063.0,442.0,60670.0,204.51259324808217,41.36110026822509,217.8520551339967
442.0,71349.0,442.0,108067.0,442.0,60665.0,205.97352140618182,41.98792821141684,220.28021259689208
442.0,71344.0,442.0,108096.0,442.0,60670.0,207.39839237747702,42.573943023789795,222.56440301563774
452.0,71342.0,452.0,108091.0,452.0,60675.0,208.78084324836075,43.11721676349683,224.6982336783309
452.0,71318.0,452.0,108056.0,452.0,60647.0,210.11526301432468,43.616545571256175,226.67593691487315
452.0,71312.0,452.0,108027.0,452.0,60644.0,211.39663985876237,44.071278670181755,228.49221533396366
452.0,71327.0,452.0,108053.0,452.0,60678.0,212.62023595014332,44.480719712545095,230.14198880577078
452.0,71320.0,452.0,108061.0,452.0,60681.0,213.78143597641684,44.84369952017721,231.62041977222117
452.0,71331.0,452.0,108090.0,452.0,60668.0,214.8758120689344,45.158702727016134,232.92324537888112
462.0,71342.0,462.0,108093.0,462.0,60686.0,215.89927574530935,45.42435206023233,234.0470219549884
462.0,71317.0,462.0,108065.0,462.0,60648.0,216.8482421333062,45.63984151237911,234.98914233819244
462.0,71310.0,462.0,108042.0,462.0,60654.0,217.7196426838812,45.804948104145,235.74767876897022
462.0,71310.0,462.0,108055.0,462.0,60677.0,218.5106994683395,45.91961416807085,236.32116071961883
462.0,71328.0,462.0,108113.0,462.0,60655.0,219.21872221817853,45.98367085121011,236.7085487789521
462.0,71318.0,462.0,108094.0,462.0,60657.0,219.84115485433827,45.99718650760809,236.90934797504127
473.0,71300.0,473.0,108055.0,473.0,60632.0,220.37569350402447,45.961000836332055,236.92354689121447
473.0,71312.0,473.0,108039.0,473.0,60641.0,220.82022312173115,45.876647414495906,236.75137449538326
473.0,71296.0,473.0,108034.0,473.0,60606.0,221.17265575950944,45.74571114415575,236.39302443842706
473.0,71304.0,473.0,108051.0,473.0,60628.0,221.43083650009777,45.56928232406375,235.84838729073647
473.0,71294.0,473.0,108035.0,473.0,60644.0,221.59249688256693,45.34780276416697,235.11692427661592
473.0,71319.0,473.0,108067.0,473.0,60643.0,221.6552619605456,45.081146060579584,234.1978686907601
483.0,71302.0,483.0,108039.0,483.0,60642.0,221.6167778468444,44.76876607123387,233.0905951358347
483.0,71306.0,483.0,108090.0,483.0,60631.0,221.4748727976311,44.40988121410934,231.79483482883927
483.0,71292.0,483.0,108074.0,483.0,60638.0,221.22759203618324,44.003757337059945,230.31070258765823
483.0,71304.0,483.0,108079.0,483.0,60604.0,220.87312864386666,43.55006287118725,228.63863668867373
483.0,71295.0,483.0,108091.0,483.0,60612.0,220.40979224080897,43.04911415218404,226.77923540068542
483.0,71300.0,483.0,108023.0,483.0,60621.0,219.836051939557,42.50188949328891,224.73306910567095
493.0,71306.0,493.0,108034.0,493.0,60609.0,219.15061719745512,41.90967641119303,222.50067845243404
493.0,71294.0,493.0,108041.0,493.0,60607.0,218.35254649529017,41.273479471383084,220.08269781142369
493.0,71268.0,493.0,108034.0,493.0,60615.0,217.44126852942549,40.59369464616658,217.47992389887116
493.0,71286.0,493.0,108096.0,493.0,60611.0,216.4164005943168,39.87024038569426,214.69340037590905
493.0,71273.0,493.0,108060.0,493.0,60615.0,215.27755035558746,39.10300777474778,211.72458719873902
493.0,71260.0,493.0,108047.0,493.0,60602.0,214.02425482887907,38.292281693073704,208.57552159043354
504.0,71276.0,504.0,108070.0,504.0,60580.0,212.65593313009308,37.43876263769598,205.24884915986314
504.0,71260.0,504.0,108035.0,504.0,60581.0,211.17185098715692,36.54338954368171,201.74766843488845
504.0,71294.0,504.0,108046.0,504.0,60592.0,209.5712204765,35.60721249859375,198.07535669159125
504.0,71302.0,504.0,108043.0,504.0,60583.0,207.85350178656188,34.63124449202488,194.2356137526419
504.0,71265.0,504.0,108115.0,504.0,60581.0,206.01881393676547,33.616514775537,190.23265281261604
504.0,71276.0,504.0,108044.0,504.0,60557.0,204.06810638341426,32.56452616889851,186.07129329662004
514.0,71242.0,514.0,108033.0,514.0,60549.0,202.0029761530182,31.477567848071644,181.7568564501969
514.0,71224.0,514.0,108032.0,514.0,60533.0,199.8253227248278,30.358377634337312,177.29492826209602
514.0,71228.0,514.0,108028.0,514.0,60523.0,197.5369316811249,29.209602978069846,172.6911048999014
514.0,71227.0,514.0,108034.0,514.0,60517.0,195.13915705933567,28.03357660054168,167.9507872612299
514.0,71225.0,514.0,108000.0,514.0,60514.0,192.632870318711,26.832258980880383,163.07905886309163
514.0,71251.0,514.0,108037.0,514.0,60507.0,190.01861111782176,25.607118934687275,158.0806651070314
524.0,71215.0,524.0,108024.0,524.0,60499.0,187.29683463750916,24.359077691669253,152.96004316058261
524.0,71210.0,524.0,108035.0,524.0,60501.0,184.46804496066784,23.088656060591713,147.7213517056605
524.0,71222.0,524.0,108035.0,524.0,60498.0,181.53268901989713,21.796180965694777,142.3685368336984
524.0,71227.0,524.0,108026.0,524.0,60496.0,178.49110858101855,20.481915746124358,136.905468352043
524.0,71212.0,524.0,108039.0,524.0,60486.0,175.34373035594962,19.14612229934574,131.33608970525864
524.0,71199.0,524.0,108022.0,524.0,60461.0,172.0912169812567,17.78909148552827,125.66446805351583
535.0,71194.0,535.0,108018.0,535.0,60433.0,168.7343886159168,16.411129640827326,119.8946209309131
535.0,71200.0,535.0,108013.0,535.0,60434.0,165.27408310327374,15.012444526385131,114.03013554181848
535.0,71179.0,535.0,108046.0,535.0,60477.0,161.71112668535335,13.593060221062892,108.07393674027088
535.0,71197.0,535.0,108048.0,535.0,60429.0,158.0463707193612,12.153009867897794,102.02851118031165
535.0,71183.0,535.0,108009.0,535.0,60443.0,154.28075996373306,10.69267472864803,95.89626171986103
535.0,71179.0,535.0,108008.0,535.0,60425.0,150.4154425213885,9.212798016762214,89.67959534329972
545.0,71177.0,545.0,108019.0,545.0,60415.0,146.45184045728726,7.714159329500994,83.38087201412642
545.0,71188.0,545.0,108019.0,545.0,60417.0,142.39170735820116,6.197391301314973,77.00237425039435
545.0,71175.0,545.0,108018.0,545.0,60420.0,138.23728611240963,4.663076067361565,70.54634186561353
545.0,71154.0,545.0,108041.0,545.0,60398.0,133.99145352083593,3.1119231917030987,64.0151122720572
545.0,71183.0,545.0,108022.0,545.0,60402.0,129.65772214484315,1.5449804689143534,57.41123877560088
545.0,71131.0,545.0,108005.0,545.0,60367.0,125.2402207178703,-0.03622968413549188,50.73747143054186
555.0,71131.0,555.0,107993.0,555.0,60352.0,120.74362062576122,-1.6298648192276701,43.9965801322557
555.0,71092.0,555.0,107977.0,555.0,60345.0,116.17281202154473,-3.23415141424951,37.19104414326756
555.0,71107.0,555.0,108007.0,555.0,60364.0,111.53245287292268,-4.847720885281518,30.32284069103781
555.0,71075.0,555.0,108007.0,555.0,60342.0,106.82664577475569,-6.4696377190191825,23.393543023018424
555.0,71091.0,555.0,108000.0,555.0,60327.0,102.0587788063145,-8.099148102164563,16.40452345657428
555.0,71087.0,555.0,107990.0,555.0,60343.0,97.23150399182558,-9.735491088364405,9.357006380057726
566.0,71087.0,566.0,108002.0,566.0,60323.0,92.34687551362441,-11.377924108461173,2.2521067452211128
566.0,71086.0,566.0,108003.0,566.0,60314.0,87.4065706868926,-13.025746312886824,-4.909048854511866
566.0,71102.0,566.0,107987.0,566.0,60325.0,82.41212279365786,-14.678216561306648,-12.125242006598967
566.0,71076.0,566.0,107999.0,566.0,60311.0,77.3651879766195,-16.334513814474242,-19.395064555813292
566.0,71068.0,566.0,107984.0,566.0,60281.0,72.26771661928717,-17.993776380511086,-26.716794883795842
566.0,71053.0,566.0,107959.0,566.0,60273.0,67.1218834471585,-19.655199804501798,-34.08847712040716
576.0,71030.0,576.0,107955.0,576.0,60269.0,61.929859257386056,-21.318308780107415,-41.5081689413081
576.0,71032.0,576.0,107985.0,576.0,60253.0,56.69354563002338,-22.98327358785742,-48.97409290859241
576.0,71045.0,576.0,107980.0,576.0,60270.0,51.414418259092315,-24.650902757194153,-56.484622611984605
576.0,71027.0,576.0,107989.0,576.0,60244.0,46.09362252503172,-26.32232813709598,-64.03815628733582
576.0,71031.0,576.0,107997.0,576.0,60249.0,40.73218364519829,-27.99868591017428,-71.63296296535884
576.0,71014.0,576.0,107966.0,576.0,60229.0,35.33111684662498,-29.680929107576418,-79.2671064406016
586.0,71025.0,586.0,108009.0,586.0,60226.0,29.89146383223658,-31.36977563878858,-86.93844104932305
586.0,71018.0,586.0,107965.0,586.0,60195.0,24.414380973889592,-33.06568657445709,-94.64466515598193
586.0,70988.0,586.0,108010.0,586.0,60220.0,18.901250863222913,-34.768787640489194,-102.38342027759342
586.0,70992.0,586.0,107962.0,586.0,60190.0,13.35364314008524,-36.47879462169941,-110.15230033342303
586.0,70982.0,586.0,107968.0,586.0,60167.0,7.773154907312858,-38.195055999793055,-117.94880347823909
586.0,70971.0,586.0,107924.0,586.0,60176.0,2.161326980813783,-39.91684437572255,-125.77043301843497
597.0,70948.0,597.0,107943.0,597.0,60149.0,-3.480412646607874,-41.643842053324974,-133.61485845003506
597.0,70968.0,597.0,107968.0,597.0,60133.0,-9.150871269980087,-43.376462604806775,-141.48001123015035
597.0,70951.0,597.0,107983.0,597.0,60150.0,-14.849122062497258,-45.11567451302048,-149.3641882116836
597.0,70924.0,597.0,107967.0,597.0,60136.0,-20.574430690243048,-46.86248675280629,-157.26604341097305
597.0,70919.0,597.0,107936.0,597.0,60138.0,-26.326343089775833,-48.617660902364534,-165.1843811470307
597.0,70948.0,597.0,107961.0,597.0,60116.0,-32.104859556417125,-50.38187641179279,-173.1179549961479
607.0,70947.0,607.0,108000.0,607.0,60114.0,-37.91028232203166,-52.15586736085427,-181.06541021837302
607.0,70932.0,607.0,108000.0,607.0,60106.0,-43.74276293507495,-53.94002880357182,-189.02530089387363
607.0,70904.0,607.0,107944.0,607.0,60101.0,-49.60203310819617,-55.73385897343749,-196.99606848815472
607.0,70891.0,607.0,107926.0,607.0,60067.0,-55.48755378476352,-57.53602456632761,-204.97601427523767
607.0,70879.0,607.0,107934.0,607.0,60052.0,-61.39887196751249,-59.345032927484155,-212.9634397108619
607.0,70888.0,607.0,107912.0,607.0,60061.0,-67.3358777209126,-61.15982513964968,-220.9569244556032
617.0,70848.0,617.0,107932.0,617.0,60032.0,-73.2988824352974,-62.9800168520801,-228.95548509060006
617.0,70881.0,617.0,107962.0,617.0,60059.0,-79.2886519222605,-64.80585568688274,-236.9585417188876
617.0,70897.0,617.0,107956.0,617.0,60040.0,-85.30630528964383,-66.63785071528987,-244.9657531982637
617.0,70855.0,617.0,107930.0,617.0,60035.0,-91.35293589264586,-68.47633303589667,-252.97677566976745
617.0,70841.0,617.0,107923.0,617.0,60006.0,-97.42935907413457,-70.32141087447404,-260.99113867504803
617.0,70853.0,617.0,107955.0,617.0,59987.0,-103.53627403060938,-72.17320586843347,-269.0083845847345
628.0,70846.0,628.0,107873.0,628.0,60023.0,-109.67441682359163,-74.03200828612296,-277.0282871965855
628.0,70856.0,628.0,107942.0,628.0,59993.0,-115.84440702902205,-75.89846247865154,-285.0508034639444
628.0,70804.0,628.0,107922.0,628.0,59974.0,-122.0465450160406,-77.7737400548937,-293.0758372895062
628.0,70836.0,628.0,107955.0,628.0,59956.0,-128.28083506443744,-79.65933648955999,-301.1032484648476
628.0,70781.0,628.0,107895.0,628.0,59946.0,-134.5471574121205,-81.55671576144542,-309.1331269981615
628.0,70798.0,628.0,107944.0,628.0,59953.0,-140.84544554918347,-83.46725831304022,-317.16600094546124
638.0,70821.0,638.0,107947.0,638.0,59950.0,-147.17576960036467,-85.39229979617826,-325.2027996556866
638.0,70776.0,638.0,107958.0,638.0,59953.0,-153.5381679502441,-87.33284772395686,-333.2446128895875
638.0,70793.0,638.0,107957.0,638.0,59932.0,-159.932423413074,-89.28912169697811,-341.2924178037408
638.0,70796.0,638.0,107921.0,638.0,59929.0,-166.3579964407075,-91.2603158489641,-349.34693769093565
638.0,70773.0,638.0,107920.0,638.0,59907.0,-172.81390896150947,-93.24474742886431,-357.408656734722
638.0,70771.0,638.0,107912.0,638.0,59929.0,-179.29860113240483,-95.24024178955135,-365.4778632634659
648.0,70753.0,648.0,107929.0,648.0,59917.0,-185.80995329224868,-97.24440575497657,-373.55453935657994
648.0,70733.0,648.0,107924.0,648.0,59885.0,-192.3454245999958,-99.25461539366917,-381.6381494143057
648.0,70736.0,648.0,107901.0,648.0,59888.0,-198.9022375967058,-101.26790041000608,-389.7276150629917
648.0,70705.0,648.0,107861.0,648.0,59859.0,-205.47755615681154,-103.28108748354762,-397.8215007006243
648.0,70708.0,648.0,107890.0,648.0,59851.0,-212.06863870421404,-105.29128764613168,-405.9182215124293
648.0,70698.0,648.0,107921.0,648.0,59854.0,-218.67297285636067,-107.29621781897634,-414.01620519595866
659.0,70692.0,659.0,107912.0,659.0,59843.0,-225.2883227788355,-109.29392352598019,-422.1139264986689
659.0,70700.0,659.0,107876.0,659.0,59829.0,-231.91266707282068,-111.28233188706031,-430.20982271535576
659.0,70692.0,659.0,107899.0,659.0,59820.0,-238.5440434602903,-113.25923397899642,-438.30226221326484
659.0,70684.0,659.0,107901.0,659.0,59822.0,-245.18034688270689,-115.22248009496509,-446.38957818049244
659.0,70655.0,659.0,107887.0,659.0,59810.0,-251.81924297811725,-117.16996097042914,-454.47003408767074
659.0,70676.0,659.0,107872.0,659.0,59804.0,-258.45825164853375,-119.0995531315967,-462.54172294342703
669.0,70643.0,669.0,107920.0,669.0,59790.0,-265.0948227079502,-121.00919033191413,-470.602505636276
669.0,70651.0,669.0,107867.0,669.0,59783.0,-271.72632881545235,-122.89681425346654,-478.6500187832454
669.0,70624.0,669.0,107856.0,669.0,59747.0,-278.3500911289789,-124.76033405789724,-486.68176227517085
669.0,70612.0,669.0,107812.0,669.0,59742.0,-284.9634964542818,-126.5980319744631,-494.6953273069398
669.0,70598.0,669.0,107859.0,669.0,59719.0,-291.564199904621,-128.40923285376806,-502.6887224741945
669.0,70612.0,669.0,107865.0,669.0,59728.0,-298.15030589844173,-130.19458609968308,-510.66062599654083
679.0,70578.0,679.0,107902.0,679.0,59728.0,-304.72039400570526,-131.95569489190888,-518.6104244941356
679.0,70594.0,679.0,107894.0,679.0,59720.0,-311.2734787487894,-133.69441445348735,-526.53803633824
679.0,70570.0,679.0,107876.0,679.0,59710.0,-317.8090066156268,-135.41230703549678,-534.4436916150261
679.0,70577.0,679.0,107866.0,679.0,59694.0,-324.326839726298,-137.110540933993,-542.3278467968886
679.0,70582.0,679.0,107874.0,679.0,59705.0,-330.827171533565,-138.79011206818615,-550.1912017377518
679.0,70574.0,679.0,107849.0,679.0,59704.0,-337.31033206698436,-140.45206226286047,-558.0346287511802
690.0,70568.0,690.0,107883.0,690.0,59698.0,-343.7765495021004,-142.09758289563308,-565.8589348271183
690.0,70551.0,690.0,107878.0,690.0,59659.0,-350.2258299459319,-143.72795935260058,-573.6646714773808
690.0,70536.0,690.0,107837.0,690.0,59668.0,-356.6580080514766,-145.34441898977775,-581.4522188433942
690.0,70518.0,690.0,107852.0,690.0,59641.0,-363.0729320355659,-146.94822051999614,-589.2220206028635
690.0,70512.0,690.0,107864.0,690.0,59659.0,-369.4707102511701,-148.54093014451695,-596.9747146743615
690.0,70508.0,690.0,107870.0,690.0,59655.0,-375.8518999181187,-150.12442500320006,-604.7110605436991
700.0,70530.0,700.0,107850.0,700.0,59644.0,-382.2175024197139,-151.70065424924013,-612.4317077157057
700.0,70505.0,700.0,107851.0,700.0,59606.0,-388.56872872248374,-153.27155231296223,-620.1370521641347
700.0,70496.0,700.0,107859.0,700.0,59614.0,-394.9067574993353,-154.83913869706595,-627.8273912276933
700.0,70503.0,700.0,107867.0,700.0,59617.0,-401.23268829348854,-156.4055290151028,-635.5031462363938
700.0,70487.0,700.0,107875.0,700.0,59613.0,-407.54754600401264,-157.97274388082838,-643.1648148980398
700.0,70493.0,700.0,107895.0,700.0,59594.0,-413.85219904774596,-159.54239450742546,-650.8127546187866
711.0,70457.0,711.0,107835.0,711.0,59584.0,-420.1473024710655,-161.11541899528996,-658.4471023258368
711.0,70459.0,711.0,107851.0,711.0,59563.0,-426.43339145549095,-162.6921667448413,-666.0678935182108
711.0,70434.0,711.0,107841.0,711.0,59554.0,-432.71110091178247,-164.27279453635427,-673.6752732846422
711.0,70431.0,711.0,107844.0,711.0,59531.0,-438.98139376867954,-165.85754725772472,-681.2697304792777
711.0,70441.0,711.0,107801.0,711.0,59553.0,-445.24569067705835,-167.44688886807864,-688.8522801712601
711.0,70427.0,711.0,107875.0,711.0,59552.0,-451.505818126634,-169.04166774412,-696.424424359624
721.0,70442.0,721.0,107843.0,721.0,59521.0,-457.76381135777444,-170.64305533414628,-703.9879030647057
721.0,70421.0,721.0,107850.0,721.0,59532.0,-464.021697483944,-172.25218928744425,-711.5445474032934
721.0,70417.0,721.0,107812.0,721.0,59522.0,-470.28135185441914,-173.87002492923645,-719.0962953057464
721.0,70429.0,721.0,107868.0,721.0,59530.0,-476.54443569014376,-175.4975083743648,-726.6451209012323
721.0,70413.0,721.0,107858.0,721.0,59523.0,-482.8122874412732,-177.1355673438904,-734.1928248944662
721.0,70406.0,721.0,107879.0,721.0,59491.0,-489.0857637687571,-178.78471728411586,-741.7408639604184
731.0,70389.0,731.0,107807.0,731.0,59484.0,-495.3652041487204,-180.44473607381096,-749.2904113543981
731.0,70370.0,731.0,107824.0,731.0,59451.0,-501.65056561956953,-182.11487883147544,-756.8426567851478
731.0,70357.0,731.0,107808.0,731.0,59452.0,-507.94166694867255,-183.794450693064,-764.3991775419386
731.0,70363.0,731.0,107801.0,731.0,59467.0,-514.2384329377213,-185.48323772033228,-771.9621703668106
731.0,70367.0,731.0,107824.0,731.0,59468.0,-520.5409526893066,-187.18167250984152,-779.5343456953578
731.0,70357.0,731.0,107828.0,731.0,59453.0,-526.8493073159361,-188.89077295690515,-787.1185752640447
742.0,70338.0,742.0,107833.0,742.0,59440.0,-533.1633876767314,-190.61186225666188,-794.7176532221608
742.0,70338.0,742.0,107803.0,742.0,59431.0,-539.4828943950586,-192.34632105311144,-802.3343123193514
742.0,70316.0,742.0,107870.0,742.0,59420.0,-545.8074554033021,-194.09550728541313,-809.9713453247371
742.0,70330.0,742.0,107832.0,742.0,59431.0,-552.1367193649675,-195.86055834595624,-817.6316656442492
742.0,70322.0,742.0,107829.0,742.0,59419.0,-558.470333918877,-197.64207550932156,-825.3182240737913
742.0,70293.0,742.0,107813.0,742.0,59414.0,-564.8078472090342,-199.44011153106362,-833.0338382593766
752.0,70273.0,752.0,107797.0,752.0,59397.0,-571.148781629669,-201.2544917525442,-840.7810946448873
752.0,70257.0,752.0,107805.0,752.0,59372.0,-577.4929870564483,-203.08517324392017,-848.5624199560774
752.0,70268.0,752.0,107785.0,752.0,59360.0,-583.8410125169621,-204.9325003263416,-856.380326183845
752.0,70277.0,752.0,107802.0,752.0,59379.0,-590.1941846501129,-206.79734635193205,-864.2376670885586
752.0,70271.0,752.0,107832.0,752.0,59346.0,-596.5543544861542,-208.68107494571183,-872.1376794855889
752.0,70257.0,752.0,107813.0,752.0,59343.0,-602.9235796382046,-210.5852235443441,-880.0839184995098
762.0,70242.0,762.0,107804.0,762.0,59357.0,-609.3040170754249,-212.5111621553688,-888.080268816685
762.0,70255.0,762.0,107786.0,762.0,59346.0,-615.6979899869416,-214.46010370154386,-896.1308618304516
762.0,70245.0,762.0,107806.0,762.0,59355.0,-622.1079817749453,-216.4333586493264,-904.2398095115793
762.0,70254.0,762.0,107863.0,762.0,59325.0,-628.5364619888634,-218.43233402334977,-912.4109592690926
762.0,70241.0,762.0,107806.0,762.0,59358.0,-634.9856574508015,-220.45805415725061,-920.647760738897
762.0,70207.0,762.0,107806.0,762.0,59291.0,-641.4574425358827,-222.51074954239039,-928.9531856906717
773.0,70208.0,773.0,107790.0,773.0,59305.0,-647.9534881731811,-224.59002372168698,-937.3298021279545
773.0,70175.0,773.0,107764.0,773.0,59296.0,-654.4755905805496,-226.69532501788518,-945.780020697368
773.0,70210.0,773.0,107824.0,773.0,59294.0,-661.0259267118797,-228.82628800538566,-954.3062097642865
773.0,70189.0,773.0,107800.0,773.0,59292.0,-667.6070441034672,-230.98268367986861,-962.9105778899627
773.0,70195.0,773.0,107805.0,773.0,59291.0,-674.2216275473347,-233.16405928686498,-971.59498957897
773.0,70188.0,773.0,107808.0,773.0,59270.0,-680.872271192339,-235.3694907755766,-980.3608012473347
783.0,70204.0,783.0,107767.0,783.0,59270.0,-687.5612964641309,-237.5975936039082,-989.2087881834644
783.0,70143.0,783.0,107809.0,783.0,59272.0,-694.2905914393486,-239.84668061999548,-998.1391300792667
783.0,70187.0,783.0,107809.0,783.0,59273.0,-701.0616314745779,-242.11482421834435,-1007.1512851155935
783.0,70167.0,783.0,107830.0,783.0,59249.0,-707.8755535356531,-244.39956783700578,-1016.2437667636766
783.0,70147.0,783.0,107759.0,783.0,59240.0,-714.7330494295063,-246.69758029996456,-1025.414043907048
783.0,70135.0,783.0,107732.0,783.0,59206.0,-721.6343247954477,-249.00488246134216,-1034.6586756369795
793.0,70110.0,793.0,107763.0,793.0,59205.0,-728.5793241815195,-251.31763208929237,-1043.9736018764079
793.0,70122.0,793.0,107762.0,793.0,59192.0,-735.568017801748,-253.63267179030365,-1053.3544219709722
793.0,70120.0,793.0,107753.0,793.0,59192.0,-742.6005091511447,-255.9474778460865,-1062.7965136435555
793.0,70119.0,793.0,107783.0,793.0,59172.0,-749.6768926483803,-258.25992492510966,-1072.295014712647
793.0,70105.0,793.0,107782.0,793.0,59187.0,-756.7970252256034,-260.56803674535166,-1081.844766885652
793.0,70102.0,793.0,107764.0,793.0,59154.0,-763.9604061413224,-262.86967823884686,-1091.4402339267099
804.0,70072.0,804.0,107775.0,804.0,59151.0,-771.1661994264596,-265.1624037997343,-1101.075457101589
804.0,70077.0,804.0,107729.0,804.0,59159.0,-778.4133726714429,-267.44356489574636,-1110.7440845054443
804.0,70082.0,804.0,107777.0,804.0,59158.0,-785.7008165910081,-269.7105374846094,-1120.439282213166
804.0,70085.0,804.0,107775.0,804.0,59160.0,-793.0272389805714,-271.96078195149386,-1130.1534323445048
804.0,70058.0,804.0,107744.0,804.0,59127.0,-800.3909059554042,-274.1916283946901,-1139.8778368291332
804.0,70051.0,804.0,107722.0,804.0,59112.0,-807.7895381213054,-276.4002406543579,-1149.6026821085886
814.0,70044.0,814.0,107735.0,814.0,59101.0,-815.2204244695824,-278.58400403922576,-1159.3172691037698
814.0,70034.0,814.0,107747.0,814.0,59096.0,-822.6805456265831,-280.7408592424462,-1169.0102578215074
814.0,70028.0,814.0,107744.0,814.0,59105.0,-830.1666114296138,-282.869236471877,-1178.6697124290565
814.0,70024.0,814.0,107787.0,814.0,59086.0,-837.6750574476632,-284.9677294981853,-1188.2829491853608
814.0,70022.0,814.0,107739.0,814.0,59090.0,-845.2019965059335,-287.0347019276459,-1197.8363393944096
814.0,70016.0,814.0,107747.0,814.0,59060.0,-852.7431111641781,-289.0680827618634,-1207.3152114762656
824.0,69990.0,824.0,107745.0,824.0,59070.0,-860.2935702481211,-291.06549295928914,-1216.7038687866286
824.0,70034.0,824.0,107760.0,824.0,59075.0,-867.8479938590922,-293.0243833179305,-1225.985579975491
824.0,70004.0,824.0,107773.0,824.0,59055.0,-875.4002727433432,-294.941892340333,-1235.142406803504
824.0,70000.0,824.0,107737.0,824.0,59040.0,-882.9432543395558,-296.81458201393673,-1244.15503387891
824.0,69971.0,824.0,107734.0,824.0,59033.0,-890.4686417605357,-298.6384118225394,-1253.002809338554
824.0,69949.0,824.0,107747.0,824.0,59036.0,-897.967223316694,-300.40899157410837,-1261.663857460348
835.0,69940.0,835.0,107726.0,835.0,59035.0,-905.4292628544899,-302.12177521248157,-1270.1150372175011
835.0,69952.0,835.0,107746.0,835.0,59013.0,-912.8448083567932,-303.7720864717485,-1278.3317859321237
835.0,69955.0,835.0,107754.0,835.0,58986.0,-920.2036863892956,-305.35505544362275,-1286.2881017409477
835.0,69952.0,835.0,107756.0,835.0,58993.0,-927.4952090223446,-306.86541156988113,-1293.9567729231069
835.0,69925.0,835.0,107722.0,835.0,58980.0,-934.7078930699192,-308.2972829742382,-1301.3096201765322
835.0,69919.0,835.0,107736.0,835.0,58977.0,-941.8294368639548,-309.6442795543604,-1308.3175604662952
845.0,69927.0,845.0,107767.0,845.0,58977.0,-948.8468598209388,-310.8996657465165,-1314.950572278456
845.0,69938.0,845.0,107756.0,845.0,58979.0,-955.746477356586,-312.0562042599099,-1321.1776158358957
845.0,69909.0,845.0,107727.0,845.0,58952.0,-962.5136447855681,-313.1058571811566,-1326.9665315077873
845.0,69885.0,845.0,107719.0,845.0,58924.0,-969.1326268251298,-314.03986882679817,-1332.2841197874573
845.0,69884.0,845.0,107709.0,845.0,58924.0,-975.5868178083831,-314.8492103646774,-1337.0965172035933
845.0,69876.0,845.0,107703.0,845.0,58921.0,-981.8590520549789,-315.52501209515333,-1341.3696101972428
855.0,69864.0,855.0,107772.0,855.0,58901.0,-987.9317458961264,-316.0587064288899,-1345.069251278423
855.0,69854.0,855.0,107719.0,855.0,58928.0,-993.7869629736211,-316.4417401865506,-1348.161347366827
855.0,69862.0,855.0,107717.0,855.0,58928.0,-999.4064924226288,-316.6652369576666,-1350.6118153470877
855.0,69853.0,855.0,107727.0,855.0,58908.0,-1004.7718454024233,-316.7200934654669,-1352.3863897506951
855.0,69840.0,855.0,107709.0,855.0,58899.0,-1009.8641786586852,-316.597257260032,-1353.450573058209
855.0,69844.0,855.0,107741.0,855.0,58880.0,-1014.664281303553,-316.2878237857865,-1353.7699057913146
866.0,69850.0,866.0,107727.0,866.0,58907.0,-1019.1525788777269,-315.78296728071734,-1353.3103308495201
866.0,69841.0,866.0,107698.0,866.0,58887.0,-1023.3090217505321,-315.0738757862703,-1352.0383779748715
866.0,69817.0,866.0,107719.0,866.0,58881.0,-1027.1129819379823,-314.15192328032526,-1349.9212261049415
866.0,69803.0,866.0,107702.0,866.0,58856.0,-1030.5433937378712,-313.0089739819702,-1346.9269361069635
866.0,69804.0,866.0,107672.0,866.0,58846.0,-1033.5790943244472,-311.6376349448899,-1343.0249520865832
866.0,69792.0,866.0,107757.0,866.0,58875.0,-1036.1991120148791,-310.03147541071684,-1338.1866436156115
876.0,69795.0,876.0,107694.0,876.0,58869.0,-1038.3828097956762,-308.18498650294487,-1332.3855761818145
876.0,69785.0,876.0,107752.0,876.0,58882.0,-1040.1099637091506,-306.09328754006026,-1325.5975006615504
876.0,69792.0,876.0,107749.0,876.0,58871.0,-1041.360819262156,-303.75187663474435,-1317.8003480101252
876.0,69787.0,876.0,107744.0,876.0,58887.0,-1042.1161123437669,-301.15638324222107,-1308.9743695867496
876.0,69793.0,876.0,107733.0,876.0,58903.0,-1042.357049218063,-298.30241792081523,-1299.1023003772148
876.0,69789.0,876.0,107760.0,876.0,58957.0,-1042.0652684749755,-295.1856752725899,-1288.1693069502003
886.0,69797.0,886.0,107776.0,886.0,58931.0,-1041.2228057832804,-291.8019724823928,-1276.1626539210122
886.0,69783.0,886.0,107751.0,886.0,58946.0,-1039.8120802521476,-288.1470596726483,-1263.0714536713392
886.0,69784.0,886.0,107729.0,886.0,58933.0,-1037.815959644933,-284.2166029051533,-1248.8868397196184
886.0,69758.0,886.0,107699.0,886.0,58956.0,-1035.2179677458723,-280.00667792453135,-1233.6024021914277
886.0,69797.0,886.0,107719.0,886.0,58953.0,-1032.0025696703735,-275.5145541915607,-1217.2145902052298
886.0,69775.0,886.0,107721.0,886.0,58956.0,-1028.1553251806222,-270.7392755355677,-1199.723055062259
897.0,69785.0,897.0,107757.0,897.0,59014.0,-1023.6628902673258,-265.68177846999316,-1181.130950535325
897.0,69793.0,897.0,107762.0,897.0,59048.0,-1018.5130536437927,-260.34463724191716,-1161.4449372958907
897.0,69793.0,897.0,107778.0,897.0,59059.0,-1012.6948004865005,-254.73167843262527,-1140.6748003060613
897.0,69793.0,897.0,107775.0,897.0,59069.0,-1006.1983511977626,-248.84769168571057,-1118.8331241766211
897.0,69805.0,897.0,107757.0,897.0,59106.0,-999.0152463734769,-242.69838214902938,-1095.9353196117952
897.0,69812.0,897.0,107826.0,897.0,59149.0,-991.1384357913475,-236.29048150292033,-1071.9997010203472
907.0,69840.0,907.0,107820.0,907.0,59160.0,-982.5622583615316,-229.6316288361964,-1047.047341588244
907.0,69833.0,907.0,107813.0,907.0,59183.0,-973.2823092185085,-222.72997258365368,-1021.1019075878202
907.0,69848.0,907.0,107831.0,907.0,59218.0,-963.295329724902,-215.59397492436344,-994.1896897991472
907.0,69859.0,907.0,107800.0,907.0,59260.0,-952.5992156432528,-208.2325640854276,-966.3396572334595
907.0,69850.0,907.0,107830.0,907.0,59286.0,-941.1930950088997,-200.65542380833352,-937.5833400499354
907.0,69874.0,907.0,107849.0,907.0,59316.0,-929.0774656499178,-192.87321326525804,-907.9546580995108
917.0,69875.0,917.0,107871.0,917.0,59361.0,-916.2543660687857,-184.89748235710505,-877.4898296609937
917.0,69898.0,917.0,107879.0,917.0,59393.0,-902.7274805024598,-176.74033668847704,-846.2272803430167
917.0,69921.0,917.0,107876.0,917.0,59433.0,-888.5021416637686,-168.4141736182338,-814.2074862171338
917.0,69926.0,917.0,107904.0,917.0,59478.0,-873.5852452070592,-159.93161851403465,-781.4727964805784
917.0,69953.0,917.0,107891.0,917.0,59527.0,-857.9851566924335,-151.30553938641944,-748.0672100512138
917.0,69980.0,917.0,107930.0,917.0,59576.0,-841.7116371314223,-142.54903426016,-714.0360440109116
928.0,69986.0,928.0,107958.0,928.0,59605.0,-824.7757119641623,-133.675293726607,-679.425559255061
928.0,69998.0,928.0,107921.0,928.0,59621.0,-807.1895782652175,-124.69732611217066,-644.2827523467748
928.0,70003.0,928.0,107929.0,928.0,59669.0,-788.9667096914037,-115.6279171999999,-608.6554415929675
928.0,70018.0,928.0,107953.0,928.0,59713.0,-770.1221162743427,-106.4799697897233,-572.5924393961574
928.0,70055.0,928.0,107964.0,928.0,59770.0,-750.6725785037313,-97.26674508028918,-536.1435037462717
928.0,70107.0,928.0,107997.0,928.0,59810.0,-730.636616411478,-88.00174034775489,-499.3590490540429
938.0,70128.0,938.0,108000.0,938.0,59860.0,-710.0340858540941,-78.69838867011316,-462.2897968473485
938.0,70142.0,938.0,108013.0,938.0,59901.0,-688.8856786436954,-69.3697887066489,-424.9864840967839
938.0,70149.0,938.0,107996.0,938.0,59937.0,-667.2127225356156,-60.02862802014428,-387.4996538356801
938.0,70176.0,938.0,107985.0,938.0,59993.0,-645.0373208757662,-50.68741486865335,-349.8795163107819
938.0,70204.0,938.0,108047.0,938.0,60060.0,-622.3825499169218,-41.35885817826551,-312.1757454595644
938.0,70219.0,938.0,108079.0,938.0,60086.0,-599.2725188057416,-32.05586709767047,-274.43708968763747
949.0,70256.0,949.0,108078.0,949.0,60105.0,-575.7323461284295,-22.790985564828304,-236.71104627758473
949.0,70274.0,949.0,108034.0,949.0,60140.0,-551.7881210373228,-13.57594143961228,-199.0439297380127
949.0,70309.0,949.0,108048.0,949.0,60173.0,-527.4668339756649,-4.4219209605496985,-161.48120910213174
949.0,70318.0,949.0,108147.0,949.0,60244.0,-502.7963146036618,4.659949927810203,-124.06772816158241
949.0,70359.0,949.0,108068.0,949.0,60276.0,-477.8052306890299,13.658743419582208,-86.84760275996189
949.0,70413.0,949.0,108093.0,949.0,60331.0,-452.5230296823039,22.56405415069372,-49.863904993762844
959.0,70436.0,959.0,108138.0,959.0,60367.0,-426.9796358649168,31.365852607658212,-13.158363593993954
959.0,70453.0,959.0,108111.0,959.0,60408.0,-401.20505591901883,40.054351646963994,23.228839959014294
959.0,70467.0,959.0,108141.0,959.0,60438.0,-375.2292541955116,48.62013334580752,59.25917891721929
959.0,70511.0,959.0,108181.0,959.0,60488.0,-349.0822967067157,57.05425925277041,94.89580376651634
959.0,70538.0,959.0,108182.0,959.0,60520.0,-322.7944410982301,65.34853635807548,130.10357004409798
959.0,70590.0,959.0,108153.0,959.0,60561.0,-296.39599151143136,73.4958480027833,164.84911516765305
969.0,70593.0,969.0,108186.0,969.0,60590.0,-269.9170246117184,81.49009465572502,199.1009186365343
969.0,70625.0,969.0,108201.0,969.0,60626.0,-243.38723066915531,89.32594513680368,232.82929812098223
969.0,70630.0,969.0,108168.0,969.0,60654.0,-216.83600430509966,96.9987809702572,266.0063525842372
969.0,70675.0,969.0,108181.0,969.0,60703.0,-190.29266858601386,104.50457298455268,298.60590602139587
969.0,70716.0,969.0,108192.0,969.0,60723.0,-163.7865765189655,111.83952841575814,330.603515459811
969.0,70745.0,969.0,108251.0,969.0,60759.0,-137.3469432866567,118.99995791409654,361.9764995525695
980.0,70768.0,980.0,108236.0,980.0,60796.0,-111.00256611908753,125.98263780353824,392.7039197556553
980.0,70784.0,980.0,108208.0,980.0,60833.0,-84.78170203248317,132.7852123764663,422.76659172993595
980.0,70826.0,980.0,108220.0,980.0,60873.0,-58.71212476169012,139.40606361413808,452.14720657553573
980.0,70851.0,980.0,108252.0,980.0,60899.0,-32.82115961954753,145.84389125753074,480.83050990722063
980.0,70920.0,980.0,108269.0,980.0,60941.0,-7.1355152691346575,152.09766099237436,508.80346040928316
980.0,70945.0,980.0,108248.0,980.0,60926.0,18.319147163955677,158.16690055569438,536.0552793238917
990.0,70919.0,990.0,108246.0,990.0,60960.0,43.518641373179776,164.0517933467582,562.5772476168704
990.0,70977.0,990.0,108255.0,990.0,60992.0,68.44023515924971,169.75291170842127,588.3623280793474
990.0,70985.0,990.0,108234.0,990.0,61015.0,93.0623302435232,175.2708772446444,613.4049425227265
990.0,71014.0,990.0,108245.0,990.0,61017.0,117.36430677942974,180.60605946599492,637.7009144223214
990.0,71035.0,990.0,108280.0,990.0,61062.0,141.32650088911328,185.758351199642,661.2473262573417
990.0,71077.0,990.0,108290.0,990.0,61093.0,164.93019042774392,190.727261577381,684.0423888278119
1000.0,71099.0,1000.0,108282.0,1000.0,61103.0,188.15769282514123,195.5122658941197,706.0855128784422
1000.0,71113.0,1000.0,108298.0,1000.0,61122.0,210.99252906878314,200.11301974939363,727.3773888158346
1000.0,71165.0,1000.0,108347.0,1000.0,61145.0,233.41952286110393,204.529467842769,747.9198903850822
1000.0,71176.0,1000.0,108318.0,1000.0,61181.0,255.4249204828402,208.7621631311328,767.7159722812291
1000.0,71190.0,1000.0,108327.0,1000.0,61185.0,276.9965541167328,212.8125959994232,786.7697113956851
1000.0,71174.0,1000.0,108319.0,1000.0,61193.0,298.1237758783858,216.68317117952228,805.0863297100639
1010.0,71197.0,1010.0,108246.0,1010.0,61220.0,318.7970233177583,220.37681820503065,822.6720368139881
1010.0,71233.0,1010.0,108292.0,1010.0,61227.0,339.0073182793376,223.89626568710395,839.5338254495625
1010.0,71242.0,1010.0,108311.0,1010.0,61236.0,358.74606775607344,227.24338002243877,855.6793311935103
1010.0,71277.0,1010.0,108329.0,1010.0,61273.0,378.0051265617078,230.41917354460224,871.1167074889001
1010.0,71306.0,1010.0,108367.0,1010.0,61301.0,396.77692985048634,233.4243545657286,885.8546331608661
1010.0,71354.0,1010.0,108399.0,1010.0,61312.0,415.054754437239,236.26004285947067,899.9025513184602
1020.0,71361.0,1020.0,108328.0,1020.0,61311.0,432.83314963665225,238.92841377832593,913.2708904471881
1020.0,71369.0,1020.0,108335.0,1020.0,61298.0,450.108288921023,241.43275896305886,925.9709638319766
1020.0,71396.0,1020.0,108345.0,1020.0,61356.0,466.8780280584343,243.7769311946176,938.0146360222132
1020.0,71377.0,1020.0,108344.0,1020.0,61382.0,483.14175890120066,245.9648977777215,949.4142436952777
1020.0,71400.0,1020.0,108380.0,1020.0,61357.0,498.9001479433367,248.0007443458287,960.1829162466358
1020.0,71393.0,1020.0,108322.0,1020.0,61367.0,514.1547677695564,249.8888415939586,970.3347371645064
1030.0,71433.0,1030.0,108346.0,1030.0,61358.0,528.9077731617244,251.633788278177,979.8844361392196
1030.0,71422.0,1030.0,108306.0,1030.0,61369.0,543.1617533616666,253.2400291572098,988.8469352532074
1030.0,71451.0,1030.0,108334.0,1030.0,61394.0,556.9196815022515,254.7114067682155,997.23705436568
1030.0,71472.0,1030.0,108387.0,1030.0,61374.0,570.1848882742959,256.051015215594,1005.069417715707
1030.0,71469.0,1030.0,108359.0,1030.0,61398.0,582.9611062820934,257.26157036378254,1012.358397349773
1030.0,71495.0,1030.0,108374.0,1030.0,61395.0,595.2525182006691,258.3459401574999,1019.1179836252936
1041.0,71541.0,1041.0,108355.0,1041.0,61427.0,607.0638207589591,259.3073148821098,1025.3617239905454
1041.0,71524.0,1041.0,108363.0,1041.0,61444.0,618.4004804784756,260.1490779804063,1031.102869228512
1041.0,71546.0,1041.0,108370.0,1041.0,61452.0,629.2690029284063,260.87466873906095,1036.354692324857
1041.0,71530.0,1041.0,108391.0,1041.0,61436.0,639.6769117645549,261.48760875310217,1041.1307488276693
1041.0,71512.0,1041.0,108369.0,1041.0,61425.0,649.6324353210728,261.9916961048612,1045.4448091164513
1041.0,71535.0,1041.0,108353.0,1041.0,61421.0,659.1440017055043,262.3910838229517,1049.310466193954
1051.0,71548.0,1051.0,108336.0,1051.0,61445.0,668.2198072473088,262.6899976295637,1052.740720097019
1051.0,71556.0,1051.0,108359.0,1051.0,61450.0,676.8677130240794,262.89228307539946,1055.7478420522584
1051.0,71571.0,1051.0,108377.0,1051.0,61456.0,685.0953356406822,263.00121905354575,1058.3435078433813
1051.0,71589.0,1051.0,108371.0,1051.0,61470.0,692.9101559466421,263.0197351833875,1060.5389794104356
1051.0,71600.0,1051.0,108385.0,1051.0,61481.0,700.3196758020256,262.95073951891806,1062.3452735929068
1051.0,71590.0,1051.0,108357.0,1051.0,61451.0,707.3315720580565,262.7972751872541,1063.773303486725
1061.0,71596.0,1061.0,108387.0,1061.0,61466.0,713.9536795428735,262.56249574308373,1064.8338220689186
1061.0,71600.0,1061.0,108386.0,1061.0,61455.0,720.1938068546949,262.24965341729245,1065.5371839304273
1061.0,71630.0,1061.0,108375.0,1061.0,61468.0,726.059611369742,261.86222360428286,1065.8931655971442
1061.0,71615.0,1061.0,108397.0,1061.0,61469.0,731.5586688055168,261.4040258464418,1065.910933153053
1061.0,71602.0,1061.0,108321.0,1061.0,61466.0,736.6985266280346,260.8791610919916,1065.5990880469599
1061.0,71619.0,1061.0,108330.0,1061.0,61429.0,741.48650631071,260.2915870188378,1064.9656187738426
1072.0,71628.0,1072.0,108342.0,1072.0,61475.0,745.9294565769455,259.64444665002986,1064.0176589948155
1072.0,71623.0,1072.0,108366.0,1072.0,61478.0,750.0337144066164,258.93975320810193,1062.7613715894431
1072.0,71657.0,1072.0,108352.0,1072.0,61473.0,753.8051926404453,258.17862336423303,1061.202203282497
1072.0,71653.0,1072.0,108378.0,1072.0,61482.0,757.2495433857014,257.361627764952,1059.3451939468198
1072.0,71639.0,1072.0,108381.0,1072.0,61476.0,760.372348463474,256.4890624962228,1057.1951016072112
1072.0,71644.0,1072.0,108370.0,1072.0,61462.0,763.1791039882216,255.56121026866742,1054.7564178598846
1082.0,71669.0,1082.0,108391.0,1082.0,61488.0,765.6750596130223,254.57852250489384,1052.0333241489354
1082.0,71672.0,1082.0,108369.0,1082.0,61500.0,767.8652583214521,253.54170005655027,1049.0297627963903
1082.0,71686.0,1082.0,108382.0,1082.0,61485.0,769.7548069534848,252.4517271763072,1045.7497400269585
1082.0,71656.0,1082.0,108352.0,1082.0,61468.0,771.3490899350227,251.30981217645154,1042.1975532548615
1082.0,71674.0,1082.0,108352.0,1082.0,61446.0,772.6537297451387,250.11718415164563,1038.3776409702596
1082.0,71667.0,1082.0,108298.0,1082.0,61475.0,773.6744052541828,248.8746991852468,1034.2942331770994
1092.0,71653.0,1092.0,108361.0,1092.0,61461.0,774.4167119129258,247.5823349310432,1029.951204964065
1092.0,71683.0,1092.0,108338.0,1092.0,61494.0,774.8860595664794,246.23896007848913,1025.3522605697663
1092.0,71674.0,1092.0,108386.0,1092.0,61489.0,775.0876664032335,244.84259726680494,1020.5013102045641
1092.0,71682.0,1092.0,108402.0,1092.0,61465.0,775.0267075536874,243.39099127597757,1015.4028351113557
1092.0,71675.0,1092.0,108382.0,1092.0,61471.0,774.7084481793615,241.88224982497132,1010.0619999145608
1092.0,71685.0,1092.0,108378.0,1092.0,61471.0,774.1382779122732,240.31523931805276,1004.4845606817294
1103.0,71685.0,1103.0,108394.0,1103.0,61477.0,773.3217476618802,238.68960000710445,998.6768781607907
1103.0,71692.0,1103.0,108417.0,1103.0,61471.0,772.2646673039003,237.00577725268357,992.6460946962104
1103.0,71681.0,1103.0,108408.0,1103.0,61451.0,770.9732175266254,235.26534614250488,986.4002783180742
1103.0,71670.0,1103.0,108345.0,1103.0,61418.0,769.4539623202343,233.4712489924949,979.9483253314277
1103.0,71657.0,1103.0,108338.0,1103.0,61412.0,767.7136829858614,231.6274195125854,973.2995644843759
1103.0,71657.0,1103.0,108349.0,1103.0,61423.0,765.7590982159328,229.7379979431696,966.4633255170818
1113.0,71684.0,1113.0,108339.0,1113.0,61411.0,763.5966906159439,227.8068291541338,959.4487996383052
1113.0,71643.0,1113.0,108342.0,1113.0,61435.0,761.2327629013135,225.83738119308256,952.2651916318312
1113.0,71681.0,1113.0,108346.0,1113.0,61420.0,758.6735394035072,223.83277655677634,944.922003421822
1113.0,71654.0,1113.0,108336.0,1113.0,61406.0,755.9252013778323,221.79582881762934,937.4292949951459
1113.0,71665.0,1113.0,108339.0,1113.0,61402.0,752.9939429322695,219.72906831379808,929.7977503556192
1113.0,71675.0,1113.0,108374.0,1113.0,61388.0,749.8860514256543,217.63480335744643,922.038578540878
1123.0,71679.0,1123.0,108381.0,1123.0,61388.0,746.6080687986245,215.51543139093812,914.1634173264711
1123.0,71678.0,1123.0,108341.0,1123.0,61392.0,743.1670639890092,213.37389477887763,906.1843242530382
1123.0,71608.0,1123.0,108360.0,1123.0,61371.0,739.5707268272462,211.21382177111812,898.1138626964782
1123.0,71649.0,1123.0,108301.0,1123.0,61338.0,735.8270221258342,209.03925540132033,889.9651065284353
1123.0,71626.0,1123.0,108327.0,1123.0,61336.0,731.9437275135662,206.8542029346211,881.7513707102914
1123.0,71660.0,1123.0,108304.0,1123.0,61347.0,727.9283525968433,204.66221013485116,873.485881915433
1134.0,71630.0,1134.0,108352.0,1134.0,61314.0,723.7883764644006,202.4662030732931,865.181696358506
1134.0,71642.0,1134.0,108355.0,1134.0,61329.0,719.531455213266,200.26874914489102,856.8517450075932
1134.0,71628.0,1134.0,108339.0,1134.0,61317.0,715.165475805926,198.07255303607798,848.5088479082675
1134.0,71608.0,1134.0,108328.0,1134.0,61302.0,710.698498509406,195.88073829130224,840.1657579131767
1134.0,71609.0,1134.0,108334.0,1134.0,61301.0,706.1385917107801,193.69675249026946,831.8351807860681
1134.0,71621.0,1134.0,108349.0,1134.0,61298.0,701.4936640846423,191.5242440132582,823.5297469839811
1144.0,71626.0,1144.0,108351.0,1144.0,61288.0,696.7715286054352,189.3671936039097,815.2620439877725
1144.0,71619.0,1144.0,108323.0,1144.0,61270.0,691.9801799352254,187.23013668925728,807.044658180001
1144.0,71588.0,1144.0,108299.0,1144.0,61270.0,687.1279753044166,185.1180999162356,798.890114559355
1144.0,71605.0,1144.0,108317.0,1144.0,61263.0,682.2235405391464,183.03620318980148,790.8107887632065
1144.0,71601.0,1144.0,108239.0,1144.0,61262.0,677.2756215511765,180.98918609102515,782.8189124172399
1144.0,71582.0,1144.0,108286.0,1144.0,61221.0,672.2931015982023,178.98089089624705,774.9265884405755
1154.0,71584.0,1154.0,108330.0,1154.0,61226.0,667.285026183804,177.01393275456962,767.1456256829831
1154.0,71575.0,1154.0,108304.0,1154.0,61232.0,662.2605219824324,175.0900284279304,759.4872936908388
1154.0,71575.0,1154.0,108315.0,1154.0,61229.0,657.2287369929043,173.21061316595012,751.9623108985312
1154.0,71561.0,1154.0,108299.0,1154.0,61196.0,652.1988319817822,171.37707985207163,744.5809990990155
1154.0,71555.0,1154.0,108322.0,1154.0,61200.0,647.1799379268988,169.5907536978259,737.3532577916145
1154.0,71571.0,1154.0,108312.0,1154.0,61209.0,642.1811034502163,167.85294444700858,730.2884086665246
1165.0,71563.0,1165.0,108365.0,1165.0,61202.0,637.2113736054339,166.16518734952962,723.3952316775255
1165.0,71543.0,1165.0,108301.0,1165.0,61176.0,632.2799531820627,164.52961619522577,716.6821276426996
1165.0,71497.0,1165.0,108262.0,1165.0,61188.0,627.3961223443414,162.94901504238618,710.1571197209222
1165.0,71513.0,1165.0,108258.0,1165.0,61159.0,622.5687707441257,161.4261640677972,703.8277238483386
1165.0,71508.0,1165.0,108296.0,1165.0,61160.0,617.8059282490162,159.963035976914,697.7008173945615
1165.0,71532.0,1165.0,108270.0,1165.0,61162.0,613.1147007939333,158.56059166781992,691.7825179402299
1175.0,71518.0,1175.0,108313.0,1175.0,61156.0,608.5015564582186,157.21903950029264,686.0781569511937
1175.0,71499.0,1175.0,108348.0,1175.0,61136.0,603.9725992915054,155.9382687451228,680.5923258913059
1175.0,71509.0,1175.0,108296.0,1175.0,61130.0,599.533589854444,154.71844505783235,675.3288023492082
1175.0,71491.0,1175.0,108256.0,1175.0,61145.0,595.1898316757245,153.56025597395427,670.2903924585058
1175.0,71491.0,1175.0,108277.0,1175.0,61170.0,590.94609950353,152.46439358101694,665.4789970950081
1175.0,71499.0,1175.0,108320.0,1175.0,61141.0,586.8066112052984,151.43099883937762,660.895982707355
1186.0,71497.0,1186.0,108293.0,1186.0,61139.0,582.7750917312493,150.45980214265006,656.5424823288103
1186.0,71489.0,1186.0,108291.0,1186.0,61126.0,578.8549269807307,149.55053108601382,652.419353521364
1186.0,71465.0,1186.0,108278.0,1186.0,61105.0,575.0492131739272,148.70294797794676,648.5269348755137
1186.0,71448.0,1186.0,108291.0,1186.0,61115.0,571.3605498406381,147.91663043100075,644.8647690096197
1186.0,71463.0,1186.0,108298.0,1186.0,61113.0,567.7906876340327,147.19087549920374,641.4314134845097
1186.0,71484.0,1186.0,108301.0,1186.0,61138.0,564.3403870630339,146.52482249140297,638.2244914292742
1196.0,71477.0,1196.0,108243.0,1196.0,61118.0,561.0096783173268,145.91753342343597,635.2409515684942
1196.0,71481.0,1196.0,108305.0,1196.0,61104.0,557.7982590755944,145.36777614941906,632.4772625002428
1196.0,71460.0,1196.0,108295.0,1196.0,61105.0,554.7057004260257,144.87384614036802,629.9293268078604
1196.0,71452.0,1196.0,108282.0,1196.0,61106.0,551.7313921002315,144.4337527695871,627.5922729701008
1196.0,71479.0,1196.0,108363.0,1196.0,61128.0,548.8743889320033,144.04554350193843,625.4604226901776
1196.0,71460.0,1196.0,108307.0,1196.0,61127.0,546.1334216447462,143.7077336670211,623.5275086787635
1206.0,71463.0,1206.0,108300.0,1206.0,61124.0,543.5070558090918,143.4196961658377,621.7869811749828
1206.0,71459.0,1206.0,108276.0,1206.0,61108.0,540.9937622358366,143.1815032032594,620.2321565114828
1206.0,71422.0,1206.0,108270.0,1206.0,61097.0,538.5918259967466,142.99334149105619,618.8560966293649
1206.0,71453.0,1206.0,108267.0,1206.0,61116.0,536.2991224561381,142.85499066512608,617.6513634440727
1206.0,71447.0,1206.0,108261.0,1206.0,61092.0,534.1129526246084,142.76549848340113,616.6098749454668
1206.0,71444.0,1206.0,108304.0,1206.0,61139.0,532.0301261107475,142.72307710130372,615.7229300571917
1217.0,71448.0,1217.0,108291.0,1217.0,61109.0,530.0471136713121,142.72530545278624,614.9813782318573
1217.0,71451.0,1217.0,108288.0,1217.0,61116.0,528.1601257780463,142.76947387143247,614.3758106148938
1217.0,71438.0,1217.0,108286.0,1217.0,61129.0,526.3651820722991,142.8527209237498,613.896611173617
1217.0,71438.0,1217.0,108321.0,1217.0,61120.0,524.6581252844949,142.9720192036817,613.5339773749674
1217.0,71477.0,1217.0,108324.0,1217.0,61153.0,523.0346283155766,143.1243744478959,613.2780604764976
1217.0,71452.0,1217.0,108321.0,1217.0,61116.0,521.4904111516909,143.30722997155573,613.1191569395687
1227.0,71417.0,1227.0,108283.0,1227.0,61092.0,520.0214633540988,143.51866367951285,613.0477003406982
1227.0,71404.0,1227.0,108265.0,1227.0,61114.0,518.6237926421786,143.75708429530792,613.0538942224152
1227.0,71435.0,1227.0,108269.0,1227.0,61132.0,517.2928777889308,144.02059484260002,613.1273828446915
1227.0,71458.0,1227.0,108280.0,1227.0,61125.0,516.0235160499717,144.30649496328104,613.2573588283162
1227.0,71439.0,1227.0,108314.0,1227.0,61142.0,514.8102109813849,144.6112439106838,613.4328651790026
1227.0,71464.0,1227.0,108304.0,1227.0,61136.0,513.6476110724661,144.93082359457753,613.6430006231965
1237.0,71443.0,1237.0,108277.0,1237.0,61158.0,512.5307241401333,145.26109097488012,613.8770751517127
1237.0,71450.0,1237.0,108302.0,1237.0,61131.0,511.4549926504606,145.597763756401,614.1247565949536
1237.0,71444.0,1237.0,108362.0,1237.0,61132.0,510.4162807201094,145.93638152482822,614.376079055761
1237.0,71431.0,1237.0,108332.0,1237.0,61157.0,509.41079722929425,146.27277267317123,614.6213115099517
1237.0,71428.0,1237.0,108309.0,1237.0,61146.0,508.43495720538533,146.6036184676302,614.8509479561392
1237.0,71426.0,1237.0,108311.0,1237.0,61144.0,507.4851917202667,146.92642024787284,615.0558437139578
1248.0,71441.0,1248.0,108289.0,1248.0,61134.0,506.5578379606296,147.2390479559576,615.2272229515384
1248.0,71429.0,1248.0,108281.0,1248.0,61149.0,505.6491905369301,147.5393011302644,615.3565395241881
1248.0,71418.0,1248.0,108289.0,1248.0,61131.0,504.75557046503457,147.82454112804814,615.4353775904574
1248.0,71426.0,1248.0,108282.0,1248.0,61143.0,503.8732520667706,148.0914492933677,615.4554044251647
1248.0,71438.0,1248.0,108342.0,1248.0,61145.0,502.9983794496564,148.33605888984735,615.4083332039082
1248.0,71424.0,1248.0,108340.0,1248.0,61152.0,502.1270467263,148.5541803036949,615.2859648344953
1258.0,71410.0,1258.0,108299.0,1258.0,61132.0,501.25537210511027,148.7419707225964,615.0802726751231
1258.0,71419.0,1258.0,108297.0,1258.0,61139.0,500.3793737254935,148.8960271396559,614.783366482476
1258.0,71415.0,1258.0,108319.0,1258.0,61153.0,499.4948031898322,149.013004829195,614.38738441798
1258.0,71429.0,1258.0,108337.0,1258.0,61165.0,498.59713726983136,149.08945554010995,613.8845602601707
1258.0,71431.0,1258.0,108336.0,1258.0,61150.0,497.6817198298347,149.12212431504256,613.2674721465372
1258.0,71419.0,1258.0,108313.0,1258.0,61137.0,496.74393875934163,149.1082739927181,612.5291675119489
1268.0,71389.0,1268.0,108303.0,1268.0,61135.0,495.7792275970901,149.0456448949988,611.6630005407845
1268.0,71433.0,1268.0,108306.0,1268.0,61157.0,494.78284140252833,148.93211859366386,610.6624130614532
1268.0,71417.0,1268.0,108300.0,1268.0,61158.0,493.74975510284924,148.76541165119227,609.5209667036029
1268.0,71434.0,1268.0,108345.0,1268.0,61164.0,492.6748686267615,148.54301999277004,608.2326042679135
1268.0,71422.0,1268.0,108322.0,1268.0,61141.0,491.5532559025261,148.26246255262444,606.7918592164572
1268.0,71412.0,1268.0,108329.0,1268.0,61146.0,490.3802494392975,147.9216097590794,605.1938313419377
1279.0,71403.0,1279.0,108300.0,1279.0,61150.0,489.1513383879152,147.51875290358697,603.4340380714957
1279.0,71411.0,1279.0,108324.0,1279.0,61122.0,487.86196725303495,147.05240838988433,601.5083135797464
1279.0,71437.0,1279.0,108317.0,1279.0,61156.0,486.5074802727074,146.52115845328532,599.4127356191924
1279.0,71426.0,1279.0,108361.0,1279.0,61136.0,485.08335731974114,145.92375910265244,597.1436105582311
1279.0,71401.0,1279.0,108306.0,1279.0,61160.0,483.5854824371229,145.25944247551928,594.69760781894
1279.0,71432.0,1279.0,108343.0,1279.0,61132.0,482.0101456402539,144.52808175367105,592.0719325271241
1289.0,71408.0,1289.0,108276.0,1289.0,61112.0,480.3539562043875,143.73004057580584,589.2643219652518
1289.0,71408.0,1289.0,108305.0,1289.0,61117.0,478.61385373847804,142.86579599568688,586.2727788981465
1289.0,71409.0,1289.0,108324.0,1289.0,61118.0,476.78707549489764,141.93560210894572,583.0952705257212
1289.0,71400.0,1289.0,108319.0,1289.0,61136.0,474.8710739426773,140.93953634389115,579.7296987100094
1289.0,71411.0,1289.0,108310.0,1289.0,61143.0,472.86349195009177,139.87779079509525,576.1741617778484
1289.0,71398.0,1289.0,108317.0,1289.0,61116.0,470.76218958748063,138.75078766188642,572.4272894014833
1299.0,71391.0,1299.0,108303.0,1299.0,61114.0,468.56525584305405,137.55912080686053,568.4883551506454
1299.0,71402.0,1299.0,108326.0,1299.0,61123.0,466.2709587741767,136.30351769683114,564.3571525909065
1299.0,71415.0,1299.0,108334.0,1299.0,61106.0,463.8777677204594,134.98493908192884,560.0339202943535
1299.0,71386.0,1299.0,108330.0,1299.0,61100.0,461.3845285812987,133.60484674280798,555.5193521950724
1299.0,71370.0,1299.0,108313.0,1299.0,61081.0,458.7905109086062,132.16542475752095,550.8145010279995
1299.0,71357.0,1299.0,108290.0,1299.0,61089.0,456.0951123375123,130.66949317889072,545.9205829230539
1310.0,71378.0,1310.0,108280.0,1310.0,61103.0,453.29748144036614,129.12011607647003,540.8388976342887
1310.0,71379.0,1310.0,108297.0,1310.0,61089.0,450.3964354368776,127.52016896244156,535.5709918572771
1310.0,71395.0,1310.0,108323.0,1310.0,61070.0,447.3907132622312,125.8722277521089,530.118857146535
1310.0,71366.0,1310.0,108273.0,1310.0,61054.0,444.2793009448129,124.17879940378907,524.4848628696584
1310.0,71355.0,1310.0,108274.0,1310.0,61055.0,441.06152172472184,122.44239631972648,518.6714787726528
1310.0,71355.0,1310.0,108281.0,1310.0,61057.0,437.73683225579214,120.66524193626293,512.6810825428639
1320.0,71381.0,1320.0,108310.0,1320.0,61059.0,434.3046487075522,118.84909311483817,506.51600204448334
1320.0,71383.0,1320.0,108311.0,1320.0,61042.0,430.7645265788857,116.99551722272298,500.17868084334594
1320.0,71364.0,1320.0,108319.0,1320.0,61053.0,427.1165485309151,115.10637694996586,493.6717949257604
1320.0,71355.0,1320.0,108300.0,1320.0,61052.0,423.361507410686,113.18416865480555,486.9983488603332
1320.0,71342.0,1320.0,108294.0,1320.0,61025.0,419.5007691075892,111.2320725128704,480.16181404681697
1320.0,71326.0,1320.0,108250.0,1320.0,61025.0,415.536003421547,109.25370426843821,473.16615919647865
1330.0,71314.0,1330.0,108271.0,1330.0,61010.0,411.4688921822654,107.25264538996046,466.0157182886738
1330.0,71335.0,1330.0,108254.0,1330.0,61006.0,407.30089146875144,105.23201257678741,458.7150577712514
1330.0,71337.0,1330.0,108275.0,1330.0,61004.0,403.0332421530664,103.19430530503826,451.26892583617996
1330.0,71319.0,1330.0,108270.0,1330.0,60978.0,398.66721657690954,101.14149691031994,443.6822411231872
1330.0,71311.0,1330.0,108284.0,1330.0,60967.0,394.2042714517083,99.07523960757996,435.9600053444712
1330.0,71304.0,1330.0,108270.0,1330.0,60969.0,389.64595718309107,96.99708219488704,428.1071153857467
1341.0,71329.0,1341.0,108269.0,1341.0,60979.0,384.99382439295414,94.90858503273773,420.1282932822953
1341.0,71319.0,1341.0,108306.0,1341.0,60969.0,380.24957448073,92.81137879118,412.028275569385
1341.0,71287.0,1341.0,108223.0,1341.0,60947.0,375.4153023916483,90.70725797953384,403.8120534071501
1341.0,71265.0,1341.0,108238.0,1341.0,60931.0,370.4934207198742,88.59801171928378,395.4848800019205
1341.0,71281.0,1341.0,108245.0,1341.0,60907.0,365.4862590066781,86.48490873265669,387.0520228987607
1341.0,71271.0,1341.0,108257.0,1341.0,60898.0,360.39579349417113,84.36842337005177,378.51842084946054
1351.0,71247.0,1351.0,108271.0,1351.0,60908.0,355.223638801753,82.24845965006978,369.8884312688854
1351.0,71272.0,1351.0,108253.0,1351.0,60920.0,349.97104040278737,80.1247211677199,361.1658684681196
1351.0,71265.0,1351.0,108240.0,1351.0,60898.0,344.6388982025046,77.99688081423201,352.35432847265656
1351.0,71270.0,1351.0,108262.0,1351.0,60868.0,339.227987118683,75.86449972206894,343.45743400387846
1351.0,71247.0,1351.0,108262.0,1351.0,60876.0,333.73920059192494,73.72699090713823,334.47873641951367
1351.0,71249.0,1351.0,108251.0,1351.0,60872.0,328.17360652969404,71.58378344744462,325.42153555242453
1361.0,71271.0,1361.0,108269.0,1361.0,60873.0,322.532441122043,69.43448282012523,316.2889431491784
1361.0,71236.0,1361.0,108255.0,1361.0,60880.0,316.81725298142334,67.278960629443,307.08414730011896
1361.0,71223.0,1361.0,108248.0,1361.0,60845.0,311.03002150035616,65.11741825849886,297.81068347774084
1361.0,71233.0,1361.0,108218.0,1361.0,60826.0,305.1730227180662,62.95028481101912,288.4724894656187
1361.0,71207.0,1361.0,108223.0,1361.0,60826.0,299.24865714511725,60.77788457981305,279.07367930138236
1361.0,71193.0,1361.0,108225.0,1361.0,60823.0,293.25935482394055,58.60009461577825,269.61833359143714
1372.0,71174.0,1372.0,108276.0,1372.0,60768.0,287.20736327191366,56.41633035079316,260.11043760572625
1372.0,71209.0,1372.0,108201.0,1372.0,60810.0,281.09450727264465,54.22587344377122,250.55374643487045
1372.0,71194.0,1372.0,108234.0,1372.0,60777.0,274.9222503082525,52.02803998440406,240.95166814673206
1372.0,71174.0,1372.0,108241.0,1372.0,60786.0,268.69198269363346,49.82203122570719,231.3073773088525
1372.0,71181.0,1372.0,108249.0,1372.0,60772.0,262.4051457838418,47.606966723942875,221.62399281789868
1372.0,71171.0,1372.0,108263.0,1372.0,60762.0,256.0631861345795,45.38224156965144,211.90467826866637
1382.0,71176.0,1382.0,108246.0,1382.0,60776.0,249.66759050694307,43.14789001086973,202.15273356286838
1382.0,71151.0,1382.0,108228.0,1382.0,60750.0,243.21998547744798,40.904724778865756,192.37174848078644
1382.0,71172.0,1382.0,108228.0,1382.0,60717.0,236.72218827423862,38.65417925943285,182.56569668119465
1382.0,71142.0,1382.0,108211.0,1382.0,60710.0,230.17625128136513,36.398010333855595,172.7387433542977
1382.0,71118.0,1382.0,108200.0,1382.0,60686.0,223.58445360487562,34.13802374395023,162.89486960813372
1382.0,71116.0,1382.0,108179.0,1382.0,60677.0,216.94907975932387,31.875765263806173,153.0375684433551
1392.0,71114.0,1392.0,108213.0,1392.0,60699.0,210.27213110913488,29.61221405124944,143.16971539836499
1392.0,71106.0,1392.0,108195.0,1392.0,60699.0,203.55523914610913,27.34770883509097,133.29374326794965
1392.0,71103.0,1392.0,108219.0,1392.0,60670.0,196.79973196852964,25.08213726282382,123.41204389583737
1392.0,71102.0,1392.0,108194.0,1392.0,60651.0,190.0067183178488,22.815159715061412,113.52716995157789
1392.0,71099.0,1392.0,108194.0,1392.0,60641.0,183.17719722110863,20.5462874772753,103.64166864076606
1392.0,71102.0,1392.0,108230.0,1392.0,60645.0,176.312217483923,18.274875988019033,93.75785891597945
1403.0,71094.0,1403.0,108213.0,1403.0,60656.0,169.41306675969895,16.000294237366674,83.87786780439671
1403.0,71072.0,1403.0,108205.0,1403.0,60611.0,162.4814051606112,13.722223787438438,74.00387315722605
1403.0,71068.0,1403.0,108173.0,1403.0,60593.0,155.5192340840244,11.440680665689712,64.138164193975
1403.0,71041.0,1403.0,108158.0,1403.0,60578.0,148.52871841262635,9.155630623116394,54.282831563026434
1403.0,71038.0,1403.0,108183.0,1403.0,60579.0,141.51195511418945,6.866497270639087,44.43940254384364
1403.0,71031.0,1403.0,108160.0,1403.0,60591.0,134.47076709710814,4.571927368440441,34.60876940331491
1413.0,71014.0,1413.0,108244.0,1413.0,60562.0,127.40658701316181,2.269958996859941,24.791396688843747
1413.0,71029.0,1413.0,108180.0,1413.0,60566.0,120.32042487736163,-0.041468062036244646,14.98753219947423
1413.0,71001.0,1413.0,108208.0,1413.0,60552.0,113.21290326691235,-2.3640219203267065,5.197271859537409
1413.0,71002.0,1413.0,108185.0,1413.0,60549.0,106.08430340027712,-4.698874389985832,-4.579408189919718
1413.0,71033.0,1413.0,108198.0,1413.0,60550.0,98.93462409674049,-7.046800813365763,-14.342557174176022
1413.0,71010.0,1413.0,108202.0,1413.0,60531.0,91.76384383246523,-9.40818032432992,-24.09210913614811
1423.0,71013.0,1423.0,108178.0,1423.0,60521.0,84.57231100945768,-11.78291472861369,-33.82778530209873
1423.0,70974.0,1423.0,108186.0,1423.0,60503.0,77.36090625788898,-14.170429913399659,-43.549128411683796
1423.0,70967.0,1423.0,108154.0,1423.0,60488.0,70.13086949920188,-16.56983871421184,-53.255640691782446
1423.0,70957.0,1423.0,108135.0,1423.0,60506.0,62.88347185170346,-18.980257161091828,-62.94689597269996
1423.0,70936.0,1423.0,108157.0,1423.0,60460.0,55.61974280685541,-21.401215440771097,-72.62252477873801
1423.0,70947.0,1423.0,108165.0,1423.0,60463.0,48.3403113242224,-23.832866113362428,-82.28221002213616
1434.0,70964.0,1434.0,108169.0,1434.0,60477.0,41.04542557101962,-26.27579127296258,-91.92576819224394
1434.0,70948.0,1434.0,108182.0,1434.0,60469.0,33.735248420738,-28.730635306019423,-101.55304285188402
1434.0,70935.0,1434.0,108156.0,1434.0,60410.0,26.41020204127682,-31.19782226901782,-111.16367925757504
1434.0,70923.0,1434.0,108162.0,1434.0,60436.0,19.07105193252704,-33.67747524501395,-120.75721925872261
1434.0,70920.0,1434.0,108198.0,1434.0,60439.0,11.718799202187654,-36.16942433937885,-130.33333030805022
1434.0,70917.0,1434.0,108177.0,1434.0,60425.0,4.354615804109528,-38.67299570910923,-139.89168088489401
1444.0,70903.0,1444.0,108138.0,1444.0,60408.0,-3.020118607173913,-41.1867536493821,-149.4316545987167
1444.0,70871.0,1444.0,108118.0,1444.0,60396.0,-10.403830024285355,-43.70873406978768,-158.95229963717395
1444.0,70895.0,1444.0,108138.0,1444.0,60369.0,-17.794910821631788,-46.237062146655134,-168.45248929780337
1444.0,70867.0,1444.0,108133.0,1444.0,60368.0,-25.191839723207124,-48.770326858292066,-177.93114995173374
1444.0,70857.0,1444.0,108145.0,1444.0,60345.0,-32.593174036595826,-51.3075202065222,-187.38747147936897
1444.0,70865.0,1444.0,108143.0,1444.0,60353.0,-39.99757407754487,-53.847808300343274,-196.82102938284936
1455.0,70869.0,1455.0,108137.0,1455.0,60368.0,-47.40377888527826,-56.39033873327604,-206.23172955934808
1455.0,70859.0,1455.0,108124.0,1455.0,60341.0,-54.81038352094464,-58.93417737517099,-215.61953123134197
1455.0,70835.0,1455.0,108124.0,1455.0,60347.0,-62.215624413368346,-61.478402939782114,-224.9841524382411
1455.0,70826.0,1455.0,108180.0,1455.0,60327.0,-69.61741362430246,-64.02212865536086,-234.32495237387076
1455.0,70831.0,1455.0,108146.0,1455.0,60324.0,-77.01351483524485,-66.56415965487619,-243.64091570670973
1455.0,70821.0,1455.0,108148.0,1455.0,60297.0,-84.40159601842237,-69.10253503665388,-252.93068224287958
1465.0,70805.0,1465.0,108109.0,1465.0,60275.0,-91.7791527940202,-71.6344747335838,-262.19269886795416
1465.0,70770.0,1465.0,108045.0,1465.0,60269.0,-99.14355753966362,-74.15688708138748,-271.4255059542527
1465.0,70747.0,1465.0,108085.0,1465.0,60280.0,-106.4924043256089,-76.66725705850294,-280.6279599589942
1465.0,70752.0,1465.0,108132.0,1465.0,60252.0,-113.82401012201115,-79.16424139100715,-289.7992121503303
1465.0,70764.0,1465.0,108102.0,1465.0,60236.0,-121.13769594133339,-81.64738574461106,-298.93863372925966
1465.0,70761.0,1465.0,108142.0,1465.0,60233.0,-128.43364357426498,-84.1164477176423,-308.04592212890805
1475.0,70765.0,1475.0,108111.0,1475.0,60246.0,-135.71252424455605,-86.57096515144463,-317.12120637874295
1475.0,70739.0,1475.0,108125.0,1475.0,60223.0,-142.97520071753013,-89.01006774998373,-326.1649208427658
1475.0,70727.0,1475.0,108114.0,1475.0,60220.0,-150.22266676684205,-91.43242679495827,-335.177607204643
1475.0,70750.0,1475.0,108096.0,1475.0,60254.0,-157.45614100339094,-93.83630858262131,-344.15976206638356
1475.0,70771.0,1475.0,108147.0,1475.0,60190.0,-164.6769406497653,-96.2196284167187,-353.111600631358
1475.0,70737.0,1475.0,108059.0,1475.0,60170.0,-171.8860057076763,-98.57992426492328,-362.0329874010307
1486.0,70715.0,1486.0,108086.0,1486.0,60179.0,-179.08355715109195,-100.91449299184421,-370.9238030349137
1486.0,70694.0,1486.0,108056.0,1486.0,60167.0,-186.26926957843318,-103.2208551905567,-379.78430418378
1486.0,70687.0,1486.0,108054.0,1486.0,60171.0,-193.4427114241778,-105.49721478174146,-388.6151120302176
1486.0,70687.0,1486.0,108093.0,1486.0,60162.0,-200.60366013717186,-107.7426523968281,-397.4170298774301
1486.0,70679.0,1486.0,108074.0,1486.0,60140.0,-207.75217496176282,-109.95699391262622,-406.190910355725
1486.0,70677.0,1486.0,108088.0,1486.0,60141.0,-214.8885224440839,-112.14047356900466,-414.93765317312454
1496.0,70671.0,1496.0,108068.0,1496.0,60133.0,-222.01307406335866,-114.29351547359761,-423.65826660318635
1496.0,70637.0,1496.0,108080.0,1496.0,60129.0,-229.12627109752486,-116.41671241430856,-432.35384697556765
1496.0,70654.0,1496.0,108069.0,1496.0,60113.0,-236.22872956711336,-118.51085626057298,-441.0255004241029
1496.0,70657.0,1496.0,108079.0,1496.0,60142.0,-243.32132132341832,-120.57693291461882,-449.6742493582865
1496.0,70656.0,1496.0,108087.0,1496.0,60111.0,-250.4049924652212,-122.6160413137926,-458.3008285123483
1496.0,70644.0,1496.0,108075.0,1496.0,60090.0,-257.4804506008994,-124.62923645407838,-466.9054899430316
1506.0,70606.0,1506.0,108034.0,1506.0,60065.0,-264.548052820521,-126.61749472490095,-475.4881245607546
1506.0,70600.0,1506.0,108067.0,1506.0,60079.0,-271.6080339938836,-128.58198163189522,-484.0486111434244
1506.0,70612.0,1506.0,108070.0,1506.0,60058.0,-278.6608527741946,-130.52430010350434,-492.58701035331467
1506.0,70618.0,1506.0,108078.0,1506.0,60038.0,-285.70724853173897,-132.4463490023904,-501.10357947557793
1506.0,70613.0,1506.0,108084.0,1506.0,60056.0,-292.7479444454607,-134.34996987830877,-509.59882036756017
1506.0,70573.0,1506.0,108037.0,1506.0,60048.0,-299.78337314392843,-136.23675022135606,-518.0734654977869
1517.0,70580.0,1517.0,108047.0,1517.0,60017.0,-306.8137365290843,-138.10818553013013,-526.5283231366265
1517.0,70574.0,1517.0,108044.0,1517.0,60026.0,-313.8392378736812,-139.96605645783978,-534.9642346425588
1517.0,70563.0,1517.0,108083.0,1517.0,60021.0,-320.8601644150366,-141.8125676733493,-543.3821498918313
1517.0,70593.0,1517.0,108095.0,1517.0,60028.0,-327.8767759178928,-143.6500055329904,-551.7830456016039
1517.0,70576.0,1517.0,108081.0,1517.0,59999.0,-334.8890275324428,-145.48014722376337,-560.1677128274766
1517.0,70535.0,1517.0,108059.0,1517.0,60000.0,-341.8962908655793,-147.3039110501372,-568.5366625249067
1527.0,70508.0,1527.0,108053.0,1527.0,59965.0,-348.8974901563821,-149.12148863366446,-576.8902301005735
1527.0,70523.0,1527.0,108023.0,1527.0,59977.0,-355.8916292908981,-150.93275864753372,-585.2287797761315
1527.0,70504.0,1527.0,108061.0,1527.0,59941.0,-362.8781673325592,-152.73768054149593,-593.5528934011536
1527.0,70506.0,1527.0,108060.0,1527.0,59964.0,-369.85705236743013,-154.53639505555748,-601.8634890624464
1527.0,70509.0,1527.0,108066.0,1527.0,59940.0,-376.82862819643276,-156.32896271641323,-610.1618330443482
1527.0,70506.0,1527.0,108038.0,1527.0,59928.0,-383.7934806610523,-158.11508637015635,-618.4494855860097
1537.0,70477.0,1537.0,108038.0,1537.0,59924.0,-390.7522721651951,-159.89414559398816,-626.7283240805922
1537.0,70484.0,1537.0,108067.0,1537.0,59959.0,-397.70573639285624,-161.66538110024732,-635.0005384346462
1537.0,70502.0,1537.0,108060.0,1537.0,59918.0,-404.6547218988961,-163.4278385755289,-643.2683658030804
1537.0,70479.0,1537.0,108008.0,1537.0,59915.0,-411.60001539726943,-165.18018530814794,-651.533801408113
1537.0,70460.0,1537.0,108022.0,1537.0,59889.0,-418.5421167388406,-166.92090354022525,-659.7986395245131
1537.0,70423.0,1537.0,107999.0,1537.0,59852.0,-425.48135410945144,-168.64880392141598,-668.0647980222925
1548.0,70435.0,1548.0,108002.0,1548.0,59864.0,-432.4183070529924,-170.36342198512222,-676.3347584380033
1548.0,70441.0,1548.0,108000.0,1548.0,59884.0,-439.3541143492597,-172.06522077930464,-684.6118361648741
1548.0,70431.0,1548.0,108015.0,1548.0,59876.0,-446.29040566706306,-173.75565025643755,-692.8999831943989
1548.0,70437.0,1548.0,108032.0,1548.0,59875.0,-453.22904313901165,-175.43699055364075,-701.2033317483427
1548.0,70441.0,1548.0,108009.0,1548.0,59872.0,-460.1718812525577,-177.1120418537659,-709.5258611620674
1548.0,70409.0,1548.0,108025.0,1548.0,59825.0,-467.12056321567957,-178.78390765087795,-717.8712951486148
1558.0,70410.0,1558.0,108010.0,1558.0,59820.0,-474.07646909304844,-180.45596037589252,-726.243294076466
1558.0,70421.0,1558.0,108050.0,1558.0,59853.0,-481.04079744874446,-182.13179298390673,-734.6457660766303
1558.0,70400.0,1558.0,108049.0,1558.0,59851.0,-488.01452546409405,-183.81494997714523,-743.0827909310295
1558.0,70393.0,1558.0,108022.0,1558.0,59827.0,-494.998283921048,-185.50854703192755,-751.5581586421447
1558.0,70372.0,1558.0,108019.0,1558.0,59819.0,-501.99238784311785,-187.21516767217767,-760.075085150169
1558.0,70345.0,1558.0,108023.0,1558.0,59793.0,-508.9970612250894,-188.93708748335166,-768.636307451116
1568.0,70344.0,1568.0,108017.0,1568.0,59767.0,-516.0127789384512,-190.67646353665594,-777.2443779021542
1568.0,70333.0,1568.0,108041.0,1568.0,59770.0,-523.0405760466169,-192.43531693255628,-785.9020321523974
1568.0,70390.0,1568.0,107976.0,1568.0,59815.0,-530.0820614302047,-194.21546826642387,-794.6123493168749
1568.0,70348.0,1568.0,108058.0,1568.0,59789.0,-537.1390041485213,-196.01859796735758,-803.3783987247683
1568.0,70329.0,1568.0,108007.0,1568.0,59754.0,-544.21287699733,-197.8462432457283,-812.2027333681399
1568.0,70320.0,1568.0,107990.0,1568.0,59768.0,-551.3048651635784,-199.69967695553606,-821.087318858777
1579.0,70339.0,1579.0,108030.0,1579.0,59772.0,-558.4161213706052,-201.58000021125278,-830.033683300221
1579.0,70319.0,1579.0,108032.0,1579.0,59749.0,-565.5477655941309,-203.4882159906226,-839.042822558217
1579.0,70324.0,1579.0,108056.0,1579.0,59736.0,-572.7006819293302,-205.42486680421598,-848.1150450395901
1579.0,70298.0,1579.0,107977.0,1579.0,59718.0,-579.8754019665236,-207.38963305065437,-857.2500534351399
1579.0,70274.0,1579.0,107986.0,1579.0,59707.0,-587.0721900011056,-209.3815113003105,-866.4471683023693
1579.0,70278.0,1579.0,107982.0,1579.0,59702.0,-594.2913077996261,-211.39945514004697,-875.7055154086114
1589.0,70272.0,1589.0,107992.0,1589.0,59677.0,-601.5332484448792,-213.44281280289357,-885.0241384044559
1589.0,70269.0,1589.0,108025.0,1589.0,59681.0,-608.7987510446159,-215.5112580541534,-894.402093518141
1589.0,70281.0,1589.0,107989.0,1589.0,59689.0,-616.0886509285426,-217.60443089250492,-903.8384797561005
1589.0,70242.0,1589.0,107979.0,1589.0,59694.0,-623.403698877625,-219.72171710775848,-913.3322386966736
1589.0,70240.0,1589.0,107986.0,1589.0,59676.0,-630.744531495786,-221.8624055075084,-922.8817805738627
1589.0,70239.0,1589.0,107998.0,1589.0,59668.0,-638.1118311515365,-224.02589296658087,-932.4847200103991
1599.0,70267.0,1599.0,108041.0,1599.0,59653.0,-645.5063516745473,-226.21150829380437,-942.1378388314336
1599.0,70253.0,1599.0,107993.0,1599.0,59669.0,-652.9285851548185,-228.41801767349952,-951.8371121171366
1599.0,70232.0,1599.0,107963.0,1599.0,59646.0,-660.3783470731886,-230.64337834846356,-961.5776114177319
1599.0,70206.0,1599.0,107992.0,1599.0,59632.0,-667.8547006853831,-232.88507045180327,-971.3533641879039
1599.0,70178.0,1599.0,107950.0,1599.0,59615.0,-675.356291497104,-235.1405496918425,-981.1573820914696
1599.0,70192.0,1599.0,107979.0,1599.0,59592.0,-682.8818146085061,-237.4074526501951,-990.9818684883161
1610.0,70196.0,1610.0,107945.0,1610.0,59604.0,-690.4302405797912,-239.68370250239326,-1000.8184454541062
1610.0,70187.0,1610.0,107992.0,1610.0,59584.0,-698.0006642694345,-241.9675536862998,-1010.6582407092883
1610.0,70187.0,1610.0,107983.0,1610.0,59575.0,-705.5920255966088,-244.25742785456606,-1020.4918407985887
1610.0,70165.0,1610.0,107958.0,1610.0,59563.0,-713.2029552253366,-246.5516180708165,-1030.309278776595
1610.0,70159.0,1610.0,107961.0,1610.0,59549.0,-720.8317816344824,-248.84821747753656,-1040.1001052733632
1610.0,70172.0,1610.0,107998.0,1610.0,59560.0,-728.4765903383122,-251.14523606500455,-1049.8534380290516
1620.0,70176.0,1620.0,107972.0,1620.0,59562.0,-736.1351127037944,-253.44047252882973,-1059.5578546472234
1620.0,70156.0,1620.0,108012.0,1620.0,59529.0,-743.8044201448129,-255.73115544827374,-1069.2011491576736
1620.0,70136.0,1620.0,107949.0,1620.0,59529.0,-751.4807354221298,-258.0136918210791,-1078.7702178677127
1620.0,70139.0,1620.0,107994.0,1620.0,59522.0,-759.159523043782,-260.2836707785498,-1088.2511416810753
1620.0,70120.0,1620.0,107929.0,1620.0,59517.0,-766.8356504456032,-262.53605986242223,-1097.629224486428
1620.0,70114.0,1620.0,107957.0,1620.0,59508.0,-774.5034703426961,-264.76549281801,-1106.888915212051
1630.0,70112.0,1630.0,107953.0,1630.0,59521.0,-782.1568709615931,-266.966539781459,-1116.0136868767704
1630.0,70102.0,1630.0,107977.0,1630.0,59506.0,-789.7892842176286,-269.1337232575015,-1124.9858448104983
1630.0,70098.0,1630.0,107955.0,1630.0,59476.0,-797.3936378689015,-271.26125982564884,-1133.786357672414
1630.0,70092.0,1630.0,107957.0,1630.0,59465.0,-804.9623024534245,-273.34285762019994,-1142.394946591772
1630.0,70075.0,1630.0,107936.0,1630.0,59474.0,-812.4870615713575,-275.3717640497126,-1150.7903500736222
1630.0,70102.0,1630.0,107966.0,1630.0,59480.0,-819.9590754040695,-277.34092229956354,-1158.950386888746
1641.0,70066.0,1641.0,107975.0,1641.0,59465.0,-827.3687547651609,-279.2429373254798,-1166.8517265678743
1641.0,70067.0,1641.0,107918.0,1641.0,59453.0,-834.7056309671297,-281.06986573256927,-1174.4696677295792
1641.0,70050.0,1641.0,107907.0,1641.0,59418.0,-841.9583958549334,-282.81333773229846,-1181.7781860578366
1641.0,70033.0,1641.0,107928.0,1641.0,59426.0,-849.1150617518811,-284.4651126172479,-1188.7502304667128
1641.0,70031.0,1641.0,107912.0,1641.0,59433.0,-856.1631404963797,-286.01747102323753,-1195.3579809233865
1641.0,70067.0,1641.0,107940.0,1641.0,59414.0,-863.08969827153,-287.4631932995266,-1201.572836074272
1651.0,70041.0,1651.0,107944.0,1651.0,59407.0,-869.8810862843621,-288.7953306551981,-1207.3653096604232
1651.0,70025.0,1651.0,107937.0,1651.0,59417.0,-876.5225743723929,-290.0068968117963,-1212.705045090078
1651.0,70021.0,1651.0,107907.0,1651.0,59402.0,-882.9982987968916,-291.0907090705249,-1217.5608236523944
1651.0,70001.0,1651.0,107939.0,1651.0,59377.0,-889.2914538705583,-292.0395328241613,-1221.900559259127
1651.0,69999.0,1651.0,107946.0,1651.0,59393.0,-895.3844810383471,-292.84619583212236,-1225.6914486913092
1651.0,69984.0,1651.0,107977.0,1651.0,59387.0,-901.2592215488595,-293.5033163191208,-1228.9001407744256
1661.0,69998.0,1661.0,107939.0,1661.0,59385.0,-906.8970089977373,-294.00282929085176,-1231.4927272170821
1661.0,69971.0,1661.0,107949.0,1661.0,59380.0,-912.278661854861,-294.3357646221847,-1233.4346816615919
1661.0,69955.0,1661.0,107919.0,1661.0,59344.0,-917.3845101436741,-294.4924168180635,-1234.6909524378384
1661.0,69936.0,1661.0,107946.0,1661.0,59304.0,-922.1946370026164,-294.4626557948843,-1235.2263841739064
1661.0,69950.0,1661.0,107900.0,1661.0,59324.0,-926.6892264808558,-294.23616650258384,-1235.0064653425918
1661.0,69941.0,1661.0,107902.0,1661.0,59319.0,-930.8487308410012,-293.8027229433658,-1233.997969795867
1672.0,69961.0,1672.0,107939.0,1672.0,59342.0,-934.6537770589734,-293.15251512997384,-1232.169135197173
1672.0,69950.0,1672.0,107922.0,1672.0,59326.0,-938.0849305295883,-292.2762014683668,-1229.4895453663698
1672.0,69947.0,1672.0,107920.0,1672.0,59339.0,-941.1224724332548,-291.1647091421412,-1225.9300373110902
1672.0,69940.0,1672.0,107926.0,1672.0,59324.0,-943.7463209128041,-289.8091794499046,-1221.4627553510256
1672.0,69929.0,1672.0,107931.0,1672.0,59352.0,-945.9361007467274,-288.2010421996117,-1216.0612804233926
1672.0,69930.0,1672.0,107926.0,1672.0,59332.0,-947.6712812189515,-286.33201707518595,-1209.7007221399604
1682.0,69936.0,1682.0,107922.0,1682.0,59344.0,-948.9312857039016,-284.19411915260685,-1202.3578108741335
1682.0,69916.0,1682.0,107893.0,1682.0,59341.0,-949.6955230360076,-281.7798287059335,-1194.011083770857
1682.0,69903.0,1682.0,107900.0,1682.0,59345.0,-949.9434809642572,-279.0824700795165,-1184.641122929621
1682.0,69890.0,1682.0,107907.0,1682.0,59344.0,-949.6550300858123,-276.09662380131186,-1174.2307999043733
1682.0,69907.0,1682.0,107921.0,1682.0,59340.0,-948.8107992815588,-272.81829692218787,-1162.7655716641762
1682.0,69910.0,1682.0,107896.0,1682.0,59369.0,-947.3923500977972,-269.2448841329633,-1150.2338022539502
1692.0,69904.0,1692.0,107946.0,1692.0,59362.0,-945.3821223657831,-265.37514441923577,-1136.6269871724394
1692.0,69886.0,1692.0,107918.0,1692.0,59381.0,-942.7634228315131,-261.2091548877062,-1121.9398848856597
1692.0,69895.0,1692.0,107935.0,1692.0,59400.0,-939.5206374729863,-256.7482053777504,-1106.1706488366117
1692.0,69906.0,1692.0,107915.0,1692.0,59429.0,-935.6394879309462,-251.99483217969185,-1089.3208832156042
1692.0,69932.0,1692.0,107989.0,1692.0,59467.0,-931.1070492346616,-246.9529037972454,-1071.3954970776765
1692.0,69928.0,1692.0,108006.0,1692.0,59464.0,-925.9115090461063,-241.6273134556058,-1052.4024296080609
1703.0,69940.0,1703.0,107957.0,1703.0,59483.0,-920.0419056166859,-236.0233429921268,-1032.3525074361944
1703.0,69900.0,1703.0,107966.0,1703.0,59500.0,-913.488101852,-230.146458893746,-1011.2595673048233
1703.0,69915.0,1703.0,107947.0,1703.0,59546.0,-906.2411091657202,-224.00277708547333,-989.1406170842117
1703.0,69941.0,1703.0,107969.0,1703.0,59584.0,-898.2935287178557,-217.59962560054498,-966.0157412405056
1703.0,69943.0,1703.0,108016.0,1703.0,59585.0,-889.6396954604427,-210.94573744875953,-941.9077987751537
1703.0,69943.0,1703.0,108063.0,1703.0,59639.0,-880.275569747665,-204.0508609531267,-916.8422124947729
1713.0,69964.0,1713.0,107991.0,1713.0,59656.0,-870.1987166756601,-196.92504024013954,-890.8468913693653
1713.0,69976.0,1713.0,108020.0,1713.0,59671.0,-859.4083530443302,-189.57837708421826,-863.9521596840972
1713.0,69984.0,1713.0,108040.0,1713.0,59725.0,-847.9053082160107,-182.02139520604425,-836.1907487424623
1713.0,70016.0,1713.0,108051.0,1713.0,59760.0,-835.6919353212201,-174.2652397076712,-807.5977570455702
1713.0,70001.0,1713.0,108078.0,1713.0,59796.0,-822.7720254006861,-166.3214563126215,-778.2104078937195
1713.0,70018.0,1713.0,108069.0,1713.0,59823.0,-809.150819520745,-158.20169813008746,-748.0677631469574
1724.0,70039.0,1724.0,108046.0,1724.0,59838.0,-794.8351612346519,-149.9176550336942,-717.2106226427009
1724.0,70043.0,1724.0,108081.0,1724.0,59884.0,-779.8336172007332,-141.4813105106264,-685.6816221696637
1724.0,70067.0,1724.0,108080.0,1724.0,59930.0,-764.1565050206143,-132.90523620756855,-653.5253202302786
1724.0,70067.0,1724.0,108095.0,1724.0,59982.0,-747.8159393210235,-124.20263236688555,-620.788033409322
1724.0,70103.0,1724.0,108086.0,1724.0,60029.0,-730.8259078842042,-115.3872877826646,-587.5174269996429
1724.0,70128.0,1724.0,108131.0,1724.0,60056.0,-713.2022641037681,-106.47360860314004,-553.7620698534879
1734.0,70147.0,1734.0,108141.0,1734.0,60096.0,-694.9625584100673,-97.4765192321957,-519.5711542897506
1734.0,70170.0,1734.0,108155.0,1734.0,60123.0,-676.1258214794877,-88.411147845069,-484.9944240069693
1734.0,70216.0,1734.0,108158.0,1734.0,60172.0,-656.7123775847897,-79.29254090728665,-450.08219103169733
1734.0,70238.0,1734.0,108173.0,1734.0,60231.0,-636.7435620011228,-70.13557013050358,-414.8852599779166
1734.0,70248.0,1734.0,108223.0,1734.0,60255.0,-616.2413762148715,-60.954845197934546,-379.45466489557174
1734.0,70242.0,1734.0,108189.0,1734.0,60315.0,-595.2283878501015,-51.76444964517012,-343.84135265165736
1744.0,70256.0,1744.0,108194.0,1744.0,60369.0,-573.7280304245741,-42.57777869746735,-308.09589416444146
1744.0,70306.0,1744.0,108186.0,1744.0,60358.0,-551.7650249496585,-33.40780037802699,-272.2682076761765
1744.0,70339.0,1744.0,108222.0,1744.0,60412.0,-529.3654713201314,-24.267468272235703,-236.40753324796646
1744.0,70355.0,1744.0,108218.0,1744.0,60472.0,-506.5565601201727,-15.169870661029307,-200.56263662006018
1744.0,70393.0,1744.0,108260.0,1744.0,60522.0,-483.36626624536586,-6.128101434645487,-164.78173491000632
1744.0,70433.0,1744.0,108257.0,1744.0,60553.0,-459.823144884748,2.8449958580381463,-129.11207376102277
1755.0,70418.0,1755.0,108263.0,1755.0,60586.0,-435.95613991451927,11.737063515395334,-93.59959352583974
1755.0,70468.0,1755.0,108286.0,1755.0,60626.0,-411.7945494856932,20.5363196869786,-58.28886104360913
1755.0,70493.0,1755.0,108315.0,1755.0,60660.0,-387.36813370060554,29.231638863949314,-23.223101599402867
1755.0,70531.0,1755.0,108313.0,1755.0,60681.0,-362.70705986900686,37.81280941720348,11.555763471514865
1755.0,70568.0,1755.0,108294.0,1755.0,60749.0,-337.84164188075954,46.27073783875008,46.00706482041983
1755.0,70549.0,1755.0,108263.0,1755.0,60771.0,-312.802121634997,54.5972013443739,80.09143749980274
1765.0,70582.0,1765.0,108321.0,1765.0,60798.0,-287.6187627208879,62.78424222802528,113.77097502864808
1765.0,70644.0,1765.0,108312.0,1765.0,60853.0,-262.322131920705,70.8238052842907,147.00928806144861
1765.0,70647.0,1765.0,108343.0,1765.0,60924.0,-236.9430940009504,78.70786747924265,179.7716186454511
1765.0,70692.0,1765.0,108357.0,1765.0,60922.0,-211.5125430834292,86.42874443164314,212.0252379013192
1765.0,70708.0,1765.0,108358.0,1765.0,60953.0,-186.06123184115222,93.97936147121877,243.73976600722517
1765.0,70756.0,1765.0,108350.0,1765.0,60982.0,-160.61968132866048,101.35338833438138,274.88707151543167
1775.0,70779.0,1775.0,108372.0,1775.0,61025.0,-135.21801462458683,108.54515272971761,305.44104240379966
1775.0,70776.0,1775.0,108390.0,1775.0,61046.0,-109.88580638797674,115.54954546932427,335.377539407535
1775.0,70852.0,1775.0,108406.0,1775.0,61102.0,-84.65208496429932,122.3621601963896,364.6744818884514
1775.0,70879.0,1775.0,108390.0,1775.0,61121.0,-59.54524525966633,128.97953430907313,393.31200429141245
1775.0,70888.0,1775.0,108408.0,1775.0,61120.0,-34.59269335593473,135.39920992527925,421.27256855294854
1775.0,70903.0,1775.0,108384.0,1775.0,61156.0,-9.820628714288432,141.61957857372926,448.5408003814923
1786.0,70936.0,1786.0,108399.0,1786.0,61172.0,14.745808241277132,147.6396209984452,475.1031349793026
1786.0,70952.0,1786.0,108415.0,1786.0,61199.0,39.08233364083935,153.45867165001272,500.94755805528666
1786.0,70972.0,1786.0,108421.0,1786.0,61254.0,63.16542550258566,159.07637991704007,526.0635316192922
1786.0,71022.0,1786.0,108439.0,1786.0,61276.0,86.97228101090923,164.49286407288542,550.4421494729168
1786.0,71047.0,1786.0,108416.0,1786.0,61308.0,110.48092161840566,169.70885152977007,574.0764579811137
1786.0,71070.0,1786.0,108447.0,1786.0,61313.0,133.67046290092128,174.72566980708774,596.9616752824222
1796.0,71095.0,1796.0,108448.0,1796.0,61318.0,156.5213292922898,179.54519949474303,619.0951270300013
1796.0,71118.0,1796.0,108430.0,1796.0,61355.0,179.0153253315167,184.16990047412764,640.4759575102555
1796.0,71134.0,1796.0,108466.0,1796.0,61378.0,201.13564500683754,188.60278991388304,661.1048975287895
1796.0,71148.0,1796.0,108458.0,1796.0,61380.0,222.86681978794928,192.84741041241682,680.9842348053712
1796.0,71184.0,1796.0,108432.0,1796.0,61391.0,244.19460994234112,196.9078529492648,700.1177460376227
1796.0,71191.0,1796.0,108437.0,1796.0,61403.0,265.1059428500686,200.78856740225427,718.5104246202579
1806.0,71227.0,1806.0,108428.0,1806.0,61418.0,285.5889250903721,204.4939362174904,736.1681577069294
1806.0,71192.0,1806.0,108464.0,1806.0,61424.0,305.632780995556,208.02797333835179,753.0974759077103
1806.0,71255.0,1806.0,108446.0,1806.0,61489.0,325.2275905683275,211.39432836731493,769.3054361499608
1806.0,71290.0,1806.0,108474.0,1806.0,61501.0,344.3640922234882,214.59644810061718,784.7998155825271
1806.0,71283.0,1806.0,108462.0,1806.0,61481.0,363.0338623316603,217.63771520636834,799.5894847540496
1806.0,71300.0,1806.0,108449.0,1806.0,61494.0,381.2295278357932,220.52147893720792,813.6844275769977
1817.0,71322.0,1817.0,108478.0,1817.0,61524.0,398.9446600877477,223.25094538939794,827.0953875560072
1817.0,71355.0,1817.0,108510.0,1817.0,61532.0,416.1736415620185,225.8291761174488,839.8336641055103
1817.0,71384.0,1817.0,108490.0,1817.0,61557.0,432.9117990965533,228.25943177480497,851.9111962269149
1817.0,71378.0,1817.0,108482.0,1817.0,61545.0,449.15567230263014,230.54549843357,863.3406680762487
1817.0,71381.0,1817.0,108473.0,1817.0,61562.0,464.9030833824744,232.69159173250438,874.1354579511301
1817.0,71392.0,1817.0,108472.0,1817.0,61554.0,480.1528769278249,234.7020046766513,884.3094363613875
1827.0,71411.0,1827.0,108482.0,1827.0,61571.0,494.90457464472604,236.58082679817352,893.8767200126833
1827.0,71446.0,1827.0,108460.0,1827.0,61572.0,509.1582425350804,238.3318053744814,902.8514723275512
1827.0,71427.0,1827.0,108507.0,1827.0,61586.0,522.9145746025185,239.958287863073,911.2477804086332
1827.0,71485.0,1827.0,108487.0,1827.0,61602.0,536.1749866641213,241.4633081676938,919.079618108751
1827.0,71466.0,1827.0,108474.0,1827.0,61601.0,548.9416838200183,242.84974984499564,926.3608886839929
1827.0,71488.0,1827.0,108496.0,1827.0,61615.0,561.2177339160062,244.12032104588064,933.1054757500017
1837.0,71517.0,1837.0,108524.0,1837.0,61621.0,573.007082170434,245.27751109051428,939.3272535240853
1837.0,71495.0,1837.0,108521.0,1837.0,61617.0,584.3145655561017,246.3238827384992,945.0400781670587
1837.0,71511.0,1837.0,108525.0,1837.0,61633.0,595.1458681241362,247.26250174665637,950.2577456123813
1837.0,71528.0,1837.0,108450.0,1837.0,61632.0,605.5073220026011,248.09700984135742,954.9939376979221
1837.0,71478.0,1837.0,108477.0,1837.0,61625.0,615.4056591240605,248.83111435085448,959.2621804416065
1837.0,71536.0,1837.0,108481.0,1837.0,61614.0,624.8476709857794,249.46789508152904,963.0756966461847
1848.0,71552.0,1848.0,108497.0,1848.0,61650.0,633.8399441999952,250.00956579667394,966.4471665660769
1848.0,71546.0,1848.0,108516.0,1848.0,61618.0,642.3889974371783,250.4577286523487,969.3886147742803
1848.0,71564.0,1848.0,108523.0,1848.0,61643.0,650.5015321834961,250.81379772288744,971.9114025859917
1848.0,71576.0,1848.0,108493.0,1848.0,61670.0,658.184491520418,251.0793406184249,974.0262467276223
1848.0,71575.0,1848.0,108513.0,1848.0,61641.0,665.445086583366,251.25612767852488,975.7433913784364
1848.0,71582.0,1848.0,108497.0,1848.0,61665.0,672.2908248795269,251.3459757098903,977.072795625674
1858.0,71601.0,1858.0,108521.0,1858.0,61675.0,678.7294835693817,251.35066750896016,978.0241862464015
1858.0,71594.0,1858.0,108510.0,1858.0,61664.0,684.7691205620399,251.27201996509643,978.6071616755944
1858.0,71577.0,1858.0,108503.0,1858.0,61669.0,690.4180523447002,251.11197521694447,978.8313164903789
1858.0,71588.0,1858.0,108499.0,1858.0,61653.0,695.6846181785155,250.8725589763394,978.7062039663822
1858.0,71579.0,1858.0,108508.0,1858.0,61645.0,700.5768356298624,250.5557383376592,978.241152587635
1858.0,71598.0,1858.0,108490.0,1858.0,61619.0,705.1021697823626,250.1633307872885,977.4449544190772
1868.0,71616.0,1868.0,108519.0,1868.0,61675.0,709.2675028946887,249.69698256460862,976.325544444848
1868.0,71645.0,1868.0,108503.0,1868.0,61668.0,713.0793649763973,249.15822238769016,974.8900308140162
1868.0,71618.0,1868.0,108507.0,1868.0,61652.0,716.544325895648,248.54857227630762,973.1450737144398
1868.0,71626.0,1868.0,108487.0,1868.0,61634.0,719.6691987021346,247.86955352524345,971.0970601690985
1868.0,71635.0,1868.0,108487.0,1868.0,61648.0,722.4609466951252,247.12251492540716,968.7518843099383
1868.0,71649.0,1868.0,108516.0,1868.0,61676.0,724.9266137644594,246.30846329628218,966.1148004032684
1879.0,71643.0,1879.0,108537.0,1879.0,61675.0,727.0734477728718,245.42820389181296,963.1906944929913
1879.0,71653.0,1879.0,108518.0,1879.0,61660.0,728.9090447369334,244.48280278766393,959.9845275967389
1879.0,71616.0,1879.0,108496.0,1879.0,61667.0,730.4413375088869,243.4738996933695,956.5015455506832
1879.0,71606.0,1879.0,108503.0,1879.0,61631.0,731.6783113407691,242.4035655710347,952.7472128422667
1879.0,71633.0,1879.0,108490.0,1879.0,61648.0,732.627541194281,241.27398023371234,948.7270098993546
1879.0,71625.0,1879.0,108470.0,1879.0,61643.0,733.2959471926798,240.08718282469897,944.4462515121483
1889.0,71650.0,1889.0,108484.0,1889.0,61652.0,733.6899157057478,238.844822258221,939.9101043004816
1889.0,71636.0,1889.0,108519.0,1889.0,61631.0,733.8155470458078,237.548039100314,935.1237403208416
1889.0,71667.0,1889.0,108496.0,1889.0,61650.0,733.678879812272,236.19771763570057,930.0924364160705
1889.0,71641.0,1889.0,108498.0,1889.0,61628.0,733.2860957316253,234.79483690359112,924.8216272349748
1889.0,71630.0,1889.0,108483.0,1889.0,61658.0,732.643599563867,233.34052604616556,919.3170109124372
1889.0,71651.0,1889.0,108514.0,1889.0,61631.0,731.7578868551605,231.83595345415603,913.5847335416348
1899.0,71659.0,1899.0,108516.0,1899.0,61629.0,730.635464438948,230.2824098943576,907.6315510668707
1899.0,71632.0,1899.0,108473.0,1899.0,61622.0,729.2829975156254,228.68153903470196,901.4648368552954
1899.0,71625.0,1899.0,108478.0,1899.0,61598.0,727.707353235772,227.03528832006006,895.0924691329042
1899.0,71625.0,1899.0,108477.0,1899.0,61608.0,725.9153624857997,225.3455497910709,888.5226830440018
1899.0,71616.0,1899.0,108463.0,1899.0,61574.0,723.9135607163414,223.61388743455288,881.7639194616239
1899.0,71642.0,1899.0,108480.0,1899.0,61584.0,721.7081099682115,221.841448146703,874.8246783803613
1910.0,71626.0,1910.0,108506.0,1910.0,61577.0,719.3049140286402,220.029033998888,867.7134069768645
1910.0,71645.0,1910.0,108487.0,1910.0,61574.0,716.7098374751143,218.17741671642096,860.4385111081543
1910.0,71608.0,1910.0,108462.0,1910.0,61558.0,713.9288563978507,216.287611020366,853.0084393823267
1910.0,71637.0,1910.0,108487.0,1910.0,61575.0,710.9680515672131,214.36079110568872,845.4317342958968
1910.0,71623.0,1910.0,108493.0,1910.0,61575.0,707.8335733704229,212.39815580321192,837.7171614678683
1910.0,71618.0,1910.0,108537.0,1910.0,61563.0,704.531701768393,210.40118558076583,829.8739854979559
1920.0,71629.0,1920.0,108464.0,1920.0,61559.0,701.0689160776469,208.37213349160072,821.9122039571258
1920.0,71614.0,1920.0,108445.0,1920.0,61527.0,697.451941995085,206.31408826326012,813.8425773103971
1920.0,71602.0,1920.0,108476.0,1920.0,61503.0,693.6877797027054,204.23042529602805,805.676418021772
1920.0,71600.0,1920.0,108465.0,1920.0,61514.0,689.7836136739558,202.12436389429118,797.4252194446319
1920.0,71593.0,1920.0,108461.0,1920.0,61520.0,685.7466565733243,199.99900703755517,789.1004479301072
1920.0,71585.0,1920.0,108450.0,1920.0,61479.0,681.5840484423599,197.85742849016387,780.713635396787
1930.0,71584.0,1930.0,108485.0,1930.0,61490.0,677.3027927272782,195.70264322744498,772.2764380781066
1930.0,71576.0,1930.0,108444.0,1930.0,61466.0,672.9097066582988,193.53768368700634,763.8005072718275
1930.0,71570.0,1930.0,108432.0,1930.0,61467.0,668.4113898026316,191.36563603917122,755.297370039304
1930.0,71578.0,1930.0,108452.0,1930.0,61469.0,663.8142105716411,189.1894117469693,746.7784166171099
1930.0,71584.0,1930.0,108467.0,1930.0,61463.0,659.1243873701059,187.0115983487524,738.2550063102009
1930.0,71568.0,1930.0,108471.0,1930.0,61444.0,654.3481844174959,184.8347172114616,729.7386267376477
1941.0,71562.0,1941.0,108430.0,1941.0,61461.0,649.4920459754155,182.6615583028221,721.2409826145874
1941.0,71567.0,1941.0,108453.0,1941.0,61429.0,644.5625817571372,180.4951709651415,712.7740561947301
1941.0,71550.0,1941.0,108469.0,1941.0,61401.0,639.5665388996991,178.33871297048063,704.3500944719403
1941.0,71512.0,1941.0,108458.0,1941.0,61409.0,634.510725882299,176.19557869134098,695.981370975074
1941.0,71544.0,1941.0,108446.0,1941.0,61400.0,629.4017525861469,174.0696484332447,687.6799281810978
1941.0,71552.0,1941.0,108424.0,1941.0,61397.0,624.2458797169108,171.96525407464333,679.4575632344495
1951.0,71537.0,1951.0,108389.0,1951.0,61376.0,619.0492647443463,169.88679208305663,671.3259169470853
1951.0,71511.0,1951.0,108418.0,1951.0,61362.0,613.8182338149854,167.8381760248672,663.2964370171724
1951.0,71517.0,1951.0,108427.0,1951.0,61361.0,608.5591989784175,165.82252508110923,655.3802171132788
1951.0,71538.0,1951.0,108462.0,1951.0,61380.0,603.2784977709132,163.8423940265373,647.5879300159459
1951.0,71519.0,1951.0,108446.0,1951.0,61373.0,597.9825273132974,161.9003583863028,639.9300446858749
1951.0,71505.0,1951.0,108410.0,1951.0,61342.0,592.6779845113433,159.99942851516386,632.4171427524748
1961.0,71507.0,1961.0,108408.0,1961.0,61320.0,587.3718802606356,158.14292014712078,625.0599273137667
1961.0,71473.0,1961.0,108427.0,1961.0,61316.0,582.0713780312936,156.3340383307434,617.8688751355268
1961.0,71478.0,1961.0,108409.0,1961.0,61296.0,576.7835739833431,154.5757028354509,610.8538597481672
1961.0,71469.0,1961.0,108409.0,1961.0,61309.0,571.5152669531165,152.87059873802957,604.023949501755
1961.0,71488.0,1961.0,108412.0,1961.0,61295.0,566.2728860521512,151.22116675178992,597.3873822857884
1961.0,71460.0,1961.0,108402.0,1961.0,61294.0,561.0626222047617,149.62955142443622,590.9516498377691
1972.0,71481.0,1972.0,108407.0,1972.0,61279.0,555.8905833043696,148.09757997970672,584.7235598311067
1972.0,71450.0,1972.0,108419.0,1972.0,61272.0,550.7628675531112,146.62677780436687,578.709200621057
1972.0,71450.0,1972.0,108393.0,1972.0,61276.0,545.6855487144107,145.21844480535242,572.9138671155695
1972.0,71460.0,1972.0,108425.0,1972.0,61291.0,540.6646014132707,143.87371973301003,567.3421013758742
1972.0,71458.0,1972.0,108406.0,1972.0,61290.0,535.7059362796033,142.59363445033102,561.9979530064359
1972.0,71442.0,1972.0,108415.0,1972.0,61249.0,530.8155750959677,141.37922084534256,556.885260859387
1982.0,71417.0,1982.0,108386.0,1982.0,61235.0,525.9996905319008,140.2315388102533,552.0075754606255
1982.0,71402.0,1982.0,108365.0,1982.0,61244.0,521.2643443250334,139.1514552621307,547.3677463182457
1982.0,71410.0,1982.0,108395.0,1982.0,61235.0,516.6151038229434,138.1392510749169,542.9676232662418
1982.0,71410.0,1982.0,108381.0,1982.0,61218.0,512.0568463219408,137.194395882636,538.8080053195649
1982.0,71412.0,1982.0,108398.0,1982.0,61246.0,507.5938420920226,136.31563443129625,534.8886305628678
1982.0,71413.0,1982.0,108416.0,1982.0,61225.0,503.22995807959035,135.50121855091263,531.2082272832655
1993.0,71377.0,1993.0,108401.0,1993.0,61215.0,498.9687817994693,134.74920181260725,527.7646283775479
1993.0,71381.0,1993.0,108402.0,1993.0,61225.0,494.81351148707216,134.0576714524432,524.5547608677075
1993.0,71399.0,1993.0,108400.0,1993.0,61228.0,490.76674191304164,133.4247719146198,521.5746036845901
1993.0,71402.0,1993.0,108397.0,1993.0,61256.0,486.8305140737772,132.84862935478196,518.8193647577983
1993.0,71383.0,1993.0,108420.0,1993.0,61224.0,483.0066145068589,132.3273451320194,516.2838309931731
1993.0,71379.0,1993.0,108385.0,1993.0,61201.0,479.2967356087146,131.8590765631645,513.9625310668905
2002.0,71371.0,2002.0,108398.0,2002.0,61215.0,475.7023855900119,131.44204512673502,511.8494987124732
2002.0,71363.0,2002.0,108396.0,2002.0,61224.0,472.2247362194764,131.07440539334576,509.9379928523379
2002.0,71349.0,2002.0,108377.0,2002.0,61225.0,468.8644831858196,130.75412247223852,508.22055522646144
2002.0,71370.0,2002.0,108389.0,2002.0,61222.0,465.6217230896808,130.47886208277035,506.68924586211165
2002.0,71376.0,2002.0,108423.0,2002.0,61234.0,462.4959988213466,130.2459439106334,505.3358077052519
2002.0,71350.0,2002.0,108406.0,2002.0,61218.0,459.48653153384566,130.05257688467043,504.1517667380432
2012.0,71361.0,2012.0,108372.0,2012.0,61208.0,456.59235387933904,129.89612956501765,503.128445586237
2012.0,71369.0,2012.0,108404.0,2012.0,61238.0,453.8122939384342,129.774016821687,502.25687469957836
2012.0,71373.0,2012.0,108434.0,2012.0,61242.0,451.14508307377776,129.68354084854246,501.52784625447975
2012.0,71363.0,2012.0,108390.0,2012.0,61216.0,448.5895978616275,129.62212574207825,500.93216975455084
2012.0,71355.0,2012.0,108381.0,2012.0,61223.0,446.14499126973726,129.5874984896975,500.46076737873835
2012.0,71316.0,2012.0,108381.0,2012.0,61215.0,443.810565384784,129.5773894463546,500.10450818653027
2023.0,71333.0,2023.0,108391.0,2023.0,61230.0,441.5854059551219,129.58914699927263,499.8540688412845
2023.0,71349.0,2023.0,108400.0,2023.0,61248.0,439.46807626105476,129.61967326470014,499.7000073289189
2023.0,71330.0,2023.0,108368.0,2023.0,61222.0,437.456661759353,129.6655331725934,499.63299330732445
2023.0,71350.0,2023.0,108412.0,2023.0,61233.0,435.54898543787203,129.7229719322721,499.64394647174134
2023.0,71345.0,2023.0,108406.0,2023.0,61237.0,433.74276525883863,129.78796038793575,499.72399419124673
2023.0,71323.0,2023.0,108385.0,2023.0,61226.0,432.0357198295417,129.8563938540017,499.86443893779335
2033.0,71312.0,2033.0,108430.0,2033.0,61231.0,430.4254969017385,129.92422802073764,500.0567600784166
2033.0,71327.0,2033.0,108450.0,2033.0,61245.0,428.909410608219,129.98766538791986,500.2925976942798
2033.0,71319.0,2033.0,108414.0,2033.0,61237.0,427.4842850002467,130.04360484250415,500.56382191001677
2033.0,71300.0,2033.0,108387.0,2033.0,61226.0,426.1464565905603,130.0898566647389,500.86262526650745
2033.0,71292.0,2033.0,108416.0,2033.0,61215.0,424.89166078048214,130.1247952190668,501.1814279318894
2033.0,71345.0,2033.0,108398.0,2033.0,61204.0,423.7148609777074,130.1469755685313,501.51258588503885
2043.0,71315.0,2043.0,108390.0,2043.0,61215.0,422.61039897707764,130.15502976909906,501.84807433468853
2043.0,71322.0,2043.0,108417.0,2043.0,61202.0,421.5723534367714,130.1476162365255,502.17929435548126
2043.0,71349.0,2043.0,108363.0,2043.0,61220.0,420.5947443831844,130.12334330635687,502.4970151441412
2043.0,71313.0,2043.0,108392.0,2043.0,61226.0,419.67167095120686,130.0806164382853,502.7914299128712
2043.0,71316.0,2043.0,108386.0,2043.0,61242.0,418.79739064478275,130.01740708826355,503.0523621425979
2043.0,71310.0,2043.0,108379.0,2043.0,61225.0,417.96616626830325,129.93115983942863,503.26954358412695
2054.0,71315.0,2054.0,108398.0,2054.0,61219.0,417.1720648725903,129.81882773995844,503.43273565163383
2054.0,71324.0,2054.0,108396.0,2054.0,61235.0,416.4089315112686,129.67694890993837,503.53164192121915
2054.0,71322.0,2054.0,108424.0,2054.0,61256.0,415.67051169014064,129.50185153379093,503.55589740717915
2054.0,71339.0,2054.0,108429.0,2054.0,61240.0,414.9506417578869,129.29000960658072,503.49531505771733
2054.0,71309.0,2054.0,108404.0,2054.0,61249.0,414.2434183933671,129.03839979336487,503.3401469549405
2054.0,71311.0,2054.0,108373.0,2054.0,61229.0,413.5432016782886,128.7445255976787,503.081127817141
2064.0,71301.0,2064.0,108400.0,2064.0,61230.0,412.8444134946602,128.406021917175,502.70934361389936
2064.0,71310.0,2064.0,108402.0,2064.0,61247.0,412.14132368376613,128.02031766687514,502.2160814192465
2064.0,71323.0,2064.0,108401.0,2064.0,61237.0,411.42801640072446,127.58468641517969,501.5928287593659
2064.0,71315.0,2064.0,108457.0,2064.0,61274.0,410.6985449447283,127.09654345510917,500.8314591612874
2064.0,71313.0,2064.0,108390.0,2064.0,61239.0,409.94710728484455,126.55383559212727,499.9245009644713
2064.0,71300.0,2064.0,108398.0,2064.0,61235.0,409.16806438402,125.95520600400086,498.865275139063
2074.0,71314.0,2074.0,108431.0,2074.0,61229.0,408.35583591043746,125.29978043417786,497.6477364049537
2074.0,71313.0,2074.0,108422.0,2074.0,61250.0,407.5048576759639,124.5871029521958,496.266246546499
2074.0,71315.0,2074.0,108408.0,2074.0,61260.0,406.6096758587348,123.81738522971406,494.71563022092585
2074.0,71304.0,2074.0,108383.0,2074.0,61218.0,405.6650547410145,122.9915391317281,492.9914163018833
2074.0,71290.0,2074.0,108381.0,2074.0,61229.0,404.66594433453287,122.11081857673797,491.0898520842429
2074.0,71295.0,2074.0,108373.0,2074.0,61192.0,403.607299966574,121.17637824414227,489.007589307049
2085.0,71299.0,2085.0,108407.0,2085.0,61205.0,402.483919935973,120.18905062656505,486.74128901076614
2085.0,71296.0,2085.0,108393.0,2085.0,61234.0,401.29044306214405,119.14945876736016,484.2874104463445
2085.0,71305.0,2085.0,108415.0,2085.0,61216.0,400.02145165440726,118.05832299473317,481.6423662786224
2085.0,71329.0,2085.0,108391.0,2085.0,61232.0,398.6716497161633,116.91671271083001,478.80287420260726
2085.0,71268.0,2085.0,108382.0,2085.0,61216.0,397.23608012843454,115.7260914302511,475.7661853356213
2085.0,71293.0,2085.0,108389.0,2085.0,61197.0,395.7100956366474,114.48815300791586,472.53011865577594
2095.0,71329.0,2095.0,108435.0,2095.0,61225.0,394.08916474839793,113.20475054277438,469.09296430747406
2095.0,71319.0,2095.0,108386.0,2095.0,61222.0,392.3690631411934,111.87817288940909,465.45348452230206
2095.0,71295.0,2095.0,108356.0,2095.0,61204.0,390.5463252528828,110.51132552146191,461.61112148776846
2095.0,71280.0,2095.0,108371.0,2095.0,61195.0,388.618308596892,109.10735224087844,457.56610661914107
2095.0,71299.0,2095.0,108330.0,2095.0,61185.0,386.5828830545279,107.66904976859547,453.31930935168737
2095.0,71289.0,2095.0,108377.0,2095.0,61184.0,384.4382430638094,106.19851629098238,448.8720278159709
2105.0,71291.0,2105.0,108348.0,2105.0,61178.0,382.18297026851394,104.69708244549587,444.22587921772214
2105.0,71292.0,2105.0,108374.0,2105.0,61164.0,379.81613621810556,103.16544575282379,439.38275952378694
2105.0,71269.0,2105.0,108373.0,2105.0,61164.0,377.3373318331043,101.60387286236391,434.3447833568049
2105.0,71258.0,2105.0,108369.0,2105.0,61157.0,374.74655688210703,100.01240887238873,429.1142101066624
2105.0,71268.0,2105.0,108340.0,2105.0,61162.0,372.04397757801513,98.3909763377514,423.6934391603907
2105.0,71256.0,2105.0,108377.0,2105.0,61170.0,369.22976276077975,96.73926277603098,418.08512679126386
2116.0,71276.0,2116.0,108389.0,2116.0,61138.0,366.3041140130909,95.05671034960454,412.2923699843347
2116.0,71254.0,2116.0,108390.0,2116.0,61140.0,363.26740065836225,93.34287486204812,406.3187608078558
2116.0,71255.0,2116.0,108371.0,2116.0,61114.0,360.1202579709287,91.59783635862816,400.1682282543752
2116.0,71228.0,2116.0,108328.0,2116.0,61122.0,356.8635231135636,89.82219791008977,393.84482326042223
2116.0,71222.0,2116.0,108339.0,2116.0,61084.0,353.49799461470195,88.01661793624513,387.35254593926265
2116.0,71239.0,2116.0,108328.0,2116.0,61108.0,350.0241732090506,86.18126056015302,380.69518656405427
2126.0,71230.0,2126.0,108351.0,2126.0,61114.0,346.44221472026175,84.315558601616,373.8762975460189
2126.0,71231.0,2126.0,108366.0,2126.0,61104.0,342.75208889704186,82.41835801398513,366.899441989188
2126.0,71212.0,2126.0,108358.0,2126.0,61072.0,338.95369527724597,80.48829604887881,359.7684637130896
2126.0,71235.0,2126.0,108337.0,2126.0,61077.0,335.0468632241551,78.52410152880961,352.48744470975555
2126.0,71216.0,2126.0,108363.0,2126.0,61074.0,331.03139600835027,76.52461084862911,345.06051787547847
2126.0,71230.0,2126.0,108367.0,2126.0,61054.0,326.90721357785696,74.48876080347901,337.4918242748457
2136.0,71236.0,2136.0,108384.0,2136.0,61076.0,322.67453937886086,72.41584969335854,329.78558039803596
2136.0,71202.0,2136.0,108344.0,2136.0,61057.0,318.3340907500394,70.30587650566024,321.94621075146864
2136.0,71187.0,2136.0,108306.0,2136.0,61016.0,313.8870725315086,68.15949881146226,313.9784646921888
2136.0,71188.0,2136.0,108291.0,2136.0,61007.0,309.33487672550115,65.9774231943445,305.8872320155026
2136.0,71194.0,2136.0,108319.0,2136.0,60999.0,304.67881601212446,63.759659248782384,297.67710975819915
2136.0,71167.0,2136.0,108354.0,2136.0,61006.0,299.9201015425198,61.505317100330274,289.3521389696295
2147.0,71174.0,2147.0,108357.0,2147.0,60987.0,295.0598545001088,59.21311034604081,280.9158408198996
2147.0,71172.0,2147.0,108352.0,2147.0,60994.0,290.09905020281826,56.88206458036203,272.37135358773907
2147.0,71170.0,2147.0,108336.0,2147.0,60982.0,285.0385485102328,54.51189525415292,263.72155303373376
2147.0,71161.0,2147.0,108336.0,2147.0,61004.0,279.87921252508,52.102988109514186,254.96922688204234
2147.0,71198.0,2147.0,108358.0,2147.0,60994.0,274.62206294077475,49.65629182528309,246.11739033049872
2147.0,71149.0,2147.0,108311.0,2147.0,60960.0,269.2685307370149,47.173339398063064,237.16960892625679
2157.0,71160.0,2157.0,108362.0,2157.0,60954.0,263.8206402164659,44.65628489935601,228.1300352639326
2157.0,71136.0,2157.0,108309.0,2157.0,60918.0,258.2809240084272,42.10789687030423,219.00313307874336
2157.0,71130.0,2157.0,108290.0,2157.0,60923.0,252.65221972653737,39.531455667121435,209.79332537482975
2157.0,71106.0,2157.0,108272.0,2157.0,60928.0,246.93746557467912,36.93031991887209,200.50479107765426
2157.0,71111.0,2157.0,108314.0,2157.0,60894.0,241.13946850166968,34.30739269952514,191.14149708664735
2157.0,71122.0,2157.0,108342.0,2157.0,60893.0,235.26077837565288,31.6651227561927,181.70725512373667
2167.0,71115.0,2167.0,108320.0,2167.0,60896.0,229.3038198645897,29.00609736226717,172.20566563339816
2167.0,71098.0,2167.0,108280.0,2167.0,60884.0,223.27113218162702,26.33351233838613,162.64015097875546
2167.0,71089.0,2167.0,108285.0,2167.0,60859.0,217.16543531607238,23.65098893877787,153.01407983688375
2167.0,71096.0,2167.0,108302.0,2167.0,60860.0,210.9895408773241,20.962128076026715,143.33075804639185
2167.0,71079.0,2167.0,108271.0,2167.0,60877.0,204.74632602280857,18.27036436314816,133.5933930510074
2167.0,71078.0,2167.0,108291.0,2167.0,60836.0,198.4387865662932,15.57900855364963,123.80525241327166
2178.0,71062.0,2178.0,108281.0,2178.0,60824.0,192.07004572458916,12.891247565327575,113.9697916574201
2178.0,71045.0,2178.0,108245.0,2178.0,60828.0,185.64327388106668,10.21010400256796,104.09052872297406
2178.0,71038.0,2178.0,108270.0,2178.0,60803.0,179.16152128783344,7.538259960184831,94.17090573636244
2178.0,71012.0,2178.0,108256.0,2178.0,60784.0,172.62749395946906,4.877840126596425,84.21424119463273
2178.0,71035.0,2178.0,108241.0,2178.0,60775.0,166.04335967988243,2.230346354167125,74.22358829011796
2178.0,71024.0,2178.0,108261.0,2178.0,60783.0,159.4107317658145,-0.4033777944023882,64.20158021563384
2188.0,71023.0,2188.0,108270.0,2188.0,60759.0,152.73086087002224,-3.023126264401782,54.15046067351824
2188.0,71007.0,2188.0,108248.0,2188.0,60754.0,146.00482430108576,-5.629124003505069,44.072194266715314
2188.0,70979.0,2188.0,108275.0,2188.0,60755.0,139.2335165146323,-8.221824971731422,33.96851301126242
2188.0,71018.0,2188.0,108270.0,2188.0,60761.0,132.4175095445766,-10.801773350779058,23.841028419349584
2188.0,71020.0,2188.0,108271.0,2188.0,60741.0,125.55713546946134,-13.3693903298566,13.691494087388946
2188.0,71023.0,2188.0,108292.0,2188.0,60712.0,118.65295885900787,-15.924726928347127,3.5219880268485895
2198.0,70963.0,2198.0,108211.0,2198.0,60689.0,111.70620003616278,-18.467348790700385,-6.665228169413467
2198.0,70958.0,2198.0,108233.0,2198.0,60697.0,104.71860927227607,-20.99661198845004,-16.8680479241674
2198.0,70956.0,2198.0,108225.0,2198.0,60667.0,97.69196186646087,-23.512230678462174,-27.08473636229394
2198.0,70933.0,2198.0,108235.0,2198.0,60663.0,90.62769617353968,-26.014586182832005,-37.31399479909487
2198.0,70965.0,2198.0,108253.0,2198.0,60657.0,83.52684832776094,-28.504611551749065,-47.5550167719955
2198.0,70934.0,2198.0,108228.0,2198.0,60638.0,76.3901864764544,-30.98351468137966,-57.807515423098266
2209.0,70932.0,2209.0,108249.0,2209.0,60650.0,69.21839877871179,-33.45257471128221,-68.07168381121573
2209.0,70912.0,2209.0,108231.0,2209.0,60642.0,62.01211860224538,-35.91306630677056,-78.3480659060225
2209.0,70915.0,2209.0,108224.0,2209.0,60622.0,54.77180510652977,-38.366251075554175,-88.63734635833453
2209.0,70910.0,2209.0,108255.0,2209.0,60631.0,47.497683585103744,-40.81339155723185,-98.94019664743598
2209.0,70920.0,2209.0,108252.0,2209.0,60619.0,40.189844711870364,-43.25561573039283,-109.25717354185298
2209.0,70903.0,2209.0,108220.0,2209.0,60610.0,32.84846422970986,-45.69364414217844,-119.58856664787032
2219.0,70885.0,2219.0,108241.0,2219.0,60595.0,25.473967010008494,-48.12772770551376,-129.9342780053475
2219.0,70862.0,2219.0,108207.0,2219.0,60574.0,18.06695131498367,-50.5578184039081,-140.293836935858
2219.0,70865.0,2219.0,108219.0,2219.0,60560.0,10.627925864356314,-52.9837523097827,-150.66654003070772
2219.0,70855.0,2219.0,108207.0,2219.0,60563.0,3.1571086036599922,-55.4054064656537,-161.05161511008635
2219.0,70856.0,2219.0,108183.0,2219.0,60555.0,-4.345583324239783,-57.8228539161957,-171.4482452567325
2219.0,70843.0,2219.0,108215.0,2219.0,60525.0,-11.880439433381468,-60.23653308314424,-181.85547521293745
2230.0,70851.0,2230.0,108204.0,2230.0,60522.0,-19.447850666485692,-62.64729791460067,-192.27222277943372
2230.0,70849.0,2230.0,108198.0,2230.0,60523.0,-27.048160699901644,-65.05627189360968,-202.69738513171188
2230.0,70844.0,2230.0,108227.0,2230.0,60511.0,-34.68143937115309,-67.46468396781466,-213.12981141192682
2230.0,70836.0,2230.0,108221.0,2230.0,60519.0,-42.34726524360394,-69.87366613003758,-223.56811735152922
2230.0,70812.0,2230.0,108229.0,2230.0,60480.0,-50.04463873413823,-72.28392761879087,-234.0105038641218
2230.0,70813.0,2230.0,108205.0,2230.0,60476.0,-57.7720541534768,-74.69551212592322,-244.45473953248728
2240.0,70803.0,2240.0,108158.0,2240.0,60427.0,-65.5276153418132,-77.10790309829719,-254.89838597578182
2240.0,70756.0,2240.0,108168.0,2240.0,60460.0,-73.30914638048273,-79.52054593734186,-265.3391366518706
2240.0,70762.0,2240.0,108158.0,2240.0,60429.0,-81.11445731420116,-81.93345926541247,-275.77497978179997
2240.0,70788.0,2240.0,108189.0,2240.0,60418.0,-88.94162734125683,-84.3474839823314,-286.2041369030012
2240.0,70750.0,2240.0,108195.0,2240.0,60406.0,-96.78893317852135,-86.76407904150852,-296.6250462729545
2240.0,70758.0,2240.0,108188.0,2240.0,60405.0,-104.65460480117986,-89.18489462480849,-307.0364417769291
2250.0,70740.0,2250.0,108165.0,2250.0,60397.0,-112.53676883842314,-91.61149503813613,-317.437337164391
2250.0,70722.0,2250.0,108193.0,2250.0,60381.0,-120.4335209984419,-94.04538508096192,-327.8269176819724
2250.0,70747.0,2250.0,108201.0,2250.0,60378.0,-128.34298390203372,-96.48801402351918,-338.2044686569028
2250.0,70720.0,2250.0,108147.0,2250.0,60382.0,-136.26323908444544,-98.9406033420698,-348.56931677729006
2250.0,70697.0,2250.0,108189.0,2250.0,60349.0,-144.19220203565533,-101.40414422232601,-358.92071124296365
2250.0,70686.0,2250.0,108162.0,2250.0,60332.0,-152.1277236644604,-103.87956883986345,-369.25779861525814
2261.0,70662.0,2261.0,108193.0,2261.0,60310.0,-160.06790611257344,-106.36773921117845,-379.5798451950553
2261.0,70665.0,2261.0,108183.0,2261.0,60341.0,-168.01139621221301,-108.86923537374722,-389.88648434864035
2261.0,70669.0,2261.0,108167.0,2261.0,60315.0,-175.95751094012343,-111.38414726458052,-400.1776569170395
2261.0,70674.0,2261.0,108180.0,2261.0,60300.0,-183.90610586928352,-113.91202408470951,-410.45335602833336
2261.0,70673.0,2261.0,108137.0,2261.0,60314.0,-191.85724330869573,-116.45198924281138,-420.7134980907231
2261.0,70660.0,2261.0,108158.0,2261.0,60301.0,-199.81085846676598,-119.00295815698226,-430.9578349763218
2271.0,70646.0,2271.0,108160.0,2271.0,60270.0,-207.76658756434068,-121.56383347038724,-441.18579609891367
2271.0,70645.0,2271.0,108161.0,2271.0,60284.0,-215.72377004680004,-124.13347331972957,-451.3964566985426
2271.0,70624.0,2271.0,108156.0,2271.0,60273.0,-223.68150753459832,-126.71050554665891,-461.58857164374217
2271.0,70614.0,2271.0,108161.0,2271.0,60261.0,-231.63873703775653,-129.2932064527805,-471.76046836595754
2271.0,70610.0,2271.0,108146.0,2271.0,60234.0,-239.59434274877276,-131.87945831132168,-481.9099547963177
2271.0,70597.0,2271.0,108115.0,2271.0,60210.0,-247.54723966686566,-134.46683021425136,-492.0344669943263
2281.0,70587.0,2281.0,108120.0,2281.0,60196.0,-255.49640278281026,-137.05288957927934,-502.1314140419652
2281.0,70580.0,2281.0,108114.0,2281.0,60198.0,-263.4409045962266,-139.63558047088446,-512.1984976764303
2281.0,70595.0,2281.0,108116.0,2281.0,60211.0,-271.3799083838351,-142.2134077513435,-522.2337659220432
2281.0,70563.0,2281.0,108171.0,2281.0,60181.0,-279.312536303499,-144.78532391697559,-532.2353846082335
2281.0,70555.0,2281.0,108125.0,2281.0,60189.0,-287.23777223767775,-147.3503105759317,-542.2013980192654
2281.0,70535.0,2281.0,108133.0,2281.0,60156.0,-295.1545815426764,-149.90698244885974,-552.1296669463702
2292.0,70544.0,2292.0,108123.0,2292.0,60160.0,-303.0621141720054,-152.45357212792382,-562.0179295691382
2292.0,70539.0,2292.0,108079.0,2292.0,60150.0,-310.959748362459,-154.9881843365015,-571.8638698860678
2292.0,70547.0,2292.0,108116.0,2292.0,60133.0,-318.84691824802314,-157.50914772837157,-581.6651209157835
2292.0,70522.0,2292.0,108118.0,2292.0,60103.0,-326.72286303901353,-160.01523155713832,-591.4193059552439
2292.0,70497.0,2292.0,108085.0,2292.0,60108.0,-334.5865406354145,-162.5055451335324,-601.1242393958416
2292.0,70482.0,2292.0,108084.0,2292.0,60076.0,-342.43684533819874,-164.9794944982405,-610.7781637276051
2302.0,70504.0,2302.0,108065.0,2302.0,60097.0,-350.2729111313354,-167.4370614455265,-620.3798750707364
2302.0,70475.0,2302.0,108115.0,2302.0,60066.0,-358.0941646327914,-169.87905481198422,-629.9287190784692
2302.0,70488.0,2302.0,108101.0,2302.0,60073.0,-365.90017631286514,-172.306963690437,-639.4245179639186
