c_ts,c_val,d_ts,d_val,e_ts,e_val,c_val_filtered,d_val_filtered,e_val_filtered
345670,6902,345670.0,18785.0,345670.0,26354.0,156.61112071925078,71.05693251170952,102.55534165286863
345670,6901,345670.0,18752.0,345670.0,26337.0,153.16508035080324,67.99596690861217,100.70300344728702
345670,6877,345670.0,18727.0,345670.0,26337.0,149.6498881584961,64.91259251996807,98.78580208687144
345670,6871,345670.0,18711.0,345670.0,26326.0,146.07286142505387,61.817904942883416,96.80570811775983
345680,6857,345680.0,18731.0,345680.0,26356.0,142.44088815844546,58.72139812478439,94.76429758273899
345680,6865,345680.0,18736.0,345680.0,26330.0,138.76019114351675,55.63078231498315,92.66284691372205
345680,6884,345680.0,18746.0,345680.0,26359.0,135.03629603426555,52.55221691525243,90.50253091607152
345680,6862,345680.0,18744.0,345680.0,26336.0,131.27424578191176,49.49068679898577,88.28459225844806
345680,6845,345680.0,18727.0,345680.0,26330.0,127.47879003848034,46.45026285848071,86.01042373887674
345680,6837,345680.0,18722.0,345680.0,26325.0,123.65427009686017,43.43412923928384,83.68149245481129
345691,6856,345691.0,18754.0,345691.0,26334.0,119.80438337072682,40.44451271654,81.29919892258141
345691,6840,345691.0,18772.0,345691.0,26351.0,115.9321632106854,37.482882424706425,78.86491192056668
345691,6837,345691.0,18780.0,345691.0,26288.0,112.04011322446532,34.550531168047684,76.38012032174933
345691,6834,345691.0,18719.0,345691.0,26307.0,108.13025922580907,31.649088992113178,73.84631736403401
345691,6830,345691.0,18706.0,345691.0,26303.0,104.20412884699985,28.78041447045736,71.26462540587502
345691,6815,345691.0,18692.0,345691.0,26320.0,100.26273564879723,25.945924365896246,68.63564276502834
345701,6843,345701.0,18724.0,345701.0,26305.0,96.30657577171146,23.146011224918027,65.95961986187513
345701,6835,345701.0,18761.0,345701.0,26318.0,92.33575851633321,20.380079078269404,63.236669183173625
345701,6827,345701.0,18743.0,345701.0,26317.0,88.35027690399173,17.647154735828238,60.466909892272454
345701,6810,345701.0,18724.0,345701.0,26326.0,84.35014905553977,14.94648173935316,57.65064421632613
345701,6811,345701.0,18710.0,345701.0,26292.0,80.33531908084807,12.277580949752078,54.788521081262076
345701,6799,345701.0,18698.0,345701.0,26289.0,76.3054955641824,9.639907308714129,51.88148056317843
345711,6798,345711.0,18737.0,345711.0,26296.0,72.26005311779684,7.0325662228712815,48.930501395674625
345711,6810,345711.0,18704.0,345711.0,26307.0,68.19801927377844,4.454358744592724,45.93648744036676
345711,6823,345711.0,18757.0,345711.0,26297.0,64.1182337521262,1.904062486426227,42.90043070142177
345711,6780,345711.0,18706.0,345711.0,26276.0,60.01962346856811,-0.6192601388092669,39.82357562739955
345711,6777,345711.0,18680.0,345711.0,26252.0,55.901245236508274,-3.116181305088503,36.70728718013207
345711,6775,345711.0,18693.0,345711.0,26279.0,51.76200917621259,-5.587259153183808,33.552703579417596
345722,6777,345722.0,18691.0,345722.0,26263.0,47.60045320220661,-8.033469015906405,30.36054806896189
345722,6785,345722.0,18714.0,345722.0,26267.0,43.414785162328656,-10.456240917630893,27.131206924838352
345722,6790,345722.0,18724.0,345722.0,26268.0,39.20310565414309,-12.857137719846534,23.864849049603805
345722,6768,345722.0,18679.0,345722.0,26266.0,34.963659793614966,-15.23748957003535,20.561514283152803
345722,6759,345722.0,18692.0,345722.0,26266.0,30.694917645115964,-17.598342805575044,17.221221014791965
345722,6778,345722.0,18699.0,345722.0,26250.0,26.39547729541684,-19.940674702280702,13.844038452446469
345732,6768,345732.0,18691.0,345732.0,26264.0,22.064069892082074,-22.265455124534284,10.430085095586008
345732,6760,345732.0,18672.0,345732.0,26265.0,17.69972537721216,-24.57356718733378,6.979560664916278
345732,6745,345732.0,18683.0,345732.0,26232.0,13.301841942880145,-26.865870219435095,3.492843862447131
345732,6731,345732.0,18649.0,345732.0,26228.0,8.87004793309319,-29.14337869062372,-0.02957272563341462
345732,6731,345732.0,18669.0,345732.0,26226.0,4.403973587043367,-31.40745184064035,-3.5873652357655885
345732,6741,345732.0,18668.0,345732.0,26239.0,-0.09688320538785433,-33.6599150502268,-7.18056295816983
345742,6731,345742.0,18697.0,345742.0,26239.0,-4.633085819790892,-35.90293887061527,-10.809446396752023
345742,6731,345742.0,18690.0,345742.0,26252.0,-9.205091751696955,-38.13865744178611,-14.474266215793989
345742,6716,345742.0,18663.0,345742.0,26230.0,-13.813167481463864,-40.368815625782915,-18.174959132276186
345742,6702,345742.0,18639.0,345742.0,26224.0,-18.45744200160516,-42.594809059090394,-21.91103074257272
345742,6718,345742.0,18635.0,345742.0,26222.0,-23.138032216596542,-44.818133257309,-25.681645762667685
345742,6710,345742.0,18709.0,345742.0,26231.0,-27.855062124851344,-47.04071151023501,-29.48572535096345
345753,6718,345753.0,18691.0,345753.0,26219.0,-32.60850090348316,-49.26455106710819,-33.32188964410771
345753,6688,345753.0,18650.0,345753.0,26205.0,-37.39799393471506,-51.49107563303022,-37.18837505978264
345753,6679,345753.0,18652.0,345753.0,26175.0,-42.22289724456451,-53.72100229194737,-41.08315711586026
345753,6669,345753.0,18619.0,345753.0,26182.0,-47.08252346130095,-55.95480733427439,-45.004299059242655
345753,6674,345753.0,18640.0,345753.0,26187.0,-51.97638479975865,-58.193216346005144,-48.95025721286555
345753,6673,345753.0,18649.0,345753.0,26182.0,-56.9042448871474,-60.437404862739555,-52.919906326532896
345763,6670,345763.0,18688.0,345763.0,26213.0,-61.86600575524494,-62.68877599817549,-56.91232950376052
345763,6652,345763.0,18647.0,345763.0,26170.0,-66.86159393014131,-64.94843643564079,-60.92652857077411
345763,6659,345763.0,18621.0,345763.0,26177.0,-71.89095895369229,-67.21691309895851,-64.96127955425106
345763,6639,345763.0,18634.0,345763.0,26166.0,-76.95413374824517,-69.49442212246032,-69.01524663101429
345763,6642,345763.0,18637.0,345763.0,26158.0,-82.05128802112765,-71.78124690850458,-73.08715424192212
345763,6642,345763.0,18655.0,345763.0,26156.0,-87.18275649535761,-74.07773350021745,-77.17588587089776
345773,6645,345773.0,18632.0,345773.0,26176.0,-92.34897315645281,-76.38402265959525,-81.28049738768595
345773,6623,345773.0,18631.0,345773.0,26141.0,-97.55033579173454,-78.69988898261954,-85.40010249366804
345773,6626,345773.0,18617.0,345773.0,26161.0,-102.78716270825078,-81.02482466199015,-89.53376993974175
345773,6607,345773.0,18586.0,345773.0,26136.0,-108.05977602180604,-83.35829707449477,-93.68054385153386
345773,6603,345773.0,18609.0,345773.0,26132.0,-113.3686244879444,-85.70009723426458,-97.83951838685434
345773,6619,345773.0,18655.0,345773.0,26148.0,-118.71435884489301,-88.05047152138093,-102.009914140098
345784,6619,345784.0,18611.0,345784.0,26153.0,-124.09772204263405,-90.40975742004142,-106.19101263972641
345784,6608,345784.0,18620.0,345784.0,26142.0,-129.519270530102,-92.77795836127916,-110.38189027895504
345784,6588,345784.0,18597.0,345784.0,26118.0,-134.9792038300453,-95.15475145045986,-114.58123705038824
345784,6588,345784.0,18601.0,345784.0,26143.0,-140.4774480945852,-97.53973785189626,-118.7874240385315
345784,6589,345784.0,18624.0,345784.0,26130.0,-146.01380543094575,-99.9325776423303,-122.99856067866799
345784,6585,345784.0,18612.0,345784.0,26119.0,-151.587956510163,-102.33286546169711,-127.21239815184975
345794,6575,345794.0,18600.0,345794.0,26097.0,-157.19935896457338,-104.73990482377937,-131.42632991933456
345794,6562,345794.0,18579.0,345794.0,26096.0,-162.8472115787859,-107.15271703904813,-135.637623034545
345794,6546,345794.0,18570.0,345794.0,26065.0,-168.5305591709922,-109.57034346010721,-139.84373460776175
345794,6533,345794.0,18575.0,345794.0,26081.0,-174.24850985862236,-111.99220228031368,-144.04260625165958
345794,6551,345794.0,18579.0,345794.0,26069.0,-180.00043724411768,-114.41826111450223,-148.23285159078065
345794,6562,345794.0,18625.0,345794.0,26087.0,-185.7859388695644,-116.84888371933513,-152.41373976183863
345804,6540,345804.0,18604.0,345804.0,26076.0,-191.60452263093185,-119.28434681004873,-156.58501542511266
345804,6546,345804.0,18553.0,345804.0,26055.0,-197.45533079822508,-121.7244296873275,-160.74674149529844
345804,6509,345804.0,18570.0,345804.0,26058.0,-203.33711819983466,-124.16858462214901,-164.89934066573807
345804,6506,345804.0,18609.0,345804.0,26087.0,-209.24845019783288,-126.61633385554958,-169.04368597038754
345804,6528,345804.0,18571.0,345804.0,26079.0,-215.18793633591423,-129.0671970714224,-173.1809044345667
345804,6501,345804.0,18567.0,345804.0,26032.0,-221.15423864651302,-131.5204164883764,-177.31206985262494
345815,6495,345815.0,18560.0,345815.0,26043.0,-227.14594168277335,-133.97503206238042,-181.4382845166962
345815,6478,345815.0,18533.0,345815.0,26037.0,-233.16159799639627,-136.4301874256292,-185.56104665251848
345815,6471,345815.0,18547.0,345815.0,26023.0,-239.19993291833327,-138.8854318388413,-189.68245830700508
345815,6488,345815.0,18562.0,345815.0,26054.0,-245.25998203268978,-141.34088663964803,-193.80522304401657
345815,6467,345815.0,18577.0,345815.0,26059.0,-251.3410359147718,-143.79707382938886,-197.93244957088388
345815,6441,345815.0,18550.0,345815.0,26079.0,-257.44255203947216,-146.25452619617857,-202.06718835897135
345825,6467,345825.0,18563.0,345825.0,26033.0,-263.564248398448,-148.71356549164247,-206.2119480578338
345825,6468,345825.0,18538.0,345825.0,26007.0,-269.7061461177533,-151.17434173853465,-210.36864289880015
345825,6442,345825.0,18528.0,345825.0,26021.0,-275.86835466807014,-153.6370041418548,-214.5390296959111
345825,6459,345825.0,18584.0,345825.0,26041.0,-282.0508809665915,-156.10183967641063,-218.72506976283788
345825,6429,345825.0,18507.0,345825.0,26015.0,-288.2536101018524,-158.5691911398833,-222.92882106175966
345825,6445,345825.0,18537.0,345825.0,26036.0,-294.4763200712259,-161.03938941364297,-227.15217014998797
345835,6413,345835.0,18496.0,345835.0,25997.0,-300.7186981567228,-163.5130135958364,-231.3967337264806
345835,6417,345835.0,18525.0,345835.0,26011.0,-306.9804075162986,-165.99122805320388,-235.66392769595882
345835,6399,345835.0,18534.0,345835.0,25988.0,-313.26121209592435,-168.47585840947878,-239.95512274985782
345835,6419,345835.0,18541.0,345835.0,25993.0,-319.56106071121116,-170.96914167346634,-244.27178927887005
345835,6403,345835.0,18537.0,345835.0,26035.0,-325.88000888402985,-173.4733346092647,-248.6154818170292
345835,6378,345835.0,18578.0,345835.0,25996.0,-332.21809378949195,-175.99036444006052,-252.98753952501556
345846,6381,345846.0,18521.0,345846.0,25978.0,-338.57539908812237,-178.52150360525582,-257.3887981286107
345846,6392,345846.0,18461.0,345846.0,25971.0,-344.952200362294,-181.06739028311117,-261.8197362283904
345846,6379,345846.0,18522.0,345846.0,26004.0,-351.34889973991034,-183.62867593263377,-266.2807766809647
345846,6388,345846.0,18549.0,345846.0,25955.0,-357.76580433870015,-186.20650046119175,-270.7722897226023
345846,6348,345846.0,18566.0,345846.0,25997.0,-364.2029954147786,-188.80201586387344,-275.29445769483084
345846,6352,345846.0,18523.0,345846.0,25958.0,-370.6604157021999,-191.4155512507854,-279.84721587548336
345856,6341,345856.0,18488.0,345856.0,25942.0,-377.1380960162344,-194.0463987115079,-284.43027952950706
345856,6341,345856.0,18484.0,345856.0,25942.0,-383.63629851241967,-196.69334952687828,-289.0433644381651
345856,6322,345856.0,18505.0,345856.0,25958.0,-390.15553410148067,-199.3553372051345,-293.68643699300384
345856,6314,345856.0,18519.0,345856.0,25964.0,-396.69660983766914,-202.03157216585322,-298.3596376887126
345856,6331,345856.0,18456.0,345856.0,25921.0,-403.2607082880743,-204.72131785836933,-303.0630136058873
345856,6343,345856.0,18500.0,345856.0,25950.0,-409.849272201836,-207.42389319467867,-307.796460577462
345867,6295,345867.0,18470.0,345867.0,25934.0,-416.4636964676695,-210.13889929720483,-312.55981635148305
345867,6305,345867.0,18456.0,345867.0,25933.0,-423.1052239648945,-212.86635083514142,-317.3528295289958
345867,6313,345867.0,18524.0,345867.0,25923.0,-429.7750938344484,-215.60669981831091,-322.1750872553261
345867,6308,345867.0,18481.0,345867.0,25932.0,-436.4745232216942,-218.36060816510638,-327.02601297826095
345867,6295,345867.0,18500.0,345867.0,25916.0,-443.2044860255849,-221.12851760281902,-331.90483917315134
345867,6266,345867.0,18463.0,345867.0,25912.0,-449.9656447911248,-223.91048233789525,-336.8105692204718
345877,6275,345877.0,18454.0,345877.0,25880.0,-456.75854094826144,-226.7063778124309,-341.742066073683
345877,6262,345877.0,18459.0,345877.0,25887.0,-463.5838066003621,-229.51625686339844,-346.6983061991859
345877,6254,345877.0,18505.0,345877.0,25906.0,-470.44222785116125,-232.3404971116176,-351.678586332635
345877,6264,345877.0,18471.0,345877.0,25894.0,-477.33472238441584,-235.17949470838704,-356.6824240480065
345877,6261,345877.0,18477.0,345877.0,25892.0,-484.2622373431995,-238.0332565573148,-361.70928370490407
345877,6249,345877.0,18448.0,345877.0,25880.0,-491.2255553393925,-240.90135038597856,-366.75844146865904
345887,6234,345887.0,18446.0,345887.0,25857.0,-498.2251805815132,-243.7831620756776,-371.82905822915285
345887,6223,345887.0,18472.0,345887.0,25871.0,-505.26141842556495,-246.67814051429576,-376.92036937435336
345887,6239,345887.0,18482.0,345887.0,25879.0,-512.3345026254715,-249.58572238551076,-382.03178097793705
345887,6214,345887.0,18450.0,345887.0,25856.0,-519.4445800438111,-252.50498345876306,-387.162736836493
345887,6206,345887.0,18453.0,345887.0,25853.0,-526.5916378118166,-255.43447173745622,-392.31259112759665
345887,6185,345887.0,18417.0,345887.0,25857.0,-533.7755894720476,-258.37241879728447,-397.4806546766247
345898,6181,345898.0,18410.0,345898.0,25829.0,-540.996501890129,-261.317155320194,-402.666269146113
345898,6197,345898.0,18421.0,345898.0,25845.0,-548.2547463990938,-264.2675305278443,-407.868866671308
345898,6191,345898.0,18439.0,345898.0,25861.0,-555.5508960864881,-267.2230643859259,-413.0879643700452
345898,6175,345898.0,18420.0,345898.0,25844.0,-562.8854663522352,-270.1837435712868,-418.3229358967829
345898,6169,345898.0,18435.0,345898.0,25824.0,-570.2587860893902,-273.1497587051816,-423.57276445443716
345898,6146,345898.0,18430.0,345898.0,25830.0,-577.6710804218612,-276.1213629671931,-428.8360788203103
345908,6156,345908.0,18421.0,345908.0,25806.0,-585.1226273758245,-279.0987731614784,-434.1113429016888
345908,6155,345908.0,18430.0,345908.0,25820.0,-592.6138144370373,-282.08210918153804,-439.39698637375426
345908,6139,345908.0,18440.0,345908.0,25830.0,-600.1450302260987,-285.07132734602834,-444.69139549945106
345908,6144,345908.0,18433.0,345908.0,25798.0,-607.7165349642498,-288.06603427553534,-449.9927500166368
345908,6122,345908.0,18378.0,345908.0,25780.0,-615.328418999632,-291.06538570882185,-455.2989732762329
345908,6122,345908.0,18391.0,345908.0,25769.0,-622.9806230785032,-294.0683981128931,-460.6080203223559
345918,6103,345918.0,18403.0,345918.0,25806.0,-630.6730061925714,-297.0744302648217,-465.91819030314747
345918,6123,345918.0,18436.0,345918.0,25754.0,-638.4053962451201,-300.08322771841074,-471.2281172201403
345918,6110,345918.0,18370.0,345918.0,25805.0,-646.1774980703526,-303.09455648385585,-476.53660501513684
345918,6073,345918.0,18408.0,345918.0,25742.0,-653.9887519036257,-306.10804316409565,-481.842537743739
345918,6082,345918.0,18387.0,345918.0,25762.0,-661.8384155146357,-309.1233267905711,-487.14491749192956
345918,6076,345918.0,18398.0,345918.0,25745.0,-669.7257830012807,-312.1401196509812,-492.44303614230523
345929,6063,345929.0,18390.0,345929.0,25783.0,-677.6502407567972,-315.15812247972474,-497.73654222247126
345929,6075,345929.0,18410.0,345929.0,25758.0,-685.6111869403837,-318.1769154438517,-503.02519846332837
345929,6055,345929.0,18388.0,345929.0,25755.0,-693.6079257763006,-321.195798627708,-508.3085688794197
345929,6044,345929.0,18394.0,345929.0,25753.0,-701.6395852715566,-324.2136650042075,-513.5859207261171
345929,6039,345929.0,18363.0,345929.0,25746.0,-709.7051494427631,-327.2290435291733,-518.856260401096
345929,6023,345929.0,18339.0,345929.0,25723.0,-717.8035625820963,-330.2403710810807,-524.1183798671357
345939,6036,345939.0,18348.0,345939.0,25735.0,-725.9337821476281,-333.246448767914,-529.3709702911401
345939,6027,345939.0,18407.0,345939.0,25744.0,-734.0947074579794,-336.24668802196004,-534.6126916327717
345939,6020,345939.0,18395.0,345939.0,25726.0,-742.2850064868417,-339.2407134447302,-539.84203632741
345939,6013,345939.0,18373.0,345939.0,25717.0,-750.5029804312027,-342.22767252791914,-545.0571793605368
345939,5997,345939.0,18355.0,345939.0,25706.0,-758.7465409754318,-345.2060091386481,-550.2560414393118
345939,5988,345939.0,18338.0,345939.0,25702.0,-767.0132739982637,-348.17379793765053,-555.4364702049395
345949,5992,345949.0,18379.0,345949.0,25714.0,-775.3005250304999,-351.12912980199883,-560.5963392032984
345949,5989,345949.0,18368.0,345949.0,25724.0,-783.6053810703316,-354.0701091645294,-565.7334351644477
345949,5984,345949.0,18353.0,345949.0,25698.0,-791.9245164629432,-356.9945604693215,-570.8451883013213
345949,5965,345949.0,18309.0,345949.0,25683.0,-800.2540486474957,-359.8999861615424,-575.9285533060588
345949,5951,345949.0,18313.0,345949.0,25666.0,-808.5895516114466,-362.7840150793983,-580.9802273093487
345949,5941,345949.0,18341.0,345949.0,25692.0,-816.9262211061539,-365.64490420167135,-585.9969600292544
345960,5946,345960.0,18377.0,345960.0,25701.0,-825.2590339150693,-368.4814907554166,-590.975559565029
345960,5959,345960.0,18370.0,345960.0,25698.0,-833.58270907515,-371.29254617185154,-595.9125332295371
345960,5932,345960.0,18362.0,345960.0,25675.0,-841.891461095728,-374.07609250396445,-600.803729818953
345960,5924,345960.0,18337.0,345960.0,25662.0,-850.1788124780255,-376.8291710924523,-605.6443213966415
345960,5915,345960.0,18353.0,345960.0,25673.0,-858.4376458346471,-379.54801093108756,-610.4290316347967
345960,5905,345960.0,18300.0,345960.0,25681.0,-866.6603440395301,-382.2283074345604,-615.1522425518759
345970,5911,345970.0,18375.0,345970.0,25688.0,-874.8388466210148,-384.86544375851236,-619.807797680889
345970,5906,345970.0,18350.0,345970.0,25667.0,-882.9645821689403,-387.4544200575674,-624.388694104724
345970,5894,345970.0,18317.0,345970.0,25650.0,-891.0283215385105,-389.98953130544317,-628.8869833072122
345970,5864,345970.0,18341.0,345970.0,25652.0,-899.0201322395978,-392.46431393561613,-633.2939579681852
345970,5865,345970.0,18261.0,345970.0,25629.0,-906.9295597797576,-394.87189100448177,-637.6004185383133
345970,5853,345970.0,18256.0,345970.0,25639.0,-914.7458845009385,-397.2055845395114,-641.7968721401677
345980,5872,345980.0,18342.0,345980.0,25663.0,-922.4582073514723,-399.45955648756546,-645.8735811174326
345980,5859,345980.0,18331.0,345980.0,25583.0,-930.0552961320791,-401.62872767468514,-649.8204757038168
345980,5850,345980.0,18318.0,345980.0,25622.0,-937.5253524428169,-403.7079871093283,-653.627285275549
345980,5838,345980.0,18292.0,345980.0,25621.0,-944.8559202809329,-405.6917360365411,-657.2838743444788
345980,5846,345980.0,18329.0,345980.0,25636.0,-952.0339306008835,-407.5740380915919,-660.7802432890603
345980,5808,345980.0,18340.0,345980.0,25647.0,-959.0457506971754,-409.348685648329,-664.1061455814968
345991,5828,345991.0,18300.0,345991.0,25617.0,-965.8772671629974,-411.0089275661551,-667.2507144383726
345991,5815,345991.0,18305.0,345991.0,25641.0,-972.5139745315569,-412.54735434755605,-670.2023177914364
345991,5825,345991.0,18317.0,345991.0,25611.0,-978.9409182765894,-413.956110917042,-672.9485893152807
345991,5794,345991.0,18316.0,345991.0,25590.0,-985.1425654945365,-415.2270021609804,-675.4765691047335
345991,5795,345991.0,18278.0,345991.0,25620.0,-991.1028202895418,-416.3514368401412,-677.772976659535
345991,5795,345991.0,18308.0,345991.0,25571.0,-996.8051681728109,-417.32054809891906,-679.824456717804
346000,5797,346000.0,18308.0,346000.0,25615.0,-1002.2327294099956,-418.1253694244642,-681.617701225176
346000,5772,346000.0,18291.0,346000.0,25566.0,-1007.368195540711,-418.7567931390962,-683.1395429829238
346000,5777,346000.0,18322.0,346000.0,25584.0,-1012.1938519864689,-419.20546349399524,-684.3770821141359
346000,5783,346000.0,18284.0,346000.0,25590.0,-1016.6916792105961,-419.4617382242584,-685.3178396997816
346000,5796,346000.0,18234.0,346000.0,25588.0,-1020.843292179644,-419.5158544561392,-685.9497851970054
346000,5788,346000.0,18345.0,346000.0,25639.0,-1024.629676211171,-419.35835593877647,-686.2611226906859
346010,5766,346010.0,18275.0,346010.0,25601.0,-1028.0309788396557,-418.98019705834156,-686.2398970809429
346010,5744,346010.0,18285.0,346010.0,25597.0,-1031.0266234228345,-418.37243894270136,-685.8737079591848
346010,5745,346010.0,18267.0,346010.0,25570.0,-1033.5957147719391,-417.5262806524484,-685.1498735687878
346010,5726,346010.0,18251.0,346010.0,25571.0,-1035.717468310992,-416.43348848106706,-684.055935967668
346010,5738,346010.0,18277.0,346010.0,25583.0,-1037.3715015364792,-415.08679056870375,-682.580113171449
346010,5752,346010.0,18316.0,346010.0,25603.0,-1038.5379418983975,-413.4799537702497,-680.7114355901795
346021,5765,346021.0,18317.0,346021.0,25579.0,-1039.1972748580185,-411.60737099608855,-678.4396055865451
346021,5735,346021.0,18286.0,346021.0,25589.0,-1039.3300683542357,-409.4635275468933,-675.7549144223668
346021,5726,346021.0,18272.0,346021.0,25595.0,-1038.9169527450404,-407.0429719559165,-672.6483525145447
346021,5751,346021.0,18291.0,346021.0,25596.0,-1037.9389054202754,-404.340761161112,-669.1117028460023
346021,5750,346021.0,18317.0,346021.0,25611.0,-1036.3774258466528,-401.35276294565625,-665.1375227060521
346021,5730,346021.0,18306.0,346021.0,25619.0,-1034.2144822572554,-398.0755122454666,-660.719064617162
346031,5735,346031.0,18319.0,346031.0,25619.0,-1031.432578659918,-394.5059412036461,-655.8501629966615
346031,5746,346031.0,18264.0,346031.0,25604.0,-1028.0149994084286,-390.6413878279649,-650.52521224141
346031,5713,346031.0,18264.0,346031.0,25597.0,-1023.9460173839886,-386.4800472691645,-644.7393902347961
346031,5736,346031.0,18289.0,346031.0,25609.0,-1019.211129056966,-382.0216431904751,-638.4890545987619
346031,5737,346031.0,18329.0,346031.0,25623.0,-1013.7973371687233,-377.2677101398698,-631.7720366147184
346031,5765,346031.0,18353.0,346031.0,25634.0,-1007.6932426988567,-372.22118539630145,-624.5876750757644
346041,5757,346041.0,18361.0,346041.0,25656.0,-1000.8889161788337,-366.88567653585505,-616.9366731094658
346041,5763,346041.0,18319.0,346041.0,25651.0,-993.3757915647877,-361.26499150718683,-608.820917628368
346041,5764,346041.0,18356.0,346041.0,25655.0,-985.1467428623462,-355.3632164477815,-600.2434010217561
346041,5790,346041.0,18379.0,346041.0,25688.0,-976.1962405678169,-349.1849606588886,-591.2082713347111
346041,5792,346041.0,18408.0,346041.0,25693.0,-966.5203979228045,-342.7351898223354,-581.7208064405477
346041,5815,346041.0,18398.0,346041.0,25697.0,-956.1169010864135,-336.0187302830178,-571.7872614777866
346052,5814,346052.0,18373.0,346052.0,25704.0,-944.9849407236768,-329.0400088561194,-561.4148200831974
346052,5816,346052.0,18358.0,346052.0,25697.0,-933.1252442445794,-321.803355845461,-550.6117443308343
346052,5823,346052.0,18352.0,346052.0,25727.0,-920.5402674035265,-314.31370315589703,-539.3876057648278
346052,5848,346052.0,18362.0,346052.0,25729.0,-907.2344480915851,-306.5772645112404,-527.753435356081
346052,5881,346052.0,18419.0,346052.0,25765.0,-893.2142854613007,-298.60183941002003,-515.7217030250998
346052,5887,346052.0,18408.0,346052.0,25772.0,-878.4881673350071,-290.396594904789,-503.30616279831605
346062,5889,346062.0,18403.0,346062.0,25784.0,-863.0661946011073,-281.97167505508,-490.5216744978075
346062,5916,346062.0,18421.0,346062.0,25805.0,-846.9602370756821,-273.33813559296163,-477.3841128231796
346062,5926,346062.0,18434.0,346062.0,25825.0,-830.1840950283828,-264.50809216849785,-463.9103228692211
346062,5966,346062.0,18460.0,346062.0,25850.0,-812.7535433747091,-255.49469933329283,-450.1179940702583
346062,5985,346062.0,18487.0,346062.0,25882.0,-794.6862095146744,-246.31189106248422,-436.0254196458744
346062,5991,346062.0,18528.0,346062.0,25868.0,-776.0013915616515,-236.9739269134398,-421.6512320431746
346073,6014,346073.0,18473.0,346073.0,25876.0,-756.7200147128591,-227.49491741407232,-407.0143525819275
346073,6036,346073.0,18493.0,346073.0,25858.0,-736.8647392994911,-217.888775463543,-392.1343165936047
346073,6059,346073.0,18512.0,346073.0,25927.0,-716.4600356764456,-208.16961757203143,-377.0317326130694
346073,6094,346073.0,18531.0,346073.0,25935.0,-695.5321462884588,-198.35201546467678,-361.72839940989957
346073,6130,346073.0,18564.0,346073.0,25983.0,-674.1089280459768,-188.45082236323614,-346.24695269415196
346073,6161,346073.0,18554.0,346073.0,25993.0,-652.2195620174675,-178.48083250872023,-330.61036053878263
346083,6165,346083.0,18555.0,346083.0,26000.0,-629.8942631013952,-168.45660128780753,-314.84157034666856
346083,6193,346083.0,18563.0,346083.0,26021.0,-607.1642032462553,-158.39257321559325,-298.9634179251577
346083,6224,346083.0,18565.0,346083.0,26049.0,-584.0616148583309,-148.30335337947267,-282.99867650158876
346083,6267,346083.0,18623.0,346083.0,26075.0,-560.6197961347632,-138.20382843348202,-266.96998792637584
346083,6296,346083.0,18634.0,346083.0,26068.0,-536.8728837097159,-128.1089241775134,-250.89968746683462
346083,6315,346083.0,18614.0,346083.0,26092.0,-512.8555514075656,-118.03316113783458,-234.80977442141204
346093,6336,346093.0,18584.0,346093.0,26116.0,-488.6028626770485,-107.99061073470855,-218.72203592356504
346093,6363,346093.0,18613.0,346093.0,26103.0,-464.1503140322109,-97.99545595979583,-202.65814108483147
346093,6389,346093.0,18661.0,346093.0,26149.0,-439.53392467700434,-88.06250244078257,-186.63973107523827
346093,6450,346093.0,18713.0,346093.0,26203.0,-414.7902011674384,-78.20695338845809,-170.6884012262616
346093,6477,346093.0,18735.0,346093.0,26218.0,-389.95585249542023,-68.4435228257367,-154.82527899223066
346093,6489,346093.0,18691.0,346093.0,26213.0,-365.06738595329887,-58.785600986148154,-139.0704561089238
346104,6503,346104.0,18689.0,346104.0,26219.0,-340.1609549541456,-49.24515947623382,-123.44284697943607
346104,6550,346104.0,18697.0,346104.0,26229.0,-315.2725122638614,-39.83332898577106,-107.96048882581863
346104,6588,346104.0,18723.0,346104.0,26270.0,-290.43788094029253,-30.56094085090598,-92.64084991369134
346104,6625,346104.0,18781.0,346104.0,26279.0,-265.69251313132054,-21.43852617331879,-77.50084979717565
346104,6661,346104.0,18747.0,346104.0,26326.0,-241.07109544404136,-12.47585309112418,-62.55662541813115
346104,6666,346104.0,18751.0,346104.0,26292.0,-216.6072405598577,-3.681572550445537,-47.82327726231864
346114,6696,346114.0,18748.0,346114.0,26309.0,-192.33341372698544,4.936612875424657,-33.314896582886774
346114,6734,346114.0,18754.0,346114.0,26343.0,-168.28102220917742,13.371528580328857,-19.044879269866954
346114,6749,346114.0,18779.0,346114.0,26357.0,-144.48042986032772,21.61626093153427,-5.026094852676806
346114,6802,346114.0,18813.0,346114.0,26380.0,-120.96083711593894,29.664197728039426,8.72926384251923
346114,6814,346114.0,18799.0,346114.0,26393.0,-97.7500921980095,37.50933990917139,22.20988973990677
346114,6838,346114.0,18828.0,346114.0,26410.0,-74.87450948719356,45.14659938221615,35.405488000955756
346124,6847,346124.0,18797.0,346124.0,26418.0,-52.358847960473554,52.57185852923726,48.30683650769788
346124,6892,346124.0,18825.0,346124.0,26440.0,-30.22643669598392,59.78182191420808,60.9057968674075
346124,6928,346124.0,18854.0,346124.0,26423.0,-8.499183555382501,66.77387686426715,73.19527219268991
346124,6943,346124.0,18862.0,346124.0,26476.0,12.802653114694294,73.54624433062253,85.16910585301139
346124,6968,346124.0,18842.0,346124.0,26467.0,33.66070786483931,80.09827845378271,96.82205297279688
346124,6977,346124.0,18832.0,346124.0,26488.0,54.05855882379831,86.43043931741619,108.14988356629067
346135,6991,346135.0,18840.0,346135.0,26493.0,73.98160651340129,92.54388225033398,119.14944141811242
346135,7021,346135.0,18849.0,346135.0,26489.0,93.41688454454606,98.44005424472721,129.81856980549617
346135,7044,346135.0,18867.0,346135.0,26519.0,112.35295242846712,104.12056661427943,140.15596690338498
346135,7065,346135.0,18902.0,346135.0,26540.0,130.7799458063788,109.58736003864084,150.16113082011486
346135,7091,346135.0,18885.0,346135.0,26547.0,148.68969138114426,114.84306277975338,159.8345218028698
346135,7097,346135.0,18878.0,346135.0,26538.0,166.07578973522288,119.89123642396271,169.1777372355259
346145,7125,346145.0,18881.0,346145.0,26551.0,182.93362785223042,124.73625407599263,178.19343835630968
346145,7134,346145.0,18911.0,346145.0,26567.0,199.26034179056592,129.38305576124156,186.88514602239513
346145,7151,346145.0,18916.0,346145.0,26597.0,215.05477418494843,133.83717552266415,195.25720899705954
346145,7170,346145.0,18894.0,346145.0,26585.0,230.31742464997,138.1049469632623,203.31499321763283
346145,7183,346145.0,18891.0,346145.0,26583.0,245.0504093179486,142.19347017045607,211.06500048994542
346145,7199,346145.0,18867.0,346145.0,26600.0,259.2574456895311,146.11022042108158,218.5147262084377
346155,7211,346155.0,18871.0,346155.0,26578.0,272.9438303538967,149.8625109339248,225.67241172170566
346155,7222,346155.0,18917.0,346155.0,26612.0,286.1163912495373,153.45711704118423,232.5468307430803
346155,7236,346155.0,18922.0,346155.0,26619.0,298.7834183466209,156.9003711763279,239.1471844228763
346155,7239,346155.0,18916.0,346155.0,26634.0,310.9545745589926,160.19860298958645,245.4832059877566
346155,7245,346155.0,18900.0,346155.0,26608.0,322.64076031497234,163.35837393326534,251.56530263573018
346155,7264,346155.0,18925.0,346155.0,26615.0,333.8539335042443,166.38633814244963,257.40443284028174
346166,7261,346166.0,18922.0,346166.0,26647.0,344.60695933207603,169.28908962177258,263.0118219402981
346166,7301,346166.0,18965.0,346166.0,26637.0,354.9135443403544,172.07327479792718,268.3988880298101
346166,7292,346166.0,18955.0,346166.0,26651.0,364.7882784685894,174.74594593985108,273.57737171685244
346166,7315,346166.0,18919.0,346166.0,26653.0,374.24673007461286,177.3148516718033,278.5594022535814
346166,7314,346166.0,18935.0,346166.0,26643.0,383.3054740467119,179.78829805757925,283.3574510902946
346166,7291,346166.0,18916.0,346166.0,26632.0,391.98197358239054,182.17471154957428,287.9841562744534
346176,7300,346176.0,18912.0,346176.0,26642.0,400.2942301075973,184.48226578537827,292.45199301196465
346176,7323,346176.0,18947.0,346176.0,26674.0,408.260336368873,186.71865493845917,296.773030810283
346176,7341,346176.0,18962.0,346176.0,26673.0,415.8983065120183,188.89114895176272,300.9590297688693
346176,7352,346176.0,18959.0,346176.0,26665.0,423.226247326784,191.00697695087302,305.02169551778115
346176,7345,346176.0,18932.0,346176.0,26660.0,430.2625644963896,193.07362171390162,308.9727079183955
346176,7341,346176.0,18931.0,346176.0,26664.0,437.02594220856577,195.09867283640972,312.823488746577
346186,7358,346186.0,18969.0,346186.0,26700.0,443.5351137498526,197.0894933396674,316.5850236841303
346186,7372,346186.0,18969.0,346186.0,26693.0,449.8086815198807,199.05321148039513,320.26797907488003
346186,7370,346186.0,18953.0,346186.0,26691.0,455.86513157263164,200.9970091933132,323.882951194185
346186,7364,346186.0,18951.0,346186.0,26679.0,461.722857929047,202.92821719651795,327.440493536841
346186,7370,346186.0,18932.0,346186.0,26692.0,467.4000098852623,204.8540667729245,330.9508934506954
346186,7386,346186.0,18953.0,346186.0,26692.0,472.9142791020604,206.78134893523747,334.42395883802055
346197,7375,346197.0,18937.0,346197.0,26684.0,478.28279993369745,208.71619728352073,337.8689178064783
346197,7398,346197.0,18967.0,346197.0,26713.0,483.52211588357443,210.66404088574734,341.29435405545235
346197,7416,346197.0,18961.0,346197.0,26728.0,488.6481934230038,212.6296966293326,344.70826269807117
346197,7406,346197.0,18948.0,346197.0,26714.0,493.67655751803466,214.61749563532652,348.1182930247563
346197,7402,346197.0,18953.0,346197.0,26687.0,498.6223763341684,216.6312493031853,351.5318440368983
346197,7402,346197.0,19015.0,346197.0,26690.0,503.5002942720532,218.67419245966414,354.95572513802097
346207,7436,346207.0,18974.0,346207.0,26733.0,508.3242051013052,220.74926775748554,358.39571970923544
346207,7413,346207.0,18926.0,346207.0,26723.0,513.1072278070951,222.85938492545245,361.8565653785837
346207,7430,346207.0,18946.0,346207.0,26708.0,517.8617612578299,225.00700718699187,365.3421969983474
346207,7406,346207.0,18942.0,346207.0,26729.0,522.5993724038366,227.1934350986695,368.85576243909816
346207,7442,346207.0,18986.0,346207.0,26739.0,527.3305682036307,229.41855270174835,372.399498094445
346207,7416,346207.0,18941.0,346207.0,26736.0,532.0646391149713,231.68102583177784,375.9747776729607
346217,7469,346217.0,19015.0,346217.0,26752.0,536.8096385751284,233.97854582362407,379.5822411160285
346217,7456,346217.0,18984.0,346217.0,26758.0,541.5725184105086,236.30808222601405,383.2218821751352
346217,7464,346217.0,18989.0,346217.0,26756.0,546.3593511103084,238.66617900056644,386.8931411739934
346217,7446,346217.0,18997.0,346217.0,26769.0,551.1753817287206,241.04905550292938,390.5949685534862
346217,7471,346217.0,19016.0,346217.0,26756.0,556.0248363684095,243.452581163636,394.3258167210141
346217,7498,346217.0,18999.0,346217.0,26777.0,560.9108027797314,245.8723810031043,398.0835865487529
346228,7487,346228.0,19014.0,346228.0,26795.0,565.8354035278945,248.30394462083848,401.8656317828418
346228,7507,346228.0,19019.0,346228.0,26780.0,570.8000430687548,250.7426315437433,405.66890440551026
346228,7494,346228.0,19000.0,346228.0,26775.0,575.8054797484118,253.18366617120483,409.49003866526994
346228,7497,346228.0,19000.0,346228.0,26777.0,580.8517348255434,255.6220415203536,413.32517352805155
346228,7508,346228.0,19020.0,346228.0,26790.0,585.9379194449041,258.0523096682916,417.16970186769777
346228,7509,346228.0,19026.0,346228.0,26803.0,591.0620949184607,260.4685221394782,421.01820758473525
346238,7532,346238.0,19058.0,346238.0,26835.0,596.2212553915064,262.86445802867934,424.8646515168376
346238,7532,346238.0,19050.0,346238.0,26816.0,601.4114167703747,265.2340125563458,428.7027112013217
346238,7532,346238.0,19027.0,346238.0,26815.0,606.627720944276,267.5714750765296,432.52599743450276
346238,7542,346238.0,19024.0,346238.0,26819.0,611.8644380569607,269.871423531786,436.32796165038053
346238,7523,346238.0,19025.0,346238.0,26835.0,617.1148487753367,272.1283367279788,440.1017128890734
346238,7584,346238.0,19063.0,346238.0,26881.0,622.371128167803,274.3363556609024,443.8400966963201
346248,7576,346248.0,19060.0,346248.0,26845.0,627.6244661644738,276.4894429939435,447.53607462829655
346248,7569,346248.0,19073.0,346248.0,26835.0,632.8653884271172,278.58176683665675,451.1829654455805
346248,7605,346248.0,19063.0,346248.0,26873.0,638.0839237638681,280.6079791509421,454.77426692738686
346248,7600,346248.0,19061.0,346248.0,26871.0,643.2696527987698,282.5632635007842,458.3034996946044
346248,7608,346248.0,19079.0,346248.0,26852.0,648.4118426152337,284.44325755147287,461.764322172019
346248,7632,346248.0,19113.0,346248.0,26860.0,653.499572597533,286.2441155819444,465.15052025373836
346259,7638,346259.0,19099.0,346259.0,26879.0,658.5218680083715,287.96286697651203,468.4558071206209
346259,7649,346259.0,19023.0,346259.0,26884.0,663.4679165339102,289.5976357196964,471.67379565887495
346259,7626,346259.0,19043.0,346259.0,26877.0,668.3271961361556,291.1471422086635,474.7981538041789
346259,7644,346259.0,19068.0,346259.0,26893.0,673.0893607621649,292.6098861226118,477.8226860070282
346259,7661,346259.0,19089.0,346259.0,26908.0,677.7440501990483,293.9839311898966,480.7413653092427
346259,7675,346259.0,19092.0,346259.0,26886.0,682.2809219000306,295.26733642731944,483.5484396793047
346269,7704,346269.0,19103.0,346269.0,26914.0,686.6899435696004,296.4586470344259,486.23849340324466
346269,7700,346269.0,19115.0,346269.0,26914.0,690.9617829206306,297.5572142964467,488.8064495519493
346269,7698,346269.0,19073.0,346269.0,26876.0,695.0880945780341,298.5633607284287,491.24757846053046
346269,7671,346269.0,19038.0,346269.0,26929.0,699.0614919402889,299.4781658487512,493.55737679735864
346269,7683,346269.0,19072.0,346269.0,26921.0,702.875188082437,300.30281995971353,495.73147725211413
346269,7732,346269.0,19134.0,346269.0,26957.0,706.5226783095477,301.03824611291463,497.7658986183021
346280,7718,346280.0,19101.0,346280.0,26944.0,709.9978753998325,301.6855447226834,499.6574765365456
346280,7719,346280.0,19070.0,346280.0,26926.0,713.295485259444,302.2465889217755,501.4041168267062
346280,7712,346280.0,19075.0,346280.0,26929.0,716.411107138147,302.72392470700504,503.00469342266797
346280,7722,346280.0,19084.0,346280.0,26945.0,719.3410565543037,303.1202854432107,504.4587791853246
346280,7712,346280.0,19103.0,346280.0,26961.0,722.0821883243233,303.4384228768898,505.7666022342754
346280,7737,346280.0,19097.0,346280.0,26968.0,724.6318068402843,303.68131528559803,506.9293067387372
346290,7733,346290.0,19071.0,346290.0,26962.0,726.9876859620804,303.85236209676873,507.94926721822935
346290,7719,346290.0,19064.0,346290.0,26904.0,729.1481379022099,303.95524310827443,508.8301143063642
346290,7738,346290.0,19036.0,346290.0,26912.0,731.1119652327521,303.99346648820364,509.5762472707744
346290,7734,346290.0,19037.0,346290.0,26927.0,732.8783547595073,303.96982602640486,510.19214483105156
346290,7759,346290.0,19102.0,346290.0,26936.0,734.4469116289121,303.8860832314404,510.682079232065
346290,7759,346290.0,19113.0,346290.0,26939.0,735.8178519089265,303.743280952765,511.0502880735021
346300,7764,346300.0,19093.0,346300.0,26942.0,736.9922423519798,303.5425285941482,511.30121925204776
346300,7734,346300.0,19086.0,346300.0,26928.0,737.9721011504105,303.2854858178744,511.4396384112215
346300,7741,346300.0,19094.0,346300.0,26921.0,738.7602139436143,302.9742998286029,511.470556256398
346300,7762,346300.0,19120.0,346300.0,26939.0,739.3598491735004,302.61150008689395,511.3990484364497
346300,7736,346300.0,19044.0,346300.0,26925.0,739.774674236369,302.2000588267293,511.23016413299183
346300,7762,346300.0,19104.0,346300.0,26938.0,740.0088014990292,301.74326921774406,510.96895962209487
346311,7741,346311.0,19075.0,346311.0,26938.0,740.0667839519002,301.2444835764134,510.62055546043047
346311,7744,346311.0,19055.0,346311.0,26907.0,739.9535644152629,300.7070130560336,510.1901483263008
346311,7749,346311.0,19050.0,346311.0,26924.0,739.6743842249201,300.1339458648984,509.68286807056904
346311,7767,346311.0,19093.0,346311.0,26936.0,739.2347564730086,299.52784950597027,509.1035890925876
346311,7770,346311.0,19086.0,346311.0,26939.0,738.6406432719336,298.8908365611061,508.4569913396834
346311,7762,346311.0,19105.0,346311.0,26939.0,737.8987174631955,298.2250020310208,507.74781006128944
346321,7746,346321.0,19102.0,346321.0,26918.0,737.0164515651306,297.5328395575643,506.9809685838048
346321,7738,346321.0,19061.0,346321.0,26942.0,736.0019345821862,296.81741182322156,506.16151502721476
346321,7744,346321.0,19065.0,346321.0,26923.0,734.863570239747,296.0821475514788,505.2945408918546
346321,7749,346321.0,19087.0,346321.0,26943.0,733.6099012570822,295.33045321711734,504.38520277621063
346321,7758,346321.0,19121.0,346321.0,26932.0,732.2496565283782,294.5656898094136,503.4387984924748
346321,7738,346321.0,19040.0,346321.0,26914.0,730.7918934426381,293.7915206099325,502.46079622732225
346331,7734,346331.0,19068.0,346331.0,26900.0,729.246010427799,293.011931693238,501.45666884630066
346331,7736,346331.0,19050.0,346331.0,26912.0,727.6215828817961,292.2307793253266,500.4315574526344
346331,7734,346331.0,19056.0,346331.0,26925.0,725.928210394655,291.4514307754596,499.39007770344267
346331,7737,346331.0,19074.0,346331.0,26928.0,724.1754882826798,290.6767149588621,498.3364488303269
346331,7735,346331.0,19106.0,346331.0,26943.0,722.3730444382644,289.90913828112696,497.2747974830552
346331,7734,346331.0,19077.0,346331.0,26923.0,720.530580474107,289.15133725757994,496.2094278141152
346342,7717,346342.0,19052.0,346342.0,26900.0,718.6578622106298,288.4063610552535,495.1448694622906
346342,7710,346342.0,19053.0,346342.0,26927.0,716.7645843167405,287.6774357907884,494.08565472681926
346342,7706,346342.0,19112.0,346342.0,26913.0,714.8601270043315,286.96763951481796,493.03612227408
346342,7721,346342.0,19046.0,346342.0,26926.0,712.9533704113123,286.28001799422884,492.000455675194
346342,7694,346342.0,19061.0,346342.0,26935.0,711.0526635112088,285.6177749006952,490.9828331880366
346342,7713,346342.0,19092.0,346342.0,26915.0,709.1658217937229,284.98415382414896,489.9875834137172
346352,7688,346352.0,19036.0,346352.0,26875.0,707.300058332833,284.3823621103794,489.0191524146662
346352,7698,346352.0,19063.0,346352.0,26898.0,705.4618864417922,283.81555463240136,488.0817060929554
346352,7717,346352.0,19034.0,346352.0,26911.0,703.6570766557653,283.2866122872655,487.1787360057448
346352,7718,346352.0,19070.0,346352.0,26900.0,701.8908115156839,282.79793367975765,486.3130793015336
346352,7713,346352.0,19084.0,346352.0,26912.0,700.1679853485258,282.35152322189674,485.48713815165297
346352,7696,346352.0,19034.0,346352.0,26889.0,698.4933554351296,281.94927438403454,484.7029687182661
346362,7700,346362.0,19018.0,346362.0,26913.0,696.8714371491232,281.5929481736421,483.9622456511487
346362,7692,346362.0,19046.0,346362.0,26896.0,695.3063129064052,281.2836909557302,483.26623561186426
346362,7696,346362.0,19064.0,346362.0,26914.0,693.8015126315995,281.0217371272903,482.61584250676293
346362,7707,346362.0,19080.0,346362.0,26915.0,692.3600040622578,280.8067054015472,482.01171224493874
346362,7691,346362.0,19050.0,346362.0,26912.0,690.9842745639278,280.63808799662763,481.45437877718206
346362,7687,346362.0,19042.0,346362.0,26885.0,689.67637484226,280.51539442799276,480.94432187580287
346373,7684,346373.0,19013.0,346373.0,26878.0,688.4378131677395,280.43783456781694,480.48175450397224
346373,7691,346373.0,19032.0,346373.0,26908.0,687.2694174236685,280.40381823974167,480.06628749303263
346373,7696,346373.0,19059.0,346373.0,26908.0,686.1713268275347,280.41068826562497,479.6968722196466
346373,7714,346373.0,19089.0,346373.0,26903.0,685.1431456787725,280.4549804571767,479.3720516519811
346373,7690,346373.0,19060.0,346373.0,26909.0,684.1841741308086,280.5330305246829,479.0901676705868
346373,7690,346373.0,19048.0,346373.0,26900.0,683.2935075553758,280.6413350602064,478.84939721444505
346383,7694,346383.0,19059.0,346383.0,26900.0,682.4699276197737,280.77641981620263,478.64771646684994
346383,7710,346383.0,19075.0,346383.0,26929.0,681.711825929127,280.9346383491672,478.48289230222287
346383,7716,346383.0,19070.0,346383.0,26913.0,681.0173606212136,281.11226541058693,478.3526265290714
346383,7697,346383.0,19084.0,346383.0,26894.0,680.3847063281173,281.30573949522113,478.2547234820848
346383,7686,346383.0,19065.0,346383.0,26880.0,679.8121000761282,281.51182396099296,478.18694914755116
346383,7668,346383.0,19025.0,346383.0,26865.0,679.2975759261054,281.7275289844488,478.1465859429722
346393,7677,346393.0,19056.0,346393.0,26901.0,678.8385705491537,281.9497175569786,478.1300272596977
346393,7684,346393.0,19059.0,346393.0,26912.0,678.4316709839711,282.174745725589,478.13275589268335
346393,7695,346393.0,19093.0,346393.0,26912.0,678.0726402511419,282.3985641869466,478.14971861653316
346393,7706,346393.0,19081.0,346393.0,26902.0,677.7566541523013,282.61717004719713,478.1756983782841
346393,7683,346393.0,19066.0,346393.0,26900.0,677.4785551119946,282.82697377505013,478.20538880366774
346393,7688,346393.0,19050.0,346393.0,26908.0,677.2329147728631,283.02477589248167,478.23329260653145
346404,7698,346404.0,19097.0,346404.0,26912.0,677.013927770811,283.2075174393855,478.2536869190495
346404,7721,346404.0,19071.0,346404.0,26903.0,676.8154363756078,283.3722637004355,478.26069619505074
346404,7714,346404.0,19072.0,346404.0,26907.0,676.6312177251057,283.51640307981006,478.2483352584742
346404,7707,346404.0,19054.0,346404.0,26929.0,676.45528290841,283.63764837997473,478.21052470992794
346404,7689,346404.0,19062.0,346404.0,26909.0,676.2819047759847,283.73380211852054,478.14121244887843
346404,7688,346404.0,19056.0,346404.0,26904.0,676.1053746699312,283.80254499462785,478.03448413130957
346414,7705,346414.0,19041.0,346414.0,26913.0,675.9197392027557,283.8413103143763,477.8844866943791
346414,7700,346414.0,19058.0,346414.0,26911.0,675.7187560704034,283.84715338504674,477.6853229892412
346414,7706,346414.0,19095.0,346414.0,26933.0,675.4960286186465,283.81675155156006,477.43111401207705
346414,7703,346414.0,19060.0,346414.0,26936.0,675.2451250868655,283.7467090085505,477.11622892283424
346414,7691,346414.0,19038.0,346414.0,26914.0,674.9595997621934,283.6337900816394,476.7355434022276
346414,7698,346414.0,19053.0,346414.0,26927.0,674.6329162514473,283.47468646161104,476.2845099883954
346424,7723,346424.0,19072.0,346424.0,26918.0,674.2584025973944,283.26570907442465,475.7590607945446
346424,7719,346424.0,19079.0,346424.0,26911.0,673.8294347503822,283.0028984824817,475.15552286535086
346424,7705,346424.0,19071.0,346424.0,26918.0,673.3397211145647,282.6823839433538,474.4705463047095
346424,7709,346424.0,19074.0,346424.0,26911.0,672.7833767277232,282.30060674431485,473.70103719940323
346424,7701,346424.0,19050.0,346424.0,26903.0,672.1548014424832,281.854308772682,472.84411973212866
346424,7697,346424.0,19079.0,346424.0,26887.0,671.4485505052322,281.3403997641984,471.89702437508015
346435,7702,346435.0,19075.0,346435.0,26912.0,670.6592381895387,280.75591987305665,470.85690023469306
346435,7711,346435.0,19074.0,346435.0,26904.0,669.7815131115785,280.09819075413054,469.7207621046732
346435,7705,346435.0,19059.0,346435.0,26918.0,668.810155994186,279.36493871408635,468.4856492204102
346435,7699,346435.0,19061.0,346435.0,26908.0,667.7401887467581,278.5542180008934,467.14883188827946
346435,7681,346435.0,19048.0,346435.0,26890.0,666.56683110746,277.66423144386926,465.7078940666348
346435,7707,346435.0,19085.0,346435.0,26884.0,665.285339411712,276.6932326666617,464.1605988945038
346445,7717,346445.0,19085.0,346445.0,26936.0,663.8909967960194,275.6396880183851,462.5047254519284
346445,7717,346445.0,19094.0,346445.0,26919.0,662.379394625503,274.50268006293436,460.73827144831444
346445,7696,346445.0,19060.0,346445.0,26892.0,660.7467320923915,273.28222482919756,458.8598660813901
346445,7692,346445.0,19045.0,346445.0,26868.0,658.9898224721102,271.9791932195029,456.8687677997251
346445,7684,346445.0,19009.0,346445.0,26892.0,657.1058648462607,270.5948224106603,454.7644247515284
346445,7675,346445.0,19049.0,346445.0,26868.0,655.0922019820159,269.13011471107416,452.5461463735551
346455,7693,346455.0,19048.0,346455.0,26892.0,652.9461757651085,267.58558322365616,450.2130743467028
346455,7702,346455.0,19076.0,346455.0,26900.0,650.6651774114396,265.96151832413506,447.76432544686617
346455,7695,346455.0,19048.0,346455.0,26907.0,648.2469087310369,264.2584531642947,445.1992982206492
346455,7688,346455.0,19037.0,346455.0,26888.0,645.6896258449198,262.4773870154066,442.5180200626746
346455,7670,346455.0,19021.0,346455.0,26880.0,642.9921529352937,260.6196106049987,439.7212655547077
346455,7675,346455.0,19061.0,346455.0,26877.0,640.1537106055135,258.6864187591101,436.810421778322
346466,7682,346466.0,19050.0,346466.0,26892.0,637.1737734019445,256.67913933719495,433.78735556360397
346466,7689,346466.0,19027.0,346466.0,26879.0,634.0521386572138,254.59940151598892,430.65447083459566
346466,7674,346466.0,19030.0,346466.0,26856.0,630.78914393462,252.4491860172059,427.4148042109516
346466,7630,346466.0,19010.0,346466.0,26868.0,627.3857153539155,250.23059651386052,424.0719301070234
346466,7660,346466.0,19010.0,346466.0,26845.0,623.843072746847,247.9456030931388,420.6297703442495
346466,7658,346466.0,19022.0,346466.0,26849.0,620.1624437401704,245.59588115710042,417.092466011934
346476,7660,346476.0,19015.0,346476.0,26843.0,616.3451509963654,243.1828205762368,413.46428918946856
346476,7649,346476.0,19052.0,346476.0,26847.0,612.392862104236,240.70773337265732,409.7496126094635
346476,7637,346476.0,19004.0,346476.0,26834.0,608.3076762547316,238.17215465111238,405.9529553359183
346476,7647,346476.0,19027.0,346476.0,26829.0,604.092061810942,235.57800602757757,402.07900515239675
346476,7641,346476.0,19026.0,346476.0,26814.0,599.748834931796,232.9275729333778,398.13254263512016
346476,7626,346476.0,19028.0,346476.0,26827.0,595.2812277371177,230.22355881357035,394.1183234228256
346487,7614,346487.0,19018.0,346487.0,26811.0,590.6928759290131,227.46925257062367,390.04103995124046
346487,7615,346487.0,19010.0,346487.0,26814.0,585.987667075993,224.66859060227327,385.9053645212106
346487,7605,346487.0,18968.0,346487.0,26793.0,581.169607291744,221.82599797415577,381.7159541478728
346487,7585,346487.0,18991.0,346487.0,26783.0,576.2427466570587,218.94602074371937,377.4773381136555
346487,7609,346487.0,19004.0,346487.0,26767.0,571.2110944487713,216.03304475781647,373.1936880747458
346487,7586,346487.0,18977.0,346487.0,26792.0,566.0786151106953,213.09137195679338,368.86860211724985
346497,7584,346497.0,18997.0,346497.0,26780.0,560.8493210246314,210.12540512534537,364.50511511887817
346497,7576,346497.0,18959.0,346497.0,26770.0,555.5272919585577,207.13966167593313,360.1058867290923
346497,7560,346497.0,18980.0,346497.0,26777.0,550.1165967754664,204.13866488992193,355.67331187821003
346497,7559,346497.0,18949.0,346497.0,26764.0,544.6211860759499,201.12680353763213,351.20953753648433
346497,7578,346497.0,18964.0,346497.0,26785.0,539.0448467092107,198.10820627745028,346.7165353977213
346497,7557,346497.0,18952.0,346497.0,26786.0,533.391345516629,195.08666307205732,342.1963093396872
346507,7552,346507.0,18954.0,346507.0,26768.0,527.6646326638916,192.06561372563743,337.6511890235097
346507,7537,346507.0,18928.0,346507.0,26744.0,521.8688636136847,189.04813258878886,333.0839505269386
346507,7513,346507.0,18935.0,346507.0,26737.0,516.0082355612059,186.0367980154171,328.4976000123678
346507,7515,346507.0,18911.0,346507.0,26741.0,510.08673331251623,183.03348492358123,323.89505104378907
346507,7508,346507.0,18948.0,346507.0,26747.0,504.10791196513594,180.0392321568708,319.27901520405015
346507,7523,346507.0,18944.0,346507.0,26731.0,498.0748761357652,177.05435457780123,314.65212413145514
346518,7507,346518.0,18969.0,346518.0,26730.0,491.99045966558185,174.07883830721235,310.01705218206985
346518,7515,346518.0,18942.0,346518.0,26739.0,485.8574518960066,171.11279850829106,305.37655260958326
346518,7495,346518.0,18914.0,346518.0,26709.0,479.67874697137506,168.15665770147842,300.7335043115437
346518,7491,346518.0,18865.0,346518.0,26659.0,473.45738571797983,165.21079366331963,296.09080108298275
346518,7509,346518.0,18980.0,346518.0,26718.0,467.1965648798104,162.2749746216138,291.4509375775479
346518,7496,346518.0,18951.0,346518.0,26715.0,460.89977955375997,159.34846205378872,286.8158140028514
346528,7480,346528.0,18923.0,346528.0,26722.0,454.57105014724436,156.43076895090445,282.18714195057817
346528,7465,346528.0,18936.0,346528.0,26631.0,448.21496256281637,153.52204551671383,277.5668219196218
346528,7424,346528.0,18937.0,346528.0,26679.0,441.83642231505337,150.62295065083867,272.9566489313589
346528,7436,346528.0,18894.0,346528.0,26675.0,435.44023171282754,147.7345515648343,268.3578035353388
346528,7443,346528.0,18925.0,346528.0,26674.0,429.03077327095843,144.85820496503652,263.770842520864
346528,7433,346528.0,18950.0,346528.0,26639.0,422.6120541850588,141.99547643219557,259.1959403791814
346538,7422,346538.0,18901.0,346538.0,26703.0,416.18792756746643,139.1483792489291,254.63295246716407
346538,7399,346538.0,18901.0,346538.0,26670.0,409.7621422314571,136.319550139364,250.08158925364108
346538,7398,346538.0,18878.0,346538.0,26663.0,403.33818042159095,133.51197734817111,245.54179069121017
346538,7395,346538.0,18842.0,346538.0,26634.0,396.91908169181727,130.72849953686054,241.0138210972721
346538,7411,346538.0,18864.0,346538.0,26648.0,390.5074572128992,127.97128384897934,236.4980035946107
346538,7408,346538.0,18899.0,346538.0,26660.0,384.10574904792634,125.24155423582116,231.9945453911717
346549,7398,346549.0,18864.0,346549.0,26639.0,377.7165805031079,122.53983508088407,227.50367649679305
346549,7359,346549.0,18828.0,346549.0,26620.0,371.3429101006101,119.86622641321057,223.02580438159484
346549,7354,346549.0,18862.0,346549.0,26624.0,364.98781909229433,117.220184524167,218.56140124563834
346549,7343,346549.0,18860.0,346549.0,26620.0,358.65411455261483,114.60024308302616,214.11081411458048
346549,7347,346549.0,18892.0,346549.0,26627.0,352.3440778183208,112.00421105363185,209.67426082856508
346549,7348,346549.0,18880.0,346549.0,26594.0,346.05947151280355,109.42968353529054,205.25192691558317
346559,7347,346559.0,18865.0,346559.0,26611.0,339.80172008286434,106.87445275391144,200.8439548972654
346559,7334,346559.0,18848.0,346559.0,26595.0,333.57212212594044,104.33655821564452,196.45035839845053
346559,7325,346559.0,18875.0,346559.0,26586.0,327.3719548199457,101.81408537253972,192.07098854857475
346559,7328,346559.0,18889.0,346559.0,26613.0,321.2024663618069,99.30515605669001,187.7055526729531
346559,7324,346559.0,18865.0,346559.0,26608.0,315.0648980299298,96.80824835571201,183.3537783667041
346559,7277,346559.0,18865.0,346559.0,26585.0,308.9605155899556,94.32245136177167,179.01570879019158
346569,7306,346569.0,18856.0,346569.0,26573.0,302.8904658433118,91.84741806482444,174.69179122944195
346569,7287,346569.0,18824.0,346569.0,26564.0,296.85559588887253,89.38315605462566,170.38265570778645
346569,7297,346569.0,18826.0,346569.0,26545.0,290.8565021895038,86.92970866117301,166.08882040894395
346569,7285,346569.0,18862.0,346569.0,26569.0,284.8937142983763,84.4868762913461,161.8104918612516
346569,7281,346569.0,18829.0,346569.0,26562.0,278.967833110227,82.05428151901273,157.54757521839065
346569,7261,346569.0,18839.0,346569.0,26551.0,273.07957099906304,79.63160389439068,153.29987236693495
346580,7254,346580.0,18842.0,346580.0,26540.0,267.22966548740436,77.21865461611571,149.0671987058916
346580,7243,346580.0,18829.0,346580.0,26545.0,261.4187149913673,74.81539428278566,144.84931943911909
346580,7255,346580.0,18834.0,346580.0,26543.0,255.64707220553368,72.42198074787007,140.64590573216412
346580,7256,346580.0,18839.0,346580.0,26529.0,249.91492462404125,70.03879850823051,136.45659573513643
346580,7239,346580.0,18813.0,346580.0,26548.0,244.22252170810702,67.6664999750339,132.28106941251406
346580,7219,346580.0,18793.0,346580.0,26505.0,238.57029370066294,65.30592100081009,128.1190946903896
346590,7210,346590.0,18770.0,346590.0,26513.0,232.95870624994262,62.957698626806746,123.9704639805073
346590,7185,346590.0,18787.0,346590.0,26508.0,227.3879661785287,60.62176709072094,119.83480692146901
346590,7210,346590.0,18822.0,346590.0,26511.0,221.85777063633736,58.29716312983544,115.7114979046296
346590,7224,346590.0,18824.0,346590.0,26545.0,216.36732628666545,55.98238342793954,111.59982029227149
346590,7208,346590.0,18807.0,346590.0,26503.0,210.91571745615352,53.675972461350625,107.49932258487547
346590,7196,346590.0,18832.0,346590.0,26482.0,205.502277212102,51.37686723529697,103.41001645207791
346600,7182,346600.0,18766.0,346600.0,26480.0,200.12663354777123,49.08443621615993,99.33212724691731
346600,7174,346600.0,18834.0,346600.0,26492.0,194.78853390230864,46.798342009007285,95.26572889215862
346600,7164,346600.0,18819.0,346600.0,26525.0,189.4876605159527,44.518517191417686,91.210781203083
346600,7162,346600.0,18841.0,346600.0,26484.0,184.22350948190308,42.24551841872628,87.16755345193019
346600,7170,346600.0,18737.0,346600.0,26436.0,178.99537397807103,39.98081762852823,83.13684122106241
346600,7154,346600.0,18753.0,346600.0,26465.0,173.80245192921006,37.726364521951695,79.11958190829091
346611,7132,346611.0,18720.0,346611.0,26461.0,168.6439283634009,35.48362265017829,75.11638490683964
346611,7133,346611.0,18772.0,346611.0,26438.0,163.51886046961937,33.25289258611562,71.12748438456742
346611,7148,346611.0,18810.0,346611.0,26441.0,158.4260293014537,31.033415927056154,67.15279894337561
346611,7136,346611.0,18819.0,346611.0,26483.0,153.36403135671253,28.82418523853329,63.1919382755587
346611,7140,346611.0,18771.0,346611.0,26454.0,148.33152709588336,26.62482248304184,59.24447656235577
346611,7117,346611.0,18763.0,346611.0,26435.0,143.32739549852602,24.435783251491415,55.31031655855497
346621,7105,346621.0,18764.0,346621.0,26436.0,138.3506955337998,22.257947516181304,51.389680940609935
346621,7123,346621.0,18772.0,346621.0,26454.0,133.4005236218294,20.092262694190907,47.48292519488189
346621,7124,346621.0,18781.0,346621.0,26442.0,128.476026149517,17.93976278967841,43.59060713571972
346621,7106,346621.0,18764.0,346621.0,26431.0,123.57663384884972,15.801781449475584,39.7137037584169
346621,7098,346621.0,18735.0,346621.0,26422.0,118.70222057398371,13.680016887879617,35.85365363445294
346621,7077,346621.0,18739.0,346621.0,26389.0,113.85300840384002,11.576272572876832,32.01217017436494
346631,7066,346631.0,18706.0,346631.0,26377.0,109.0293202577916,9.492035517912058,28.190874281266417
346631,7065,346631.0,18729.0,346631.0,26406.0,104.23131762984895,7.428118781129882,24.39090621576338
346631,7076,346631.0,18764.0,346631.0,26420.0,99.45887925705779,5.384574546088004,20.612903151114722
346631,7058,346631.0,18751.0,346631.0,26413.0,94.71169356892858,3.3610538198791744,16.85743142264613
346631,7063,346631.0,18749.0,346631.0,26386.0,89.98940909193504,1.3573233502917503,13.125399895038754
346631,7051,346631.0,18710.0,346631.0,26390.0,85.29170115422573,-0.6265762808329214,9.418080034900356
346642,7044,346642.0,18718.0,346642.0,26382.0,80.61827918209156,-2.5906082849974723,5.736908718887037
346642,7052,346642.0,18732.0,346642.0,26402.0,75.96888518784442,-4.535082675742274,2.083421813958296
346642,7035,346642.0,18743.0,346642.0,26365.0,71.34333202421146,-6.460663962275021,-1.5406369964782698
346642,7028,346642.0,18731.0,346642.0,26363.0,66.74154700672398,-8.368071851143583,-5.133293252042847
346642,7012,346642.0,18714.0,346642.0,26354.0,62.16350555510667,-10.257871586354355,-8.692540267787194
346642,7004,346642.0,18692.0,346642.0,26329.0,57.609056877511534,-12.130606872376376,-12.216607484759265
346652,7004,346652.0,18683.0,346652.0,26331.0,53.077750977946835,-13.987200483793856,-15.704221780978514
346652,6985,346652.0,18712.0,346652.0,26351.0,48.568735797172394,-15.829321007139072,-19.15479501597929
346652,7018,346652.0,18769.0,346652.0,26357.0,44.08074878448588,-17.659278560459853,-22.568311194686657
346652,7004,346652.0,18719.0,346652.0,26344.0,39.61228387294989,-19.47935432552734,-25.944961842682233
346652,6990,346652.0,18700.0,346652.0,26353.0,35.1618711581591,-21.291259984096172,-29.28486148888038
346652,6981,346652.0,18718.0,346652.0,26319.0,30.72817790821955,-23.096267323110112,-32.587980868169154
346662,6995,346662.0,18734.0,346662.0,26316.0,26.309920829071416,-24.89547571875383,-35.85428165412566
346662,6992,346662.0,18725.0,346662.0,26334.0,21.905895205646175,-26.689662960465682,-39.08394141905893
346662,6985,346662.0,18726.0,346662.0,26299.0,17.515177620346208,-28.478980440719482,-42.27744419037913
346662,6956,346662.0,18684.0,346662.0,26319.0,13.13724122351664,-30.262899456084398,-45.435571001151914
346662,6942,346662.0,18676.0,346662.0,26306.0,8.771783234039617,-32.040521944198815,-48.55942398619436
346662,6948,346662.0,18679.0,346662.0,26298.0,4.418380037677821,-33.811085679019044,-51.65042733651552
346673,6931,346673.0,18674.0,346673.0,26303.0,0.07625321372825056,-35.57431182215106,-54.71032531579618
346673,6944,346673.0,18722.0,346673.0,26306.0,-4.255770524002742,-37.330388432947046,-57.7411752713636
346673,6952,346673.0,18683.0,346673.0,26305.0,-8.579154018211966,-39.079640540542584,-60.74523440043362
346673,6939,346673.0,18694.0,346673.0,26304.0,-12.895409076630472,-40.822202476096805,-63.724788778017114
346673,6917,346673.0,18674.0,346673.0,26299.0,-17.205908762342915,-42.557991969501245,-66.68202981097579
346673,6920,346673.0,18673.0,346673.0,26268.0,-21.51195691728128,-44.28688684634852,-69.61905292555247
346683,6911,346683.0,18702.0,346683.0,26318.0,-25.814969170007316,-46.00883517387615,-72.53796020634462
346683,6904,346683.0,18688.0,346683.0,26302.0,-30.116558968169898,-47.72372886817391,-75.4407896721786
346683,6914,346683.0,18675.0,346683.0,26296.0,-34.41853466284249,-49.431168261068706,-78.32919422343076
346683,6922,346683.0,18645.0,346683.0,26273.0,-38.72278533510257,-51.130494044103784,-81.20427291929423
346683,6887,346683.0,18649.0,346683.0,26270.0,-43.03107150105677,-52.82116350402708,-84.06674881192731
346683,6896,346683.0,18673.0,346683.0,26261.0,-47.34495741414128,-54.503096681293755,-86.9172565280424
346694,6879,346694.0,18650.0,346694.0,26266.0,-51.665943599458046,-56.17667879080116,-89.75652505951876
346694,6911,346694.0,18681.0,346694.0,26267.0,-55.99552839442106,-57.84255044942361,-92.58540110183259
346694,6882,346694.0,18665.0,346694.0,26257.0,-60.335042624249695,-59.501396167694,-95.40476553478805
346694,6866,346694.0,18648.0,346694.0,26257.0,-64.68547795343011,-61.15379989554572,-98.21546646771532
346694,6855,346694.0,18649.0,346694.0,26236.0,-69.04759624198732,-62.80030116795564,-101.01835179570793
346694,6875,346694.0,18673.0,346694.0,26266.0,-73.42217214562345,-64.4415425520047,-103.81434457745104
346704,6882,346704.0,18699.0,346704.0,26239.0,-77.80996824116346,-66.07811173093353,-106.60441752531318
346704,6862,346704.0,18659.0,346704.0,26225.0,-82.21142646627061,-67.7100782081632,-109.38953336257828
346704,6837,346704.0,18660.0,346704.0,26238.0,-86.62648464508254,-69.3367345943847,-112.17074731877682
346704,6830,346704.0,18632.0,346704.0,26238.0,-91.05476700720544,-70.95680353848567,-114.94931793101739
346704,6817,346704.0,18568.0,346704.0,26228.0,-95.49594633193544,-72.56898485367068,-117.7266257709677
346704,6808,346704.0,18621.0,346704.0,26221.0,-99.95002274065416,-74.17271133178386,-120.50408016981464
346714,6833,346714.0,18644.0,346714.0,26229.0,-104.4174381986112,-75.76860735109952,-123.28314341721511
346714,6826,346714.0,18650.0,346714.0,26236.0,-108.89894375564927,-77.35815448252146,-126.06530644675126
346714,6810,346714.0,18649.0,346714.0,26212.0,-113.39531058362456,-78.94299917680988,-128.85194918088803
346714,6797,346714.0,18617.0,346714.0,26215.0,-117.90721263404316,-80.52459258016987,-131.64428179081506
346714,6786,346714.0,18633.0,346714.0,26191.0,-122.43538005754897,-82.10426766454921,-134.4434761096345
346714,6800,346714.0,18647.0,346714.0,26205.0,-126.98078659091465,-83.68339947755405,-137.25086371377586
346725,6807,346725.0,18651.0,346725.0,26204.0,-131.54461792515872,-85.26328420082245,-140.0680286188968
346725,6788,346725.0,18638.0,346725.0,26193.0,-136.12802305071108,-86.84483208970357,-142.89674395523411
346725,6765,346725.0,18601.0,346725.0,26183.0,-140.7319622224756,-88.42848709380729,-145.73891649423518
346725,6756,346725.0,18579.0,346725.0,26182.0,-145.35738019173868,-90.01460181005706,-148.59667051280672
346725,6772,346725.0,18606.0,346725.0,26182.0,-150.00548813796348,-91.60404109417837,-151.47245558311909
346725,6765,346725.0,18621.0,346725.0,26197.0,-154.67780416785553,-93.19845981597007,-154.36901834702184
346735,6779,346735.0,18636.0,346735.0,26201.0,-159.37592806055875,-94.80000985901967,-157.2891876057089
346735,6756,346735.0,18630.0,346735.0,26191.0,-164.10126877661713,-96.41080820445018,-160.2355677553349
346735,6743,346735.0,18600.0,346735.0,26168.0,-168.8549311042267,-98.03262137222737,-163.2103813048127
346735,6745,346735.0,18577.0,346735.0,26171.0,-173.63781604213483,-99.66700900204378,-166.21559193673846
346735,6749,346735.0,18615.0,346735.0,26187.0,-178.45073049092753,-101.3157484296672,-169.25308340850825
346735,6748,346735.0,18615.0,346735.0,26179.0,-183.29430183085577,-102.98099380259603,-172.3245987686015
346745,6736,346745.0,18650.0,346745.0,26173.0,-188.1687884312571,-104.66492278433239,-175.43152684927497
346745,6708,346745.0,18598.0,346745.0,26157.0,-193.07402487444335,-106.36922897984573,-178.5748253743444
346745,6695,346745.0,18586.0,346745.0,26171.0,-198.00963545411747,-108.0949963025408,-181.75510694848322
346745,6695,346745.0,18589.0,346745.0,26145.0,-202.97539250743193,-109.84306855843147,-184.97271588296343
346745,6705,346745.0,18581.0,346745.0,26163.0,-207.97141805836742,-111.61446696921928,-188.22775131725666
346745,6697,346745.0,18614.0,346745.0,26149.0,-212.99809319152126,-113.41048323987133,-191.5200609114512
346756,6697,346756.0,18604.0,346756.0,26148.0,-218.0558390768495,-115.23245825586861,-194.84919498992122
346756,6685,346756.0,18601.0,346756.0,26142.0,-223.14496796259908,-117.08145481441287,-198.2143778075748
346756,6672,346756.0,18565.0,346756.0,26112.0,-228.26566079194038,-118.95815219259839,-201.6145789275526
346756,6672,346756.0,18578.0,346756.0,26128.0,-233.4180431047704,-120.8630879905374,-205.04870497338334
346756,6673,346756.0,18629.0,346756.0,26131.0,-238.60224589324582,-122.79685664993377,-208.51574989152857
346756,6673,346756.0,18607.0,346756.0,26126.0,-243.81833403425088,-124.75980524799954,-212.0147115074759
346766,6657,346766.0,18554.0,346766.0,26141.0,-249.06615896242192,-126.75159082000425,-215.54436547794842
346766,6649,346766.0,18586.0,346766.0,26088.0,-254.34530153067828,-128.7712953615486,-219.1031233319377
346766,6627,346766.0,18563.0,346766.0,26089.0,-259.65517792035007,-130.8178536527589,-222.68917903865878
346766,6624,346766.0,18571.0,346766.0,26086.0,-264.99525397570676,-132.89022931505542,-226.30090570284693
346766,6633,346766.0,18561.0,346766.0,26111.0,-270.36521822728537,-134.9874180576797,-229.93708151129357
346766,6645,346766.0,18579.0,346766.0,26105.0,-275.7649173222303,-137.10843599749234,-233.5967001132459
346776,6628,346776.0,18565.0,346776.0,26113.0,-281.1940538757341,-139.25222427977303,-237.2785860630242
346776,6611,346776.0,18569.0,346776.0,26075.0,-286.6519462644509,-141.41751860357306,-240.9811472527844
346776,6585,346776.0,18532.0,346776.0,26058.0,-292.1376094123473,-143.60285367995397,-244.70248091566617
346776,6593,346776.0,18574.0,346776.0,26077.0,-297.6500675497025,-145.8067229022588,-248.44074420810415
346776,6587,346776.0,18558.0,346776.0,26075.0,-303.188587324703,-148.02763221647206,-252.19436445097273
346776,6611,346776.0,18561.0,346776.0,26070.0,-308.7526228568412,-150.2639207473847,-255.96191100188094
346787,6575,346787.0,18529.0,346787.0,26076.0,-314.34155168409006,-152.51364571726083,-259.7418898711328
346787,6560,346787.0,18543.0,346787.0,26054.0,-319.9545335159729,-154.77473610771608,-263.5326392186644
346787,6555,346787.0,18499.0,346787.0,26035.0,-325.5906921644222,-157.04527953810168,-267.3323784001309
346787,6566,346787.0,18525.0,346787.0,26036.0,-331.2493535506916,-159.32382302535098,-271.1394490673693
346787,6554,346787.0,18544.0,346787.0,26059.0,-336.9300301890121,-161.60952376342027,-274.95251767646744
346787,6554,346787.0,18562.0,346787.0,26059.0,-342.6322493096219,-163.90188486273217,-278.7704359002282
346797,6553,346797.0,18521.0,346797.0,26008.0,-348.3554148706213,-166.20025416812194,-282.59195529138617
346797,6531,346797.0,18505.0,346797.0,26023.0,-354.09872776337613,-168.50367710183627,-286.415781928904
346797,6521,346797.0,18524.0,346797.0,26013.0,-359.8612128036783,-170.8112148596893,-290.2409083538155
346797,6523,346797.0,18532.0,346797.0,26043.0,-365.6418626553324,-173.12217753990387,-294.06672500183834
346797,6517,346797.0,18540.0,346797.0,26024.0,-371.439726703337,-175.43593832107717,-297.8927796244778
346797,6487,346797.0,18509.0,346797.0,26007.0,-377.2539125312645,-177.75162620000356,-301.7185125639959
346807,6502,346807.0,18507.0,346807.0,26006.0,-383.08366597993574,-180.0680939614304,-305.5432653870801
346807,6501,346807.0,18459.0,346807.0,26004.0,-388.92845089319667,-182.38424033378988,-309.3664536169912
346807,6476,346807.0,18509.0,346807.0,26001.0,-394.7878707276998,-184.69946982754686,-313.1876384790639
346807,6490,346807.0,18510.0,346807.0,26004.0,-400.6615838256714,-187.01386126016843,-317.0064733946596
346807,6496,346807.0,18545.0,346807.0,25992.0,-406.5492487941293,-189.3277879748827,-320.8226203541537
346807,6490,346807.0,18483.0,346807.0,26020.0,-412.450311800648,-191.64135402427684,-324.6356442780174
346818,6449,346818.0,18475.0,346818.0,25969.0,-418.3637916278823,-193.95429187804518,-328.44487930912464
346818,6453,346818.0,18473.0,346818.0,25979.0,-424.2883883270147,-196.2664127207101,-332.2494350213585
346818,6447,346818.0,18506.0,346818.0,25993.0,-430.222785985643,-198.57799818313282,-336.04836685203924
346818,6459,346818.0,18521.0,346818.0,25985.0,-436.16576109873415,-200.8896316300419,-339.8406768747284
346818,6432,346818.0,18531.0,346818.0,25951.0,-442.1160520645143,-203.20160256243832,-343.6251631577481
346818,6434,346818.0,18495.0,346818.0,25980.0,-448.0722569782847,-205.51336779162074,-347.4004637979616
346828,6401,346828.0,18452.0,346828.0,25938.0,-454.03291559426145,-207.8235348366794,-351.16522079246647
346828,6394,346828.0,18474.0,346828.0,25942.0,-459.99674919375934,-210.13040601457317,-354.9182160607217
346828,6419,346828.0,18476.0,346828.0,25934.0,-465.96289448551727,-212.43250448070108,-358.65856465595124
346828,6412,346828.0,18441.0,346828.0,25937.0,-471.9308523071037,-214.72869776360852,-362.38587211305804
346828,6396,346828.0,18492.0,346828.0,25957.0,-477.9001855614558,-217.01817787444844,-366.10018596957616
346828,6387,346828.0,18471.0,346828.0,25939.0,-483.8703529392593,-219.30037088229528,-369.8017576642216
346838,6371,346838.0,18451.0,346838.0,25927.0,-489.84080391589293,-221.57472336741984,-373.4908293292055
346838,6365,346838.0,18444.0,346838.0,25922.0,-495.81116302641885,-223.84070778117297,-377.16765998561135
346838,6383,346838.0,18464.0,346838.0,25948.0,-501.781331420912,-226.0980649444183,-380.83263328595785
346838,6353,346838.0,18466.0,346838.0,25922.0,-507.75141262250224,-228.3468445547241,-384.48616347668616
346838,6359,346838.0,18456.0,346838.0,25920.0,-513.7215960591352,-230.58718097606783,-388.1285290879949
346838,6348,346838.0,18448.0,346838.0,25898.0,-519.6921521712069,-232.8191362010068,-391.7599196836859
346849,6347,346849.0,18429.0,346849.0,25884.0,-525.6634480245035,-235.0427860465167,-395.38069566255916
346849,6327,346849.0,18450.0,346849.0,25886.0,-531.6359328289603,-237.25842411110233,-398.99170527704166
346849,6333,346849.0,18417.0,346849.0,25920.0,-537.6101682307107,-239.46669325997885,-402.59442410386
346849,6326,346849.0,18475.0,346849.0,25922.0,-543.5868588429453,-241.668569750419,-406.19068218873906
346849,6327,346849.0,18442.0,346849.0,25897.0,-549.5667899086271,-243.86514938468508,-409.78217107459244
346849,6299,346849.0,18435.0,346849.0,25891.0,-555.5507449285411,-246.05736922750873,-413.3702284942422
346859,6309,346859.0,18429.0,346859.0,25871.0,-561.5395367969992,-248.24599472138078,-416.9560200759229
346859,6302,346859.0,18462.0,346859.0,25892.0,-567.5340795679635,-250.43175681907252,-420.54080434240075
346859,6308,346859.0,18457.0,346859.0,25877.0,-573.5353288112376,-252.6152121055701,-424.126009786591
346859,6294,346859.0,18434.0,346859.0,25900.0,-579.5441148164285,-254.79641290786404,-427.71310374563353
346859,6278,346859.0,18411.0,346859.0,25871.0,-585.5610446805013,-256.9748669981718,-431.3033926659315
346859,6265,346859.0,18385.0,346859.0,25860.0,-591.5865865828434,-259.14995081007487,-434.8979540624561
346869,6255,346869.0,18409.0,346869.0,25856.0,-597.6212836123518,-261.3214685744967,-438.4978053647899
346869,6267,346869.0,18408.0,346869.0,25847.0,-603.6659190437834,-263.4899303858052,-442.1041517642953
346869,6265,346869.0,18432.0,346869.0,25868.0,-609.7214751960383,-265.65639944630743,-445.7184883954681
346869,6261,346869.0,18414.0,346869.0,25871.0,-615.7889121575099,-267.82212703564073,-449.3424637212403
346869,6243,346869.0,18415.0,346869.0,25841.0,-621.8689768171344,-269.98828682732,-452.9776174045027
346869,6232,346869.0,18393.0,346869.0,25834.0,-627.9622040710505,-272.1559602944369,-456.62532450479614
346880,6223,346880.0,18400.0,346880.0,25840.0,-634.0690717319463,-274.32630840877425,-460.2870127343801
346880,6242,346880.0,18415.0,346880.0,25850.0,-640.1901148473432,-276.500702941171,-463.9642904835953
346880,6231,346880.0,18406.0,346880.0,25861.0,-646.3258213251619,-278.6806372142876,-467.65876296066176
346880,6203,346880.0,18375.0,346880.0,25856.0,-652.4764343220871,-280.8675903037712,-471.37167198572865
346880,6200,346880.0,18398.0,346880.0,25820.0,-658.6419750576412,-283.0631279604621,-475.1036568782264
346880,6177,346880.0,18395.0,346880.0,25817.0,-664.8224961657129,-285.2690641423755,-478.854877222568
346890,6185,346890.0,18394.0,346890.0,25803.0,-671.0183288069079,-287.4873997851123,-482.6253942814766
346890,6181,346890.0,18383.0,346890.0,25816.0,-677.2301778307822,-289.7201885072867,-486.41546904035323
346890,6196,346890.0,18412.0,346890.0,25823.0,-683.4590103370717,-291.9694789428538,-490.2255826010913
346890,6178,346890.0,18404.0,346890.0,25804.0,-689.7057922562336,-294.2371656677114,-494.0562517705676
346890,6158,346890.0,18393.0,346890.0,25799.0,-695.9712995783308,-296.52473651472604,-497.90790291315847
346890,6158,346890.0,18361.0,346890.0,25797.0,-702.2561762180698,-298.83323191805084,-501.78093559409956
346900,6146,346900.0,18409.0,346900.0,25806.0,-708.5611069504786,-301.16346683204654,-505.6757918422932
346900,6156,346900.0,18374.0,346900.0,25792.0,-714.8868827873837,-303.51612663676536,-509.5928853124918
346900,6159,346900.0,18394.0,346900.0,25791.0,-721.2342899667271,-305.8916277224234,-513.5325036616188
346900,6112,346900.0,18392.0,346900.0,25780.0,-727.6039459779361,-308.2899795064129,-517.4948095974983
346900,6111,346900.0,18361.0,346900.0,25748.0,-733.99637806231,-310.71072477260094,-521.4799709467404
346900,6121,346900.0,18327.0,346900.0,25763.0,-740.4123259549107,-313.1531101115514,-525.4884278296371
346911,6117,346911.0,18348.0,346911.0,25761.0,-746.8528438692769,-315.61658765908965,-529.5211228942876
346911,6109,346911.0,18376.0,346911.0,25776.0,-753.3191187285507,-318.1011725794241,-533.5794537717172
346911,6104,346911.0,18402.0,346911.0,25769.0,-759.8123020971183,-320.6071625213341,-537.6650003388388
346911,6088,346911.0,18338.0,346911.0,25763.0,-766.3334792238952,-323.1345307019959,-541.7792635221249
346911,6081,346911.0,18333.0,346911.0,25749.0,-772.8837326635582,-325.68278388669694,-545.9235754678878
346911,6068,346911.0,18344.0,346911.0,25747.0,-779.4642619900325,-328.2514046663158,-550.0991810324015
346921,6082,346921.0,18367.0,346921.0,25756.0,-786.0764705230876,-330.84015557940313,-554.3073326987857
346921,6068,346921.0,18342.0,346921.0,25754.0,-792.7219117722893,-333.44889296639286,-558.5492349590443
346921,6075,346921.0,18323.0,346921.0,25760.0,-799.4021218625834,-336.0773620896226,-562.8258462167205
346921,6036,346921.0,18362.0,346921.0,25744.0,-806.1185078856962,-338.72527910641077,-567.1376798337658
346921,6053,346921.0,18312.0,346921.0,25726.0,-812.8724115285393,-341.3924145599971,-571.4847560716994
346921,6048,346921.0,18336.0,346921.0,25713.0,-819.6652082971077,-344.0785913769629,-575.8667838357876
346932,6064,346932.0,18321.0,346932.0,25745.0,-826.4981913521658,-346.7837612986116,-580.2833961566164
346932,6042,346932.0,18339.0,346932.0,25731.0,-833.3722682464278,-349.5080342811684,-584.7341135984316
346932,6025,346932.0,18345.0,346932.0,25718.0,-840.2877639637389,-352.2515192067025,-589.2180942942485
346932,6012,346932.0,18325.0,346932.0,25695.0,-847.2445103440743,-355.01407911253006,-593.7340794153574
346932,6005,346932.0,18323.0,346932.0,25712.0,-854.2420943894873,-357.79521747585306,-598.2806069566682
346932,6004,346932.0,18359.0,346932.0,25719.0,-861.2800327268905,-360.5940874649444,-602.8561275848828
346942,5999,346942.0,18320.0,346942.0,25727.0,-868.3577892667083,-363.40936109133656,-607.4587918927166
346942,6006,346942.0,18341.0,346942.0,25706.0,-875.474670475992,-366.23902912204,-612.0861054118895
346942,5977,346942.0,18289.0,346942.0,25692.0,-882.6296832807967,-369.0804292823527,-616.7347914324251
346942,5981,346942.0,18304.0,346942.0,25647.0,-889.8214912109094,-371.9305311454873,-621.4010236072787
346942,5954,346942.0,18321.0,346942.0,25668.0,-897.0485133413853,-374.7862268513213,-626.0809232119848
346942,5979,346942.0,18256.0,346942.0,25654.0,-904.3090345319565,-377.64442740087054,-630.7709710741906
346952,5960,346952.0,18289.0,346952.0,25685.0,-911.6011651175005,-380.5022054460071,-635.4680469259347
346952,5967,346952.0,18346.0,346952.0,25698.0,-918.9226561768713,-383.35694015054855,-640.1690942679368
346952,5952,346952.0,18270.0,346952.0,25682.0,-926.2707242456976,-386.20600685787474,-644.8705929854762
346952,5940,346952.0,18287.0,346952.0,25646.0,-933.6419826864585,-389.04643663250044,-649.5682324213092
346952,5921,346952.0,18299.0,346952.0,25643.0,-941.0325081388138,-391.875055739012,-654.2570865564614
346952,5924,346952.0,18326.0,346952.0,25665.0,-948.4380077556222,-394.68853446763944,-658.9319858559254
346963,5937,346963.0,18287.0,346963.0,25663.0,-955.8538930732567,-397.4830256630234,-663.5875557220891
346963,5920,346963.0,18291.0,346963.0,25660.0,-963.2751169708055,-400.2539212560641,-668.2179217222224
346963,5907,346963.0,18272.0,346963.0,25633.0,-970.6959600497643,-402.9959981032764,-672.8164946037123
346963,5881,346963.0,18276.0,346963.0,25627.0,-978.1100499192164,-405.7036861512977,-677.3760639688118
346963,5895,346963.0,18258.0,346963.0,25626.0,-985.5105791679849,-408.37126076801314,-681.8890611844638
346963,5881,346963.0,18283.0,346963.0,25632.0,-992.8904429550952,-410.99294727492105,-686.3477104612655
346973,5887,346973.0,18278.0,346973.0,25626.0,-1000.2421750139853,-413.56286703443004,-690.7439671582192
346973,5889,346973.0,18282.0,346973.0,25626.0,-1007.5577733676913,-416.07481920826535,-695.0693751062179
346973,5868,346973.0,18258.0,346973.0,25597.0,-1014.8285090893116,-418.52210884567046,-699.3150152270616
346973,5863,346973.0,18224.0,346973.0,25596.0,-1022.0448337203833,-420.89767041992593,-703.4716448834189
346973,5864,346973.0,18280.0,346973.0,25628.0,-1029.1964180098557,-423.1944202452769,-707.5298744440026
346973,5853,346973.0,18276.0,346973.0,25616.0,-1036.2721684800247,-425.40533409470095,-711.480051496032
346983,5823,346983.0,18236.0,346983.0,25607.0,-1043.2602262001997,-427.5231308475239,-715.311929910624
346983,5827,346983.0,18233.0,346983.0,25595.0,-1050.1481181175513,-429.540195818155,-719.0145348900808
346983,5820,346983.0,18241.0,346983.0,25577.0,-1056.9229743065473,-431.4489261354996,-722.5763214677223
346983,5809,346983.0,18213.0,346983.0,25574.0,-1063.571611189734,-433.24202689062383,-725.9854568211333
346983,5815,346983.0,18242.0,346983.0,25570.0,-1070.0805135234814,-434.91262675270707,-729.2300790367053
346983,5808,346983.0,18273.0,346983.0,25602.0,-1076.4357783096211,-436.4542051921238,-732.2983687835145
346994,5821,346994.0,18241.0,346994.0,25576.0,-1082.622976548894,-437.8602121351877,-735.1783553538455
346994,5797,346994.0,18241.0,346994.0,25583.0,-1088.6269616193158,-439.1237242966606,-737.8576719678483
346994,5777,346994.0,18233.0,346994.0,25567.0,-1094.4318028344442,-440.2374966025563,-740.3235116717823
346994,5780,346994.0,18234.0,346994.0,25556.0,-1100.02096002285,-441.19418227090466,-742.5627619692867
346994,5774,346994.0,18261.0,346994.0,25592.0,-1105.3775073886986,-441.9863979883677,-744.5621405109518
346994,5799,346994.0,18242.0,346994.0,25580.0,-1110.4841380314056,-442.60656763648353,-746.3081137034555
347003,5782,347003.0,18245.0,347003.0,25560.0,-1115.322925386519,-443.04672694161366,-747.7866634268684
347003,5763,347003.0,18208.0,347003.0,25546.0,-1119.875087018663,-443.29856654360714,-748.9833070414585
347003,5747,347003.0,18205.0,347003.0,25538.0,-1124.121044786254,-443.3537886165826,-749.8834561318116
347003,5755,347003.0,18209.0,347003.0,25535.0,-1128.0407232962023,-443.2045810049173,-750.472814941869
347003,5748,347003.0,18229.0,347003.0,25556.0,-1131.6137594360832,-442.84387522362977,-750.7375943343584
347003,5755,347003.0,18264.0,347003.0,25567.0,-1134.8195042302445,-442.26517203463936,-750.6644405473921
347013,5744,347013.0,18267.0,347013.0,25511.0,-1137.6369411232627,-441.4619975645773,-750.2402471617643
347013,5728,347013.0,18224.0,347013.0,25529.0,-1140.0446751603354,-440.427392899312,-749.4522878327691
347013,5726,347013.0,18208.0,347013.0,25537.0,-1142.021082786337,-439.1539635349941,-748.2886277093967
347013,5725,347013.0,18239.0,347013.0,25561.0,-1143.5445379564017,-437.63440998466604,-746.7382594500368
347013,5726,347013.0,18263.0,347013.0,25561.0,-1144.5935472851693,-435.86180921344373,-744.7908286291379
347013,5718,347013.0,18243.0,347013.0,25556.0,-1145.1467868358684,-433.829353695907,-742.4363131606154
347024,5720,347024.0,18220.0,347024.0,25544.0,-1145.183146475064,-431.5301109126472,-739.6649525373616
347024,5713,347024.0,18214.0,347024.0,25543.0,-1144.6818189072897,-428.95727705572483,-736.4674474478782
347024,5691,347024.0,18215.0,347024.0,25550.0,-1143.6224563301748,-426.10469446009495,-732.8352418765382
347024,5711,347024.0,18220.0,347024.0,25542.0,-1141.9854277582385,-422.9672201363607,-728.7607179911759
347024,5716,347024.0,18264.0,347024.0,25573.0,-1139.7520198188201,-419.5407756059576,-724.2372757580683
347024,5714,347024.0,18244.0,347024.0,25557.0,-1136.904421777586,-415.822080227072,-719.2593015752774
347034,5729,347034.0,18232.0,347034.0,25566.0,-1133.4256249143386,-411.80837574933395,-713.8221131557816
347034,5716,347034.0,18242.0,347034.0,25576.0,-1129.29938253157,-407.4975044496736,-707.9220002395607
347034,5708,347034.0,18225.0,347034.0,25585.0,-1124.5102878082675,-402.8882154664499,-701.5562722406423
347034,5731,347034.0,18267.0,347034.0,25584.0,-1119.0439862107569,-397.98037762674016,-694.723229974565
347034,5736,347034.0,18276.0,347034.0,25605.0,-1112.887326654095,-392.774924764017,-687.4221424997961
347034,5724,347034.0,18269.0,347034.0,25597.0,-1106.028354735854,-387.2735679330314,-679.6532473397672
347044,5727,347044.0,18268.0,347044.0,25616.0,-1098.4563933335126,-381.47861245334025,-671.4177619647879
347044,5735,347044.0,18259.0,347044.0,25603.0,-1090.1623040387167,-375.3930942403979,-662.7179510450901
347044,5757,347044.0,18248.0,347044.0,25623.0,-1081.1386950173944,-369.0211179709888,-653.5572635983943
347044,5759,347044.0,18300.0,347044.0,25618.0,-1071.3799319023185,-362.36817437060256,-643.9404974561432
347044,5776,347044.0,18333.0,347044.0,25661.0,-1060.8820632579525,-355.4410722166515,-633.8738877230288
347044,5783,347044.0,18328.0,347044.0,25644.0,-1049.642788291409,-348.2473776230942,-623.3650441936283
347055,5791,347055.0,18293.0,347055.0,25669.0,-1037.661479077074,-340.79495536240455,-612.4228569212821
347055,5802,347055.0,18326.0,347055.0,25681.0,-1024.939253318404,-333.0921118406272,-601.0574931379728
347055,5816,347055.0,18336.0,347055.0,25702.0,-1011.479079449455,-325.14795293957326,-589.2803739310815
347055,5850,347055.0,18359.0,347055.0,25723.0,-997.2858168971864,-316.9724039790397,-577.1040311843535
347055,5862,347055.0,18415.0,347055.0,25737.0,-982.3661003377222,-308.57585507557803,-564.5419031004201
347055,5860,347055.0,18359.0,347055.0,25751.0,-966.7281811150626,-299.9686643065274,-551.6081528953607
347065,5869,347065.0,18354.0,347065.0,25750.0,-950.3819826168244,-291.1610121330454,-538.3175972497982
347065,5879,347065.0,18355.0,347065.0,25764.0,-933.3393956435473,-282.1634042317403,-524.6857946490765
347065,5910,347065.0,18384.0,347065.0,25776.0,-915.6145705974718,-272.9872962328435,-510.72922432268615
347065,5937,347065.0,18419.0,347065.0,25812.0,-897.2239976559716,-263.6452268307781,-496.4653832588983
347065,5954,347065.0,18449.0,347065.0,25808.0,-878.186376490164,-254.15042651324177,-481.9127137374495
347065,5988,347065.0,18422.0,347065.0,25852.0,-858.5224308182901,-244.5162758925511,-467.09046199734405
347075,6001,347075.0,18429.0,347075.0,25851.0,-838.2547602779225,-234.75611712011602,-452.01854434290203
347075,6019,347075.0,18427.0,347075.0,25869.0,-817.4077552526977,-224.88353330321095,-436.71744030120794
347075,6064,347075.0,18487.0,347075.0,25899.0,-796.0075739193015,-214.91263812891046,-421.2081546828887
347075,6074,347075.0,18462.0,347075.0,25939.0,-774.0820653703064,-204.85798872161809,-405.5121062215074
347075,6093,347075.0,18514.0,347075.0,25937.0,-751.6606501053571,-194.73428519687664,-389.6508186646306
347075,6148,347075.0,18488.0,347075.0,25930.0,-728.7742682905752,-184.5561559513336,-373.6457111094223
347086,6166,347086.0,18462.0,347086.0,25947.0,-705.4552470999927,-174.3382042767762,-357.51829044191726
347086,6189,347086.0,18508.0,347086.0,26001.0,-681.7370335189404,-164.0954068887611,-341.29045983815394
347086,6218,347086.0,18575.0,347086.0,25996.0,-657.654028336137,-153.8433640340432,-324.9844852659553
347086,6252,347086.0,18537.0,347086.0,26034.0,-633.2415404770172,-143.59787654687193,-308.6227224845476
347086,6301,347086.0,18558.0,347086.0,26076.0,-608.5356440246863,-133.3744159910462,-292.22735880915826
347086,6300,347086.0,18573.0,347086.0,26059.0,-583.5729064277322,-123.18808842280083,-275.82012439636355
347096,6329,347096.0,18554.0,347096.0,26097.0,-558.3902356424538,-113.05380593011921,-259.4220937557284
347096,6379,347096.0,18631.0,347096.0,26127.0,-533.0249259717666,-102.98634570972303,-243.05365570862273
347096,6404,347096.0,18638.0,347096.0,26121.0,-507.5146018925232,-93.00011406274496,-226.7344224308843
347096,6451,347096.0,18625.0,347096.0,26148.0,-481.89692914321785,-83.1086370934849,-210.4831335812442
347096,6488,347096.0,18640.0,347096.0,26131.0,-456.20924565552343,-73.32429571905908,-194.3177714151616
347096,6480,347096.0,18653.0,347096.0,26130.0,-430.4882608656426,-63.65845026129813,-178.255904485788
347106,6515,347106.0,18641.0,347106.0,26176.0,-404.77002861465076,-54.12159197306153,-162.31514398990123
347106,6529,347106.0,18623.0,347106.0,26211.0,-379.09019851624134,-44.72354338776722,-146.51333374707457
347106,6604,347106.0,18699.0,347106.0,26224.0,-353.4841763019125,-35.473775953120196,-130.86825872307264
347106,6623,347106.0,18729.0,347106.0,26268.0,-327.9869005688604,-26.38133465088464,-115.39718519523211
347106,6664,347106.0,18673.0,347106.0,26282.0,-302.63236834765746,-17.454262039086814,-100.11646673796389
347106,6665,347106.0,18688.0,347106.0,26266.0,-277.45328881775083,-8.699379481453605,-85.0412721361912
347117,6681,347117.0,18705.0,347117.0,26289.0,-252.48108870206818,-0.1227106475756159,-70.18562897395623
347117,6722,347117.0,18738.0,347117.0,26338.0,-227.74616102066216,8.270221953062958,-55.56263669661496
347117,6764,347117.0,18736.0,347117.0,26309.0,-203.2780000053939,16.474589847758864,-41.18445001621956
347117,6794,347117.0,18732.0,347117.0,26346.0,-179.10500060107358,24.48652418254551,-27.062181987109284
347117,6825,347117.0,18701.0,347117.0,26343.0,-155.25409968255963,32.303025138325495,-13.20600360388437
347117,6839,347117.0,18735.0,347117.0,26344.0,-131.75052115097833,39.921515309685276,0.37467174643461476
347127,6857,347127.0,18733.0,347127.0,26392.0,-108.61772319781619,47.33943784584238,13.67103061735429
347127,6901,347127.0,18760.0,347127.0,26396.0,-85.87747203930746,54.55419490622654,26.674860472039654
347127,6911,347127.0,18776.0,347127.0,26419.0,-63.54984910388055,61.56333949704003,39.37876421725139
347127,6933,347127.0,18791.0,347127.0,26435.0,-41.65318286828722,68.36487506503437,51.77637810249496
347127,6950,347127.0,18791.0,347127.0,26442.0,-20.204074679692894,74.95755162098902,63.86249406203899
347127,6974,347127.0,18784.0,347127.0,26441.0,0.7824860822472601,81.34099048722254,75.63308265968442
347138,7008,347138.0,18811.0,347138.0,26478.0,21.293065777732522,87.51561544865876,87.08521073652992
347138,7026,347138.0,18816.0,347138.0,26501.0,41.3158625578551,93.48261293000576,98.21706436184002
347138,7052,347138.0,18836.0,347138.0,26488.0,60.84085239793865,99.24407701289965,109.02817432252493
347138,7054,347138.0,18804.0,347138.0,26485.0,79.85986788580408,104.80317128677814,119.51950220360982
347138,7069,347138.0,18793.0,347138.0,26483.0,98.36651295516901,110.16399176699969,129.69314625587413
347138,7090,347138.0,18782.0,347138.0,26507.0,116.3559522850527,115.33105185747786,139.5519199903663
347148,7102,347148.0,18818.0,347148.0,26514.0,133.82472735809267,120.30873326480912,149.09913735281202
347148,7139,347148.0,18844.0,347148.0,26542.0,150.7706964797428,125.10116818022101,158.3386570097166
347148,7150,347148.0,18879.0,347148.0,26544.0,167.19310697076412,129.71267806074962,167.27506017158953
347148,7165,347148.0,18826.0,347148.0,26542.0,183.09272472880468,134.14837222465604,175.91378981383104
347148,7181,347148.0,18831.0,347148.0,26550.0,198.4718835741436,138.4142807888773,184.2611074647972
347148,7190,347148.0,18836.0,347148.0,26554.0,213.33443412160977,142.5169469057414,192.3239159574776
347158,7220,347158.0,18866.0,347158.0,26562.0,227.68568722256805,146.46308522291264,200.1096037731383
347158,7227,347158.0,18865.0,347158.0,26584.0,241.53242875856893,150.2596766997911,207.62598361226634
347158,7231,347158.0,18850.0,347158.0,26582.0,254.88295907384668,153.91421017347398,214.88134114732566
347158,7231,347158.0,18810.0,347158.0,26599.0,267.74699291092134,157.43459082849586,221.88453097173527
347158,7249,347158.0,18832.0,347158.0,26589.0,280.13539934969685,160.82860605093146,228.64501019826662
347158,7259,347158.0,18840.0,347158.0,26610.0,292.059967624945,164.10338958869664,235.17278918566285
347169,7268,347169.0,18869.0,347169.0,26612.0,303.53330168746027,167.265341133164,241.47838003911318
347169,7294,347169.0,18877.0,347169.0,26601.0,314.5687965881714,170.3204585963279,247.57276887248418
347169,7291,347169.0,18906.0,347169.0,26603.0,325.18066795017205,173.27481372009674,253.46728197825723
347169,7304,347169.0,18861.0,347169.0,26616.0,335.3839754115344,176.13493809159547,259.1733374599107
347169,7299,347169.0,18869.0,347169.0,26602.0,345.1945363738679,178.90784818702025,264.7022519578851
347169,7321,347169.0,18856.0,347169.0,26639.0,354.6287558829482,181.6006889968308,270.06515067449754
347179,7352,347179.0,18851.0,347179.0,26644.0,363.7035583171961,184.22031373390865,275.2730187860956
347179,7327,347179.0,18897.0,347179.0,26636.0,372.436505353851,186.77305843579228,280.336895907968
347179,7347,347179.0,18901.0,347179.0,26627.0,380.8458547992551,189.26488123543913,285.26793803243197
347179,7333,347179.0,18872.0,347179.0,26640.0,388.95037353731595,191.70173860148645,290.077206949043
347179,7334,347179.0,18873.0,347179.0,26635.0,396.76902745827454,194.08967623505805,294.77542356521815
347179,7355,347179.0,18878.0,347179.0,26659.0,404.3206813338818,196.43453526900703,299.37287095668466
347189,7365,347189.0,18911.0,347189.0,26671.0,411.6239456459259,198.74176129265925,303.8794690657603
347189,7380,347189.0,18929.0,347189.0,26687.0,418.69724868843093,201.01663576273057,308.305014644975
347189,7379,347189.0,18883.0,347189.0,26661.0,425.55898359007324,203.26469082491036,312.6594242276159
347189,7376,347189.0,18880.0,347189.0,26671.0,432.2275414575312,205.49174680420703,316.9527227963597
347189,7371,347189.0,18897.0,347189.0,26659.0,438.72115517093425,207.70349730876723,321.1947798557675
347189,7405,347189.0,18928.0,347189.0,26676.0,445.05766859374035,209.90525899656149,325.3950334115772
347200,7388,347200.0,18902.0,347200.0,26672.0,451.25445119827566,212.10218128679838,329.5623472512533
347200,7402,347200.0,18904.0,347200.0,26693.0,457.3284211080655,214.29947062736045,333.7049971777293
347200,7398,347200.0,18872.0,347200.0,26685.0,463.2959796991015,216.502234527278,337.8307373434725
347200,7405,347200.0,18886.0,347200.0,26682.0,469.17286935966706,218.71505042217365,341.94683511479263
347200,7402,347200.0,18892.0,347200.0,26706.0,474.9740328084914,220.94158907954898,346.0600094590569
347200,7431,347200.0,18913.0,347200.0,26702.0,480.7135098945546,223.1845433423984,350.1764082111097
347210,7434,347210.0,18927.0,347210.0,26718.0,486.40447460928215,225.44587018976694,354.3017090001257
347210,7438,347210.0,18941.0,347210.0,26702.0,492.0593956703824,227.72718615206446,358.4412060268115
347210,7430,347210.0,18894.0,347210.0,26713.0,497.69010573960657,230.03005900244955,362.59976311000844
347210,7436,347210.0,18897.0,347210.0,26699.0,503.30766959363143,232.35587997101356,366.78165104785467
347210,7455,347210.0,18918.0,347210.0,26710.0,508.92220264876346,234.70542166707185,370.9903419946356
347210,7460,347210.0,18963.0,347210.0,26741.0,514.5428418584411,237.07870294993546,375.22839630904434
347220,7462,347220.0,18906.0,347220.0,26738.0,520.1778443759354,239.47534083644462,379.4975975909342
347220,7459,347220.0,18937.0,347220.0,26731.0,525.8346153658249,241.89479244781438,383.7991982122594
347220,7462,347220.0,18895.0,347220.0,26730.0,531.5195837521383,244.3361530946661,388.1339433955877
347220,7468,347220.0,18903.0,347220.0,26717.0,537.2380187596489,246.79775539050632,392.50183535141184
347220,7477,347220.0,18938.0,347220.0,26736.0,542.9939023980196,249.2768466782597,396.9018357793949
347220,7488,347220.0,18986.0,347220.0,26773.0,548.7899042692475,251.7697050495089,401.3317576798951
347231,7504,347231.0,18954.0,347231.0,26765.0,554.6274545262452,254.2722830880408,405.78851448104626
347231,7512,347231.0,18964.0,347231.0,26773.0,560.5068946616759,256.7807662670316,410.2684897772565
347231,7514,347231.0,18932.0,347231.0,26785.0,566.4276332286918,259.2915746002993,414.76770803041916
347231,7520,347231.0,18944.0,347231.0,26787.0,572.388207322243,261.8010019479539,419.28188325124825
347231,7545,347231.0,18984.0,347231.0,26788.0,578.3862862694575,264.30493629054484,423.806471260677
347231,7558,347231.0,18994.0,347231.0,26799.0,584.4187875711216,266.7990253640815,428.3366771027072
347241,7548,347241.0,18938.0,347241.0,26815.0,590.4820991003662,269.2790773224964,432.8674683506754
347241,7548,347241.0,18952.0,347241.0,26794.0,596.5721506480447,271.74102064645166,437.3936470805344
347241,7539,347241.0,18941.0,347241.0,26782.0,602.6842094645722,274.180393080437,441.909780328637
347241,7546,347241.0,18957.0,347241.0,26807.0,608.8125456434998,276.5919385186943,446.4098900442043
347241,7577,347241.0,18991.0,347241.0,26815.0,614.9502002348668,278.96958923959244,450.8872285359464
347241,7595,347241.0,19001.0,347241.0,26854.0,621.0890626988555,281.3068134230187,455.33442697813257
347251,7596,347251.0,19033.0,347251.0,26789.0,627.220211382069,283.5972006495967,459.7437966106861
347251,7602,347251.0,18980.0,347251.0,26840.0,633.3341955081623,285.8349638160505,464.1073376545436
347251,7612,347251.0,18987.0,347251.0,26824.0,639.4211031453566,288.01498530591255,468.41650678576514
347251,7640,347251.0,18993.0,347251.0,26841.0,645.470595568711,290.1324460537545,472.6621400792769
347251,7646,347251.0,19015.0,347251.0,26881.0,651.472098568981,292.18256586232326,476.8346065791478
347251,7660,347251.0,19012.0,347251.0,26887.0,657.4150943793329,294.16072631020967,480.924174578476
347262,7655,347262.0,19010.0,347262.0,26886.0,663.2893283801462,296.06270320399244,484.9215018738905
347262,7652,347262.0,19000.0,347262.0,26881.0,669.0848236660638,297.88471730842014,488.8179042506374
347262,7653,347262.0,19003.0,347262.0,26874.0,674.7917119051273,299.62329134949204,492.60527702879324
347262,7652,347262.0,18993.0,347262.0,26888.0,680.3999820040921,301.27504900428943,496.27587232544147
347262,7678,347262.0,19042.0,347262.0,26921.0,685.8992966607312,302.8366259854843,499.8222176428866
347262,7698,347262.0,19023.0,347262.0,26913.0,691.2790309347808,304.3048552286422,503.2373399571294
347272,7702,347272.0,19037.0,347272.0,26888.0,696.5285534117286,305.6771089144573,506.5150243705234
347272,7699,347272.0,19010.0,347272.0,26913.0,701.6375094812703,306.95145339432054,509.6497392381133
347272,7697,347272.0,18985.0,347272.0,26901.0,706.5958662523767,308.12644913553186,512.636395939405
347272,7723,347272.0,19048.0,347272.0,26936.0,711.3938003906312,309.2007799097876,515.4702956047049
347272,7733,347272.0,19035.0,347272.0,26901.0,716.0217084784998,310.17320303860265,518.1472407027651
347272,7738,347272.0,19036.0,347272.0,26941.0,720.4704171200357,311.0429178776413,520.663609271586
347282,7735,347282.0,19006.0,347282.0,26901.0,724.7313765642086,311.80978189091485,523.0163352650952
347282,7744,347282.0,19023.0,347282.0,26912.0,728.7966863657934,312.47410720925603,525.2027890639247
347282,7750,347282.0,18993.0,347282.0,26935.0,732.6590484770991,313.03632909521036,527.2205946799226
347282,7766,347282.0,19048.0,347282.0,26917.0,736.3117937364804,313.4968174866606,529.0675901619029
347282,7771,347282.0,19019.0,347282.0,26948.0,739.7490184188822,313.8559570786811,530.741957589933
347282,7783,347282.0,19037.0,347282.0,26952.0,742.9657744011464,314.1143927222138,532.2424033293474
347293,7777,347293.0,19016.0,347293.0,26950.0,745.9582281372199,314.2731527581813,533.5684007440951
347293,7767,347293.0,19030.0,347293.0,26934.0,748.7236894420716,314.3335936012044,534.7203476786905
347293,7774,347293.0,19029.0,347293.0,26955.0,751.2604656890417,314.2973375561551,535.6994990893097
347293,7790,347293.0,19049.0,347293.0,26951.0,753.5676993614951,314.1663394134702,536.5078812314388
347293,7793,347293.0,19024.0,347293.0,26947.0,755.6453974600892,313.94305748601954,537.1483330729844
347293,7779,347293.0,19043.0,347293.0,26945.0,757.4945677998934,313.63055700729535,537.6245251140297
347303,7781,347303.0,19017.0,347303.0,26927.0,759.1172072106755,313.23247498089756,537.9408401712543
347303,7758,347303.0,18985.0,347303.0,26922.0,760.516082922894,312.75282412252096,538.1021301775272
347303,7779,347303.0,19008.0,347303.0,26933.0,761.6944386213105,312.1955811405642,538.1134379029601
347303,7778,347303.0,19032.0,347303.0,26958.0,762.6558112643738,311.5643769542209,537.9799141483965
347303,7809,347303.0,19041.0,347303.0,26956.0,763.4041062998823,310.8626954903149,537.7070658387705
347303,7776,347303.0,19017.0,347303.0,26936.0,763.9438481915646,310.09433202324277,537.3010798603455
347313,7776,347313.0,19017.0,347313.0,26921.0,764.2802863831058,309.26357263328526,536.7688339083326
347313,7775,347313.0,19010.0,347313.0,26941.0,764.4192108468787,308.375035970831,536.1176143828329
347313,7792,347313.0,19053.0,347313.0,26906.0,764.3667502524445,307.43355562324416,535.3548709797236
347313,7793,347313.0,19065.0,347313.0,26920.0,764.1294156540804,306.4444489907393,534.488058338312
347313,7798,347313.0,18972.0,347313.0,26938.0,763.7143065283618,305.41392359536485,533.5245118920351
347313,7768,347313.0,19023.0,347313.0,26922.0,763.129234081495,304.3489406805938,532.4715114853241
347324,7776,347324.0,18989.0,347324.0,26904.0,762.3825997002052,303.25664923066097,531.336403002256
347324,7790,347324.0,18931.0,347324.0,26891.0,761.4831740037572,302.14392040415845,530.1264357645089
347324,7766,347324.0,18978.0,347324.0,26920.0,760.4400393119187,301.0168222859852,528.8484368866136
347324,7761,347324.0,19014.0,347324.0,26939.0,759.2625778728342,299.8802350906127,527.5087837644639
347324,7770,347324.0,18977.0,347324.0,26939.0,757.960311283188,298.738138861041,526.1138060181347
347324,7750,347324.0,18999.0,347324.0,26903.0,756.5427344841156,297.5940979308066,524.6701916993406
347334,7749,347334.0,19002.0,347334.0,26895.0,755.0192047400494,296.4514219210831,523.1849341248328
347334,7787,347334.0,18971.0,347334.0,26899.0,753.3988670831908,295.3132075493162,521.6649203061984
347334,7770,347334.0,19005.0,347334.0,26917.0,751.6908122226546,294.1823360189481,520.1166565643865
347334,7759,347334.0,19023.0,347334.0,26926.0,749.9043735308569,293.06151695714277,518.546390145394
347334,7742,347334.0,18999.0,347334.0,26904.0,748.0491499740617,291.95359331929666,516.9604202074954
347334,7744,347334.0,18961.0,347334.0,26878.0,746.134728377854,290.86174087790715,515.3651790669628
347345,7735,347345.0,18962.0,347345.0,26876.0,744.1704042307916,289.7891250807803,513.7669094593289
347345,7735,347345.0,18973.0,347345.0,26885.0,742.1650282150708,288.7383511165428,512.1712411692885
347345,7754,347345.0,18970.0,347345.0,26900.0,740.126974119699,287.7112413517677,510.5830655043892
347345,7780,347345.0,18984.0,347345.0,26889.0,738.0643351077393,286.7089420830025,509.0067256461578
347345,7737,347345.0,19004.0,347345.0,26891.0,735.9853197327802,285.73216931517163,507.44623332843304
347345,7727,347345.0,18983.0,347345.0,26885.0,733.8984143649462,284.7815328143994,505.90532956599213
347355,7722,347355.0,18989.0,347355.0,26890.0,731.812081057086,283.8577643686461,504.3874621567043
347355,7726,347355.0,18995.0,347355.0,26881.0,729.7343710386865,282.96174904778945,502.89577899835825
347355,7747,347355.0,18990.0,347355.0,26894.0,727.6728340271499,282.0945415724882,501.4331472278279
347355,7731,347355.0,18988.0,347355.0,26881.0,725.6347069087179,281.2574345453274,500.00220010457815
347355,7704,347355.0,18941.0,347355.0,26882.0,723.62706989233,280.451880186333,498.60537714247874
347355,7708,347355.0,18963.0,347355.0,26863.0,721.6566825347285,279.6791339916422,497.24487038526445
347365,7700,347365.0,18955.0,347365.0,26889.0,719.7296471415953,278.93985097656594,495.9225030562112
347365,7721,347365.0,18976.0,347365.0,26875.0,717.8512453855444,278.23397647483984,494.6397084807778
347365,7729,347365.0,18997.0,347365.0,26883.0,716.0260653217614,277.5609739726347,493.39764160321687
347365,7699,347365.0,18989.0,347365.0,26866.0,714.2582628039904,276.92024224514176,492.1972550820198
347365,7703,347365.0,18946.0,347365.0,26867.0,712.5516353801186,276.31140003770196,491.0392427881242
347365,7706,347365.0,18966.0,347365.0,26865.0,710.9094599635689,275.7341205849916,489.92391543486457
347376,7689,347376.0,18962.0,347376.0,26866.0,709.3343592661101,275.1877669226474,488.8511175995166
347376,7716,347376.0,19002.0,347376.0,26883.0,707.828279860746,274.67134405216075,487.8202589813223
347376,7715,347376.0,18979.0,347376.0,26880.0,706.3925858382678,274.1838266680462,486.83048216161086
347376,7706,347376.0,18964.0,347376.0,26867.0,705.0282781121407,273.7244597571442,485.8808596262858
347376,7693,347376.0,18957.0,347376.0,26859.0,703.7361146935989,273.2926819978497,484.97041163415383
347376,7684,347376.0,18945.0,347376.0,26836.0,702.5164700069813,272.8877792412637,484.0978822261902
347386,7701,347386.0,18933.0,347386.0,26863.0,701.3691072621014,272.50853117945155,483.2614332838742
347386,7700,347386.0,18972.0,347386.0,26898.0,700.2931229098199,272.15298074670136,482.45859666449456
347386,7704,347386.0,18958.0,347386.0,26868.0,699.2870935454445,271.81848414588563,481.68665446498613
347386,7707,347386.0,18981.0,347386.0,26867.0,698.3492593436692,271.50201525428486,480.94302251044746
347386,7695,347386.0,18961.0,347386.0,26864.0,697.4776347886504,271.2004512895801,480.22524050334385
347386,7677,347386.0,18945.0,347386.0,26854.0,696.6699759252194,270.91064150642,479.53077331143834
347396,7696,347396.0,18992.0,347396.0,26873.0,695.9235920542108,270.62930556865604,478.85689262980384
347396,7702,347396.0,18979.0,347396.0,26843.0,695.2352326501607,270.3530956118701,478.20065124320615
347396,7706,347396.0,18984.0,347396.0,26875.0,694.6012337476301,270.078919239132,477.55887712431564
347396,7692,347396.0,18956.0,347396.0,26861.0,694.017739742334,269.80413095452684,476.92820162909794
347396,7680,347396.0,18955.0,347396.0,26852.0,693.4807275224189,269.5263715477973,476.3051401049886
347396,7696,347396.0,18930.0,347396.0,26850.0,692.9858411493723,269.2432012247761,475.6860712180462
347407,7692,347407.0,18959.0,347407.0,26863.0,692.5282861371868,268.9517451258119,475.0671171358897
347407,7686,347407.0,19018.0,347407.0,26856.0,692.1028765630431,268.6486973700421,474.4441371742593
347407,7697,347407.0,18977.0,347407.0,26866.0,691.7040874337524,268.330882041221,473.8128431276567
347407,7699,347407.0,18947.0,347407.0,26877.0,691.3260962854881,267.9957802916099,473.16894737306126
347407,7685,347407.0,18953.0,347407.0,26849.0,690.9628688350525,267.6413578594812,472.508315551133
347407,7703,347407.0,18944.0,347407.0,26855.0,690.6082038742953,267.2655391378696,471.8269823018745
347417,7698,347417.0,19009.0,347417.0,26863.0,690.2557578393476,266.86603414097954,471.1210160221432
347417,7714,347417.0,18966.0,347417.0,26871.0,689.8991666298032,266.44067831063865,470.3864999041754
347417,7698,347417.0,18958.0,347417.0,26854.0,689.5322203596868,265.9878197795081,469.61968402246384
347417,7687,347417.0,18952.0,347417.0,26847.0,689.1489232759777,265.50625227605934,468.8170414641652
347417,7678,347417.0,18944.0,347417.0,26843.0,688.7433338120164,264.99486169306357,467.97511327211885
347417,7693,347417.0,18947.0,347417.0,26839.0,688.3093144893548,264.4523688439678,467.0902981420143
347427,7701,347427.0,18968.0,347427.0,26870.0,687.8404630404951,263.8772615374645,466.15878126421126
347427,7718,347427.0,18951.0,347427.0,26860.0,687.3303241135272,263.26791803609797,465.17670968384726
347427,7698,347427.0,18973.0,347427.0,26846.0,686.7727137948942,262.62280659455257,464.14046049803443
347427,7697,347427.0,18964.0,347427.0,26852.0,686.1618859774463,261.9406457753418,463.04670452569917
347427,7702,347427.0,18926.0,347427.0,26859.0,685.4924760124508,261.2204588064184,461.89232627697885
347427,7701,347427.0,18998.0,347427.0,26851.0,684.7594322972607,260.46147952314624,460.6744512699637
347438,7710,347438.0,18922.0,347438.0,26834.0,683.9580735848261,259.66312646363144,459.39050187029295
347438,7698,347438.0,18953.0,347438.0,26863.0,683.0842013476105,258.8250350237371,458.038142109622
347438,7690,347438.0,18974.0,347438.0,26834.0,682.1341378281166,257.9469716274777,456.61525120234774
347438,7672,347438.0,18911.0,347438.0,26816.0,681.104592773079,257.0288221773877,455.11990762267504
347438,7679,347438.0,18936.0,347438.0,26816.0,679.9924014697111,256.0705252751095,453.5501510844781
347438,7676,347438.0,18934.0,347438.0,26834.0,678.794316327486,255.07178022556286,451.9036864093314
347448,7687,347448.0,18868.0,347448.0,26862.0,677.5069796039483,254.0317767225339,450.1779462332303
347448,7713,347448.0,18976.0,347448.0,26849.0,676.1271036875946,252.94897456139833,448.3705409563774
347448,7676,347448.0,18917.0,347448.0,26820.0,674.6517882133065,251.82113780216852,446.4796507965216
347448,7678,347448.0,18945.0,347448.0,26823.0,673.0786847213031,250.64573473539292,444.50397551245965
347448,7652,347448.0,18955.0,347448.0,26850.0,671.4058086034586,249.42025850162025,442.44248874851354
347448,7677,347448.0,18944.0,347448.0,26838.0,669.6312250699957,248.1424178480368,440.29448678142643
347458,7686,347458.0,18985.0,347458.0,26811.0,667.7529674005361,246.81041261243615,438.05981230288177
347458,7651,347458.0,18958.0,347458.0,26824.0,665.7692118270232,245.423269719186,435.7388262545521
347458,7668,347458.0,18919.0,347458.0,26795.0,663.678367102568,243.9810312981028,433.33217224180555
347458,7666,347458.0,18904.0,347458.0,26797.0,661.4789897699272,242.484448900764,430.84055207737913
347458,7667,347458.0,18889.0,347458.0,26803.0,659.1697983814477,240.93428297879373,428.2645468397603
347458,7656,347458.0,18923.0,347458.0,26813.0,656.7497927870596,239.33076008146503,425.60459877670326
347469,7664,347469.0,18939.0,347469.0,26822.0,654.2183065140505,237.6735621412933,422.86124105357806
347469,7635,347469.0,18915.0,347469.0,26791.0,651.5749821505215,235.96223451240624,420.0353850995508
347469,7643,347469.0,18902.0,347469.0,26803.0,648.8196657059842,234.19647243602867,417.1284024471395
347469,7632,347469.0,18897.0,347469.0,26786.0,645.9522462693411,232.37598238696285,414.1420131755966
347469,7642,347469.0,18929.0,347469.0,26781.0,642.9725765587639,230.5002582946268,411.07816304775605
347469,7650,347469.0,18919.0,347469.0,26789.0,639.8805573389516,228.56867941552,407.93894190189974
347479,7630,347479.0,18930.0,347479.0,26762.0,636.6763290442042,226.58084892309543,404.72653716475037
347479,7628,347479.0,18903.0,347479.0,26773.0,633.3603844254372,224.53683324675796,401.44317991979284
347479,7608,347479.0,18885.0,347479.0,26761.0,629.9334807912137,222.43710384530536,398.09105917554234
347479,7606,347479.0,18884.0,347479.0,26757.0,626.3964347987564,220.28221176852375,394.67227306744786
347479,7618,347479.0,18894.0,347479.0,26733.0,622.7499657159998,218.0724681960097,391.18876430617166
347479,7621,347479.0,18935.0,347479.0,26780.0,618.9947470019162,215.80798104059556,387.64222766175567
347489,7623,347489.0,18935.0,347489.0,26773.0,615.1316661795381,213.48915081369202,384.0342605973863
347489,7588,347489.0,18896.0,347489.0,26742.0,611.162046082363,211.11725742638325,380.36674687574265
347489,7593,347489.0,18878.0,347489.0,26729.0,607.0875947144078,208.69455102896734,376.6419631054749
347489,7592,347489.0,18877.0,347489.0,26746.0,602.9101949840377,206.22380637115458,372.8623090024016
347489,7607,347489.0,18886.0,347489.0,26749.0,598.6318661454279,203.70789308756724,369.0301692443277
347489,7590,347489.0,18897.0,347489.0,26744.0,594.2549697389878,201.14973013871978,365.14810921304735
347500,7566,347500.0,18875.0,347500.0,26740.0,589.7823725945501,198.55249277385656,361.21911919968306
347500,7570,347500.0,18864.0,347500.0,26725.0,585.2173421854515,195.91971574508167,357.24669651986756
347500,7557,347500.0,18863.0,347500.0,26671.0,580.5633260184113,193.2551429134393,353.2346804437003
347500,7567,347500.0,18847.0,347500.0,26711.0,575.823861847073,190.5624991962464,349.1868216152444
347500,7545,347500.0,18877.0,347500.0,26702.0,571.0026185972104,187.8453790127437,345.1064541567646
347500,7537,347500.0,18873.0,347500.0,26714.0,566.1034080140862,185.10736038845423,340.9966184172818
347510,7540,347510.0,18870.0,347510.0,26700.0,561.1300981051838,182.35230412495207,336.86038938575894
347510,7516,347510.0,18828.0,347510.0,26671.0,556.0865213448093,179.58451209726684,332.70101401811326
347510,7524,347510.0,18849.0,347510.0,26663.0,550.9764139415834,176.8085280141856,328.52172583385754
347510,7530,347510.0,18834.0,347510.0,26662.0,545.8034022334076,174.02884156213173,324.3253945277772
347510,7518,347510.0,18892.0,347510.0,26678.0,540.571131201271,171.24990053012027,320.11434845451646
347510,7522,347510.0,18831.0,347510.0,26690.0,535.2834621270993,168.4764671958348,315.89055202784675
347520,7464,347520.0,18781.0,347520.0,26596.0,529.9445065465466,165.71375623263418,311.65584249407107
347520,7488,347520.0,18780.0,347520.0,26681.0,524.5583708995309,162.9668338882906,307.4117747248635
347520,7475,347520.0,18813.0,347520.0,26657.0,519.1288323311069,160.23980039091492,303.1594099056464
347520,7482,347520.0,18803.0,347520.0,26651.0,513.6592834713407,157.53560336186746,298.899566139106
347520,7488,347520.0,18853.0,347520.0,26665.0,508.15292785734175,154.85645579688457,294.63316665727865
347520,7486,347520.0,18721.0,347520.0,26639.0,502.6130619623249,152.20422306926145,290.36136788697763
347531,7443,347531.0,18805.0,347531.0,26623.0,497.04328587240127,149.580222357913,286.0855523306034
347531,7444,347531.0,18791.0,347531.0,26620.0,491.44740774916204,146.9847602582534,281.8071417018202
347531,7433,347531.0,18802.0,347531.0,26601.0,485.82911683787063,144.41719778409305,277.5273213394164
347531,7430,347531.0,18803.0,347531.0,26646.0,480.19176285943627,141.87638692336355,273.24692274787117
347531,7438,347531.0,18843.0,347531.0,26616.0,474.53835094801605,139.3610517588578,268.9666038620544
347531,7426,347531.0,18775.0,347531.0,26627.0,468.87167512284736,136.8701485869907,264.68717927412655
347541,7403,347541.0,18787.0,347541.0,26603.0,463.19444246219365,134.40295615339497,260.4097867203128
347541,7405,347541.0,18775.0,347541.0,26577.0,457.50922194092504,131.95874830640085,256.1357865878714
347541,7395,347541.0,18802.0,347541.0,26575.0,451.8182987906621,129.53652668991697,251.86644904530232
347541,7409,347541.0,18779.0,347541.0,26616.0,446.1236548829579,127.1351049158292,247.60269790760987
347541,7405,347541.0,18758.0,347541.0,26584.0,440.4271418416302,124.75323259543134,243.3452592748534
347541,7378,347541.0,18836.0,347541.0,26624.0,434.7307071793231,122.38959534532637,239.09507729806774
347552,7362,347552.0,18768.0,347552.0,26584.0,429.03640828708967,120.04301864710007,234.85366110571866
347552,7374,347552.0,18735.0,347552.0,26557.0,423.3461959979063,117.71267727599499,230.6231807195597
347552,7365,347552.0,18784.0,347552.0,26567.0,417.66179347475554,115.39778619303539,226.40620667490847
347552,7360,347552.0,18787.0,347552.0,26564.0,411.98479582913376,113.09730516515361,222.20537861975336
347552,7350,347552.0,18773.0,347552.0,26560.0,406.3167860160331,110.8102197319258,218.02335898474936
347552,7331,347552.0,18747.0,347552.0,26525.0,400.6593273137553,108.53583595750007,213.86288343311057
347562,7308,347562.0,18718.0,347562.0,26521.0,395.0138040030169,106.27355878426866,209.72658016156254
347562,7344,347562.0,18778.0,347562.0,26517.0,389.381207332452,104.02244947405993,205.6166287944848
347562,7314,347562.0,18772.0,347562.0,26547.0,383.7621338553719,101.7812016522663,201.53461091415778
347562,7327,347562.0,18760.0,347562.0,26507.0,378.15700217419123,99.54860276684852,197.48168167404128
347562,7316,347562.0,18777.0,347562.0,26514.0,372.5662371278012,97.32391840637513,193.45874471782128
347562,7320,347562.0,18738.0,347562.0,26488.0,366.9903971182594,95.10697083049135,189.46636525689973
347572,7288,347572.0,18737.0,347572.0,26515.0,361.4302728901036,92.89801089563562,185.50459531508398
347572,7290,347572.0,18722.0,347572.0,26525.0,355.8868383414018,90.69741171457616,181.57303086814858
347572,7304,347572.0,18706.0,347572.0,26530.0,350.36113631083924,88.50531356241063,177.67119194041987
347572,7286,347572.0,18755.0,347572.0,26509.0,344.85434822388123,86.32141632074541,173.79896460560133
347572,7282,347572.0,18733.0,347572.0,26488.0,339.36798077816115,84.14510563844186,169.95674063166052
347572,7263,347572.0,18740.0,347572.0,26460.0,333.9039126136838,81.9758156776509,166.1451515604519
347583,7254,347583.0,18724.0,347583.0,26449.0,328.4642746073557,79.81324193064603,162.36455910780853
347583,7236,347583.0,18736.0,347583.0,26488.0,323.0512588441712,77.65733329154182,158.6146458997316
347583,7244,347583.0,18719.0,347583.0,26475.0,317.6669351207384,75.50826373829682,154.89445461430756
347583,7232,347583.0,18760.0,347583.0,26483.0,312.3131781191386,73.36649897707355,151.2027783994236
347583,7244,347583.0,18727.0,347583.0,26490.0,306.9917436327626,71.233010657249,147.53852618004555
347583,7203,347583.0,18679.0,347583.0,26449.0,301.7043804518966,69.1093871982034,143.90091717959473
347593,7202,347593.0,18676.0,347593.0,26444.0,296.4527754771762,66.9974263341652,140.28941159517865
347593,7213,347593.0,18690.0,347593.0,26478.0,291.23835628665006,64.89846229406871,136.70346244668013
347593,7216,347593.0,18682.0,347593.0,26442.0,286.0622789420455,62.81306098694475,133.1424872885981
347593,7204,347593.0,18731.0,347593.0,26470.0,280.9256819333838,60.741192433398425,129.60606991938403
347593,7163,347593.0,18724.0,347593.0,26441.0,275.8298399271007,58.68271245345619,126.0941027121304
347593,7183,347593.0,18697.0,347593.0,26448.0,270.7759825257894,56.63789861608254,122.60682910179258
347603,7157,347603.0,18663.0,347603.0,26419.0,265.76502286628664,54.607546661574844,119.14478825322908
347603,7165,347603.0,18642.0,347603.0,26394.0,260.7974570754138,52.59245537024316,115.7085809529409
347603,7164,347603.0,18749.0,347603.0,26457.0,255.87339610203674,50.592915064564465,112.29858420210195
347603,7178,347603.0,18717.0,347603.0,26420.0,250.99271776359973,48.609011230919066,108.91500506861416
347603,7139,347603.0,18681.0,347603.0,26387.0,246.15530459506738,46.64143969004866,105.55816045566303
347603,7140,347603.0,18659.0,347603.0,26418.0,241.3611104869895,44.69169193012564,102.22842423137922
347614,7141,347614.0,18692.0,347614.0,26414.0,236.61000956715702,42.76154986480938,98.92603800721349
347614,7140,347614.0,18668.0,347614.0,26444.0,231.9017268347818,40.85276623823816,95.65131374051504
347614,7140,347614.0,18688.0,347614.0,26395.0,227.23596994779274,38.967145135906804,92.40505208587467
347614,7121,347614.0,18662.0,347614.0,26406.0,222.6125861047052,37.10666637025105,89.18870090597159
347614,7107,347614.0,18631.0,347614.0,26375.0,218.0315699863724,35.273410834870674,86.00415879720663
347614,7089,347614.0,18587.0,347614.0,26352.0,213.4928762141302,33.46910058258743,82.85341178877559
347624,7088,347624.0,18657.0,347624.0,26348.0,208.9961415569511,31.694419509731404,79.7380881529001
347624,7098,347624.0,18650.0,347624.0,26388.0,204.54051926073845,29.948808730950617,76.6591336373636
347624,7089,347624.0,18700.0,347624.0,26374.0,200.12474693323946,28.231021966586155,73.61694300547458
347624,7100,347624.0,18653.0,347624.0,26344.0,195.74736301215546,26.53990669276891,70.61172524118808
347624,7069,347624.0,18652.0,347624.0,26363.0,191.40689174103386,24.874791827538274,67.64357623566349
347624,7074,347624.0,18630.0,347624.0,26356.0,187.10187122446928,23.23533222861286,64.71235203553971
347634,7075,347634.0,18646.0,347634.0,26359.0,182.83077722299072,21.621147984357435,61.81770691627378
347634,7076,347634.0,18692.0,347634.0,26361.0,178.59205117444913,20.031752297242576,58.95925783209822
347634,7060,347634.0,18660.0,347634.0,26358.0,174.3842507008772,18.46694808157369,56.1367396607763
347634,7054,347634.0,18618.0,347634.0,26332.0,170.2061222989783,16.92720152375722,53.35008851618778
347634,7045,347634.0,18600.0,347634.0,26332.0,166.056533521726,15.41335513753296,50.5993418299588
347634,7035,347634.0,18615.0,347634.0,26327.0,161.93436182723525,13.92590898092206,47.88441591492091
347645,7034,347645.0,18633.0,347645.0,26321.0,157.83840286493523,12.464626883116125,45.204959333383215
347645,7054,347645.0,18657.0,347645.0,26333.0,153.76737715797992,11.028753012232698,42.560336713219954
347645,7037,347645.0,18644.0,347645.0,26334.0,149.7201262841853,9.617553444824978,39.949734926335964
347645,7014,347645.0,18613.0,347645.0,26306.0,145.69582252822192,8.23068492036873,37.372320816616195
347645,7006,347645.0,18598.0,347645.0,26310.0,141.69389859892806,6.868054862634949,34.827238010041924
347645,6997,347645.0,18617.0,347645.0,26304.0,137.7137662422508,5.529373026674108,32.31343676077529
347655,7018,347655.0,18624.0,347655.0,26313.0,133.7546455382601,4.213927014253812,29.82958375325302
347655,7010,347655.0,18628.0,347655.0,26312.0,129.81567489178985,2.9207597555417237,27.374151055006735
347655,6990,347655.0,18611.0,347655.0,26303.0,125.89614793538988,1.6489413729508726,24.945572956069043
347655,6988,347655.0,18613.0,347655.0,26305.0,121.99557785722732,0.39764403920304403,22.5423391990293
347655,6972,347655.0,18584.0,347655.0,26289.0,118.11355881684244,-0.833996332323693,20.162992267423363
347655,6972,347655.0,18600.0,347655.0,26284.0,114.24960862044816,-2.0471242810352805,17.806049016205975
347665,6970,347665.0,18593.0,347665.0,26302.0,110.40308778211613,-3.2433569967534197,15.469911449212987
347665,6964,347665.0,18636.0,347665.0,26289.0,106.57321117405559,-4.424728183450924,13.152910373626355
347665,6969,347665.0,18613.0,347665.0,26268.0,102.75912597497074,-5.593339017391486,10.853413174500133
347665,6943,347665.0,18588.0,347665.0,26266.0,98.9599830839594,-6.751035885979576,8.569736725369467
347665,6943,347665.0,18594.0,347665.0,26282.0,95.17490690897296,-7.8994851833491,6.299948458834706
347665,6951,347665.0,18605.0,347665.0,26288.0,91.40289593366754,-9.040444756437495,4.041895634809123
347676,6945,347676.0,18619.0,347676.0,26283.0,87.64284634105479,-10.175762445245738,1.7934871507881667
347676,6942,347676.0,18623.0,347676.0,26283.0,83.89371288848099,-11.307063211344143,-0.4470411955368263
347676,6931,347676.0,18591.0,347676.0,26267.0,80.15462493039581,-12.435450617296851,-2.6810317314643726
347676,6913,347676.0,18575.0,347676.0,26236.0,76.42486250339857,-13.561554497939767,-4.909518619364917
347676,6910,347676.0,18566.0,347676.0,26251.0,72.70370464094344,-14.68594704888477,-7.133546161046922
347676,6910,347676.0,18587.0,347676.0,26251.0,68.99026124373813,-15.809558992489713,-9.354446791941712
347686,6902,347686.0,18589.0,347686.0,26270.0,65.2834220928944,-16.933749744050772,-11.57379743426327
347686,6902,347686.0,18604.0,347686.0,26249.0,61.58190077130814,-18.060051785104974,-13.793143211739562
347686,6896,347686.0,18595.0,347686.0,26245.0,57.884288529543255,-19.18983204982115,-16.01380822682711
347686,6889,347686.0,18560.0,347686.0,26222.0,54.18909587282633,-20.32413538659486,-18.23696941771408
