c_ts,c_val,d_ts,d_val,e_ts,e_val,c_val_filtered,d_val_filtered,e_val_filtered
173269.0,13660.0,173269.0,47705.0,173269.0,70871.0,-242.49952228007876,-290.2874300013481,-494.7794556312917
173269.0,13650.0,173269.0,47644.0,173269.0,70843.0,-247.9023939512959,-294.425450353514,-501.5923187518767
173280.0,13635.0,173280.0,47669.0,173280.0,70817.0,-253.47007402529889,-298.73866332390804,-508.67262205318013
173280.0,13622.0,173280.0,47639.0,173280.0,70827.0,-259.19972004792885,-303.2254014605261,-516.0208083876445
173280.0,13648.0,173280.0,47680.0,173280.0,70836.0,-265.0886696107494,-307.88481931745997,-523.6378028882631
173280.0,13630.0,173280.0,47710.0,173280.0,70848.0,-271.13442738323016,-312.71669246253526,-531.5249110656874
173280.0,13630.0,173280.0,47656.0,173280.0,70835.0,-277.33448726702346,-317.72087911457453,-539.6834513794452
173280.0,13606.0,173280.0,47669.0,173280.0,70815.0,-283.6862670029649,-322.8969908249998,-548.1144946065826
173290.0,13617.0,173290.0,47682.0,173290.0,70825.0,-290.18722007092236,-328.24448065413947,-556.8188718639647
173290.0,13624.0,173290.0,47711.0,173290.0,70864.0,-296.8349023564356,-333.7625822154899,-565.7971537629904
173290.0,13612.0,173290.0,47687.0,173290.0,70854.0,-303.6268378398399,-339.4498486662708,-575.0492283071345
173290.0,13609.0,173290.0,47667.0,173290.0,70805.0,-310.56032909525527,-345.30377736441693,-584.5737648842863
173290.0,13574.0,173290.0,47608.0,173290.0,70793.0,-317.6324474317109,-351.32098974285026,-594.3682099262159
173290.0,13583.0,173290.0,47626.0,173290.0,70761.0,-324.84024121368407,-357.49791386194687,-604.4293264181263
173300.0,13577.0,173300.0,47642.0,173300.0,70774.0,-332.1809681763958,-363.8313909581258,-614.7537612862562
173300.0,13574.0,173300.0,47572.0,173300.0,70755.0,-339.6521454093238,-370.3188398030562,-625.3383270829589
173300.0,13587.0,173300.0,47649.0,173300.0,70774.0,-347.25142923751815,-376.9582946696959,-636.1799980713262
173300.0,13563.0,173300.0,47648.0,173300.0,70761.0,-354.9764323386802,-383.74831091567563,-647.2757199723125
173300.0,13548.0,173300.0,47619.0,173300.0,70749.0,-362.8246299519348,-390.6874690957395,-658.6221751320561
173300.0,13556.0,173300.0,47631.0,173300.0,70735.0,-370.7934564416347,-397.77394917951665,-670.2156812962814
173311.0,13554.0,173311.0,47658.0,173311.0,70759.0,-378.8803899252964,-405.0054116995904,-682.0521917194551
173311.0,13546.0,173311.0,47671.0,173311.0,70747.0,-387.08284898453905,-412.3786678214197,-694.127133644048
173311.0,13542.0,173311.0,47624.0,173311.0,70739.0,-395.39804320080066,-419.88912222539875,-706.4350751632202
173311.0,13529.0,173311.0,47565.0,173311.0,70718.0,-403.82291318923257,-427.53068708955425,-718.9695120310066
173311.0,13500.0,173311.0,47553.0,173311.0,70685.0,-412.3541926005832,-435.29650528033187,-731.7229425648982
173311.0,13506.0,173311.0,47550.0,173311.0,70682.0,-420.98861444904264,-443.1799304644576,-744.6871701363168
173321.0,13512.0,173321.0,47537.0,173321.0,70667.0,-429.72308985294575,-451.1750985484204,-757.8536230200181
173321.0,13503.0,173321.0,47591.0,173321.0,70669.0,-438.5546366829458,-459.27697529897176,-771.2134894896238
173321.0,13500.0,173321.0,47563.0,173321.0,70681.0,-447.48016345063104,-467.48097747024326,-784.7576158160207
173321.0,13494.0,173321.0,47574.0,173321.0,70641.0,-456.4963190018591,-475.7824246153209,-798.4762524487122
173321.0,13472.0,173321.0,47598.0,173321.0,70639.0,-465.5994445431418,-484.17611922282515,-812.3589036648063
173321.0,13477.0,173321.0,47583.0,173321.0,70654.0,-474.7856159672132,-492.6559521262132,-826.3943457597072
173331.0,13470.0,173331.0,47596.0,173331.0,70647.0,-484.0506956465142,-501.2144564584626,-840.5704862765332
173331.0,13467.0,173331.0,47558.0,173331.0,70653.0,-493.3902784687503,-509.842524868166,-854.8739614285771
173331.0,13452.0,173331.0,47555.0,173331.0,70613.0,-502.799586888392,-518.529415711432,-869.2897695945737
173331.0,13441.0,173331.0,47495.0,173331.0,70593.0,-512.2734466781317,-527.2630606552391,-883.8012185700327
173331.0,13432.0,173331.0,47512.0,173331.0,70587.0,-521.8063617477321,-536.0306072509425,-898.3901769402419
173331.0,13437.0,173331.0,47516.0,173331.0,70572.0,-531.3925829629228,-544.8188750898703,-913.0373306002476
173342.0,13420.0,173342.0,47505.0,173342.0,70577.0,-541.0260740023798,-553.614402155401,-927.7222304895049
173342.0,13445.0,173342.0,47484.0,173342.0,70550.0,-550.7003744383705,-562.4032821426019,-942.4231969215041
173342.0,13419.0,173342.0,47525.0,173342.0,70579.0,-560.408374403537,-571.1710886429935,-957.1171702119898
173342.0,13410.0,173342.0,47497.0,173342.0,70533.0,-570.14210628807,-579.9027065345879,-971.7795042600471
173342.0,13417.0,173342.0,47483.0,173342.0,70532.0,-579.8926892877794,-588.582052832057,-986.3838151326016
173342.0,13411.0,173342.0,47509.0,173342.0,70541.0,-589.6502914726434,-597.1919606890972,-1000.9019684215751
173352.0,13412.0,173352.0,47483.0,173352.0,70539.0,-599.4039538375752,-605.7141096991431,-1015.3039573097689
173352.0,13386.0,173352.0,47490.0,173352.0,70514.0,-609.141406172397,-614.1288532954961,-1029.5575852361394
173352.0,13374.0,173352.0,47423.0,173352.0,70484.0,-618.8490612882234,-622.4152109738568,-1043.628310305533
173352.0,13362.0,173352.0,47422.0,173352.0,70450.0,-628.5121940674638,-630.5512688161514,-1057.4794912819298
173352.0,13352.0,173352.0,47465.0,173352.0,70459.0,-638.1151519716991,-638.5146975732014,-1071.0728541431965
173352.0,13343.0,173352.0,47432.0,173352.0,70438.0,-647.6414902231118,-646.2828041553671,-1084.3688140822144
173362.0,13335.0,173362.0,47440.0,173362.0,70453.0,-657.0740463286816,-653.8322022468607,-1097.326496336727
173362.0,13338.0,173362.0,47404.0,173362.0,70418.0,-666.3949585243472,-661.1386795372407,-1109.9036008085063
173362.0,13326.0,173362.0,47408.0,173362.0,70429.0,-675.5856044086173,-668.1773756550347,-1122.0563080934405
173362.0,13305.0,173362.0,47430.0,173362.0,70423.0,-684.6265392679619,-674.9229639794064,-1133.739236385
173362.0,13322.0,173362.0,47436.0,173362.0,70376.0,-693.4975257630267,-681.3495163611817,-1144.9054061455631
173362.0,13317.0,173362.0,47444.0,173362.0,70416.0,-702.1775139440329,-687.4300495495218,-1155.506311149691
173373.0,13296.0,173373.0,47411.0,173373.0,70410.0,-710.6444791589938,-693.1361164120459,-1165.4919375433694
173373.0,13294.0,173373.0,47410.0,173373.0,70378.0,-718.8753350735858,-698.4377443580668,-1174.8105361862895
173373.0,13275.0,173373.0,47375.0,173373.0,70375.0,-726.846029771839,-703.3037097429237,-1183.408504044763
173373.0,13258.0,173373.0,47346.0,173373.0,70322.0,-734.5317265204413,-707.7020277948109,-1191.2306656984315
173373.0,13265.0,173373.0,47357.0,173373.0,70347.0,-741.9070133071116,-711.600563950921,-1198.2207765784317
173373.0,13266.0,173373.0,47380.0,173373.0,70347.0,-748.9460144587358,-714.9674499049074,-1204.321895563346
173383.0,13265.0,173383.0,47378.0,173383.0,70360.0,-755.6222918311289,-717.7710038652635,-1209.476359591462
173383.0,13257.0,173383.0,47399.0,173383.0,70359.0,-761.9086618776138,-719.9793422362216,-1213.625483551821
173383.0,13248.0,173383.0,47355.0,173383.0,70307.0,-767.7771075394196,-721.5600803965964,-1216.7093940859393
173383.0,13240.0,173383.0,47356.0,173383.0,70330.0,-773.1988222643133,-722.4803866928108,-1218.6672723991048
173383.0,13230.0,173383.0,47413.0,173383.0,70331.0,-778.1443364653295,-722.7072328425179,-1219.4377752857706
173383.0,13245.0,173383.0,47404.0,173383.0,70331.0,-782.583634257988,-722.2072792157553,-1218.9592032545788
173394.0,13206.0,173394.0,47376.0,173394.0,70295.0,-786.4862108337089,-720.9464426075824,-1217.1695512968774
173394.0,13226.0,173394.0,47345.0,173394.0,70282.0,-789.8211746471693,-718.889904451022,-1214.0068834345684
173394.0,13196.0,173394.0,47353.0,173394.0,70246.0,-792.5574480178827,-716.0027406809864,-1209.4100998268248
173394.0,13197.0,173394.0,47337.0,173394.0,70258.0,-794.6639983349487,-712.2506340346631,-1203.3198515323697
173394.0,13188.0,173394.0,47298.0,173394.0,70253.0,-796.1100968178865,-707.60044325038,-1195.6793134728093
173394.0,13188.0,173394.0,47318.0,173394.0,70273.0,-796.8655694053516,-702.0208488240324,-1186.4346495344805
173404.0,13195.0,173404.0,47343.0,173404.0,70275.0,-796.9009537410753,-695.4829347237124,-1175.5352262760284
173404.0,13193.0,173404.0,47359.0,173404.0,70295.0,-796.187549063373,-687.9602962526617,-1162.9337247074864
173404.0,13201.0,173404.0,47347.0,173404.0,70292.0,-794.6974044704267,-679.4288166514689,-1148.5862570057611
173404.0,13192.0,173404.0,47383.0,173404.0,70308.0,-792.4033193418379,-669.8665544624862,-1132.4525625455976
173404.0,13202.0,173404.0,47412.0,173404.0,70337.0,-789.2789053878892,-659.2536918436836,-1114.4962502555143
173404.0,13181.0,173404.0,47400.0,173404.0,70337.0,-785.2987273934527,-647.5723178855309,-1094.6849712190235
173414.0,13189.0,173414.0,47389.0,173414.0,70357.0,-780.438549814288,-634.806328867725,-1072.9905793548812
173414.0,13179.0,173414.0,47388.0,173414.0,70332.0,-774.675669805778,-620.9417920877471,-1049.389489657537
173414.0,13174.0,173414.0,47365.0,173414.0,70341.0,-767.9892747260222,-605.9676422328237,-1023.8633583442025
173414.0,13184.0,173414.0,47377.0,173414.0,70375.0,-760.3608046029287,-589.8764739587988,-996.3999419725051
173414.0,13190.0,173414.0,47401.0,173414.0,70385.0,-751.7742574958985,-572.6652468612745,-966.9937758847218
173414.0,13213.0,173414.0,47453.0,173414.0,70441.0,-742.2163371601903,-554.3356055797418,-935.6465286754221
173425.0,13212.0,173425.0,47481.0,173425.0,70464.0,-731.6764597166018,-534.8936734655355,-902.3671340331392
173425.0,13207.0,173425.0,47465.0,173425.0,70512.0,-720.1467897451639,-514.3496577188982,-867.1717869143021
173425.0,13233.0,173425.0,47498.0,173425.0,70532.0,-707.6224397065097,-492.71778791551344,-830.0839332708222
173425.0,13235.0,173425.0,47550.0,173425.0,70622.0,-694.1017074689405,-470.0165268783331,-791.1342770864062
173425.0,13284.0,173425.0,47628.0,173425.0,70671.0,-679.5861497223161,-446.26842000832676,-750.3605692068791
173425.0,13276.0,173425.0,47619.0,173425.0,70707.0,-664.0804710927092,-421.4994064130678,-707.8071405412401
173435.0,13292.0,173435.0,47632.0,173435.0,70757.0,-647.5924191342998,-395.7382548855383,-663.5245588690784
173435.0,13312.0,173435.0,47657.0,173435.0,70762.0,-630.1328692018684,-369.0166379196115,-617.5696688764293
173435.0,13327.0,173435.0,47664.0,173435.0,70856.0,-611.7159937159477,-341.3695615312288,-570.0058903300629
173435.0,13348.0,173435.0,47679.0,173435.0,70878.0,-592.3593636849166,-312.83580784350846,-520.903454817654
173435.0,13376.0,173435.0,47772.0,173435.0,70988.0,-572.0839982099625,-283.45826179819716,-470.3393543591668
173435.0,13416.0,173435.0,47786.0,173435.0,71061.0,-550.914322949602,-253.2838191972046,-418.3969469939386
173445.0,13452.0,173445.0,47886.0,173445.0,71133.0,-528.8779457939602,-222.36281194849983,-365.1652451828601
173445.0,13474.0,173445.0,47866.0,173445.0,71209.0,-506.0053076456982,-190.74831731800123,-310.7381312234211
173445.0,13502.0,173445.0,47955.0,173445.0,71272.0,-482.3293996678267,-158.49567942864292,-255.21374167046145
173445.0,13542.0,173445.0,48021.0,173445.0,71365.0,-457.88561279618295,-125.66213808333123,-198.69396915729487
173445.0,13577.0,173445.0,48049.0,173445.0,71412.0,-432.7115747644986,-92.3062150452339,-141.28397725659738
173445.0,13592.0,173445.0,48059.0,173445.0,71484.0,-406.8469269501828,-58.48710282007812,-83.09180198398622
173456.0,13627.0,173456.0,48113.0,173456.0,71596.0,-380.333197671514,-24.264553906425817,-24.228040587022974
173456.0,13657.0,173456.0,48107.0,173456.0,71645.0,-353.2138050542215,10.300877111109344,35.19462277200637
173456.0,13684.0,173456.0,48167.0,173456.0,71720.0,-325.53405657859486,45.14753805250564,95.06200742607086
173456.0,13728.0,173456.0,48165.0,173456.0,71797.0,-297.34109735259796,80.21237266008927,155.2588326778565
173456.0,13783.0,173456.0,48282.0,173456.0,71897.0,-268.68375302495406,115.43074883129805,215.669049505217
173456.0,13822.0,173456.0,48325.0,173456.0,71956.0,-239.61216057818405,150.7367534780758,276.1763722887931
173466.0,13843.0,173466.0,48353.0,173466.0,72046.0,-210.17731494001424,186.06392979671114,336.66488277667656
173466.0,13884.0,173466.0,48433.0,173466.0,72141.0,-180.4308050172251,221.3459349347529,397.01958457784815
173466.0,13931.0,173466.0,48492.0,173466.0,72238.0,-150.42471321698247,256.5170352043614,457.12709406893396
173466.0,13983.0,173466.0,48511.0,173466.0,72254.0,-120.2114015595854,291.51271216218936,516.8764167920499
173466.0,13997.0,173466.0,48552.0,173466.0,72358.0,-89.8431442457807,326.2701287150877,576.1593819608636
173466.0,14037.0,173466.0,48592.0,173466.0,72403.0,-59.37187211432365,360.7282266346963,634.8707245010964
173476.0,14071.0,173476.0,48611.0,173476.0,72441.0,-28.84913253024331,394.8276821485334,692.9081075231786
173476.0,14112.0,173476.0,48620.0,173476.0,72532.0,1.6739312560985127,428.51076611062103,750.1720461427915
173476.0,14151.0,173476.0,48712.0,173476.0,72603.0,32.14671246865703,461.72108437017937,806.5658573932101
173476.0,14193.0,173476.0,48749.0,173476.0,72667.0,62.51935213847787,494.40359888476587,861.9959268227572
173476.0,14222.0,173476.0,48804.0,173476.0,72761.0,92.74297033740675,526.5051398488071,916.3721795589722
173476.0,14271.0,173476.0,48835.0,173476.0,72838.0,122.7698703581109,557.975015992551,969.6086516127252
173487.0,14298.0,173487.0,48821.0,173487.0,72889.0,152.55372754196958,588.7652997890054,1021.6241724300664
173487.0,14326.0,173487.0,48888.0,173487.0,72920.0,182.0497521575876,618.8306758817328,1072.342855891416
173487.0,14365.0,173487.0,48934.0,173487.0,73002.0,211.21475902497605,648.1282205815373,1121.6941797764284
173487.0,14404.0,173487.0,48958.0,173487.0,73054.0,240.0072100966181,676.6175611447143,1169.6129718541754
173487.0,14424.0,173487.0,49034.0,173487.0,73073.0,268.38732651076157,704.261296825103,1216.03953559013
173487.0,14469.0,173487.0,48992.0,173487.0,73117.0,296.31720063401144,731.0253551637772,1260.91961402839
173497.0,14494.0,173497.0,49013.0,173497.0,73178.0,323.760874980116,756.8789589084902,1304.204098674321
173497.0,14517.0,173497.0,49061.0,173497.0,73224.0,350.68441959014706,781.7941297933055,1345.8488716715722
173497.0,14554.0,173497.0,49057.0,173497.0,73234.0,377.05595844812603,805.7452502775707,1385.8148476307513
173497.0,14570.0,173497.0,49106.0,173497.0,73276.0,402.845648057497,828.7089411710324,1424.0678482285352
173497.0,14620.0,173497.0,49157.0,173497.0,73331.0,428.0256861151536,850.6641183677527,1460.5782926369316
173497.0,14648.0,173497.0,49151.0,173497.0,73374.0,452.57042410604845,871.592259803675,1495.3210914269475
173507.0,14657.0,173507.0,49164.0,173507.0,73404.0,476.4565543646597,891.47763035621,1528.2758177648143
173507.0,14692.0,173507.0,49235.0,173507.0,73468.0,499.6631822061263,910.3072426777615,1559.4269239894193
173507.0,14718.0,173507.0,49237.0,173507.0,73492.0,522.171771741755,928.0709551693758,1588.7639819731735
173507.0,14740.0,173507.0,49250.0,173507.0,73490.0,543.966150216775,944.7618107254459,1616.281889083626
173507.0,14745.0,173507.0,49295.0,173507.0,73513.0,565.0325309996937,960.3762340950923,1641.9807365290426
173507.0,14762.0,173507.0,49225.0,173507.0,73524.0,585.359377664031,974.9139828527486,1665.8653443079615
173518.0,14779.0,173518.0,49228.0,173518.0,73530.0,604.9371318750816,988.3776881771732,1687.9447602560858
173518.0,14808.0,173518.0,49283.0,173518.0,73552.0,623.7579896199097,1000.7720117650942,1708.231814113787
173518.0,14815.0,173518.0,49314.0,173518.0,73590.0,641.8158171636298,1012.1032303156583,1726.7427850204945
173518.0,14848.0,173518.0,49318.0,173518.0,73606.0,659.1061361595587,1022.3795955210546,1743.4973419030102
173518.0,14865.0,173518.0,49316.0,173518.0,73620.0,675.6261416886989,1031.6117752264597,1758.5186732637349
173518.0,14873.0,173518.0,49312.0,173518.0,73607.0,691.37475944743,1039.8128594433397,1771.8334981315343
173528.0,14887.0,173528.0,49336.0,173528.0,73629.0,706.352638967636,1046.9981008640234,1783.4718157689445
173528.0,14917.0,173528.0,49381.0,173528.0,73651.0,720.5620667175485,1053.184830627564,1793.4666057675863
173528.0,14925.0,173528.0,49359.0,173528.0,73658.0,734.0069569156421,1058.3927532409157,1801.8537548165632
173528.0,14939.0,173528.0,49322.0,173528.0,73613.0,746.6929260577588,1062.644178924325,1808.6720390900132
173528.0,14931.0,173528.0,49334.0,173528.0,73636.0,758.6272709229013,1065.9636787207805,1813.9627644499715
173528.0,14942.0,173528.0,49312.0,173528.0,73618.0,769.8187588125045,1068.3774166415853,1817.7691724985702
173538.0,14964.0,173538.0,49326.0,173538.0,73625.0,780.2773552627691,1069.912647801458,1820.1359895876483
173538.0,14959.0,173538.0,49320.0,173538.0,73619.0,790.0140751341746,1070.5974505121887,1821.1091477520363
173538.0,14973.0,173538.0,49332.0,173538.0,73639.0,799.0409203340148,1070.46062265282,1820.735609344338
173538.0,14991.0,173538.0,49300.0,173538.0,73629.0,807.3708026339541,1069.5316422492012,1819.0633485293747
173538.0,14978.0,173538.0,49315.0,173538.0,73577.0,815.0174936957094,1067.8405233658382,1816.1413100360485
173538.0,15000.0,173538.0,49295.0,173538.0,73597.0,821.9955654636324,1065.4175785017733,1812.0190360136155
173549.0,15001.0,173549.0,49336.0,173549.0,73627.0,828.3202881026316,1062.293296989535,1806.7462366642567
173549.0,15012.0,173549.0,49327.0,173549.0,73608.0,834.007582151615,1058.4985063867587,1800.3728555284779
173549.0,15017.0,173549.0,49322.0,173549.0,73573.0,839.0740264250646,1054.0647126633487,1792.9493627106683
173549.0,15001.0,173549.0,49259.0,173549.0,73548.0,843.5368179407355,1049.0241932045697,1784.5266066032068
173549.0,15012.0,173549.0,49259.0,173549.0,73544.0,847.4136023917163,1043.4095360306685,1775.1552528359261
173549.0,15005.0,173549.0,49228.0,173549.0,73513.0,850.7222231800213,1037.2528731124914,1764.8852641489939
173559.0,15005.0,173559.0,49231.0,173559.0,73503.0,853.480503797954,1030.5852539801479,1753.7655389584236
173559.0,15026.0,173559.0,49272.0,173559.0,73494.0,855.7061054830831,1023.4364054877001,1741.8436139141031
173559.0,15022.0,173559.0,49250.0,173559.0,73493.0,857.4165162380386,1015.8349779190036,1729.1654976802142
173559.0,15025.0,173559.0,49207.0,173559.0,73472.0,858.6291443375628,1007.8089283923229,1715.7756829724315
173559.0,15037.0,173559.0,49208.0,173559.0,73466.0,859.3613842165569,999.3854497099856,1701.7171997761097
173559.0,15029.0,173559.0,49223.0,173559.0,73459.0,859.6306562002596,990.5906096936518,1687.0316354526192
173569.0,15045.0,173569.0,49230.0,173569.0,73463.0,859.4544640363263,981.4493375984725,1671.7592275984798
173569.0,15043.0,173569.0,49245.0,173569.0,73422.0,858.8504696658711,971.9858579483056,1655.9390445005515
173569.0,15029.0,173569.0,49210.0,173569.0,73385.0,857.8365603831171,962.2242046888241,1639.6089847548776
173569.0,15012.0,173569.0,49136.0,173569.0,73384.0,856.4307621060909,952.1883231067227,1622.805440983654
173569.0,14995.0,173569.0,49124.0,173569.0,73374.0,854.6508990210136,941.9014329199806,1605.5629603420637
173569.0,15010.0,173569.0,49138.0,173569.0,73359.0,852.5141609204807,931.3850929423901,1587.914216340938
173580.0,14997.0,173580.0,49113.0,173580.0,73315.0,850.0368367011348,920.6587416648725,1569.8900864745779
173580.0,15004.0,173580.0,49164.0,173580.0,73352.0,847.2342559682065,909.7398223438188,1551.519611988536
173580.0,15011.0,173580.0,49088.0,173580.0,73295.0,844.1208228710987,898.644135793917,1532.8300249703484
173580.0,15005.0,173580.0,49137.0,173580.0,73311.0,840.7101153667372,887.3860843810367,1513.846912653028
173580.0,15004.0,173580.0,49120.0,173580.0,73282.0,837.0150049229027,875.9787945579915,1494.5943480571289
173580.0,15010.0,173580.0,49137.0,173580.0,73283.0,833.0477233683113,864.4344230548311,1475.0950164974456
173590.0,15010.0,173590.0,49161.0,173590.0,73263.0,828.8199392080154,852.7647110525855,1455.3704059794188
173590.0,15011.0,173590.0,49123.0,173590.0,73257.0,824.3428956246815,840.9816058289895,1435.4410121801761
173590.0,14997.0,173590.0,49079.0,173590.0,73228.0,819.6275288391487,829.0975993857369,1415.3265148175224
173590.0,14989.0,173590.0,49046.0,173590.0,73180.0,814.6844632568501,817.125417375188,1395.0457972485804
173590.0,14979.0,173590.0,49046.0,173590.0,73166.0,809.5238729291045,805.0773068428139,1374.616679143582
173590.0,14990.0,173590.0,49027.0,173590.0,73163.0,804.1553304110308,792.9645153305484,1354.0555639991176
173601.0,14989.0,173601.0,49013.0,173601.0,73160.0,798.5878025631246,780.7971066598212,1333.377393518284
173601.0,14994.0,173601.0,49008.0,173601.0,73149.0,792.8298192960139,768.5838964970063,1312.595960944304
173601.0,14975.0,173601.0,49033.0,173601.0,73140.0,786.8896692600407,756.3324972584533,1291.7243258486667
173601.0,14980.0,173601.0,49009.0,173601.0,73101.0,780.7754744711714,744.0496197992835,1270.7751133846018
173601.0,14976.0,173601.0,49016.0,173601.0,73118.0,774.495180031548,731.7414899756368,1249.7606469859916
173601.0,14983.0,173601.0,49048.0,173601.0,73102.0,768.0566084370832,719.4142341498396,1228.6931063526822
173611.0,14973.0,173611.0,48980.0,173611.0,73107.0,761.4676105943144,707.0743062841279,1207.5849045964308
173611.0,14961.0,173611.0,48974.0,173611.0,73048.0,754.7361898460412,694.7286872650325,1186.4490999897437
173611.0,14955.0,173611.0,48965.0,173611.0,72999.0,747.8704914942473,682.3846316154041,1165.2994128845908
173611.0,14940.0,173611.0,48924.0,173611.0,72974.0,740.8786879179517,670.0493195675035,1144.149699646757
173611.0,14941.0,173611.0,48934.0,173611.0,72982.0,733.7688500917067,657.7296166382021,1123.0133344564852
173611.0,14934.0,173611.0,48931.0,173611.0,72968.0,726.548872025376,645.4319323828951,1101.9030570782438
173621.0,14938.0,173621.0,48943.0,173621.0,72961.0,719.2264903637355,633.1623582173916,1080.831272003146
173621.0,14932.0,173621.0,48943.0,173621.0,72960.0,711.8093907960626,620.9270921930506,1059.8104646355046
173621.0,14930.0,173621.0,48903.0,173621.0,72944.0,704.3053463842913,608.7328651782859,1038.853608644626
173621.0,14932.0,173621.0,48871.0,173621.0,72910.0,696.7223511327728,596.587008019849,1017.9744993127599
173621.0,14901.0,173621.0,48911.0,173621.0,72932.0,689.0687121199412,584.497175654034,997.1879335284141
173621.0,14905.0,173621.0,48907.0,173621.0,72903.0,681.3530088655286,572.4713127848693,976.5099100136812
173632.0,14902.0,173632.0,48882.0,173632.0,72874.0,673.5839641872604,560.5180774181317,955.9579181083108
173632.0,14886.0,173632.0,48854.0,173632.0,72856.0,665.7704003103956,548.6471513022358,935.5510434113318
173632.0,14879.0,173632.0,48843.0,173632.0,72796.0,657.9212414986711,536.8690929608455,915.3097743601552
173632.0,14869.0,173632.0,48810.0,173632.0,72762.0,650.0454414993063,525.1949859685042,895.2555475821927
173632.0,14875.0,173632.0,48817.0,173632.0,72754.0,642.1519103918602,513.636127000896,875.4101305235492
173632.0,14871.0,173632.0,48799.0,173632.0,72752.0,634.2495619749077,502.20384841943775,855.795219102419
173642.0,14883.0,173642.0,48815.0,173642.0,72718.0,626.3475016388113,490.90954585647063,836.4324540819803
173642.0,14868.0,173642.0,48791.0,173642.0,72698.0,618.4552916985077,479.76487198277937,817.3435357142699
173642.0,14850.0,173642.0,48764.0,173642.0,72696.0,610.5831380625045,468.78188764348346,798.5501931066508
173642.0,14838.0,173642.0,48769.0,173642.0,72678.0,602.7418461480336,457.9729878484206,780.0741816469135
173642.0,14840.0,173642.0,48798.0,173642.0,72689.0,594.9426307085332,447.35083900068594,761.9374676543547
173642.0,14821.0,173642.0,48756.0,173642.0,72635.0,587.196989692098,436.92864468368754,744.1624862212115
173652.0,14825.0,173652.0,48751.0,173652.0,72618.0,579.5166660545528,426.72045020210203,726.7721963045262
173652.0,14814.0,173652.0,48724.0,173652.0,72561.0,571.9136344209192,416.7410928451685,709.7897562773269
173652.0,14792.0,173652.0,48696.0,173652.0,72545.0,564.400079836234,407.0058884843748,693.2379284801106
173652.0,14780.0,173652.0,48672.0,173652.0,72551.0,556.9882670333504,397.530199736113,677.1385297524733
173652.0,14775.0,173652.0,48633.0,173652.0,72539.0,549.6902937543648,388.3288831758716,661.5122591027737
173652.0,14773.0,173652.0,48662.0,173652.0,72510.0,542.5179058185622,379.4157405844598,646.378849194801
173663.0,14776.0,173663.0,48690.0,173663.0,72509.0,535.4824868756227,370.80335825695386,631.7571645685678
173663.0,14746.0,173663.0,48626.0,173663.0,72477.0,528.5951313974131,362.5034553514014,617.6651407205364
173663.0,14739.0,173663.0,48629.0,173663.0,72466.0,521.8665920971378,354.527121610194,604.1196646176091
173663.0,14744.0,173663.0,48663.0,173663.0,72452.0,515.307079156807,346.8846627752207,591.1364183251328
173663.0,14752.0,173663.0,48627.0,173663.0,72466.0,508.92618007062543,339.585611881462,578.7297985306423
173663.0,14749.0,173663.0,48648.0,173663.0,72435.0,502.73304143419733,332.63901132680974,566.9130247827837
173673.0,14730.0,173673.0,48596.0,173673.0,72438.0,496.7366039246747,326.05353435549637,555.6982922931599
173673.0,14710.0,173673.0,48589.0,173673.0,72400.0,490.9456149481842,319.837283762775,545.0967725695091
173673.0,14693.0,173673.0,48569.0,173673.0,72372.0,485.368355929873,313.9973505145907,535.1183886308363
173673.0,14711.0,173673.0,48558.0,173673.0,72370.0,480.0122944328278,308.53934451476835,525.7713907527586
173673.0,14705.0,173673.0,48542.0,173673.0,72379.0,474.88396035124254,303.4670349087572,517.0620036031747
173673.0,14705.0,173673.0,48609.0,173673.0,72364.0,469.98908034085355,298.7822009320449,508.9944075867752
173683.0,14713.0,173683.0,48590.0,173683.0,72377.0,465.3327679024935,294.48495424079374,501.5709267021325
173683.0,14697.0,173683.0,48609.0,173683.0,72366.0,460.9196717922508,290.57441528570797,494.7922244483318
173683.0,14689.0,173683.0,48585.0,173683.0,72368.0,456.75403604489634,287.049215527298,488.65747936901334
173683.0,14696.0,173683.0,48584.0,173683.0,72351.0,452.8396330083759,283.9076190939947,483.1644936628477
173683.0,14695.0,173683.0,48625.0,173683.0,72367.0,449.1797129357624,281.1475148637708,478.30971464631756
173683.0,14671.0,173683.0,48567.0,173683.0,72308.0,445.7770327477331,278.76654412959425,474.0881772326371
173694.0,14668.0,173694.0,48528.0,173694.0,72341.0,442.63377363149567,276.76206238225166,470.49327849814057
173694.0,14672.0,173694.0,48524.0,173694.0,72318.0,439.75132107966135,275.13049816659543,467.51648163633774
173694.0,14664.0,173694.0,48553.0,173694.0,72331.0,437.13012181425296,273.86656443929,465.1471964082184
173694.0,14663.0,173694.0,48549.0,173694.0,72360.0,434.769658026859,272.96303692271897,463.37287683949137
173694.0,14680.0,173694.0,48567.0,173694.0,72343.0,432.66845999614486,272.41102070434204,462.17930614837337
173694.0,14678.0,173694.0,48589.0,173694.0,72348.0,430.8242198335434,272.20032890113873,461.55090740756816
173704.0,14660.0,173704.0,48572.0,173704.0,72354.0,429.23396188101697,272.31987046101574,461.4708598101013
173704.0,14669.0,173704.0,48546.0,173704.0,72347.0,427.8940593671691,272.7578531482118,461.9211060349342
173704.0,14671.0,173704.0,48598.0,173704.0,72395.0,426.8001358676738,273.50166445537235,462.88244553070865
173704.0,14671.0,173704.0,48631.0,173704.0,72366.0,425.9470581062555,274.5379185376572,464.3347952465666
173704.0,14675.0,173704.0,48595.0,173704.0,72373.0,425.3290141663748,275.8529953913169,466.2574484346976
173704.0,14673.0,173704.0,48604.0,173704.0,72357.0,424.9395781165507,277.4334858264649,468.62904682639225
173714.0,14664.0,173714.0,48576.0,173714.0,72374.0,424.77172278549097,279.26608328599264,471.4273437512419
173714.0,14670.0,173714.0,48566.0,173714.0,72364.0,424.8177545861429,281.3371536473992,474.62902197400354
173714.0,14667.0,173714.0,48565.0,173714.0,72367.0,425.0692191855215,283.6322364072653,478.20959327870565
173714.0,14685.0,173714.0,48622.0,173714.0,72379.0,425.51688350286025,286.1357387541469,482.1433016298911
173714.0,14671.0,173714.0,48621.0,173714.0,72431.0,426.15081454646446,288.8311548894959,486.4031743865171
173714.0,14702.0,173714.0,48591.0,173714.0,72394.0,426.9604966989191,291.70156420455476,490.96136608191057
173725.0,14690.0,173725.0,48588.0,173725.0,72393.0,427.934983722199,294.72972685045227,495.78942934548655
173725.0,14698.0,173725.0,48624.0,173725.0,72419.0,429.0630676066993,297.89776712816183,500.8581839974022
173725.0,14702.0,173725.0,48671.0,173725.0,72482.0,430.33337354842286,301.18716569850415,506.13766890241334
173725.0,14707.0,173725.0,48661.0,173725.0,72455.0,431.7344056994299,304.57935462694456,511.5976429777097
173725.0,14711.0,173725.0,48658.0,173725.0,72463.0,433.25462095898484,308.05636540456965,517.2081627682231
173725.0,14707.0,173725.0,48627.0,173725.0,72457.0,434.88249474900203,311.6009497316942,522.9396709196791
173735.0,14690.0,173735.0,48641.0,173735.0,72465.0,436.6064799841522,315.19620804557087,528.7627665064622
173735.0,14706.0,173735.0,48645.0,173735.0,72448.0,438.41482115924543,318.8251614517005,534.6479657755186
173735.0,14703.0,173735.0,48638.0,173735.0,72466.0,440.29536963654385,322.4705529533771,540.565456283436
173735.0,14713.0,173735.0,48654.0,173735.0,72525.0,442.23554824605134,326.11479151205134,546.4849971606652
173735.0,14723.0,173735.0,48693.0,173735.0,72506.0,444.22242916515665,329.7400050936302,552.3762437147641
173735.0,14725.0,173735.0,48692.0,173735.0,72522.0,446.24286477153964,333.32836921180933,558.2092423573746
173745.0,14735.0,173745.0,48679.0,173745.0,72528.0,448.2836354582107,336.86253143069416,563.954645541249
173745.0,14740.0,173745.0,48708.0,173745.0,72570.0,450.3315804300282,340.3257721762914,569.5837974251667
173745.0,14755.0,173745.0,48727.0,173745.0,72554.0,452.3737402384807,343.70206431098933,575.0690008396268
173745.0,14761.0,173745.0,48735.0,173745.0,72579.0,454.3975499278737,346.97636389722777,580.383828862476
173745.0,14758.0,173745.0,48729.0,173745.0,72573.0,456.39103868687886,350.13498088533703,585.503277499648
173745.0,14753.0,173745.0,48690.0,173745.0,72567.0,458.34291498578415,353.16564367769763,590.4037744872784
173756.0,14732.0,173756.0,48672.0,173756.0,72581.0,460.2424424705215,356.05706373459554,595.0630733541625
173756.0,14757.0,173756.0,48679.0,173756.0,72553.0,462.07916566733275,358.7981888287314,599.4600638619748
173756.0,14755.0,173756.0,48714.0,173756.0,72572.0,463.842726669728,361.37767958227244,603.5745258524339
173756.0,14762.0,173756.0,48734.0,173756.0,72592.0,465.5229087361519,363.7839941546807,607.3869263472543
173756.0,14760.0,173756.0,48709.0,173756.0,72586.0,467.10974928300936,366.0058507433281,610.8784528081653
173756.0,14765.0,173756.0,48703.0,173756.0,72589.0,468.59358094155226,368.0324651978926,614.0311718822733
173766.0,14755.0,173766.0,48730.0,173766.0,72580.0,469.9650111178227,369.85340423578856,616.828034965326
173766.0,14780.0,173766.0,48768.0,173766.0,72620.0,471.21488488921557,371.45857065282325,619.2527979430699
173766.0,14782.0,173766.0,48758.0,173766.0,72635.0,472.33434486848154,372.83865072896003,621.2901733821024
173766.0,14785.0,173766.0,48704.0,173766.0,72619.0,473.31502880332573,373.98553036379957,622.9262460465609
173766.0,14766.0,173766.0,48705.0,173766.0,72613.0,474.14920889472813,374.8920468155067,624.1487393904546
173766.0,14773.0,173766.0,48715.0,173766.0,72586.0,474.8297071573621,375.5513110578608,624.9468541976358
173776.0,14765.0,173776.0,48684.0,173776.0,72594.0,475.3496902812376,375.95624251036594,625.3108416629207
173776.0,14763.0,173776.0,48733.0,173776.0,72620.0,475.7025000540271,376.0994074370734,625.2316735105312
173776.0,14789.0,173776.0,48734.0,173776.0,72582.0,475.88157825401913,375.97310255661307,624.7010179093085
173776.0,14779.0,173776.0,48785.0,173776.0,72639.0,475.8805550349778,375.5698176653067,623.7113636253928
173776.0,14786.0,173776.0,48746.0,173776.0,72616.0,475.6934443486126,374.88291156996786,622.2562056575388
173776.0,14775.0,173776.0,48778.0,173776.0,72614.0,475.31474828334586,373.90709277248067,620.3303128293866
173787.0,14784.0,173787.0,48746.0,173787.0,72628.0,474.7394340832758,372.63856952347084,617.929881242029
173787.0,14799.0,173787.0,48798.0,173787.0,72607.0,473.9629378256384,371.07509606686494,615.0525616087557
173787.0,14791.0,173787.0,48750.0,173787.0,72613.0,472.98130824544404,369.2161216129932,611.6974759421242
173787.0,14775.0,173787.0,48718.0,173787.0,72603.0,471.7913532393268,367.06281747772766,607.865183191785
173787.0,14773.0,173787.0,48710.0,173787.0,72570.0,470.39056656514623,364.6176282548278,603.5575614793976
173787.0,14778.0,173787.0,48712.0,173787.0,72578.0,468.7769178120544,361.8836019755301,598.7775563186567
173797.0,14766.0,173797.0,48690.0,173797.0,72552.0,466.9487303550011,358.8639808263249,593.5288534471958
173797.0,14768.0,173797.0,48705.0,173797.0,72572.0,464.9046392647993,355.56203007018655,587.815664381591
173797.0,14773.0,173797.0,48730.0,173797.0,72569.0,462.64355435004745,351.98103423730646,581.6427257609575
173797.0,14780.0,173797.0,48698.0,173797.0,72557.0,460.16470527458233,348.12454344943575,575.0154759127593
173797.0,14777.0,173797.0,48706.0,173797.0,72555.0,457.4678052099842,343.9966208498469,567.9402182528372
173797.0,14763.0,173797.0,48683.0,173797.0,72555.0,454.55319543171714,339.6018238890873,560.4241822941983
173808.0,14760.0,173808.0,48759.0,173808.0,72565.0,451.4218312285654,334.94518848554753,552.4756378812899
173808.0,14770.0,173808.0,48683.0,173808.0,72553.0,448.0751799422339,330.03254779884185,544.1041474054346
173808.0,14767.0,173808.0,48690.0,173808.0,72510.0,444.5152294289387,324.87082927368294,535.3207493081563
173808.0,14758.0,173808.0,48697.0,173808.0,72504.0,440.74461094078106,319.46792501789616,526.1377973325741
173808.0,14740.0,173808.0,48650.0,173808.0,72481.0,436.76663196464074,313.83243884542867,516.5685442069175
173808.0,14719.0,173808.0,48637.0,173808.0,72443.0,432.58508536644115,307.97343722418765,506.62672435002327
173818.0,14725.0,173818.0,48632.0,173818.0,72454.0,428.20391163557764,301.9000116000081,496.32615743322407
173818.0,14735.0,173818.0,48634.0,173818.0,72470.0,423.6269731441458,295.6209027471306,485.68052615791413
173818.0,14731.0,173818.0,48630.0,173818.0,72445.0,418.8581244520634,289.1444398176774,474.7035625505637
173818.0,14734.0,173818.0,48635.0,173818.0,72431.0,413.90145103650536,282.4786744072592,463.40936305434894
173818.0,14722.0,173818.0,48602.0,173818.0,72427.0,408.7614577549608,275.6315171106065,451.81246567325763
173818.0,14710.0,173818.0,48661.0,173818.0,72415.0,403.44312190895215,268.6108338044055,439.9278141767724
173828.0,14733.0,173828.0,48648.0,173828.0,72430.0,397.9518694469905,261.42474626525967,427.77084971145075
173828.0,14705.0,173828.0,48605.0,173828.0,72390.0,392.29362996901096,254.0821226949734,415.3577252829805
173828.0,14692.0,173828.0,48602.0,173828.0,72377.0,386.474909642467,246.59270540895005,402.70542201725794
173828.0,14675.0,173828.0,48574.0,173828.0,72312.0,380.50264708512634,238.96675599745447,389.83152180361844
173828.0,14667.0,173828.0,48527.0,173828.0,72305.0,374.38390057296647,231.21456167736073,376.7536216039604
173828.0,14661.0,173828.0,48529.0,173828.0,72285.0,368.12558693496715,223.3458510764599,363.4886742061243
173839.0,14663.0,173839.0,48548.0,173839.0,72318.0,361.7343649986465,215.36929316288325,350.0526757884777
173839.0,14665.0,173839.0,48574.0,173839.0,72288.0,355.21667752790864,207.29254243819832,336.4608677151557
173839.0,14642.0,173839.0,48563.0,173839.0,72287.0,348.57887858135456,199.12283415788306,322.72814848103087
173839.0,14668.0,173839.0,48513.0,173839.0,72248.0,341.82733072695214,190.8675262555671,308.86928651414746
173839.0,14636.0,173839.0,48545.0,173839.0,72246.0,334.96849821167336,182.53413643963745,294.8988544208455
173839.0,14644.0,173839.0,48558.0,173839.0,72226.0,328.0090480183792,174.130248606193,280.8310764444017
173849.0,14630.0,173849.0,48541.0,173849.0,72208.0,320.955875624903,165.66381246290996,266.6797384174382
173849.0,14624.0,173849.0,48533.0,173849.0,72187.0,313.8160876258929,157.1435750532583,252.4581152233377
173849.0,14598.0,173849.0,48466.0,173849.0,72177.0,306.59695111057846,148.57911572762112,238.17885258227852
173849.0,14589.0,173849.0,48450.0,173849.0,72157.0,299.30571849814174,139.9803365447425,223.8538634409756
173849.0,14588.0,173849.0,48445.0,173849.0,72156.0,291.9493862831855,131.3566850462126,209.49429724140055
173849.0,14578.0,173849.0,48450.0,173849.0,72146.0,284.5345635201822,122.71664739870715,195.11060798714277
173859.0,14577.0,173859.0,48467.0,173859.0,72149.0,277.0674821992376,114.06777468505578,180.71274907261488
173859.0,14566.0,173859.0,48449.0,173859.0,72121.0,269.55405215886174,105.41704981461714,166.31043584216923
173859.0,14573.0,173859.0,48457.0,173859.0,72109.0,261.9999259275936,96.77127303110888,151.9133136514671
173859.0,14545.0,173859.0,48422.0,173859.0,72089.0,254.4105732996273,88.13726341272604,137.53095016193674
173859.0,14541.0,173859.0,48425.0,173859.0,72094.0,246.79127843842076,79.5218457829198,123.17278309202459
173859.0,14557.0,173859.0,48448.0,173859.0,72109.0,239.14707349469296,70.93180291835137,108.84825988534419
173870.0,14542.0,173870.0,48412.0,173870.0,72049.0,231.4828170076729,62.374035675562595,94.56717707867608
173870.0,14543.0,173870.0,48400.0,173870.0,72030.0,223.80342097025368,53.85575677308941,80.33980217063186
173870.0,14502.0,173870.0,48339.0,173870.0,71981.0,216.11395724201049,45.38430111712955,66.17648625450238
173870.0,14502.0,173870.0,48344.0,173870.0,71979.0,208.4194913689824,36.96652612929552,52.087038261011116
173870.0,14475.0,173870.0,48349.0,173870.0,71949.0,200.72475090235702,28.608224800279345,38.08023689012941
173870.0,14482.0,173870.0,48335.0,173870.0,71971.0,193.0338344726394,20.313951947542364,24.163629672145248
173880.0,14502.0,173880.0,48375.0,173880.0,71964.0,185.3501415778622,12.087239205095955,10.343671488706946
173880.0,14486.0,173880.0,48357.0,173880.0,71935.0,177.67661199465402,3.9310306246096616,-3.373919119163247
173880.0,14480.0,173880.0,48319.0,173880.0,71936.0,170.0160723252589,-4.151891938377673,-16.983911891746402
173880.0,14471.0,173880.0,48308.0,173880.0,71915.0,162.3713941164147,-12.1588984987294,-30.481518323664773
173880.0,14479.0,173880.0,48365.0,173880.0,71946.0,154.74551809332792,-20.087749825436674,-43.862293880861785
173880.0,14461.0,173880.0,48338.0,173880.0,71905.0,147.141534640904,-27.936409701836,-57.12183734509381
173890.0,14457.0,173890.0,48316.0,173890.0,71882.0,139.56278400635784,-35.70252575460688,-70.25552623579858
173890.0,14432.0,173890.0,48290.0,173890.0,71834.0,132.0128425544661,-43.38329531930924,-83.25865879826017
173890.0,14405.0,173890.0,48261.0,173890.0,71846.0,124.49532818261986,-50.97585403534299,-96.12693997500082
173890.0,14417.0,173890.0,48272.0,173890.0,71828.0,117.01357334931964,-58.477788587625014,-108.85685010513328
173890.0,14412.0,173890.0,48235.0,173890.0,71829.0,109.5704124932538,-65.88748429274767,-121.44565971518534
173890.0,14414.0,173890.0,48266.0,173890.0,71808.0,102.1682597981333,-73.20427320146007,-133.89126860616136
173901.0,14395.0,173901.0,48282.0,173901.0,71819.0,94.8093051926923,-80.42833015374708,-146.19205348851528
173901.0,14390.0,173901.0,48275.0,173901.0,71787.0,87.49559375226119,-87.5602216985132,-158.3467222167002
173901.0,14378.0,173901.0,48220.0,173901.0,71762.0,80.22897021367464,-94.60047012463411,-170.35425765395064
173901.0,14372.0,173901.0,48238.0,173901.0,71792.0,73.01099174435512,-101.54962435489074,-182.21400585471883
173901.0,14373.0,173901.0,48279.0,173901.0,71788.0,65.84288782899597,-108.40849568123213,-193.9255908789254
173901.0,14369.0,173901.0,48220.0,173901.0,71752.0,58.72560971909445,-115.17796132990912,-205.48853686657299
173911.0,14373.0,173911.0,48289.0,173911.0,71734.0,51.659973449446795,-121.85854832480675,-216.90207094196148
173911.0,14331.0,173911.0,48229.0,173911.0,71716.0,44.64678103462313,-128.45012546979132,-228.16533767228555
173911.0,14334.0,173911.0,48158.0,173911.0,71704.0,37.68672958627758,-134.9518734316032,-239.27771548020996
173911.0,14323.0,173911.0,48179.0,173911.0,71678.0,30.78015082175915,-141.36289314971765,-250.2390367142881
173911.0,14331.0,173911.0,48191.0,173911.0,71690.0,23.926864261471337,-147.68300940143877,-261.049739729536
173911.0,14339.0,173911.0,48210.0,173911.0,71688.0,17.12628373934831,-153.9128689928229,-271.7108679904162
173921.0,14311.0,173921.0,48201.0,173921.0,71665.0,10.377657829391126,-160.0534286961137,-282.223869640795
173921.0,14308.0,173921.0,48157.0,173921.0,71658.0,3.6801932613906843,-166.10554526706358,-292.5904302404763
173921.0,14302.0,173921.0,48159.0,173921.0,71651.0,-2.9670256738415333,-172.07006011889194,-302.81247219283694
173921.0,14320.0,173921.0,48203.0,173921.0,71640.0,-9.565082908432487,-177.94806697569658,-312.8921710591925
173921.0,14296.0,173921.0,48186.0,173921.0,71635.0,-16.115075599327497,-183.74074727066386,-322.8319097770195
173921.0,14291.0,173921.0,48148.0,173921.0,71632.0,-22.617944498885265,-189.448933131263,-332.63420107216587
173932.0,14280.0,173932.0,48117.0,173932.0,71605.0,-29.074485963429538,-195.07313657440858,-342.30160632507307
173932.0,14257.0,173932.0,48118.0,173932.0,71572.0,-35.485499026610626,-200.61412381106197,-351.83680056940455
173932.0,14270.0,173932.0,48124.0,173932.0,71584.0,-41.85196227959915,-206.0734315733451,-361.242862467249
173932.0,14257.0,173932.0,48119.0,173932.0,71593.0,-48.1751292284319,-211.45346521414848,-370.52347347628836
173932.0,14252.0,173932.0,48140.0,173932.0,71579.0,-54.45649150540504,-216.75730197627672,-379.68274279159414
173932.0,14256.0,173932.0,48147.0,173932.0,71584.0,-60.697709058737075,-221.98834304173164,-388.72486841484147
173942.0,14258.0,173942.0,48131.0,173942.0,71577.0,-66.90051334717646,-227.1498911703846,-397.65388516667053
173942.0,14245.0,173942.0,48087.0,173942.0,71534.0,-73.06653694489285,-232.24495535875155,-406.4735480834206
173942.0,14239.0,173942.0,48127.0,173942.0,71555.0,-79.19718688088392,-237.27645443242358,-415.18741987908436
173942.0,14231.0,173942.0,48125.0,173942.0,71567.0,-85.2936466603606,-242.24738235381687,-423.79895795972175
173942.0,14224.0,173942.0,48129.0,173942.0,71518.0,-91.35693407188137,-247.1605567178795,-432.31133981982987
173942.0,14215.0,173942.0,48095.0,173942.0,71507.0,-97.38795403260133,-252.0182842563393,-440.72737276861176
173952.0,14199.0,173952.0,48074.0,173952.0,71494.0,-103.38757274869681,-256.8224066950196,-449.0497873967478
173952.0,14191.0,173952.0,48034.0,173952.0,71489.0,-109.35675363722737,-261.57477950747034,-457.2815848285162
173952.0,14185.0,173952.0,48058.0,173952.0,71495.0,-115.29672462632573,-266.27791434721735,-465.42614018468225
173952.0,14197.0,173952.0,48047.0,173952.0,71481.0,-121.20905740401895,-270.93537832617585,-473.4871026348711
173952.0,14191.0,173952.0,48105.0,173952.0,71499.0,-127.09556346328992,-275.5516889959705,-481.46820121627434
173952.0,14185.0,173952.0,48065.0,173952.0,71470.0,-132.95808582124397,-280.1317959872207,-489.37302713640645
173963.0,14169.0,173963.0,48068.0,173963.0,71484.0,-138.79838063536124,-284.68058629122766,-497.2048632767463
173963.0,14171.0,173963.0,48060.0,173963.0,71455.0,-144.6181534201678,-289.2027671819567,-504.9666073321696
173963.0,14173.0,173963.0,48108.0,173963.0,71455.0,-150.41910815038267,-293.7028574718256,-512.6607803904935
173963.0,14182.0,173963.0,48094.0,173963.0,71446.0,-156.20284527717433,-298.1848356653195,-520.2895905060511
173963.0,14161.0,173963.0,48069.0,173963.0,71432.0,-161.9706389622213,-302.65163510008165,-527.8549904774004
173963.0,14144.0,173963.0,48066.0,173963.0,71427.0,-167.72332823357186,-307.1050060489208,-535.3587216656249
173973.0,14125.0,173973.0,48021.0,173973.0,71402.0,-173.4614879701483,-311.54580742682435,-542.8024024802114
173973.0,14129.0,173973.0,48015.0,173973.0,71394.0,-179.1857501705373,-315.97450746015204,-550.1876958813268
173973.0,14118.0,173973.0,48004.0,173973.0,71379.0,-184.89702252201204,-320.39173341168646,-557.5165356101659
173973.0,14137.0,173973.0,48046.0,173973.0,71400.0,-190.5964969920692,-324.7985769026112,-564.7912755049902
173973.0,14126.0,173973.0,48035.0,173973.0,71396.0,-196.28547674743123,-329.1964079164924,-572.0145878030742
173973.0,14119.0,173973.0,48012.0,173973.0,71383.0,-201.96514886063312,-333.5864605364295,-579.1891690449063
173983.0,14112.0,173983.0,47979.0,173983.0,71373.0,-207.63647680671988,-337.96976106420436,-586.3175408681939
173983.0,14108.0,173983.0,48024.0,173983.0,71396.0,-213.30022081077982,-342.3474470535325,-593.4020002511834
173983.0,14100.0,173983.0,48049.0,173983.0,71379.0,-218.95697066622034,-346.7208215412104,-600.4444722357011
173983.0,14105.0,173983.0,48040.0,173983.0,71378.0,-224.60714040867583,-351.0907963872388,-607.446248872363
173983.0,14094.0,173983.0,48010.0,173983.0,71309.0,-230.25091471052264,-355.45728525857294,-614.4079502673319
173983.0,14073.0,173983.0,47982.0,173983.0,71336.0,-235.8882137681985,-359.81917965790296,-621.32990601599
173994.0,14073.0,173994.0,47983.0,173994.0,71294.0,-241.5187940542924,-364.17482098346466,-628.2126777297067
173994.0,14057.0,173994.0,47958.0,173994.0,71307.0,-247.14243636891592,-368.52250522196516,-635.0573826571947
173994.0,14065.0,173994.0,47957.0,173994.0,71300.0,-252.7590734674186,-372.8608240229088,-641.8658123097521
173994.0,14063.0,173994.0,47968.0,173994.0,71311.0,-258.36878846602883,-377.18886446675003,-648.6403743870492
173994.0,14055.0,173994.0,47968.0,173994.0,71319.0,-263.97170224343677,-381.50619471762434,-655.3838336651227
173994.0,14032.0,173994.0,47959.0,173994.0,71298.0,-269.56789959396383,-385.81266999554805,-662.0989691510292
174003.0,14047.0,174003.0,47946.0,174003.0,71296.0,-275.1575054357372,-390.1083078023788,-668.7883599117488
174003.0,14068.0,174003.0,47968.0,174003.0,71297.0,-280.740692512358,-394.39329919250224,-675.4543521107571
174003.0,14037.0,174003.0,47990.0,174003.0,71291.0,-286.31741821603373,-398.6678808654839,-682.0990270622776
174003.0,14022.0,174003.0,47951.0,174003.0,71308.0,-291.8872001597913,-402.93195677494896,-688.7240488087166
174003.0,14013.0,174003.0,47925.0,174003.0,71256.0,-297.4492563224786,-407.18491244471045,-695.3304882973789
174003.0,14005.0,174003.0,47905.0,174003.0,71225.0,-303.0028094356371,-411.4259822194515,-701.9189357583166
174014.0,14006.0,174014.0,47924.0,174014.0,71235.0,-308.5472682691412,-415.6548254359602,-708.490026719619
174014.0,14000.0,174014.0,47897.0,174014.0,71224.0,-314.0822575083573,-419.8718258434458,-715.044936420692
174014.0,13994.0,174014.0,47937.0,174014.0,71226.0,-319.6075751682272,-424.07807987776107,-721.5854904730727
174014.0,13978.0,174014.0,47937.0,174014.0,71241.0,-325.1231807683713,-428.2751547272495,-728.1140252968232
174014.0,13977.0,174014.0,47899.0,174014.0,71199.0,-330.62927296556575,-432.4647274638761,-734.633188505876
174014.0,13978.0,174014.0,47913.0,174014.0,71244.0,-336.126377721601,-436.64846339194855,-741.1458046427149
174024.0,13981.0,174024.0,47902.0,174024.0,71225.0,-341.61531546015215,-440.8281740377769,-747.6547272569414
174024.0,13979.0,174024.0,47961.0,174024.0,71226.0,-347.0970370799455,-445.0057933210213,-754.1625477243463
174024.0,13970.0,174024.0,47929.0,174024.0,71233.0,-352.5724441536547,-449.18293103040253,-760.6713185703684
174024.0,13965.0,174024.0,47897.0,174024.0,71194.0,-358.04229851940545,-453.36041031430625,-767.1824207380732
174024.0,13964.0,174024.0,47888.0,174024.0,71180.0,-363.50721314459304,-457.53834768525644,-773.6966475922674
174024.0,13943.0,174024.0,47861.0,174024.0,71167.0,-368.9676695996617,-461.7166783740506,-780.2145541849925
174034.0,13926.0,174034.0,47857.0,174034.0,71172.0,-374.4241228350568,-465.8956858556412,-786.7368187908506
174034.0,13932.0,174034.0,47894.0,174034.0,71165.0,-379.8772296727834,-470.07629472084875,-793.2643617037703
174034.0,13936.0,174034.0,47898.0,174034.0,71170.0,-385.3280006497246,-474.2599184401081,-799.7982597246522
174034.0,13936.0,174034.0,47866.0,174034.0,71136.0,-390.7777052000092,-478.447999605026,-806.339640470371
174034.0,13927.0,174034.0,47871.0,174034.0,71147.0,-396.2276576406414,-482.64178901070807,-812.8897163461476
174034.0,13929.0,174034.0,47870.0,174034.0,71155.0,-401.6790721292764,-486.8424586511758,-819.449861008648
174045.0,13917.0,174045.0,47924.0,174045.0,71158.0,-407.13300274558014,-491.05106087441766,-826.0214652002466
174045.0,13920.0,174045.0,47891.0,174045.0,71125.0,-412.5903140199176,-495.2680645085146,-832.605656909948
174045.0,13907.0,174045.0,47883.0,174045.0,71152.0,-418.0516616406668,-499.4928504136159,-839.203185330796
174045.0,13898.0,174045.0,47827.0,174045.0,71091.0,-423.5175035515641,-503.7237249960226,-845.8144807234097
174045.0,13876.0,174045.0,47841.0,174045.0,71092.0,-428.9882061781167,-507.95846991899157,-852.4398739731236
174045.0,13884.0,174045.0,47811.0,174045.0,71097.0,-434.4642457684987,-512.1949707002368,-859.07996165889
174055.0,13882.0,174055.0,47824.0,174055.0,71106.0,-439.9463449632228,-516.4316024904139,-865.7357685428369
174055.0,13887.0,174055.0,47843.0,174055.0,71098.0,-445.43540898968706,-520.6673204795326,-872.4085394930052
174055.0,13874.0,174055.0,47774.0,174055.0,71072.0,-450.9323464567441,-524.9015723585501,-879.099498769547
174055.0,13868.0,174055.0,47814.0,174055.0,71095.0,-456.43795685799284,-529.1343708307995,-885.8098215083533
174055.0,13866.0,174055.0,47819.0,174055.0,71047.0,-461.9529353506621,-533.3664877409346,-892.5406999896902
174055.0,13863.0,174055.0,47827.0,174055.0,71082.0,-467.4778936007714,-537.5993023432593,-899.2934014456891
174065.0,13861.0,174065.0,47859.0,174065.0,71089.0,-473.0133177491142,-541.8342976169232,-906.0692121365412
174065.0,13851.0,174065.0,47829.0,174065.0,71077.0,-478.5594999073711,-546.0725142192049,-912.86911385514
174065.0,13833.0,174065.0,47788.0,174065.0,71035.0,-484.11653828554654,-550.3142838073367,-919.6934862627571
174065.0,13817.0,174065.0,47798.0,174065.0,71049.0,-489.684488914835,-554.5595007347355,-926.5422276285904
174065.0,13817.0,174065.0,47780.0,174065.0,71014.0,-495.26362848792905,-558.8081245042692,-933.4150956376272
174065.0,13802.0,174065.0,47783.0,174065.0,71016.0,-500.85467451095406,-563.0604616892043,-940.3119707819861
174076.0,13819.0,174076.0,47765.0,174076.0,70995.0,-506.45886764208126,-567.3172698170299,-947.2330686484164
174076.0,13811.0,174076.0,47788.0,174076.0,71008.0,-512.0778939332004,-571.57981676998,-954.1791031280742
174076.0,13823.0,174076.0,47821.0,174076.0,71007.0,-517.7136691980609,-575.8497297338068,-961.1512811413882
174076.0,13801.0,174076.0,47771.0,174076.0,70996.0,-523.3681048558716,-580.1285608037829,-968.1511288566259
174076.0,13813.0,174076.0,47768.0,174076.0,70974.0,-529.0429745921749,-584.4175184651923,-975.1803618558854
174076.0,13794.0,174076.0,47787.0,174076.0,70993.0,-534.7398696365881,-588.7176178659051,-982.2409266958438
174086.0,13802.0,174086.0,47770.0,174086.0,70980.0,-540.4601717725844,-593.0298066494453,-989.3350175086929
174086.0,13801.0,174086.0,47755.0,174086.0,70985.0,-546.204995460843,-597.3548983467399,-996.4649259223027
174086.0,13776.0,174086.0,47749.0,174086.0,70955.0,-551.9751051049393,-601.6936350664444,-1003.6328942229649
174086.0,13744.0,174086.0,47702.0,174086.0,70926.0,-557.7709936067482,-606.0469826661197,-1010.8412064393949
174086.0,13761.0,174086.0,47717.0,174086.0,70934.0,-563.5932274195256,-610.4165794515094,-1018.0925395358362
174086.0,13755.0,174086.0,47746.0,174086.0,70943.0,-569.4427383333897,-614.8050752846198,-1025.3902467954213
174096.0,13756.0,174096.0,47748.0,174096.0,70929.0,-575.3207968663016,-619.2159724914302,-1032.7382920089738
174096.0,13738.0,174096.0,47757.0,174096.0,70921.0,-581.228863531431,-623.6530818141088,-1040.1410428036834
174096.0,13734.0,174096.0,47730.0,174096.0,70921.0,-587.1685668589012,-628.120083039568,-1047.6031941637243
174096.0,13737.0,174096.0,47701.0,174096.0,70902.0,-593.1417737233105,-632.6204856493943,-1055.129775458406
174096.0,13729.0,174096.0,47724.0,174096.0,70910.0,-599.1505940755568,-637.1579347330515,-1062.726155830627
174096.0,13735.0,174096.0,47772.0,174096.0,70923.0,-605.1972856166705,-641.7363460017284,-1070.3979729064338
174107.0,13725.0,174107.0,47712.0,174107.0,70909.0,-611.2841251302386,-646.3595136111785,-1078.1508834684237
174107.0,13720.0,174107.0,47717.0,174107.0,70908.0,-617.4133030672958,-651.0307390972274,-1085.9902634081009
174107.0,13701.0,174107.0,47692.0,174107.0,70860.0,-623.5869080949402,-655.7529973514332,-1093.921127955723
174107.0,13691.0,174107.0,47669.0,174107.0,70841.0,-629.8070460605869,-660.5293744226691,-1101.9484217693966
174107.0,13684.0,174107.0,47682.0,174107.0,70859.0,-636.0760406870347,-665.363471462165,-1110.0775168203504
174107.0,13691.0,174107.0,47672.0,174107.0,70872.0,-642.3965742687473,-670.2596492360776,-1118.3144200753745
174117.0,13690.0,174117.0,47693.0,174117.0,70849.0,-648.7716488942921,-675.223001781528,-1126.665502595264
174117.0,13686.0,174117.0,47677.0,174117.0,70843.0,-655.2044045363266,-680.2591359663077,-1135.1371849552434
174117.0,13688.0,174117.0,47700.0,174117.0,70835.0,-661.6979254565468,-685.373906544783,-1143.7358884130058
174117.0,13666.0,174117.0,47691.0,174117.0,70854.0,-668.2551177997501,-690.5731429596459,-1152.4680391286042
174117.0,13687.0,174117.0,47708.0,174117.0,70847.0,-674.8786603037131,-695.8623434198121,-1161.3398621467486
174117.0,13677.0,174117.0,47727.0,174117.0,70859.0,-681.5709167287233,-701.2462996441366,-1170.35699731585
174127.0,13655.0,174127.0,47705.0,174127.0,70824.0,-688.3337815904027,-706.728650075049,-1179.5241534847437
174127.0,13641.0,174127.0,47667.0,174127.0,70804.0,-695.1686817298807,-712.3116244957228,-1188.8450335258472
174127.0,13625.0,174127.0,47650.0,174127.0,70776.0,-702.0768247273544,-717.9963017056491,-1198.3226190761088
174127.0,13623.0,174127.0,47626.0,174127.0,70767.0,-709.0594957865683,-723.7832304241865,-1207.9596367851552
174127.0,13626.0,174127.0,47620.0,174127.0,70770.0,-716.118212818877,-729.6730248258086,-1217.758912529244
174127.0,13634.0,174127.0,47665.0,174127.0,70800.0,-723.254658735194,-735.6666554083215,-1227.723372675874
174138.0,13628.0,174138.0,47658.0,174138.0,70789.0,-730.4704293488159,-741.765224704246,-1237.8556214774042
174138.0,13614.0,174138.0,47638.0,174138.0,70771.0,-737.7667789724866,-747.9694362484069,-1248.1573960373648
174138.0,13594.0,174138.0,47650.0,174138.0,70744.0,-745.1445599619149,-754.2792829374899,-1258.6293460113666
174138.0,13607.0,174138.0,47618.0,174138.0,70755.0,-752.6043420006662,-760.694037735089,-1269.271166321494
174138.0,13610.0,174138.0,47662.0,174138.0,70769.0,-760.146448015939,-767.2122654274701,-1280.0816599061334
174138.0,13596.0,174138.0,47668.0,174138.0,70751.0,-767.7707670710026,-773.8315943953626,-1291.0584613609747
174148.0,13585.0,174148.0,47621.0,174148.0,70718.0,-775.4765627872839,-780.5482686883786,-1302.1977189977558
174148.0,13566.0,174148.0,47549.0,174148.0,70702.0,-783.2624918156152,-787.3571118810928,-1313.4941462135866
174148.0,13552.0,174148.0,47582.0,174148.0,70697.0,-791.1267959538584,-794.252275193798,-1324.9413431322307
174148.0,13560.0,174148.0,47593.0,174148.0,70685.0,-799.0675141500852,-801.2279868596746,-1336.5320183446875
174148.0,13555.0,174148.0,47572.0,174148.0,70679.0,-807.0825383828371,-808.2785764054919,-1348.2580097663479
174148.0,13542.0,174148.0,47603.0,174148.0,70675.0,-815.1694972916151,-815.3981180613823,-1360.110210078
174158.0,13547.0,174158.0,47578.0,174158.0,70668.0,-823.3256355952623,-822.580118465735,-1372.078439512799
174158.0,13532.0,174158.0,47567.0,174158.0,70665.0,-831.5477440170392,-829.8172994543029,-1384.1512723558512
174158.0,13526.0,174158.0,47564.0,174158.0,70659.0,-839.8321033801803,-837.1015732841163,-1396.315841772129
174158.0,13543.0,174158.0,47599.0,174158.0,70661.0,-848.1744207179865,-844.4240526785318,-1408.557621310487
174158.0,13530.0,174158.0,47597.0,174158.0,70671.0,-856.569654311066,-851.7747296640782,-1420.8601329101896
174158.0,13515.0,174158.0,47584.0,174158.0,70667.0,-865.0117723149144,-859.1419206288674,-1433.2045353380813
174169.0,13489.0,174169.0,47513.0,174169.0,70598.0,-873.4937082263989,-866.5120425477969,-1445.5693000128463
174169.0,13488.0,174169.0,47522.0,174169.0,70590.0,-882.0075740960269,-873.8700526430708,-1457.9303775469593
174169.0,13492.0,174169.0,47513.0,174169.0,70585.0,-890.5448706535374,-881.200145146981,-1470.2617504664954
174169.0,13481.0,174169.0,47506.0,174169.0,70560.0,-899.096476038562,-888.4861106732425,-1482.5358163580104
174169.0,13485.0,174169.0,47525.0,174169.0,70569.0,-907.6524842411087,-895.7113162037688,-1494.7234666892891
174169.0,13479.0,174169.0,47540.0,174169.0,70574.0,-916.2020331850744,-902.8584438267925,-1506.7939957582687
174179.0,13461.0,174179.0,47497.0,174179.0,70535.0,-924.7331672993942,-909.9090859056265,-1518.7148771392906
174179.0,13453.0,174179.0,47501.0,174179.0,70533.0,-933.2328077836955,-916.8435513923185,-1530.4516393243591
174179.0,13440.0,174179.0,47514.0,174179.0,70533.0,-941.6868491689451,-923.6409607846733,-1541.9679407738947
174179.0,13443.0,174179.0,47547.0,174179.0,70532.0,-950.0802611722875,-930.2791386015296,-1553.225552052727
174179.0,13447.0,174179.0,47499.0,174179.0,70515.0,-958.3970647599081,-936.7341401327425,-1564.1841511122389
174179.0,13427.0,174179.0,47468.0,174179.0,70503.0,-966.6201768333051,-942.9799939909733,-1574.8011677065992
174189.0,13416.0,174189.0,47470.0,174189.0,70476.0,-974.731302144122,-948.9890497943195,-1585.031825979336
174189.0,13397.0,174189.0,47437.0,174189.0,70441.0,-982.7110227457787,-954.7325452863682,-1594.829406832433
174189.0,13397.0,174189.0,47412.0,174189.0,70455.0,-990.5390005766187,-960.181074032952,-1604.1456627149632
174189.0,13379.0,174189.0,47460.0,174189.0,70481.0,-998.1941399977743,-965.3049728311861,-1612.9310342101808
174189.0,13389.0,174189.0,47454.0,174189.0,70434.0,-1005.6546603482832,-970.0743565750684,-1621.1344332038034
174189.0,13391.0,174189.0,47392.0,174189.0,70419.0,-1012.8980447954908,-974.4588339150744,-1628.7030435009215
174200.0,13368.0,174200.0,47433.0,174200.0,70443.0,-1019.9008783281394,-978.4275279829126,-1635.582492670668
174200.0,13366.0,174200.0,47424.0,174200.0,70437.0,-1026.6387597798678,-981.949346499707,-1641.7169677973752
174200.0,13363.0,174200.0,47450.0,174200.0,70400.0,-1033.0863655424287,-984.9929113396784,-1647.0490745241061
174200.0,13357.0,174200.0,47475.0,174200.0,70415.0,-1039.2174998129558,-987.526108081501,-1651.5198499824705
174200.0,13360.0,174200.0,47458.0,174200.0,70410.0,-1045.0050532688442,-989.5155156024468,-1655.0689618194656
174200.0,13341.0,174200.0,47390.0,174200.0,70345.0,-1050.4209458950547,-990.9261255507029,-1657.6348989247094
174210.0,13324.0,174210.0,47397.0,174210.0,70359.0,-1055.436172216052,-991.7217878764964,-1659.1554026968133
174210.0,13327.0,174210.0,47399.0,174210.0,70362.0,-1060.0210024559078,-991.8660395170853,-1659.568098332523
174210.0,13318.0,174210.0,47392.0,174210.0,70348.0,-1064.1451948545257,-991.3225989754658,-1658.810850546478
174210.0,13329.0,174210.0,47390.0,174210.0,70360.0,-1067.7780642726725,-990.0555016555547,-1656.8218558507099
174210.0,13303.0,174210.0,47429.0,174210.0,70364.0,-1070.8884586550625,-988.0291321104355,-1653.539714220945
174210.0,13312.0,174210.0,47417.0,174210.0,70350.0,-1073.4447940980035,-985.2080734175775,-1648.9034861934715
174221.0,13298.0,174221.0,47387.0,174221.0,70359.0,-1075.415181907459,-981.5569104221546,-1642.8528122527725
174221.0,13299.0,174221.0,47380.0,174221.0,70357.0,-1076.7675636710055,-977.0404352348121,-1635.328143022422
174221.0,13299.0,174221.0,47442.0,174221.0,70373.0,-1077.4698169220414,-971.6241023230505,-1626.2709506651015
174221.0,13308.0,174221.0,47426.0,174221.0,70339.0,-1077.4898040990265,-965.2740806705293,-1615.6239274597326
174221.0,13272.0,174221.0,47364.0,174221.0,70339.0,-1076.7953982165964,-957.9570720866298,-1603.33139402694
174221.0,13279.0,174221.0,47369.0,174221.0,70315.0,-1075.3546765149881,-949.6407386227461,-1589.3400161857062
174231.0,13262.0,174231.0,47351.0,174231.0,70330.0,-1073.1363134786611,-940.2947158795357,-1573.5996460465008
174231.0,13257.0,174231.0,47361.0,174231.0,70330.0,-1070.1099921161397,-929.8915049367957,-1556.0640502536653
174231.0,13261.0,174231.0,47409.0,174231.0,70354.0,-1066.246759629734,-918.4069241270872,-1536.6914197275098
174231.0,13265.0,174231.0,47429.0,174231.0,70375.0,-1061.5192980934949,-905.8200547509632,-1515.4446644141938
174231.0,13264.0,174231.0,47401.0,174231.0,70373.0,-1055.9020746437138,-892.1129041224054,-1492.2915895015135
174231.0,13265.0,174231.0,47391.0,174231.0,70388.0,-1049.3714590812197,-877.2704321855654,-1467.205156664551
174241.0,13275.0,174241.0,47421.0,174241.0,70400.0,-1041.9058785140073,-861.2811203680278,-1440.1639305353217
174241.0,13288.0,174241.0,47487.0,174241.0,70454.0,-1033.4859389710036,-844.1374072284974,-1411.1525129374727
174241.0,13291.0,174241.0,47510.0,174241.0,70476.0,-1024.0944580174764,-825.8354226009927,-1380.161710580714
174241.0,13301.0,174241.0,47544.0,174241.0,70506.0,-1013.7164818505321,-806.3742876106123,-1347.1884893224983
174241.0,13303.0,174241.0,47503.0,174241.0,70488.0,-1002.3393724238929,-785.7556647060951,-1312.236079556289
174241.0,13293.0,174241.0,47472.0,174241.0,70563.0,-989.9530055563207,-763.9840737859454,-1275.3144230460257
174252.0,13310.0,174252.0,47492.0,174252.0,70574.0,-976.550104711643,-741.0679703086603,-1236.440643367874
174252.0,13329.0,174252.0,47561.0,174252.0,70621.0,-962.126581253182,-717.0208121652495,-1195.6392684484076
174252.0,13353.0,174252.0,47603.0,174252.0,70693.0,-946.6816668875172,-691.8612731592178,-1152.9422957016818
174252.0,13367.0,174252.0,47630.0,174252.0,70721.0,-930.2178404488304,-665.6127139549012,-1108.3890989649028
174252.0,13374.0,174252.0,47663.0,174252.0,70780.0,-912.740751417507,-638.3026262858731,-1062.026224760751
174252.0,13405.0,174252.0,47646.0,174252.0,70814.0,-894.2592615133512,-609.9624665552725,-1013.9073073116716
174262.0,13417.0,174262.0,47732.0,174262.0,70915.0,-874.7855191814589,-580.6278232972359,-964.0930380593255
174262.0,13483.0,174262.0,47848.0,174262.0,70994.0,-854.3348966886094,-550.3383123872288,-912.6508358229534
174262.0,13467.0,174262.0,47849.0,174262.0,71030.0,-832.9257388423202,-519.1366362576839,-859.6541630145341
174262.0,13501.0,174262.0,47856.0,174262.0,71092.0,-810.5791555617526,-487.06749593054155,-805.1819653503546
174262.0,13512.0,174262.0,47850.0,174262.0,71135.0,-787.319084361599,-454.17745539270504,-749.3185544524567
174262.0,13555.0,174262.0,47890.0,174262.0,71210.0,-763.172452070197,-420.51564353805566,-692.1537041242143
174272.0,13556.0,174272.0,47918.0,174272.0,71269.0,-738.1692326307394,-386.1344766009115,-633.7826722207383
174272.0,13606.0,174272.0,47971.0,174272.0,71387.0,-712.3424709391734,-351.0899866392219,-574.305987351253
174272.0,13647.0,174272.0,48030.0,174272.0,71493.0,-685.7282535313362,-315.4417584086196,-513.8287949563532
174272.0,13666.0,174272.0,48067.0,174272.0,71520.0,-658.3655036243431,-279.2525841139499,-452.45984450464744
174272.0,13708.0,174272.0,48174.0,174272.0,71641.0,-630.2957308844997,-242.58792315382425,-390.3106587903602
174272.0,13746.0,174272.0,48174.0,174272.0,71678.0,-601.5628682265328,-205.51519720897602,-327.4950781172316
174283.0,13796.0,174283.0,48272.0,174283.0,71782.0,-572.2130566875372,-168.10308450634705,-264.1288964871909
174283.0,13834.0,174283.0,48312.0,174283.0,71860.0,-542.2942858864882,-130.42092845804234,-200.3294484956565
174283.0,13877.0,174283.0,48350.0,174283.0,71953.0,-511.855981668057,-92.53816536676584,-136.21507033069292
174283.0,13899.0,174283.0,48388.0,174283.0,72012.0,-480.9486709207133,-54.523904546012204,-71.90446548223406
174283.0,13933.0,174283.0,48411.0,174283.0,72069.0,-449.62382113212374,-16.44684074281338,-7.516252628097391
174283.0,13966.0,174283.0,48441.0,174283.0,72164.0,-417.93383887893856,21.624588372686503,56.83119684226199
174293.0,14017.0,174293.0,48486.0,174293.0,72238.0,-385.9320677320547,59.6219435406947,121.01991478204309
174293.0,14066.0,174293.0,48578.0,174293.0,72386.0,-353.67261388580664,97.4767055635848,184.93284977545068
174293.0,14103.0,174293.0,48615.0,174293.0,72429.0,-321.20998766456034,135.120676981501,248.4548209023119
174293.0,14137.0,174293.0,48649.0,174293.0,72475.0,-288.5987372427973,172.48664338043,311.47344201391684
174293.0,14184.0,174293.0,48695.0,174293.0,72559.0,-255.8932124514714,209.5087845372634,373.87944146149425
174293.0,14222.0,174293.0,48773.0,174293.0,72653.0,-223.14738405122438,246.122869954645,435.5666622129736
174303.0,14284.0,174303.0,48853.0,174303.0,72770.0,-190.41458112373488,282.2667387485358,496.4324825301544
174303.0,14319.0,174303.0,48841.0,174303.0,72777.0,-157.74710031273355,317.88110239112393,556.378658619971
174303.0,14342.0,174303.0,48924.0,174303.0,72846.0,-125.19581268380239,352.9101178177923,615.3118660655844
174303.0,14368.0,174303.0,48899.0,174303.0,72915.0,-92.8100113803705,387.3014919919848,673.1436437085247
174303.0,14414.0,174303.0,48904.0,174303.0,72949.0,-60.63750652225076,421.0062047335598,729.7902084621173
174303.0,14439.0,174303.0,48953.0,174303.0,73034.0,-28.724710758715446,453.9778555597675,785.1724049878767
174314.0,14475.0,174314.0,49009.0,174314.0,73094.0,2.8833771437114137,486.17208540240426,839.215756528462
174314.0,14525.0,174314.0,49064.0,174314.0,73157.0,34.14322742658078,517.5466352826825,891.8506963658335
174314.0,14555.0,174314.0,49124.0,174314.0,73198.0,65.0129211830232,548.0619341027968,943.01286089675
174314.0,14593.0,174314.0,49103.0,174314.0,73228.0,95.45237425927644,577.6817231332284,992.6431652848903
174314.0,14621.0,174314.0,49174.0,174314.0,73321.0,125.42351100723977,606.3733056349902,1040.6876718730903
174314.0,14664.0,174314.0,49182.0,174314.0,73367.0,154.89036490246735,634.1074976677583,1087.097617543867
174324.0,14701.0,174324.0,49219.0,174324.0,73431.0,183.8192064240343,660.8586292236396,1131.8297798661683
174324.0,14709.0,174324.0,49225.0,174324.0,73461.0,212.17869733887414,686.6045642562137,1174.8468901702054
174324.0,14748.0,174324.0,49255.0,174324.0,73460.0,239.93991868241892,711.3265785426195,1216.11772865905
174324.0,14766.0,174324.0,49250.0,174324.0,73508.0,267.07625524028026,735.009124433149,1255.6167611085011
174324.0,14790.0,174324.0,49268.0,174324.0,73522.0,293.5632710373005,757.639491196413,1293.32354483271
174324.0,14828.0,174324.0,49300.0,174324.0,73565.0,319.3786191992374,779.2074201600069,1329.222250811085
174334.0,14855.0,174334.0,49328.0,174334.0,73614.0,344.50202948125104,799.7049037463173,1363.3014119315221
174334.0,14869.0,174334.0,49344.0,174334.0,73647.0,368.9153782379866,819.1262476666288,1395.5539221567692
174334.0,14898.0,174334.0,49379.0,174334.0,73665.0,392.6026978112137,837.4682204730234,1425.977173663137
174334.0,14932.0,174334.0,49370.0,174334.0,73694.0,415.5501218779116,854.7301530413445,1454.5730670801254
174334.0,14951.0,174334.0,49408.0,174334.0,73732.0,437.7459190580348,870.9139374990382,1481.34788884899
174334.0,14972.0,174334.0,49464.0,174334.0,73768.0,459.1805889258836,886.0240733529911,1506.3122964671575
174345.0,14990.0,174345.0,49462.0,174345.0,73768.0,479.84688117138694,900.0680299110625,1529.4814417755483
174345.0,15000.0,174345.0,49460.0,174345.0,73750.0,499.7397119139862,913.0566840281037,1550.874896012424
174345.0,15018.0,174345.0,49411.0,174345.0,73768.0,518.8560057406319,925.0042339144763,1570.5161252098687
174345.0,15026.0,174345.0,49408.0,174345.0,73772.0,537.1944899466534,935.9274267629944,1588.4317723233767
174345.0,15048.0,174345.0,49426.0,174345.0,73790.0,554.7554876310899,945.8445469882909,1604.65112985441
174345.0,15055.0,174345.0,49450.0,174345.0,73806.0,571.5407461210777,954.7747979749442,1619.205862828143
174355.0,15100.0,174355.0,49464.0,174355.0,73849.0,587.5533513136502,962.7382771018315,1632.129954878536
174355.0,15109.0,174355.0,49454.0,174355.0,73818.0,602.7978128786349,969.7561892757669,1643.459837971102
174355.0,15114.0,174355.0,49450.0,174355.0,73836.0,617.2802433239906,975.8508794166928,1653.234415275262
174355.0,15131.0,174355.0,49458.0,174355.0,73828.0,631.008394004657,981.0456083328138,1661.4947959016354
174355.0,15150.0,174355.0,49512.0,174355.0,73879.0,643.9915539508595,985.3644072032046,1668.2840397611653
174355.0,15150.0,174355.0,49487.0,174355.0,73858.0,656.2404913793118,988.8323195463374,1673.6472147790087
174365.0,15162.0,174365.0,49485.0,174365.0,73842.0,667.7674031877752,991.475746576479,1677.631534369762
174365.0,15156.0,174365.0,49488.0,174365.0,73813.0,678.5857587609187,993.3224539668079,1680.2861062416214
174365.0,15156.0,174365.0,49453.0,174365.0,73823.0,688.7100296034198,994.4013019013253,1681.6612970796314
174365.0,15169.0,174365.0,49438.0,174365.0,73791.0,698.1553569879177,994.7418209694076,1681.8081081780442
174365.0,15185.0,174365.0,49413.0,174365.0,73778.0,706.9373048880943,994.3735803612544,1680.7776696850656
174365.0,15191.0,174365.0,49476.0,174365.0,73806.0,715.0718090172834,993.3256226443566,1678.6207911091437
174376.0,15207.0,174376.0,49479.0,174376.0,73813.0,722.575240524392,991.6264761718533,1675.3878092871419
174376.0,15213.0,174376.0,49467.0,174376.0,73795.0,729.4644806242065,989.3047016865335,1671.1288191939282
174376.0,15220.0,174376.0,49458.0,174376.0,73787.0,735.7569833729829,986.3893084155025,1665.89387312809
174376.0,15222.0,174376.0,49429.0,174376.0,73760.0,741.4707956890475,982.9096845778472,1659.7328653572445
174376.0,15239.0,174376.0,49465.0,174376.0,73772.0,746.6245381032006,978.8953105218864,1652.6952503615414
174376.0,15233.0,174376.0,49416.0,174376.0,73752.0,751.2374063688142,974.3755955527638,1644.8298419828477
174386.0,15225.0,174386.0,49418.0,174386.0,73731.0,755.3291447625679,969.3797808367933,1636.1847202169743
174386.0,15228.0,174386.0,49391.0,174386.0,73728.0,758.9198751063784,963.9366666131011,1626.8070821765816
174386.0,15220.0,174386.0,49380.0,174386.0,73695.0,762.0298294455715,958.0742153882375,1616.7430113888545
174386.0,15215.0,174386.0,49377.0,174386.0,73660.0,764.6790869239089,951.8192042279529,1606.0371699776856
174386.0,15221.0,174386.0,49386.0,174386.0,73693.0,766.8873243258045,945.1970426228997,1594.732414269569
174386.0,15226.0,174386.0,49393.0,174386.0,73670.0,768.6736383295663,938.2318643458289,1582.8696379655066
174396.0,15225.0,174396.0,49401.0,174396.0,73660.0,770.056497527436,930.9468600985526,1570.4879568473136
174396.0,15234.0,174396.0,49338.0,174396.0,73645.0,771.0537628861987,923.3645749396521,1557.624873474954
174396.0,15228.0,174396.0,49362.0,174396.0,73628.0,771.6827133177931,915.5068378515792,1544.316256687935
174396.0,15243.0,174396.0,49402.0,174396.0,73610.0,771.9600757835426,907.3945797300388,1530.596250050672
174396.0,15232.0,174396.0,49390.0,174396.0,73628.0,771.9020715167326,899.0481684650078,1516.4972214113623
174396.0,15229.0,174396.0,49327.0,174396.0,73592.0,771.5244333020162,890.4879831843047,1502.0498698469798
174407.0,15234.0,174407.0,49307.0,174407.0,73570.0,770.8423386485044,881.7343446577032,1487.2833614532965
174407.0,15221.0,174407.0,49277.0,174407.0,73555.0,769.8703109667701,872.8067728722074,1472.22523799964
174407.0,15217.0,174407.0,49280.0,174407.0,73550.0,768.6221125466246,863.7232409798054,1456.901218929289
174407.0,15218.0,174407.0,49250.0,174407.0,73514.0,767.1105924426632,854.499758909822,1441.335120450239
174407.0,15234.0,174407.0,49303.0,174407.0,73514.0,765.3475940592404,845.1502698823555,1425.5488119626757
174407.0,15224.0,174407.0,49275.0,174407.0,73512.0,763.3440373734737,835.6869058524096,1409.5621867931543
174417.0,15233.0,174417.0,49284.0,174417.0,73485.0,761.110078275859,826.1204739368043,1393.393280094749
174417.0,15234.0,174417.0,49241.0,174417.0,73465.0,758.655229323303,816.4607626127289,1377.0584098224756
174417.0,15229.0,174417.0,49239.0,174417.0,73470.0,755.988461812805,806.7164750819207,1360.5721843744907
174417.0,15240.0,174417.0,49286.0,174417.0,73479.0,753.1183030340779,796.8951011362004,1343.9476050506369
174417.0,15227.0,174417.0,49284.0,174417.0,73473.0,750.0529223398452,787.0032412661218,1327.1964854623031
174417.0,15231.0,174417.0,49243.0,174417.0,73450.0,746.8001936160424,777.0472795569734,1310.3299850972878
174428.0,15228.0,174428.0,49203.0,174428.0,73396.0,743.3677136512092,767.0336300701325,1293.3588478617555
174428.0,15209.0,174428.0,49211.0,174428.0,73373.0,739.7627822227927,756.9683197265427,1276.293136793643
174428.0,15206.0,174428.0,49170.0,174428.0,73357.0,735.9922950876039,746.8564599632344,1259.1416932841037
174428.0,15199.0,174428.0,49184.0,174428.0,73367.0,732.0625476198675,736.7019469591309,1241.9118001085594
174428.0,15211.0,174428.0,49212.0,174428.0,73381.0,727.979100656231,726.5074327681278,1224.6093394008751
174428.0,15212.0,174428.0,49229.0,174428.0,73361.0,723.746831793672,716.2747574623307,1207.2393522432435
174438.0,15208.0,174438.0,49208.0,174438.0,73333.0,719.370123392173,706.0057329135002,1189.8065827900778
174438.0,15210.0,174438.0,49191.0,174438.0,73326.0,714.8530393924722,695.7027195987396,1172.315674867722
174438.0,15220.0,174438.0,49183.0,174438.0,73364.0,710.199460450153,685.3687332816891,1154.7712677857326
174438.0,15212.0,174438.0,49236.0,174438.0,73331.0,705.413262249392,675.007468018829,1137.178436423328
174438.0,15201.0,174438.0,49165.0,174438.0,73292.0,700.4984822293227,664.6236279919647,1119.5432467562302
174438.0,15191.0,174438.0,49131.0,174438.0,73256.0,695.4593268659905,654.2231531830937,1101.8728154923324
174448.0,15189.0,174448.0,49085.0,174448.0,73237.0,690.300041641196,643.8127275776181,1084.174873620133
174448.0,15187.0,174448.0,49098.0,174448.0,73235.0,685.0248014143767,633.3988793388186,1066.4573476672495
174448.0,15183.0,174448.0,49111.0,174448.0,73238.0,679.6376999876902,622.9874619961004,1048.7283085268173
174448.0,15180.0,174448.0,49128.0,174448.0,73254.0,674.1427962327733,612.583838213349,1030.9963381892546
174448.0,15199.0,174448.0,49142.0,174448.0,73219.0,668.5442085524122,602.1935433377314,1013.2711319788025
174448.0,15186.0,174448.0,49055.0,174448.0,73151.0,662.8463223039159,591.8228882161486,995.5638543663936
174459.0,15161.0,174459.0,49050.0,174459.0,73174.0,657.053988626514,581.4789061216877,977.8869080576083
174459.0,15172.0,174459.0,49082.0,174459.0,73152.0,651.1724939451099,571.1687953645954,960.2535612121688
174459.0,15181.0,174459.0,49152.0,174459.0,73182.0,645.2074598674913,560.8999096950037,942.6780496300411
174459.0,15189.0,174459.0,49078.0,174459.0,73137.0,639.1650031702691,550.6806726733373,925.1760705004461
174459.0,15174.0,174459.0,49029.0,174459.0,73103.0,633.0520868840418,540.5213027188422,907.7651410824011
174459.0,15153.0,174459.0,49022.0,174459.0,73078.0,626.8767202692909,530.433458122385,890.4644818206447
174469.0,15136.0,174469.0,48995.0,174469.0,73032.0,620.6478293694214,520.4293946435257,873.2945589196448
174469.0,15126.0,174469.0,48979.0,174469.0,73027.0,614.3749152594999,510.52140231144534,856.2765832450749
174469.0,15118.0,174469.0,48945.0,174469.0,73003.0,608.0677283866239,500.7214400941599,839.4321389365628
174469.0,15132.0,174469.0,48983.0,174469.0,72976.0,601.7361104782299,491.04082436071354,822.7829936672608
174469.0,15137.0,174469.0,49001.0,174469.0,72998.0,595.3900866779168,481.49028645198155,806.3510372375472
174469.0,15102.0,174469.0,48965.0,174469.0,72936.0,589.0401023569249,472.0805062489648,790.1583336333961
174479.0,15100.0,174479.0,48987.0,174479.0,72944.0,582.6970764336935,462.82262557491106,774.2271603694338
174479.0,15103.0,174479.0,49014.0,174479.0,72928.0,576.3722182469538,453.7285650149597,758.5799291688469
174479.0,15094.0,174479.0,48955.0,174479.0,72926.0,570.0769192828558,444.8114291292302,743.2392017726334
174479.0,15101.0,174479.0,48927.0,174479.0,72897.0,563.8228266519304,436.0856940876905,728.227860862458
174479.0,15074.0,174479.0,48905.0,174479.0,72829.0,557.6219380740014,427.5667664871869,713.5690913340339
174479.0,15065.0,174479.0,48827.0,174479.0,72798.0,551.4865641915999,419.27016180456457,699.2858473876156
174490.0,15058.0,174490.0,48873.0,174490.0,72808.0,545.4291315165505,411.21062376872254,685.400027299839
174490.0,15045.0,174490.0,48848.0,174490.0,72813.0,539.4619632267134,403.40152819279365,671.9320371349717
174490.0,15056.0,174490.0,48879.0,174490.0,72772.0,533.5971588368958,395.85488244881947,658.9009268497193
174490.0,15050.0,174490.0,48861.0,174490.0,72792.0,527.8466107977554,388.58169956769257,646.3246104157017
174490.0,15040.0,174490.0,48867.0,174490.0,72761.0,522.222119180875,381.592372184223,634.2199467310159
174490.0,15026.0,174490.0,48809.0,174490.0,72753.0,516.7354381198724,374.8968172856659,622.6027981137879
174500.0,15024.0,174500.0,48843.0,174500.0,72719.0,511.39817267709594,368.50428821579254,611.4879889292845
174500.0,15017.0,174500.0,48855.0,174500.0,72736.0,506.2216431322185,362.42319562177954,600.8891314579143
174500.0,15004.0,174500.0,48834.0,174500.0,72716.0,501.21679726775557,356.6613215504718,590.8185411331164
174500.0,14998.0,174500.0,48816.0,174500.0,72723.0,496.394111599322,351.2261107200832,581.2873459418579
174500.0,14979.0,174500.0,48779.0,174500.0,72682.0,491.7634285819444,346.12454492648703,572.305611500233
174500.0,14980.0,174500.0,48767.0,174500.0,72666.0,487.33374969313013,341.36262867660275,563.8822426441703
174510.0,14971.0,174510.0,48783.0,174510.0,72634.0,483.11305085994667,336.944850097054,556.0245984751191
174510.0,14969.0,174510.0,48751.0,174510.0,72648.0,479.1081766056346,332.8739164402625,548.7380229479481
174510.0,14976.0,174510.0,48795.0,174510.0,72640.0,475.3248167068718,329.15074785648864,542.0255963486978
174510.0,14974.0,174510.0,48817.0,174510.0,72645.0,471.7675752592536,325.77472529654756,535.8881965352042
174510.0,14984.0,174510.0,48743.0,174510.0,72639.0,468.4401299421679,322.74414596561553,530.3246978239424
174510.0,14969.0,174510.0,48777.0,174510.0,72655.0,465.34540847828964,320.05636017723526,525.3321799971785
174521.0,14985.0,174521.0,48789.0,174521.0,72669.0,462.4857093126445,317.70753704383714,520.9062203158953
174521.0,14982.0,174521.0,48807.0,174521.0,72653.0,459.86280284132096,315.6927431041964,517.0412949350673
174521.0,14970.0,174521.0,48814.0,174521.0,72653.0,457.47805156428205,314.0064493614107,513.7310834394925
174521.0,14958.0,174521.0,48789.0,174521.0,72651.0,455.33241958607834,312.6429872642562,510.9685451320441
174521.0,14959.0,174521.0,48750.0,174521.0,72635.0,453.4263005907632,311.5965773944327,508.7458806040603
174521.0,14947.0,174521.0,48754.0,174521.0,72599.0,451.75930592179407,310.86085616487975,507.0543666730978
174531.0,14944.0,174531.0,48752.0,174531.0,72622.0,450.3300977532776,310.4282771323368,505.8839779227861
174531.0,14966.0,174531.0,48797.0,174531.0,72623.0,449.13628558114414,310.28989306474,505.22306428473115
174531.0,14956.0,174531.0,48797.0,174531.0,72625.0,448.1744832170717,310.43566471753076,505.05836223829846
174531.0,14952.0,174531.0,48761.0,174531.0,72598.0,447.4404616030855,310.8549323361596,505.37510930194793
174531.0,14963.0,174531.0,48738.0,174531.0,72614.0,446.9292053021874,311.5364349957005,506.156948568475
174531.0,14966.0,174531.0,48779.0,174531.0,72629.0,446.6349314883643,312.46784978984135,507.3857755399087
174541.0,14974.0,174541.0,48831.0,174541.0,72658.0,446.55121325721944,313.6356384611253,509.0418799175686
174541.0,14982.0,174541.0,48813.0,174541.0,72663.0,446.67117303944804,315.0256430406086,511.10441530873806
174541.0,14969.0,174541.0,48817.0,174541.0,72652.0,446.98765323163263,316.6238298848516,513.5518777342329
174541.0,14951.0,174541.0,48770.0,174541.0,72662.0,447.49322462862636,318.4164702122825,516.3623042129315
174541.0,14949.0,174541.0,48756.0,174541.0,72633.0,448.1799357512467,320.38969080751235,519.5131900916784
174541.0,14961.0,174541.0,48754.0,174541.0,72625.0,449.038983423286,322.5287272317236,522.9811986842439
174552.0,14970.0,174552.0,48760.0,174552.0,72671.0,450.0605962737005,324.81731711968473,526.7418035872565
174552.0,14982.0,174552.0,48812.0,174552.0,72654.0,451.23418406699807,327.23755581911354,530.7692125096905
174552.0,14987.0,174552.0,48876.0,174552.0,72677.0,452.54860139778117,329.77040512857207,535.0365997181873
174552.0,14985.0,174552.0,48818.0,174552.0,72682.0,453.9923763337619,332.39669583199617,539.5163322300818
174552.0,14980.0,174552.0,48830.0,174552.0,72709.0,455.5538052027101,335.0978151477223,544.1801724040447
174552.0,14998.0,174552.0,48887.0,174552.0,72739.0,457.22093008252136,337.8557579320423,548.9996359046248
174562.0,15003.0,174562.0,48929.0,174562.0,72740.0,458.98156531711396,340.6533962406906,553.9465120179123
174562.0,15015.0,174562.0,48850.0,174562.0,72734.0,460.823470582283,343.47524709728606,558.9933084342127
174562.0,15012.0,174562.0,48830.0,174562.0,72667.0,462.73456970773185,346.3077028735595,564.1132288035103
174562.0,14994.0,174562.0,48820.0,174562.0,72744.0,464.70304160921097,349.138259326516,569.2796313361874
174562.0,14990.0,174562.0,48807.0,174562.0,72735.0,466.7171643213562,351.9545249174855,574.46562095653
174562.0,15007.0,174562.0,48849.0,174562.0,72750.0,468.76502381976604,354.7436715604658,579.6442332328585
174572.0,15020.0,174572.0,48873.0,174572.0,72748.0,470.83440169011897,357.4924587494435,584.788775854774
174572.0,15036.0,174572.0,48855.0,174572.0,72756.0,472.91297357212517,360.18769184313686,589.8729399715241
174572.0,15028.0,174572.0,48839.0,174572.0,72775.0,474.9886325895108,362.8165665035966,594.8708299831502
174572.0,15025.0,174572.0,48883.0,174572.0,72773.0,477.04967507788297,365.36660829626896,599.7570745296027
174572.0,15036.0,174572.0,48919.0,174572.0,72779.0,479.0847801930013,367.82573200485274,604.5069668965408
174572.0,15046.0,174572.0,48867.0,174572.0,72833.0,481.082974006245,370.18272057093077,609.0966255365537
174583.0,15038.0,174583.0,48881.0,174583.0,72811.0,483.03371201825354,372.4275209773519,613.5033434686685
174583.0,15037.0,174583.0,48856.0,174583.0,72770.0,484.92694283224773,374.55098709455626,617.7058945956169
174583.0,15045.0,174583.0,48864.0,174583.0,72799.0,486.7530501178844,376.54445027493534,621.6843160259974
174583.0,15026.0,174583.0,48842.0,174583.0,72787.0,488.5027521158039,378.39938310193315,625.4194321949626
174583.0,15040.0,174583.0,48855.0,174583.0,72791.0,490.166981255878,380.10711408116305,628.8926293850056
174583.0,15045.0,174583.0,48881.0,174583.0,72793.0,491.7367745464371,381.65868057230426,632.0857942501245
174593.0,15034.0,174593.0,48859.0,174593.0,72812.0,493.2032620483766,383.04494368932586,634.9812833802641
174593.0,15061.0,174593.0,48887.0,174593.0,72825.0,494.55770920221914,384.2568015364335,637.5620499604186
174593.0,15050.0,174593.0,48886.0,174593.0,72784.0,495.79159305686835,385.28534726918645,639.8118451199311
174593.0,15048.0,174593.0,48882.0,174593.0,72836.0,496.89670660962906,386.12203703034754,641.7152415548389
174593.0,15059.0,174593.0,48919.0,174593.0,72847.0,497.86518022729445,386.7588781629987,643.2576681517563
174593.0,15073.0,174593.0,48912.0,174593.0,72840.0,498.689497313453,387.1886966608813,644.4257677597931
174603.0,15067.0,174603.0,48896.0,174603.0,72854.0,499.3626522060473,387.40545172954484,645.2078094218664
174603.0,15068.0,174603.0,48864.0,174603.0,72829.0,499.87832507546534,387.40424353613986,645.5938418144885
174603.0,15059.0,174603.0,48875.0,174603.0,72825.0,500.2309060788002,387.18090303815615,645.5756125558325
174603.0,15047.0,174603.0,48872.0,174603.0,72813.0,500.41536694986064,386.7315526059646,645.1463144138605
174603.0,15058.0,174603.0,48876.0,174603.0,72814.0,500.42705508461245,386.05244923022155,644.3002882002835
174603.0,15059.0,174603.0,48870.0,174603.0,72813.0,500.2615559938354,385.14001735018303,643.0328343511801
174614.0,15050.0,174614.0,48909.0,174614.0,72804.0,499.9146951043923,383.99095809489245,641.3401414723455
174614.0,15053.0,174614.0,48887.0,174614.0,72787.0,499.3825475102069,382.6025139740446,639.2192126017787
174614.0,15062.0,174614.0,48898.0,174614.0,72801.0,498.66140723794854,380.97279400544693,636.6677164580847
174614.0,15064.0,174614.0,48896.0,174614.0,72817.0,497.7478416235166,379.100950920094,633.683941857066
174614.0,15075.0,174614.0,48945.0,174614.0,72833.0,496.6388632964461,376.98736227941504,630.2670779778056
174614.0,15055.0,174614.0,48877.0,174614.0,72808.0,495.3321065520792,374.63398147118306,626.417684937828
174624.0,15053.0,174624.0,48821.0,174624.0,72806.0,493.8258604737616,372.0443546624589,622.1379722136336
174624.0,15053.0,174624.0,48831.0,174624.0,72788.0,492.1189406665844,369.22284224003175,617.4317513163654
174624.0,15057.0,174624.0,48834.0,174624.0,72758.0,490.21057774472564,366.1736699587958,612.3041962137407
174624.0,15053.0,174624.0,48815.0,174624.0,72748.0,488.10043593867437,362.90054832217754,606.7614700629472
174624.0,15053.0,174624.0,48818.0,174624.0,72728.0,485.7886829211264,359.4066394786537,600.8102788013877
174624.0,15039.0,174624.0,48829.0,174624.0,72735.0,483.27600967484443,355.6945355782572,594.4575254381898
174635.0,15055.0,174635.0,48810.0,174635.0,72730.0,480.5635963479011,351.7663233622407,587.7101882783311
174635.0,15043.0,174635.0,48831.0,174635.0,72705.0,477.6531171634425,347.6237247807221,580.5753621432243
174635.0,15032.0,174635.0,48829.0,174635.0,72730.0,474.5467863679525,343.26826702145763,573.060304509628
174635.0,15033.0,174635.0,48850.0,174635.0,72733.0,471.2473176683168,338.7015790271063,565.1725693047753
174635.0,15039.0,174635.0,48855.0,174635.0,72728.0,467.75784363032125,333.9258326584403,556.9203798956082
174635.0,15021.0,174635.0,48882.0,174635.0,72705.0,464.0819305386422,328.9442798726923,548.3130103158909
174645.0,14999.0,174645.0,48813.0,174645.0,72672.0,460.2235570744354,323.7617259637571,539.3608385209653
174645.0,14998.0,174645.0,48774.0,174645.0,72639.0,456.1868826553222,318.3844773449556,530.0750025598643
174645.0,14988.0,174645.0,48762.0,174645.0,72641.0,451.9759408992762,312.8195734896178,520.4668556303491
174645.0,14996.0,174645.0,48774.0,174645.0,72644.0,447.5944766410166,307.0739241128011,510.54760011781775
174645.0,15004.0,174645.0,48774.0,174645.0,72627.0,443.0459870824494,301.15399896320156,500.3283046475313
174645.0,14993.0,174645.0,48769.0,174645.0,72625.0,438.33391838466633,295.0659870328698,489.82009534202837
174655.0,14983.0,174655.0,48745.0,174655.0,72610.0,433.461843544977,288.8159858269828,479.03428819321886
174655.0,14989.0,174655.0,48747.0,174655.0,72595.0,428.4334919257562,282.4099857386939,467.98244801746625
174655.0,14984.0,174655.0,48743.0,174655.0,72587.0,423.2527497157714,275.85376265738137,456.67639385984194
174655.0,14984.0,174655.0,48804.0,174655.0,72587.0,417.9237505999233,269.15301050312837,445.12821118077017
174655.0,14986.0,174655.0,48802.0,174655.0,72615.0,412.45101401063357,262.3139765780313,433.350452572056
174655.0,14971.0,174655.0,48752.0,174655.0,72566.0,406.8395741592831,255.344287887007,421.3565711256965
174666.0,14952.0,174666.0,48693.0,174666.0,72530.0,401.09501065453134,248.25312432638185,409.161183321464
174666.0,14939.0,174666.0,48662.0,174666.0,72490.0,395.22328340444506,241.05041874307017,396.7797441073827
174666.0,14928.0,174666.0,48652.0,174666.0,72490.0,389.23044245220905,233.745704855118,384.2278684505488
174666.0,14926.0,174666.0,48667.0,174666.0,72455.0,383.12238254635275,226.34735947486055,371.52081288651334
174666.0,14936.0,174666.0,48697.0,174666.0,72459.0,376.9047636738653,218.86254431550392,358.67323798825896
174666.0,14919.0,174666.0,48688.0,174666.0,72423.0,370.58311557805723,211.29772366279272,345.69910150730396
174676.0,14910.0,174676.0,48674.0,174676.0,72431.0,364.16296620171977,203.65928614637085,332.6115926669699
174676.0,14893.0,174676.0,48642.0,174676.0,72412.0,357.6498097154872,195.9537907718693,319.4231314381979
174676.0,14907.0,174676.0,48677.0,174676.0,72437.0,351.0489787095033,188.18785926121694,306.1455315284921
174676.0,14897.0,174676.0,48686.0,174676.0,72405.0,344.3656348830967,180.3682224380268,292.79035500713775
174676.0,14887.0,174676.0,48646.0,174676.0,72389.0,337.60489627130465,172.5021167400339,279.3692456863368
174676.0,14867.0,174676.0,48623.0,174676.0,72380.0,330.77189037185883,164.59751054009956,265.8940182672493
174686.0,14873.0,174686.0,48555.0,174686.0,72342.0,323.8716500322256,156.66270874995968,252.37656965085614
174686.0,14848.0,174686.0,48558.0,174686.0,72323.0,316.9089895420757,148.70549532533238,238.82869500070126
174686.0,14869.0,174686.0,48572.0,174686.0,72313.0,309.8884599296831,140.73236588625463,225.26181424282902
174686.0,14844.0,174686.0,48598.0,174686.0,72291.0,302.8143994945727,132.74840672916605,211.68675837539752
174686.0,14850.0,174686.0,48582.0,174686.0,72304.0,295.69103692840457,124.75780383053433,198.113734616746
174686.0,14839.0,174686.0,48586.0,174686.0,72278.0,288.52256390798493,116.76443121953832,184.55246194280517
174697.0,14823.0,174697.0,48558.0,174697.0,72260.0,281.3131588068431,108.77214621121516,171.0123532317533
174697.0,14823.0,174697.0,48549.0,174697.0,72255.0,274.0669553160102,100.78479136739003,157.50257370334828
174697.0,14824.0,174697.0,48582.0,174697.0,72241.0,266.78800845331887,92.80612364211686,144.03203807801333
174697.0,14820.0,174697.0,48549.0,174697.0,72231.0,259.48037924798246,84.83996199922649,130.60948579102876
174697.0,14810.0,174697.0,48590.0,174697.0,72215.0,252.14829951518513,76.8905493282893,117.24358742248683
174697.0,14803.0,174697.0,48519.0,174697.0,72171.0,244.79627492510116,68.96286342218059,103.94294646679441
174707.0,14771.0,174707.0,48481.0,174707.0,72171.0,237.42905134843903,61.06253688924505,90.71590306646908
174707.0,14763.0,174707.0,48487.0,174707.0,72136.0,230.0514058805041,53.195238107735406,77.5702406163806
174707.0,14774.0,174707.0,48496.0,174707.0,72127.0,222.66787976608452,45.36605742395858,64.51295484149921
174707.0,14761.0,174707.0,48441.0,174707.0,72124.0,215.2827121065558,37.579361846334564,51.55011747573292
174707.0,14747.0,174707.0,48463.0,174707.0,72152.0,207.8999519402347,29.83874570921199,38.68696990142803
174707.0,14735.0,174707.0,48465.0,174707.0,72117.0,200.52347737835692,22.14689907767712,25.928349756469856
174717.0,14745.0,174717.0,48471.0,174717.0,72099.0,193.15690749708205,14.505743877404143,13.279116417785758
174717.0,14732.0,174717.0,48529.0,174717.0,72071.0,185.80361327678116,6.916957056631077,0.7441886660262753
174717.0,14734.0,174717.0,48518.0,174717.0,72077.0,178.4668537771102,-0.6171840515045233,-11.671674089302428
174717.0,14705.0,174717.0,48449.0,174717.0,72061.0,171.14987351417562,-8.093010645065078,-23.963974822552586
174717.0,14705.0,174717.0,48441.0,174717.0,72018.0,163.8558476030164,-15.505427962026886,-36.12845213298772
174717.0,14703.0,174717.0,48382.0,174717.0,72022.0,156.58775550699863,-22.848649645167995,-48.16119301646836
174728.0,14683.0,174728.0,48375.0,174728.0,72010.0,149.34833304505685,-30.11711019746633,-60.05883876275357
174728.0,14680.0,174728.0,48344.0,174728.0,71981.0,142.14006006095622,-37.30625012339448,-71.81865137952332
174728.0,14682.0,174728.0,48407.0,174728.0,71997.0,134.96511890531355,-44.4129654846152,-83.43849934260925
174728.0,14678.0,174728.0,48435.0,174728.0,71996.0,127.82543697577404,-51.4353435802592,-94.91675871697646
174728.0,14676.0,174728.0,48378.0,174728.0,71965.0,120.72284562084377,-58.37180425712518,-106.25204068074856
174728.0,14641.0,174728.0,48358.0,174728.0,71928.0,113.65918939634656,-65.22056973691014,-117.44305513919096
174738.0,14643.0,174738.0,48364.0,174738.0,71943.0,106.6362277621983,-71.9799102607638,-128.48883308741983
174738.0,14649.0,174738.0,48398.0,174738.0,71957.0,99.65544653372297,-78.64843505015187,-139.38888480952687
174738.0,14648.0,174738.0,48361.0,174738.0,71929.0,92.71807246817627,-85.22485997701307,-150.14293372784107
174738.0,14628.0,174738.0,48343.0,174738.0,71912.0,85.82527272239912,-91.70768911418673,-160.75057602692004
174738.0,14625.0,174738.0,48312.0,174738.0,71879.0,78.97825581776408,-98.09535459129552,-171.21130116666802
174738.0,14610.0,174738.0,48316.0,174738.0,71875.0,72.17820526462344,-104.3866812400986,-181.52479640057527
174748.0,14600.0,174748.0,48299.0,174748.0,71851.0,65.4261631806047,-110.58126121565186,-191.6912519959045
174748.0,14588.0,174748.0,48309.0,174748.0,71870.0,58.72290231421874,-116.67958887354729,-201.71150122122128
174748.0,14590.0,174748.0,48328.0,174748.0,71848.0,52.068806676729366,-122.68295996367908,-211.58694045661548
174748.0,14580.0,174748.0,48336.0,174748.0,71826.0,45.46383158633739,-128.59309465465458,-221.31936701646168
174748.0,14571.0,174748.0,48284.0,174748.0,71817.0,38.907530968266826,-134.411688749049,-230.9109855852795
174748.0,14573.0,174748.0,48315.0,174748.0,71825.0,32.39907703225481,-140.14029171290895,-240.364524524618
174759.0,14583.0,174759.0,48332.0,174759.0,71834.0,25.937326979134184,-145.7803435014431,-249.68314223634866
174759.0,14575.0,174759.0,48312.0,174759.0,71826.0,19.521033897543816,-151.33290265691068,-258.87005266964934
174759.0,14568.0,174759.0,48301.0,174759.0,71794.0,13.149100696728283,-156.79827812745856,-267.92816533993766
174759.0,14551.0,174759.0,48224.0,174759.0,71764.0,6.82068890483157,-162.1761192756136,-276.8600837947887
174759.0,14552.0,174759.0,48222.0,174759.0,71737.0,0.5351641506529177,-167.46610977367823,-285.6685130288895
174759.0,14529.0,174759.0,48240.0,174759.0,71750.0,-5.708012365537627,-172.66882017376417,-294.3567701816904
174769.0,14516.0,174769.0,48213.0,174769.0,71750.0,-11.909428179022598,-177.78609787403366,-302.9289977321258
174769.0,14527.0,174769.0,48269.0,174769.0,71782.0,-18.069901651809175,-182.82093981866097,-311.38990706885
174769.0,14507.0,174769.0,48239.0,174769.0,71761.0,-24.190570287756316,-187.77710286244695,-319.74420206305797
174769.0,14517.0,174769.0,48253.0,174769.0,71717.0,-30.272846795813166,-192.65863991599775,-327.9961176011909
174769.0,14511.0,174769.0,48242.0,174769.0,71706.0,-36.318327863250715,-197.4695965089669,-336.1494918424613
174769.0,14512.0,174769.0,48233.0,174769.0,71724.0,-42.32865762075926,-202.21390205021595,-344.2081595776659
174779.0,14506.0,174779.0,48301.0,174779.0,71732.0,-48.30536396572086,-206.89521281337755,-352.17602707222386
174779.0,14492.0,174779.0,48249.0,174779.0,71693.0,-54.249752691057665,-211.51646570454722,-360.0567533943538
174779.0,14494.0,174779.0,48224.0,174779.0,71707.0,-60.162895800996296,-216.07945030589974,-367.85352784701865
174779.0,14467.0,174779.0,48187.0,174779.0,71666.0,-66.04568968966902,-220.58501836244636,-375.5691255254487
174779.0,14464.0,174779.0,48163.0,174779.0,71651.0,-71.89898517307341,-225.0338537519322,-383.20611542996494
174779.0,14456.0,174779.0,48166.0,174779.0,71643.0,-77.72377315601534,-229.42725447632057,-390.7671805705179
174790.0,14461.0,174790.0,48173.0,174790.0,71649.0,-83.52129638896884,-233.76757451769583,-398.2553779629858
174790.0,14457.0,174790.0,48185.0,174790.0,71656.0,-89.29300026412795,-238.05821623153577,-405.6741016566217
174790.0,14458.0,174790.0,48209.0,174790.0,71627.0,-95.0403813010306,-242.3032662936916,-413.02683369292686
174790.0,14449.0,174790.0,48182.0,174790.0,71622.0,-100.76483041759803,-246.50699163500292,-420.3170006152478
174790.0,14428.0,174790.0,48170.0,174790.0,71609.0,-106.46756808086559,-250.6735251050522,-427.5480548203102
174790.0,14436.0,174790.0,48212.0,174790.0,71632.0,-112.14971784098839,-254.80683382438406,-434.7235479169881
174800.0,14441.0,174800.0,48197.0,174800.0,71603.0,-117.81236845620003,-258.91057344807484,-441.8469956362336
174800.0,14432.0,174800.0,48198.0,174800.0,71623.0,-123.45645458267052,-262.987698699363,-448.9216454861545
174800.0,14415.0,174800.0,48155.0,174800.0,71589.0,-129.0825936101648,-267.04025908853396,-455.9503150129484
174800.0,14408.0,174800.0,48138.0,174800.0,71575.0,-134.6911032493474,-271.06965697387307,-462.9353815165657
174800.0,14394.0,174800.0,48134.0,174800.0,71558.0,-140.28216949730523,-275.0771898103076,-469.8789818207722
174800.0,14393.0,174800.0,48143.0,174800.0,71534.0,-145.85601724032063,-279.0644697689754,-476.7833471435248
174810.0,14388.0,174810.0,48143.0,174810.0,71569.0,-151.413004563078,-283.0334778366497,-483.65106050747
174810.0,14386.0,174810.0,48143.0,174810.0,71558.0,-156.9536225445142,-286.98637578951855,-490.4849998441447
174810.0,14396.0,174810.0,48123.0,174810.0,71527.0,-162.47840457852607,-290.9253370399932,-497.28804158926414
174810.0,14360.0,174810.0,48118.0,174810.0,71534.0,-167.98780187111856,-294.85255616366794,-504.06294561421043
174810.0,14366.0,174810.0,48117.0,174810.0,71507.0,-173.48218497369152,-298.7703904926484,-510.81249830624733
174810.0,14369.0,174810.0,48134.0,174810.0,71549.0,-178.96196729273845,-302.68141311993793,-517.5395858689897
174821.0,14370.0,174821.0,48135.0,174821.0,71527.0,-184.42759557769034,-306.5882234382699,-524.2469852660748
174821.0,14347.0,174821.0,48137.0,174821.0,71521.0,-189.8793952337782,-310.49310417778895,-530.9370022377806
174821.0,14341.0,174821.0,48100.0,174821.0,71504.0,-195.31753960280048,-314.39778997086864,-537.6112902207663
174821.0,14334.0,174821.0,48098.0,174821.0,71490.0,-200.74219784409848,-318.30356188837004,-544.2709371214817
174821.0,14323.0,174821.0,48077.0,174821.0,71473.0,-206.15369141888368,-322.21159503795604,-550.9166681134711
174821.0,14331.0,174821.0,48086.0,174821.0,71441.0,-211.55256810561144,-326.12328800298246,-557.5491239489762
174831.0,14313.0,174831.0,48097.0,174831.0,71470.0,-216.939597584468,-330.0403717098703,-564.169172261998
174831.0,14311.0,174831.0,48083.0,174831.0,71494.0,-222.31574928664065,-333.9647713707052,-570.7779361421758
174831.0,14314.0,174831.0,48105.0,174831.0,71459.0,-227.68220105499046,-337.8983691790045,-577.3763699628067
174831.0,14294.0,174831.0,48070.0,174831.0,71430.0,-233.04033204165125,-341.84281745618784,-583.9648984806453
174831.0,14333.0,174831.0,48115.0,174831.0,71468.0,-238.39164516677863,-345.7994123108499,-590.5435057125026
174831.0,14301.0,174831.0,48107.0,174831.0,71442.0,-243.7375624335889,-349.7688780070016,-597.1118263380827
174841.0,14295.0,174841.0,48080.0,174841.0,71404.0,-249.07920233651453,-353.7510356964133,-603.6690372600223
174841.0,14293.0,174841.0,48050.0,174841.0,71397.0,-254.41737002446325,-357.7447430258238,-610.2140066949173
174841.0,14283.0,174841.0,48038.0,174841.0,71363.0,-259.752671142298,-361.7483191399476,-616.7457756989795
174841.0,14275.0,174841.0,48011.0,174841.0,71376.0,-265.0855712389723,-365.7601515565875,-623.2640139645193
174841.0,14255.0,174841.0,48051.0,174841.0,71365.0,-270.41647560090837,-369.77913283555677,-629.7692455193142
174841.0,14261.0,174841.0,48060.0,174841.0,71376.0,-275.74588616011874,-373.8046599592939,-636.2628099358835
174852.0,14265.0,174852.0,48017.0,174852.0,71372.0,-281.0744978516972,-377.8362612211098,-642.7466420083837
174852.0,14254.0,174852.0,48019.0,174852.0,71374.0,-286.4031190539346,-381.87341728506226,-649.2229933060869
174852.0,14249.0,174852.0,48001.0,174852.0,71359.0,-291.73253953783876,-385.915805115583,-655.6941926853316
174852.0,14247.0,174852.0,48029.0,174852.0,71369.0,-297.0634895870787,-389.9635479083895,-662.1624983098121
174852.0,14246.0,174852.0,48049.0,174852.0,71370.0,-302.3966255069985,-394.01709259799554,-668.6299540892986
174852.0,14249.0,174852.0,48051.0,174852.0,71377.0,-307.7324443636195,-398.0767007752869,-675.0981290463453
174862.0,14219.0,174862.0,48000.0,174862.0,71327.0,-313.07118459850847,-402.1419577511415,-681.5678650209649
174862.0,14205.0,174862.0,47956.0,174862.0,71323.0,-318.41289868776005,-406.2118866408217,-688.0393422952878
174862.0,14208.0,174862.0,47976.0,174862.0,71288.0,-323.7577281937879,-410.28568164812384,-694.5124975155527
174862.0,14207.0,174862.0,47977.0,174862.0,71300.0,-329.1061140769484,-414.36334215562147,-700.9874883215716
174862.0,14211.0,174862.0,48002.0,174862.0,71312.0,-334.45876012768144,-418.44568552281316,-707.4648970776709
174862.0,14202.0,174862.0,48003.0,174862.0,71283.0,-339.81646081117015,-422.5339126317856,-713.9456048930741
174873.0,14198.0,174873.0,48014.0,174873.0,71290.0,-345.1799614738595,-426.62908031031884,-720.4306070931727
174873.0,14188.0,174873.0,47965.0,174873.0,71289.0,-350.5499156488023,-430.73174975583663,-726.9209562991034
174873.0,14178.0,174873.0,47971.0,174873.0,71284.0,-355.9269252723941,-434.8420335405317,-733.4176732138092
174873.0,14181.0,174873.0,47996.0,174873.0,71263.0,-361.31161320004526,-438.9598549989628,-739.9216109182663
174873.0,14186.0,174873.0,48032.0,174873.0,71275.0,-366.7046247931356,-443.0848290703983,-746.433422402623
174873.0,14182.0,174873.0,47959.0,174873.0,71248.0,-372.1064857055925,-447.2157200798599,-752.9535827389267
174883.0,14162.0,174883.0,47930.0,174883.0,71242.0,-377.5174352518957,-451.3502940565137,-759.4824213539526
174883.0,14154.0,174883.0,47909.0,174883.0,71240.0,-382.93743164322507,-455.48599465802545,-766.0202149808837
174883.0,14140.0,174883.0,47913.0,174883.0,71205.0,-388.3663351568291,-459.6208295813776,-772.5673089002696
174883.0,14138.0,174883.0,47957.0,174883.0,71184.0,-393.8041174611071,-463.75374102011574,-779.1243372909028
174883.0,14139.0,174883.0,47925.0,174883.0,71211.0,-399.25097567710134,-467.8843489238984,-785.6925588671761
174883.0,14148.0,174883.0,47922.0,174883.0,71202.0,-404.70728439500897,-472.01254671769925,-792.2739657729056
174893.0,14134.0,174893.0,47914.0,174893.0,71190.0,-410.17340790262676,-476.1384210231529,-798.8710604582864
174893.0,14102.0,174893.0,47891.0,174893.0,71204.0,-415.6495891545842,-480.2624245584824,-805.4866242732597
174893.0,14115.0,174893.0,47909.0,174893.0,71194.0,-421.13610165482316,-484.3855674625248,-812.1235546023852
174893.0,14123.0,174893.0,47931.0,174893.0,71200.0,-426.63343556514735,-488.50943275083205,-818.7846449859186
174893.0,14107.0,174893.0,47924.0,174893.0,71195.0,-432.1422185216087,-492.6358519516209,-825.4723445649181
174893.0,14091.0,174893.0,47928.0,174893.0,71167.0,-437.6630633975691,-496.7664432469553,-832.18859997425
174904.0,14100.0,174904.0,47927.0,174904.0,71154.0,-443.19660607863875,-500.9023075288926,-838.9349050778633
174904.0,14076.0,174904.0,47854.0,174904.0,71132.0,-448.74361180841436,-505.04400374611225,-845.7125827684051
174904.0,14084.0,174904.0,47867.0,174904.0,71129.0,-454.3050286621419,-509.1919633793078,-852.5231267648467
174904.0,14091.0,174904.0,47878.0,174904.0,71134.0,-459.88198205304764,-513.3471052242401,-859.3684070618343
174904.0,14083.0,174904.0,47867.0,174904.0,71141.0,-465.4756353652713,-517.5110595380303,-866.2506175584501
174904.0,14081.0,174904.0,47872.0,174904.0,71139.0,-471.08697941552407,-521.6860116345939,-873.1719921155801
174914.0,14063.0,174914.0,47866.0,174914.0,71138.0,-476.71673082030645,-525.8745473595884,-880.1344630158314
174914.0,14050.0,174914.0,47864.0,174914.0,71089.0,-482.36539995076873,-530.0795671595822,-887.1394843671422
174914.0,14057.0,174914.0,47912.0,174914.0,71102.0,-488.03345357541264,-534.3041148623354,-894.1881741934643
174914.0,14052.0,174914.0,47901.0,174914.0,71107.0,-493.7213961105987,-538.5509288258753,-901.2815626750066
174914.0,14040.0,174914.0,47907.0,174914.0,71071.0,-499.4297107765303,-542.8218185746287,-908.4206206828972
174914.0,14028.0,174914.0,47843.0,174914.0,71068.0,-505.1588306357178,-547.1173484859827,-915.6062446376053
174924.0,14028.0,174924.0,47826.0,174924.0,71046.0,-510.9092265193599,-551.4371623854288,-922.839448599973
174924.0,14032.0,174924.0,47791.0,174924.0,71038.0,-516.6814701682724,-555.7807952259236,-930.1216279757118
174924.0,14001.0,174924.0,47801.0,174924.0,71031.0,-522.4762037674927,-560.148500327462,-937.454753137789
174924.0,13999.0,174924.0,47826.0,174924.0,71064.0,-528.2941878725946,-564.5416611303101,-944.8413897103474
174924.0,14007.0,174924.0,47819.0,174924.0,71057.0,-534.1364621103131,-568.9626498355384,-952.2843876020717
174924.0,14002.0,174924.0,47845.0,174924.0,71048.0,-540.0043737594109,-573.4143676405137,-959.78637429966
174935.0,13989.0,174935.0,47830.0,174935.0,71031.0,-545.8994417995655,-577.8997761269247,-967.3494388654959
174935.0,13988.0,174935.0,47831.0,174935.0,71020.0,-551.8232789954135,-582.4215553035143,-974.9751340534158
174935.0,13995.0,174935.0,47843.0,174935.0,71023.0,-557.7775820874446,-586.9819044032438,-982.6645941051512
174935.0,13996.0,174935.0,47817.0,174935.0,71005.0,-563.7640139766369,-591.5824003558854,-990.4185759240844
174935.0,13976.0,174935.0,47767.0,174935.0,70963.0,-569.7839980879014,-596.2240312425558,-998.237514656032
174935.0,13954.0,174935.0,47788.0,174935.0,70962.0,-575.838669730995,-600.9076191930408,-1006.1218182830519
174945.0,13959.0,174945.0,47739.0,174945.0,70931.0,-581.9290754812212,-605.634385795842,-1014.0723222876012
174945.0,13948.0,174945.0,47761.0,174945.0,70942.0,-588.0563918625404,-610.4063483348522,-1022.0906392614545
174945.0,13936.0,174945.0,47782.0,174945.0,70888.0,-594.2220054476921,-615.2264658588738,-1030.179379142891
174945.0,13943.0,174945.0,47797.0,174945.0,70952.0,-600.4275413561496,-620.0983650252422,-1038.3423047845522
174945.0,13950.0,174945.0,47764.0,174945.0,70944.0,-606.674823915861,-625.025789309423,-1046.5841859924415
174945.0,13921.0,174945.0,47752.0,174945.0,70906.0,-612.9657188450449,-630.0123300140715,-1054.9103033474134
174955.0,13929.0,174955.0,47755.0,174955.0,70934.0,-619.3020390317016,-635.0615887149127,-1063.3261096126917
174955.0,13913.0,174955.0,47819.0,174955.0,70954.0,-625.6855968246007,-640.1772387905642,-1071.8370789173687
174955.0,13947.0,174955.0,47785.0,174955.0,70904.0,-632.1181902881268,-645.3625346328519,-1080.4483468956678
174955.0,13905.0,174955.0,47793.0,174955.0,70891.0,-638.6014019411327,-650.6196225746471,-1089.1644633797546
174955.0,13898.0,174955.0,47723.0,174955.0,70889.0,-645.1364527698943,-655.949333405269,-1097.9896015129739
174955.0,13889.0,174955.0,47698.0,174955.0,70884.0,-651.7243421692101,-661.351672943389,-1106.9278143445097
174966.0,13881.0,174966.0,47697.0,174966.0,70850.0,-658.3660896134842,-666.8267030297429,-1115.9830797320917
174966.0,13871.0,174966.0,47700.0,174966.0,70854.0,-665.0628655333281,-672.3752179560677,-1125.159372217399
174966.0,13865.0,174966.0,47741.0,174966.0,70838.0,-671.8160619557173,-677.9988115765346,-1134.460818407657
174966.0,13867.0,174966.0,47702.0,174966.0,70862.0,-678.6273332247741,-683.6994625679959,-1143.8917090769746
174966.0,13859.0,174966.0,47737.0,174966.0,70850.0,-685.4985561654155,-689.4790728900203,-1153.4562504782898
174966.0,13842.0,174966.0,47690.0,174966.0,70836.0,-692.4317622536976,-695.3392265167101,-1163.1582065083012
174976.0,13846.0,174976.0,47690.0,174976.0,70812.0,-699.4291469672752,-701.2811865955721,-1173.0007270551528
174976.0,13871.0,174976.0,47738.0,174976.0,70826.0,-706.4930388756128,-707.3059711093342,-1182.986410978191
174976.0,13846.0,174976.0,47716.0,174976.0,70829.0,-713.6256361480041,-713.4141224945158,-1193.1172899415951
174976.0,13823.0,174976.0,47683.0,174976.0,70797.0,-720.8287350396663,-719.6052663011794,-1203.394591358536
174976.0,13826.0,174976.0,47694.0,174976.0,70776.0,-728.1037821768064,-725.8780336145524,-1213.8186041753227
174976.0,13808.0,174976.0,47644.0,174976.0,70772.0,-735.4520947567706,-732.2303512990392,-1224.3888538751212
174986.0,13813.0,174986.0,47625.0,174986.0,70758.0,-742.874971365808,-738.6598572591995,-1235.1043276538035
174986.0,13815.0,174986.0,47631.0,174986.0,70757.0,-750.3736609909282,-745.1644185167289,-1245.9635251477553
174986.0,13806.0,174986.0,47653.0,174986.0,70741.0,-757.9492144689586,-751.742440520719,-1256.9643914084943
174986.0,13801.0,174986.0,47664.0,174986.0,70730.0,-765.6023073778516,-758.3926358671733,-1268.1042454995604
174986.0,13792.0,174986.0,47651.0,174986.0,70731.0,-773.3331476665543,-765.1134690187879,-1279.379737161897
174986.0,13785.0,174986.0,47635.0,174986.0,70717.0,-781.1414558609354,-771.9027526452405,-1290.7867668753115
174997.0,13783.0,174997.0,47655.0,174997.0,70736.0,-789.0264551045965,-778.7575413460038,-1302.3203006186177
174997.0,13782.0,174997.0,47634.0,174997.0,70733.0,-796.986816403746,-785.6740678409144,-1313.9740329177248
174997.0,13774.0,174997.0,47670.0,174997.0,70735.0,-805.0205388651206,-792.6475294722353,-1325.7399104909073
174997.0,13731.0,174997.0,47620.0,174997.0,70644.0,-813.1248985362885,-799.6717979961065,-1337.6078303755526
174997.0,13753.0,174997.0,47585.0,174997.0,70672.0,-821.2966136441116,-806.7393604254871,-1349.5658973044642
174997.0,13738.0,174997.0,47580.0,174997.0,70649.0,-829.5320360886743,-813.8417420624014,-1361.6009512630817
175006.0,13716.0,175006.0,47564.0,175006.0,70626.0,-837.8271628778697,-820.9701063754408,-1373.6988030133507
175006.0,13730.0,175006.0,47601.0,175006.0,70632.0,-846.177623445521,-828.1155240371008,-1385.8442528818105
175006.0,13728.0,175006.0,47572.0,175006.0,70618.0,-854.5786591721758,-835.2688061685325,-1398.0210855207984
175006.0,13704.0,175006.0,47597.0,175006.0,70635.0,-863.0249697805225,-842.4201469510107,-1410.2119136401961
175006.0,13702.0,175006.0,47544.0,175006.0,70605.0,-871.5106088948944,-849.5588814852068,-1422.39787325892
175006.0,13715.0,175006.0,47577.0,175006.0,70615.0,-880.0289936963109,-856.6734725459103,-1434.558345080412
175016.0,13718.0,175016.0,47602.0,175016.0,70610.0,-888.5727556650141,-863.7514614715305,-1446.6707430796203
175016.0,13712.0,175016.0,47564.0,175016.0,70579.0,-897.1333739381873,-870.7790901242914,-1458.7103102593037
175016.0,13689.0,175016.0,47544.0,175016.0,70572.0,-905.7008707979198,-877.740956572349,-1470.6500315879148
175016.0,13668.0,175016.0,47541.0,175016.0,70558.0,-914.263800271815,-884.6201481345548,-1482.4607256311533
175016.0,13660.0,175016.0,47499.0,175016.0,70532.0,-922.8094937422422,-891.398625628087,-1494.111170041077
175016.0,13657.0,175016.0,47494.0,175016.0,70508.0,-931.3243221095113,-898.0576266333246,-1505.5682679148053
175027.0,13657.0,175027.0,47517.0,175027.0,70508.0,-939.7937725438773,-904.5780154984092,-1516.7973086444008
175027.0,13644.0,175027.0,47524.0,175027.0,70513.0,-948.2023584790369,-910.9402751048815,-1527.7621179053485
175027.0,13643.0,175027.0,47571.0,175027.0,70487.0,-956.5335090243005,-917.1239912583256,-1538.424954219587
175027.0,13619.0,175027.0,47488.0,175027.0,70504.0,-964.7695334119122,-923.1071743724099,-1548.7463192067144
175027.0,13625.0,175027.0,47507.0,175027.0,70466.0,-972.8916670868593,-928.866020156429,-1558.6848284527948
175027.0,13628.0,175027.0,47526.0,175027.0,70495.0,-980.8800927540402,-934.3751383524142,-1568.1971220137789
175037.0,13610.0,175037.0,47513.0,175037.0,70483.0,-988.713829732771,-939.6075865124507,-1577.2377106597291
175037.0,13594.0,175037.0,47502.0,175037.0,70447.0,-996.3706339202888,-944.5346044034159,-1585.7587612869725
175037.0,13590.0,175037.0,47491.0,175037.0,70472.0,-1003.8270810589429,-949.1255234605383,-1593.7100354602637
175037.0,13579.0,175037.0,47424.0,175037.0,70397.0,-1011.0587247448419,-953.3480343538907,-1601.0390413190762
175037.0,13556.0,175037.0,47445.0,175037.0,70386.0,-1018.0402226764553,-957.1687893702001,-1607.6914207060477
175037.0,13561.0,175037.0,47400.0,175037.0,70395.0,-1024.7454946662083,-960.5541139896071,-1613.6115671364403
175047.0,13564.0,175047.0,47468.0,175047.0,70395.0,-1031.147844425973,-963.4704219592222,-1618.7430311407775
175047.0,13550.0,175047.0,47467.0,175047.0,70422.0,-1037.2199124031213,-965.8840718636641,-1623.028409191656
175047.0,13542.0,175047.0,47440.0,175047.0,70378.0,-1042.9335860006267,-967.7608342476628,-1626.409001359583
175047.0,13539.0,175047.0,47419.0,175047.0,70371.0,-1048.260027939648,-969.0656301138131,-1628.824700962531
175047.0,13532.0,175047.0,47414.0,175047.0,70355.0,-1053.1697528433033,-969.7628515322656,-1630.2142941702184
175047.0,13518.0,175047.0,47483.0,175047.0,70364.0,-1057.6326882141616,-969.8166988540453,-1630.5158841349698
175058.0,13522.0,175058.0,47432.0,175058.0,70353.0,-1061.6182652790117,-969.1909912967903,-1629.667140088475
175058.0,13519.0,175058.0,47420.0,175058.0,70331.0,-1065.0955001975071,-967.8488507325504,-1627.6054604199835
175058.0,13506.0,175058.0,47391.0,175058.0,70320.0,-1068.0330140052197,-965.752951958293,-1624.2682986393565
175058.0,13496.0,175058.0,47377.0,175058.0,70306.0,-1070.3990975248037,-962.8662515937183,-1619.593690669263
175058.0,13492.0,175058.0,47363.0,175058.0,70289.0,-1072.1618991592427,-959.1527536097615,-1613.5208498907264
175058.0,13493.0,175058.0,47394.0,175058.0,70315.0,-1073.2896313564538,-954.5780860174,-1605.9907125360942
175068.0,13495.0,175068.0,47406.0,175068.0,70333.0,-1073.7506773727894,-949.1096915474732,-1596.946235037971
175068.0,13481.0,175068.0,47409.0,175068.0,70318.0,-1073.5136276929416,-942.7166415235993,-1586.3323784546276
175068.0,13475.0,175068.0,47393.0,175068.0,70324.0,-1072.5473867628884,-935.3694564624707,-1574.0961217975325
175068.0,13472.0,175068.0,47387.0,175068.0,70309.0,-1070.8214077128148,-927.0402622432307,-1560.1867772138808
175068.0,13483.0,175068.0,47457.0,175068.0,70337.0,-1068.3059285776253,-917.7030844721214,-1544.556469095954
175068.0,13477.0,175068.0,47438.0,175068.0,70330.0,-1064.9720855285827,-907.3337901774132,-1527.1605419725972
175079.0,13466.0,175079.0,47438.0,175079.0,70311.0,-1060.7919890712055,-895.9097788589261,-1507.9579371718924
175079.0,13466.0,175079.0,47428.0,175079.0,70338.0,-1055.7389321078847,-883.4100186443496,-1486.9117501551968
175079.0,13463.0,175079.0,47403.0,175079.0,70348.0,-1049.7877125492396,-869.8155638686551,-1463.9898504390953
175079.0,13455.0,175079.0,47386.0,175079.0,70341.0,-1042.9149600276942,-855.11036047076,-1439.1653426782257
175079.0,13466.0,175079.0,47455.0,175079.0,70384.0,-1035.0994513319015,-839.2820726757557,-1412.4169832636073
175079.0,13486.0,175079.0,47464.0,175079.0,70412.0,-1026.322346505297,-822.3224154219292,-1383.7295350821687
175089.0,13480.0,175089.0,47496.0,175089.0,70450.0,-1016.5672511754426,-804.2268836430657,-1353.0938506491088
175089.0,13494.0,175089.0,47459.0,175089.0,70463.0,-1005.8202271428572,-784.9944878104875,-1320.506799450713
175089.0,13497.0,175089.0,47513.0,175089.0,70491.0,-994.0698994876178,-764.6279330014933,-1285.9713291790222
175089.0,13522.0,175089.0,47527.0,175089.0,70535.0,-981.3075898110228,-743.1339521302715,-1249.4966892850612
175089.0,13532.0,175089.0,47599.0,175089.0,70577.0,-967.5273586008451,-720.5232893430996,-1211.098592114812
175089.0,13535.0,175089.0,47632.0,175089.0,70604.0,-952.7259974717919,-696.8102180053279,-1170.7992182294568
175099.0,13553.0,175099.0,47623.0,175099.0,70637.0,-936.9031070588057,-672.011930895174,-1128.627257647616
175099.0,13552.0,175099.0,47613.0,175099.0,70636.0,-920.0612869710429,-646.148393069809,-1084.618198773125
175099.0,13572.0,175099.0,47652.0,175099.0,70705.0,-902.2063750786265,-619.2428470741319,-1038.8148640689128
175099.0,13596.0,175099.0,47671.0,175099.0,70774.0,-883.347665211419,-591.3224274813323,-991.2678331178031
175099.0,13629.0,175099.0,47682.0,175099.0,70816.0,-863.4979755809045,-562.4184853296948,-942.0353914514558
175099.0,13648.0,175099.0,47765.0,175099.0,70928.0,-842.673525122213,-532.5667126346362,-891.1831148080882
175110.0,13676.0,175110.0,47779.0,175110.0,70962.0,-820.8937529281487,-501.8070153626835,-838.7832852550769
175110.0,13700.0,175110.0,47811.0,175110.0,71038.0,-798.1811935771632,-470.1831701365405,-784.9142746681241
175110.0,13718.0,175110.0,47841.0,175110.0,71094.0,-774.5614137956528,-437.7426397898085,-729.660113813987
175110.0,13762.0,175110.0,47931.0,175110.0,71187.0,-750.0629793670771,-404.53650587902825,-673.1101756935734
175110.0,13793.0,175110.0,47992.0,175110.0,71252.0,-724.7173543194525,-370.6190187823849,-615.3587215080249
175110.0,13829.0,175110.0,48074.0,175110.0,71334.0,-698.5586646822644,-336.0466160042189,-556.5043083780431
175120.0,13855.0,175120.0,48029.0,175120.0,71385.0,-671.623429003229,-300.8769209613237,-496.6492419485015
175120.0,13881.0,175120.0,48050.0,175120.0,71463.0,-643.9503880852137,-265.1685157514858,-435.8992062773816
175120.0,13912.0,175120.0,48104.0,175120.0,71521.0,-615.5804570444827,-228.9815629386817,-374.3630434112455
175120.0,13945.0,175120.0,48155.0,175120.0,71596.0,-586.5567276034488,-192.37836782516808,-312.1525780373213
175120.0,13988.0,175120.0,48209.0,175120.0,71728.0,-556.9244160805695,-155.42329642274314,-249.38230155039025
175120.0,14040.0,175120.0,48269.0,175120.0,71798.0,-526.7306686600709,-118.1823061370959,-186.1686427599659
175130.0,14070.0,175130.0,48328.0,175130.0,71889.0,-496.02421033461326,-80.72236230838143,-122.62892676802323
175130.0,14099.0,175130.0,48343.0,175130.0,71959.0,-464.85499789259393,-43.110870018575724,-58.8804776380141
175130.0,14147.0,175130.0,48379.0,175130.0,72020.0,-433.2740332230686,-5.415384107523209,4.95994870750701
175130.0,14184.0,175130.0,48503.0,175130.0,72123.0,-401.33323211113776,32.29649382707464,68.77652657967201
175130.0,14228.0,175130.0,48505.0,175130.0,72183.0,-369.08520318770326,69.95757801172851,132.45473590007737
175130.0,14255.0,175130.0,48545.0,175130.0,72248.0,-336.58299808718124,107.50179940077408,195.8817950872808
175141.0,14289.0,175141.0,48571.0,175141.0,72307.0,-303.87996062690235,144.86446103423486,258.94692648161777
175141.0,14323.0,175141.0,48577.0,175141.0,72383.0,-271.0296995971261,181.98199534915273,321.54141344185996
175141.0,14372.0,175141.0,48671.0,175141.0,72461.0,-238.08607617467413,218.79163433529357,383.5586915029828
175141.0,14441.0,175141.0,48700.0,175141.0,72515.0,-205.10301196887065,255.23138922495446,444.8945904480661
175141.0,14458.0,175141.0,48764.0,175141.0,72631.0,-172.13404714900025,291.2404631757346,505.4476761076701
175141.0,14498.0,175141.0,48771.0,175141.0,72644.0,-139.23190999201813,326.7597265894782,565.119666928809
175151.0,14535.0,175151.0,48825.0,175151.0,72743.0,-106.4483450353946,361.731917050128,623.8157788440483
175151.0,14582.0,175151.0,48871.0,175151.0,72816.0,-73.83404432514044,396.10167912287386,681.4449449602939
175151.0,14626.0,175151.0,48955.0,175151.0,72905.0,-41.43845544967098,429.81581418651456,737.9202247895437
175151.0,14655.0,175151.0,48981.0,175151.0,72950.0,-9.309495072726463,462.823908034546,793.1594606105755
175151.0,14696.0,175151.0,49013.0,175151.0,73036.0,22.50668590466296,495.07901416896584,847.0858559324306
175151.0,14721.0,175151.0,49020.0,175151.0,73046.0,53.965824370129326,526.5379451498466,899.6283147970555
175161.0,14742.0,175161.0,49037.0,175161.0,73112.0,85.02555773384802,557.1610865005612,950.7214958400634
175161.0,14782.0,175161.0,49070.0,175161.0,73139.0,115.64532678367038,586.9119774185322,1000.3056056777064
175161.0,14828.0,175161.0,49093.0,175161.0,73219.0,145.78630360314025,615.756959092578,1048.3261786137612
175161.0,14868.0,175161.0,49175.0,175161.0,73248.0,175.41153609892285,643.6651144245586,1094.7340571009584
175161.0,14903.0,175161.0,49178.0,175161.0,73297.0,204.4862678987571,670.6085832215149,1139.4854917555283
175161.0,14909.0,175161.0,49191.0,175161.0,73364.0,232.9781899471011,696.5629563736754,1182.54222288537
175172.0,14937.0,175172.0,49219.0,175172.0,73369.0,260.8574225533714,721.5073107742194,1223.871573285147
175172.0,14983.0,175172.0,49224.0,175172.0,73404.0,288.09632608097274,745.4239525561454,1263.4464321197538
175172.0,15008.0,175172.0,49283.0,175172.0,73466.0,314.6694569492528,768.298219432482,1301.2450257275786
175172.0,15057.0,175172.0,49268.0,175172.0,73486.0,340.5537609146555,790.1184661651598,1337.25077776306
175172.0,15054.0,175172.0,49287.0,175172.0,73491.0,365.72881220384465,810.876053531633,1371.4523018894147
175172.0,15071.0,175172.0,49297.0,175172.0,73554.0,390.1768523535012,830.5651205862039,1403.8432179377442
175182.0,15106.0,175182.0,49306.0,175182.0,73565.0,413.88257073398654,849.1822396643795,1434.4219234502611
175182.0,15109.0,175182.0,49318.0,175182.0,73583.0,436.8328600651573,866.7261202727918,1463.1915150996178
175182.0,15139.0,175182.0,49343.0,175182.0,73587.0,459.0166668263538,883.1973822206869,1490.1596050558796
175182.0,15158.0,175182.0,49377.0,175182.0,73623.0,480.4248600904508,898.5984972032893,1515.3379290011553
175182.0,15183.0,175182.0,49432.0,175182.0,73648.0,501.05015354872717,912.9340607174202,1538.742030898714
175182.0,15204.0,175182.0,49385.0,175182.0,73649.0,520.8871134064664,926.2112829244882,1560.3911577119106
175192.0,15231.0,175192.0,49418.0,175192.0,73669.0,539.9322098910343,938.440204523597,1580.308153111233
175192.0,15263.0,175192.0,49460.0,175192.0,73725.0,558.1839307645691,949.6335625240154,1598.5193191978024
175192.0,15274.0,175192.0,49436.0,175192.0,73703.0,575.6429711233282,959.8068175939275,1615.0544822839606
175192.0,15273.0,175192.0,49433.0,175192.0,73720.0,592.3123558502577,968.9782737697735,1629.9471040348976
175192.0,15275.0,175192.0,49420.0,175192.0,73674.0,608.1972943533108,977.1688144564419,1643.2340181017075
