c_ts,c_val,d_ts,d_val,e_ts,e_val,c_val_filtered,d_val_filtered,e_val_filtered
138338,2696,138338,15700,138338,28023,-4.514244976977642,173.9275278941509,265.3652993389817
138338,2680,138338,15721,138338,28038,-4.992290796719908,179.0366610630836,270.32731676814245
138338,2685,138338,15726,138338,28069,-5.46374295979657,184.10226853774478,275.26841174288523
138338,2681,138338,15773,138338,28062,-5.926234280042921,189.10539066545067,280.1706350261341
138349,2687,138349,15746,138349,28057,-6.377803183206662,194.0277922994095,285.0163323106448
138349,2687,138349,15732,138349,28049,-6.816869654303327,198.85221737454177,289.78814417249464
138349,2690,138349,15729,138349,28049,-7.2421629542533354,203.5621825654257,294.468748688374
138349,2689,138349,15740,138349,28054,-7.652643655858097,208.1415352183387,299.04058405459136
138349,2695,138349,15773,138349,28092,-8.047436231097,212.57426178593025,303.48575818881363
138349,2684,138349,15798,138349,28095,-8.425776271868518,216.8447476360867,307.78627742357304
138359,2697,138359,15786,138359,28089,-8.78698856295458,220.93830459111786,311.92443499265516
138359,2689,138359,15754,138359,28084,-9.130471747834374,224.84147290949176,315.88298549969903
138359,2695,138359,15739,138359,28076,-9.455657230143737,228.5417318893469,319.6450007049223
138359,2698,138359,15773,138359,28093,-9.761956496826503,232.02689475670562,323.1936257488123
138359,2692,138359,15810,138359,28120,-10.048702953266458,235.284882382599,326.512017657533
138359,2682,138359,15831,138359,28124,-10.315140906671854,238.30418787644044,329.5836063104483
138369,2686,138369,15787,138369,28121,-10.560524454204586,241.07455484400919,332.39248008582047
138369,2686,138369,15773,138369,28124,-10.784239279443325,243.58712697125216,334.92358708647697
138369,2693,138369,15754,138369,28095,-10.985823933410348,245.83392557939337,337.162677578255
138369,2684,138369,15812,138369,28127,-11.164910856690073,247.80725648512953,339.09608931264444
138369,2687,138369,15834,138369,28133,-11.321192391059192,249.499726396879,340.71062915938273
138369,2690,138369,15821,138369,28156,-11.454436077470639,250.90486099982502,341.99378219328366
138380,2675,138380,15789,138380,28132,-11.564506752281641,252.01758630606486,342.9340867608254
138380,2683,138380,15771,138380,28094,-11.651423780697005,252.83403314163266,343.52123070872614
138380,2685,138380,15769,138380,28129,-11.71543926489018,253.35090980452622,343.74570724568036
138380,2688,138380,15795,138380,28142,-11.757029968595175,253.5650157359077,343.59851241592315
138380,2692,138380,15825,138380,28137,-11.77680295006834,253.47326867887898,343.0713175677238
138380,2693,138380,15825,138380,28129,-11.77538976649195,253.07321102372754,342.15679735814393
138390,2696,138390,15771,138390,28116,-11.753353516247698,252.36348140917215,340.84868655488594
138390,2689,138390,15758,138390,28097,-11.711126913398623,251.34366679984353,339.1415699166093
138390,2699,138390,15783,138390,28116,-11.648995543008414,250.01368281540914,337.03059153647393
138390,2691,138390,15805,138390,28140,-11.567091880555882,248.37346550644645,334.5113752399129
138390,2688,138390,15807,138390,28134,-11.46539601881269,246.42329230474346,331.58034034988475
138390,2679,138390,15777,138390,28116,-11.343809880050182,244.16424038351875,328.23511951685464
138400,2684,138400,15770,138400,28095,-11.20230288925291,241.59825219938676,324.47463957681305
138400,2688,138400,15755,138400,28094,-11.04101578170243,238.72782436826114,320.29885336801976
138400,2682,138400,15765,138400,28089,-10.860261833094757,235.55567194015592,315.7084443120382
138400,2688,138400,15816,138400,28102,-10.660496337167716,232.08471202556174,310.70474256000654
138400,2684,138400,15795,138400,28114,-10.442310984806793,228.3185285804015,305.28990529724007
138400,2695,138400,15768,138400,28077,-10.206416703279187,224.26193576616424,299.46722961701033
138411,2687,138411,15728,138411,28050,-9.953588628490056,219.92098407855906,293.2412275484567
138411,2696,138411,15718,138411,28030,-9.684605567332213,215.3023584945513,286.6172425445733
138411,2703,138411,15742,138411,28060,-9.400185949652286,210.41274520547324,279.600959412242
138411,2688,138411,15743,138411,28058,-9.10090203224915,205.25868277270584,272.19833367960706
138411,2694,138411,15745,138411,28035,-8.787155304808909,199.84686713471038,264.415915930919
138411,2688,138411,15702,138411,28018,-8.459255577350515,194.18443872422128,256.26106093501824
138421,2693,138421,15690,138421,28000,-8.117502549665911,188.2788710162849,247.74178255247588
138421,2697,138421,15686,138421,27988,-7.762201045430092,182.13754931904265,238.86646262435994
138421,2692,138421,15681,138421,27997,-7.393624066883183,175.76743419255544,229.64365642985382
138421,2679,138421,15708,138421,27996,-7.012012703693136,169.1750460336137,220.08213610102803
138421,2693,138421,15704,138421,27970,-6.61768169300552,162.36676857599795,210.19111505076117
138421,2692,138421,15634,138421,27925,-6.211109198900159,155.34917158037305,199.98030302293688
138431,2694,138431,15648,138431,27925,-5.792897472160778,148.1288566928946,189.45956683196096
138431,2695,138431,15661,138431,27934,-5.3636913946728395,140.71200029902806,178.63853039108653
138431,2686,138431,15666,138431,27938,-4.924156075387009,133.10430146073003,167.52658928429943
138431,2692,138431,15690,138431,27922,-4.475023595750718,125.31144401600852,156.13328897451265
138431,2702,138431,15642,138431,27914,-4.017134005244628,117.33963755100021,144.46866968940617
138431,2682,138431,15612,138431,27857,-3.5514057840687654,109.19578171670783,132.54332065707297
138442,2704,138442,15587,138442,27846,-3.078814670621356,100.88705536203588,120.36806443853277
138442,2692,138442,15625,138442,27860,-2.600403085032487,92.42035321861259,107.95350171880662
138442,2705,138442,15631,138442,27865,-2.117239168809367,83.80223368697365,95.30992618401703
138442,2703,138442,15635,138442,27831,-1.6303375496453674,75.0394503532602,82.44767187474488
138442,2698,138442,15590,138442,27821,-1.1405944143130884,66.13950442419606,69.37738674823677
138442,2697,138442,15551,138442,27789,-0.6487874503441717,57.1106613325276,56.109967002525565
138452,2704,138452,15534,138452,27784,-0.15563455629749567,47.96138877020428,42.65633192565153
138452,2696,138452,15522,138452,27775,0.3381757248244819,38.699659080046956,29.02726354920597
138452,2706,138452,15567,138452,27783,0.8319921913416843,29.33262773811299,15.233452411670243
138452,2704,138452,15548,138452,27754,1.3252211019318723,19.8668981372208,1.2857369367733327
138452,2700,138452,15531,138452,27724,1.817358448780542,10.309052688731413,-12.804724983550045
138452,2701,138452,15481,138452,27701,2.307985834719667,0.6658307651446194,-27.026593378846087
138463,2705,138463,15494,138463,27685,2.7967279471260262,-9.056208630553812,-41.368685667905766
138463,2702,138463,15524,138463,27707,3.2832404487872147,-18.85099125971942,-55.82017656321875
138463,2708,138463,15510,138463,27674,3.767232345568968,-28.712679224609275,-70.37045842703307
138463,2704,138463,15495,138463,27656,4.24849046248411,-38.63512896313708,-85.00888099451356
138463,2697,138463,15432,138463,27626,4.726875681708796,-48.61172165984598,-99.72473710464374
138463,2703,138463,15421,138463,27605,5.202258570330833,-58.635809120952814,-114.50751097637954
138473,2706,138473,15441,138473,27616,5.674455114543264,-68.70135439206555,-129.34712224657756
138473,2703,138473,15456,138473,27619,6.143239466306393,-78.80308938464688,-144.23388279045054
138473,2706,138473,15465,138473,27616,6.608383115723133,-88.93602376227028,-159.15809177741238
138473,2716,138473,15454,138473,27574,7.069686092916093,-99.09474643429994,-174.10957688807486
138473,2709,138473,15415,138473,27536,7.527048775247199,-109.27299540194025,-189.07761508924045
138473,2709,138473,15378,138473,27527,7.980541807489008,-119.46375112725462,-204.05130008234994
138483,2718,138483,15378,138483,27494,8.430413426022787,-129.659752442948,-219.02000262130338
138483,2704,138483,15403,138483,27507,8.877084777286193,-139.85390501342664,-233.97362656361196
138483,2697,138483,15400,138483,27507,9.321104890752283,-150.03913533891188,-248.9025679071833
138483,2706,138483,15354,138483,27471,9.763002558772607,-160.20795159420106,-263.79742975932083
138483,2709,138483,15311,138483,27433,10.20317271981721,-170.35240971760214,-278.64886794121014
138483,2706,138483,15280,138483,27414,10.64190660985929,-180.4647298630261,-293.4478650217071
138494,2710,138494,15311,138494,27417,11.079458412418926,-190.53805956208453,-308.1861497626555
138494,2705,138494,15333,138494,27411,11.516061377588736,-200.5666714939262,-322.85631704890204
138494,2705,138494,15313,138494,27416,11.951905543819013,-210.5454645424809,-337.45158381281647
138494,2709,138494,15296,138494,27375,12.387099316084683,-220.46938354217139,-351.96544428121626
138494,2709,138494,15253,138494,27339,12.821657392724157,-230.3333265489568,-366.39158499144696
138494,2709,138494,15235,138494,27334,13.255527179925744,-240.13253575621246,-380.72418728471246
138504,2711,138504,15271,138504,27336,13.688613218946436,-249.86305533308928,-394.9582572593341
138504,2709,138504,15283,138504,27346,14.120785461519562,-259.5217038626756,-409.0895624393339
138504,2710,138504,15260,138504,27343,14.551877467566461,-269.1055088938375,-423.11418746569746
138504,2707,138504,15208,138504,27289,14.98166845841204,-278.61128975599877,-437.0280853658792
138504,2701,138504,15185,138504,27256,15.409835065316214,-288.0359290702656,-450.8270818949659
138504,2710,138504,15190,138504,27249,15.835876828717431,-297.3770396201106,-464.50736950852126
138514,2713,138514,15213,138514,27251,16.25908831324335,-306.6333244483164,-478.0659608864604
138514,2710,138514,15224,138514,27254,16.67862035297057,-315.8043024133287,-491.50068929072484
138514,2711,138514,15200,138514,27229,17.09354342959852,-324.88970078476655,-504.80989953888775
138514,2726,138514,15149,138514,27190,17.50288083081704,-333.8891321346146,-517.9922607198154
138514,2723,138514,15136,138514,27176,17.905706732526298,-342.80240159293965,-531.0469597445301
138514,2708,138514,15150,138514,27172,18.301264713542857,-351.6300903291611,-543.9740713803018
138525,2728,138525,15162,138525,27179,18.688963047963995,-360.37375552993507,-556.7746960026194
138525,2722,138525,15180,138525,27166,19.068337866458954,-369.0355566250392,-569.4507578062749
138525,2723,138525,15147,138525,27150,19.439111699607928,-377.61766793746665,-582.0047103372369
138525,2712,138525,15110,138525,27134,19.80122801891371,-386.12200386170036,-594.4394042764964
138525,2714,138525,15078,138525,27101,20.15476059879952,-394.5505438714704,-606.758170017095
138525,2719,138525,15100,138525,27119,20.499792816991672,-402.90595980680297,-618.9650036390626
138535,2721,138535,15129,138535,27105,20.836390338800364,-411.1918694505853,-631.0646214239237
138535,2719,138535,15103,138535,27095,21.1646590882767,-419.4124592950932,-643.0622876665198
138535,2720,138535,15082,138535,27075,21.484791365469963,-427.57201267016694,-654.9636443146896
138535,2723,138535,15054,138535,27049,21.797073797502367,-435.67491581451753,-666.7747446414352
138535,2723,138535,15040,138535,27042,22.101903662338565,-443.72606485191534,-678.5022543416422
138535,2719,138535,15066,138535,27052,22.399813575728384,-451.731236405067,-690.1536134382775
138545,2712,138545,15094,138545,27056,22.691443817016022,-459.69700884841507,-701.7369139134006
138545,2724,138545,15057,138545,27032,22.977460253350785,-467.63021580202076,-713.2605373483859
138545,2717,138545,15024,138545,27003,23.25851295698339,-475.5375428219888,-724.7329287278615
138545,2714,138545,15014,138545,26992,23.5352476370243,-483.4257385967638,-736.1627307724386
138545,2719,138545,14991,138545,26974,23.80828284521516,-491.3021409225016,-747.5590882983114
138545,2721,138545,15028,138545,26992,24.078179243355493,-499.17500725838784,-758.9318167413877
138556,2721,138556,15053,138556,26994,24.345471742502767,-507.053348088307,-770.2912625340913
138556,2716,138556,15058,138556,26965,24.610711879025153,-514.9462284223139,-781.6479400163963
138556,2716,138556,14991,138556,26950,24.87444755619534,-522.8620633214189,-793.012308820172
138556,2719,138556,14961,138556,26921,25.137166441991567,-530.8086397452146,-804.394899832966
138556,2725,138556,14992,138556,26930,25.399285978123277,-538.7937754075754,-815.8065910791713
138556,2721,138556,15005,138556,26944,25.66121426913663,-546.8256935936707,-827.2586850975383
138566,2721,138566,15000,138566,26950,25.923408983796545,-554.9126846549067,-838.7625850927689
138566,2713,138566,14997,138566,26898,26.18636140128594,-563.0625578241222,-850.3293123461566
138566,2723,138566,14966,138566,26892,26.450525824719502,-571.2823728285857,-861.9693785459633
138566,2722,138566,14938,138566,26856,26.716287437579517,-579.5785481909317,-873.6931037505683
138566,2717,138566,14953,138566,26870,26.983994897051286,-587.957216471543,-885.5110012077593
138566,2725,138566,14966,138566,26890,27.25398277425465,-596.4244194752827,-897.4338522821397
138576,2718,138576,14946,138576,26891,27.526567640110464,-604.9858943061513,-909.4723112776528
138576,2723,138576,14930,138576,26849,27.80205016534634,-613.6467860132035,-921.636331226897
138576,2724,138576,14893,138576,26817,28.08072120066291,-622.4116974592,-933.9349951630295
138576,2730,138576,14885,138576,26816,28.36289611169059,-631.285070174115,-946.3768638593004
138576,2715,138576,14895,138576,26825,28.648965216548113,-640.2715803413706,-958.970313574767
138576,2719,138576,14875,138576,26808,28.939365200938155,-649.3762563301758,-971.7234709259457
138587,2713,138587,14901,138587,26796,29.23446138009079,-658.6043317872557,-984.6439510329437
138587,2720,138587,14874,138587,26783,29.534446027916047,-667.960989953258,-997.7387244982807
138587,2719,138587,14852,138587,26773,29.839315497973047,-677.4511710538899,-1011.0141109510677
138587,2716,138587,14846,138587,26737,30.148893751174782,-687.079634853381,-1024.4758200073065
138587,2725,138587,14860,138587,26761,30.462851697372813,-696.8511244083907,-1038.1290374180467
138587,2727,138587,14858,138587,26746,30.78074664065873,-706.7702686231364,-1051.978392299823
138597,2723,138597,14859,138597,26732,31.10210612284215,-716.8412214304666,-1066.027708142852
138597,2726,138597,14835,138597,26716,31.426485348468802,-727.0673227974306,-1080.2797843435505
138597,2727,138597,14799,138597,26680,31.753471897595254,-737.4510343895734,-1094.7364105119138
138597,2726,138597,14795,138597,26681,32.08269238064649,-747.994214545727,-1109.398556799661
138597,2723,138597,14830,138597,26700,32.4138190248846,-758.6983924972287,-1124.2664791308694
138597,2729,138597,14822,138597,26663,32.74655192003272,-769.5645682206897,-1139.339502528967
138607,2730,138607,14820,138607,26655,33.080619431720535,-780.5926350159648,-1154.6157152616042
138607,2727,138607,14759,138607,26612,33.41581905317503,-791.7810096367842,-1170.0919522628556
138607,2727,138607,14732,138607,26613,33.7520400158885,-803.1268625820413,-1185.7640314685784
138607,2712,138607,14776,138607,26621,34.089208978054415,-814.62667944286,-1201.6269173474493
138607,2733,138607,14793,138607,26612,34.42718105594548,-826.2763499778362,-1217.674546655377
138607,2728,138607,14773,138607,26602,34.76570369567578,-838.0705280184978,-1233.899417764413
138618,2737,138618,14740,138618,26569,35.104520172817686,-850.001996952761,-1250.292289822291
138618,2734,138618,14710,138618,26553,35.44350749377615,-862.061654151771,-1266.842164005161
138618,2724,138618,14677,138618,26534,35.78273537759864,-874.2389850570081,-1283.5364500250257
138618,2728,138618,14712,138618,26554,36.12241191827099,-886.5225637864949,-1300.3610551637603
138618,2732,138618,14716,138618,26546,36.4627887794194,-898.9001009746318,-1317.3001554189202
138618,2721,138618,14715,138618,26516,36.804125077638986,-911.3579420768828,-1334.3357504062706
138628,2726,138628,14671,138628,26496,37.14666137799841,-923.8805224708985,-1351.4474032313856
138628,2727,138628,14635,138628,26470,37.49056129592678,-936.4503262046892,-1368.6123237658567
138628,2724,138628,14645,138628,26478,37.83588545713435,-949.0483104457179,-1385.8055430250115
138628,2730,138628,14664,138628,26466,38.1826018580535,-961.654199198414,-1402.9998879684163
138628,2726,138628,14681,138628,26465,38.530600245382075,-974.2461713311835,-1420.165710986273
138628,2730,138628,14656,138628,26443,38.87971051550133,-986.8001520154916,-1437.2705530409835
138638,2728,138638,14603,138638,26402,39.22971704217628,-999.2893599270196,-1454.278976178292
138638,2730,138638,14563,138638,26384,39.58036691408731,-1011.6845643046913,-1471.1527121673796
138638,2726,138638,14581,138638,26393,39.931370065279395,-1023.954805838182,-1487.8509523518978
138638,2725,138638,14582,138638,26391,40.28237309335157,-1036.0678396189523,-1504.3303630625446
138638,2725,138638,14611,138638,26367,40.63290677515502,-1047.9899105746474,-1520.5447651763495
138638,2734,138638,14564,138638,26341,40.982355861120666,-1059.685172060399,-1536.4448718283786
138649,2732,138649,14550,138649,26314,41.330003780137936,-1071.1153396300026,-1551.9783549266667
138649,2730,138649,14502,138649,26301,41.675111800055774,-1082.2398847079094,-1567.090126712791
138649,2728,138649,14514,138649,26304,42.01693957534014,-1093.0165488139696,-1581.7225608092594
138649,2723,138649,14537,138649,26298,42.354688892062626,-1103.401659552197,-1595.8154582331945
138649,2735,138649,14523,138649,26280,42.68743539357351,-1113.3499239094967,-1609.3058209523429
138649,2724,138649,14507,138649,26246,43.0141150959454,-1122.8139876466266,-1622.1277243243417
138659,2734,138659,14458,138659,26209,43.33354953365776,-1131.7443309146058,-1634.2125312801934
138659,2730,138659,14419,138659,26196,43.64446504801977,-1140.089728285166,-1645.4894139546961
138659,2731,138659,14440,138659,26191,43.945512327227824,-1147.7980157560044,-1655.8858793968404
138659,2736,138659,14474,138659,26187,44.235288262616294,-1154.8165147433085,-1665.3280203483807
138659,2735,138659,14456,138659,26178,44.51236825918051,-1161.091734286235,-1673.7405116452085
138659,2733,138659,14421,138659,26144,44.77534904520519,-1166.5688874301086,-1681.046603548076
138669,2730,138669,14379,138669,26128,45.022851433782776,-1171.191988486616,-1687.1683512130187
138669,2738,138669,14362,138669,26111,45.2534851052326,-1174.9045835344973,-1692.0270787332279
138669,2735,138669,14410,138669,26109,45.46584830889654,-1177.650502778015,-1695.5438536116146
138669,2724,138669,14386,138669,26113,45.65854633961808,-1179.3740497034023,-1697.6397859970873
138669,2735,138669,14374,138669,26101,45.83014383838183,-1180.0198028858267,-1698.236145114602
138669,2732,138669,14330,138669,26052,45.97910357923211,-1179.5327162634285,-1697.254534235839
138680,2733,138680,14316,138680,26042,46.10380083280947,-1177.8587584665893,-1694.6174505269814
138680,2735,138680,14304,138680,26057,46.202564787067,-1174.9457792985518,-1690.2490967120384
138680,2733,138680,14356,138680,26031,46.273700531841655,-1170.7441396491972,-1684.0759856409595
138680,2737,138680,14365,138680,26051,46.315507850552635,-1165.2067483229396,-1676.0272956827162
138680,2728,138680,14318,138680,26029,46.32629080240069,-1158.288748206056,-1666.0352140636396
138680,2736,138680,14285,138680,26019,46.30433993652901,-1149.9476708774068,-1654.0353797155144
138690,2735,138690,14294,138690,25989,46.247917548804374,-1140.1443363339463,-1639.9675532885453
138690,2726,138690,14320,138690,26014,46.15526829743498,-1128.8437949406107,-1623.776504256814
138690,2735,138690,14331,138690,26018,46.02460464083095,-1116.0156996735554,-1605.4127932565066
138690,2738,138690,14329,138690,26020,45.854091439114455,-1101.6343000081554,-1584.8332672722295
138690,2738,138690,14321,138690,26008,45.64191274912719,-1085.6785623341827,-1562.001520199838
138690,2735,138690,14312,138690,26007,45.38636623118177,-1068.1326362874897,-1536.888599443133
138700,2734,138700,14309,138700,26005,45.08589011064656,-1048.9865766025252,-1509.4739273287946
138700,2741,138700,14336,138700,26044,44.73905108078561,-1028.2370943298288,-1479.7462055324795
138700,2736,138700,14384,138700,26073,44.34456807451472,-1005.8880220280342,-1447.7040340113554
138700,2733,138700,14395,138700,26098,43.90135171394741,-981.9503250592035,-1413.3561820600096
138700,2730,138700,14398,138700,26111,43.40848460142082,-956.4419705107408,-1376.7217827030368
138700,2741,138700,14405,138700,26134,42.86517486672182,-929.3881228873091,-1337.830725356598
138711,2733,138711,14425,138711,26183,42.270778114894284,-900.8216862218854,-1296.724187441515
138711,2728,138711,14493,138711,26233,41.62484732571787,-870.7837850150922,-1253.4550105302324
138711,2728,138711,14557,138711,26299,40.92710144479126,-839.3237397355107,-1208.0877355267646
138711,2732,138711,14588,138711,26351,40.17735517884791,-806.4984930489511,-1160.69836396964
138711,2725,138711,14617,138711,26401,39.3755071431526,-772.3719870642717,-1111.3740497849685
138711,2728,138711,14650,138711,26458,38.52155601147962,-737.0149289024849,-1060.212897115091
138721,2727,138721,14731,138721,26545,37.61560015007987,-700.5047684807912,-1007.3238087830414
138721,2729,138721,14784,138721,26646,36.65785311478637,-662.9254187437068,-952.8260827058167
138721,2724,138721,14871,138721,26766,35.64868107879445,-624.3665600095034,-896.8484957216846
138721,2727,138721,14927,138721,26821,34.58862575677072,-584.9227098797982,-839.5279903770185
138721,2725,138721,14964,138721,26911,33.47841483662914,-544.692331043759,-781.0084603740563
138721,2728,138721,15016,138721,27008,32.318990256649144,-503.7772491511205,-721.4398892939942
138732,2722,138732,15124,138732,27117,31.11155025635743,-462.28227436288245,-660.9775101051677
138732,2717,138732,15196,138732,27251,29.857558624656914,-420.3144991460658,-599.7806143181093
138732,2723,138732,15290,138732,27370,28.55870694016904,-377.9820989355584,-538.0109450640841
138732,2718,138732,15342,138732,27433,27.216894515350866,-335.3930086200512,-475.8309340652453
138732,2716,138732,15373,138732,27542,25.834250274212778,-292.65390443973155,-413.402273089844
138732,2711,138732,15419,138732,27636,24.413131743110977,-249.86973875291102,-350.8849077411843
138742,2710,138742,15537,138742,27769,22.9560788247895,-207.14356316358715,-288.4360071885326
138742,2703,138742,15598,138742,27863,21.465754659177257,-164.5759586702402,-226.20862337755796
138742,2705,138742,15667,138742,27952,19.944887655397988,-122.26395617721585,-164.35022892307074
138742,2704,138742,15731,138742,28012,18.39623484656775,-80.2999763597287,-103.00153551106189
138742,2692,138742,15717,138742,28074,16.822568503157033,-38.7711783525358,-42.29582886929393
138742,2704,138742,15781,138742,28135,15.226647465321943,2.240617756020015,17.64125507385711
138752,2690,138752,15856,138752,28241,13.61119131806009,42.65870457805045,76.69183690504065
138752,2695,138752,15915,138752,28316,11.97887958083815,82.41163984924117,134.74617189122955
138752,2683,138752,15959,138752,28376,10.332327254588773,121.43386510155631,191.70331757684266
138752,2693,138752,15961,138752,28411,8.67403663952906,159.66619185256923,247.4716471222157
138752,2690,138752,15984,138752,28451,7.00639616935273,197.05572435748275,301.96886357198036
138752,2687,138752,16020,138752,28494,5.33174237022984,233.5553402437763,355.121611115635
138763,2687,138763,16076,138763,28569,3.6524140364859505,269.1232285842332,406.8650442121034
138763,2677,138763,16150,138763,28601,1.9707499773609527,303.722897757091,457.14263826056333
138763,2683,138763,16156,138763,28662,0.28904847231035546,337.3236119528433,505.9061791669494
138763,2679,138763,16132,138763,28669,-1.3904610478231092,369.90065444220147,553.1156685367132
138763,2677,138763,16124,138763,28676,-3.065603812360145,401.4347730384162,598.7389092884009
138763,2672,138763,16192,138763,28740,-4.734247609129923,431.9110635534213,642.7507487105479
138773,2671,138773,16244,138773,28802,-6.394331290764768,461.31828350740705,685.1324515447811
138773,2672,138773,16276,138773,28833,-8.04389753104018,489.64902156673725,725.8716289023771
138773,2672,138773,16248,138773,28829,-9.681083352486958,516.9000714424965,764.9623350761497
138773,2669,138773,16241,138773,28838,-11.304074560079691,543.0721787450047,802.4046830434825
138773,2669,138773,16247,138773,28869,-12.911066640023272,568.1690961471388,838.2039829115818
138773,2656,138773,16298,138773,28910,-14.500268609849535,592.1965984834687,872.3699436490017
138783,2668,138783,16339,138783,28939,-16.06995190206365,615.1620830073664,904.9162860262397
138783,2661,138783,16365,138783,28957,-17.61847553282177,637.0747870081232,935.8606146843683
138783,2654,138783,16366,138783,28980,-19.144261303225505,657.946136859573,965.2242433150977
138783,2658,138783,16361,138783,28985,-20.645802058783396,677.7897445336887,993.0318651335556
138783,2660,138783,16349,138783,28987,-22.121688892262362,696.6209297901955,1019.3110699873143
138783,2653,138783,16398,138783,29037,-23.57057841403359,714.4560367650179,1044.0917842153624
138794,2653,138794,16438,138794,29069,-24.991154776230488,731.3120746859806,1067.4059399801365
138794,2651,138794,16446,138794,29071,-26.382143158681565,747.2069250398831,1089.2875087016894
138794,2656,138794,16444,138794,29072,-27.7423180955088,762.1596714489647,1109.7725009181154
138794,2643,138794,16431,138794,29087,-29.070478351838688,776.1905194414871,1128.8986198263049
138794,2646,138794,16464,138794,29098,-30.36545314939689,789.3203520480283,1146.704773764827
138794,2634,138794,16501,138794,29136,-31.62617620660474,801.5704163867158,1163.2307560568252
138804,2646,138804,16516,138804,29158,-32.85177096636646,812.962476504043,1178.517216432219
138804,2631,138804,16533,138804,29170,-34.04158633375374,823.5192192948427,1192.6058478683042
138804,2643,138804,16505,138804,29159,-35.195195093770465,833.2644716256455,1205.539502191436
138804,2632,138804,16503,138804,29141,-36.31238538602783,842.2229871055499,1217.3619477499417
138804,2630,138804,16484,138804,29182,-37.39316346377461,850.4198604266469,1228.1173345607438
138804,2640,138804,16559,138804,29193,-38.43777583908425,857.8799752491145,1237.8498208584463
138814,2635,138814,16581,138814,29208,-39.44668807897179,864.6280433721602,1246.6036125900987
138814,2635,138814,16563,138814,29201,-40.42050405534728,870.689214150118,1254.4231230157839
138814,2637,138814,16525,138814,29189,-41.35990860700767,876.0894256515878,1261.352900884157
138814,2633,138814,16536,138814,29163,-42.265643713716656,880.8549908183904,1267.4372245644965
138814,2642,138814,16559,138814,29209,-43.138473639257185,885.0119520513424,1272.7195266467522
138814,2633,138814,16566,138814,29227,-43.97912890161935,888.5858732296392,1277.2421170878836
138825,2633,138825,16604,138825,29210,-44.78826547328667,891.6020865396249,1281.0463856394706
138825,2622,138825,16578,138825,29221,-45.5664998998716,894.0860816334268,1284.1730167350436
138825,2636,138825,16552,138825,29212,-46.31449400728346,896.0636659554427,1286.6619078939407
138825,2629,138825,16542,138825,29195,-47.03297787253935,897.5606161400649,1288.5519319881967
138825,2625,138825,16570,138825,29218,-47.72270496546024,898.6020969002063,1289.8806493440345
138825,2633,138825,16598,138825,29240,-48.38443455250302,899.212467860603,1290.684158655209
138835,2626,138835,16598,138835,29230,-49.01893122024548,899.4156394225374,1290.9972737019948
138835,2631,138835,16580,138835,29212,-49.62693494888626,899.2355195107507,1290.8537373412512
138835,2630,138835,16554,138835,29209,-50.209125996057224,898.6960485446664,1290.2861013022043
138835,2622,138835,16565,138835,29214,-50.766104804711645,897.8208117428155,1289.325400217208
138835,2619,138835,16586,138835,29233,-51.2984253638614,896.632683326809,1288.000985131975
138835,2622,138835,16597,138835,29235,-51.8066860497173,895.1538904198037,1286.3406510840105
138845,2631,138845,16591,138845,29240,-52.29156864794436,893.4063765013498,1284.3709100691983
138845,2627,138845,16547,138845,29212,-52.753756731237374,891.4119941955619,1282.1171555319215
138845,2624,138845,16532,138845,29204,-53.19382646191454,889.1921907461431,1279.6035374106543
138845,2619,138845,16558,138845,29209,-53.61223122147217,886.7673999900151,1276.8526238220834
138845,2620,138845,16573,138845,29209,-54.009371953984825,884.1567614236669,1273.885148117855
138845,2619,138845,16594,138845,29235,-54.38566618838786,881.3784247407311,1270.7200287941855
138856,2623,138856,16530,138856,29206,-54.741565133058984,878.4499940031712,1267.3745806368527
138856,2622,138856,16523,138856,29184,-55.07752085270543,875.388471362397,1263.8646028139365
138856,2620,138856,16509,138856,29195,-55.3939399402268,872.2096471465877,1260.2041288438966
138856,2620,138856,16533,138856,29201,-55.69116616752605,868.9275307438477,1256.4051313706636
138856,2620,138856,16574,138856,29205,-55.96949007877325,865.5543317537135,1252.4775334225842
138856,2622,138856,16553,138856,29209,-56.229149088255795,862.1009767893438,1248.4294286317117
138866,2624,138866,16515,138866,29204,-56.47029783645846,858.5775928673065,1244.2672895069243
138866,2620,138866,16494,138866,29187,-56.69296296316293,854.9933519374459,1239.9960562410326
138866,2615,138866,16486,138866,29181,-56.89703288596256,851.3558077694723,1235.6190410843087
138866,2613,138866,16514,138866,29198,-57.0823190102202,847.6703563066299,1231.1377533604082
138866,2617,138866,16539,138866,29208,-57.24864182798257,843.9402442295512,1226.5519182219198
138866,2620,138866,16527,138866,29205,-57.395854891405804,840.1670567506948,1221.859759927728
138876,2615,138876,16510,138876,29196,-57.52379857135372,836.3511786016215,1217.058294661534
138876,2618,138876,16487,138876,29181,-57.63226050745122,832.4918031777435,1212.1433981962432
138876,2611,138876,16494,138876,29180,-57.72098525324289,828.5865889903897,1207.109664690905
138876,2613,138876,16531,138876,29201,-57.78971693358996,824.6314329581378,1201.9502793648921
138876,2615,138876,16549,138876,29232,-57.83824254270204,820.6207552398993,1196.6572027121326
138876,2620,138876,16544,138876,29206,-57.86638529784626,816.5481803879209,1191.2216927825848
138887,2615,138887,16526,138887,29180,-57.873941984687455,812.4070807335214,1185.6346983086705
138887,2609,138887,16483,138887,29184,-57.86064929656899,808.190593653025,1179.886750593103
138887,2614,138887,16516,138887,29205,-57.82623381490785,803.8912100667658,1173.967696460015
138887,2624,138887,16540,138887,29199,-57.77045052438891,799.5005071088435,1167.8667683886617
138887,2610,138887,16556,138887,29213,-57.6930248756945,795.009488643865,1161.5729314472912
138887,2611,138887,16560,138887,29212,-57.593611732059905,790.4092951015926,1155.075238218677
138897,2611,138897,16524,138897,29181,-57.47186429959206,785.6917223441479,1148.363066600131
138897,2615,138897,16501,138897,29170,-57.327505795159055,780.8492179574135,1141.4260870280796
138897,2617,138897,16508,138897,29197,-57.16031279530276,775.8744483233761,1134.2540303020862
138897,2605,138897,16548,138897,29204,-56.97007301022473,770.7599891963997,1126.8366995383121
138897,2606,138897,16537,138897,29213,-56.75662474706529,765.4985730989081,1119.1643945527637
138897,2608,138897,16540,138897,29184,-56.51996795020108,760.0836266444663,1111.2283887791514
138907,2614,138907,16492,138907,29162,-56.26031932871462,754.5095313784134,1103.0210603586647
138907,2614,138907,16487,138907,29161,-55.97805895385972,748.7713877612493,1094.5356453034017
138907,2612,138907,16520,138907,29188,-55.67364724481712,742.8646002024027,1085.7660076068414
138907,2606,138907,16519,138907,29187,-55.347605422121596,736.7848438757214,1076.7068231703724
138907,2622,138907,16544,138907,29180,-55.00054929566654,730.5285207226458,1067.354058343349
138907,2609,138907,16499,138907,29157,-54.63318125579684,724.0932717033261,1057.705306121797
138918,2624,138918,16474,138918,29143,-54.24623032916064,717.4780860234935,1047.759777760738
138918,2612,138918,16472,138918,29160,-53.84040301234348,710.6829163451204,1037.5181401065684
138918,2616,138918,16513,138918,29146,-53.4163711686085,703.7083018984202,1026.982518422853
138918,2615,138918,16516,138918,29140,-52.97480101245761,696.5555681633527,1016.1566909961538
138918,2622,138918,16488,138918,29132,-52.51637459088502,689.2274108483457,1005.0462467713795
138918,2622,138918,16446,138918,29117,-52.04174707571249,681.7281396279011,993.6586310148084
138928,2618,138928,16434,138928,29087,-51.55148031963539,674.0632779923659,982.0030909651035
138928,2614,138928,16431,138928,29090,-51.04603967507753,666.238931912162,970.0904908764536
138928,2619,138928,16465,138928,29081,-50.525862152490106,658.2614998557701,957.9331357927882
138928,2619,138928,16473,138928,29066,-49.99140888265765,650.1379587178427,945.5447595289324
138928,2610,138928,16457,138928,29069,-49.44317555983516,641.8764785536922,932.940599559532
138928,2613,138928,16422,138928,29037,-48.881739775012605,633.4868113892807,920.1374511131123
138938,2622,138938,16380,138938,29002,-48.30783105652932,624.980089569056,907.1535846255996
138938,2624,138938,16395,138938,29004,-47.72230419966653,616.3682093909748,894.0084288725594
138938,2621,138938,16406,138938,29003,-47.12602800421155,607.6633845282333,880.7222701323858
138938,2619,138938,16409,138938,28979,-46.519824982185156,598.8782513391958,867.3162399556154
138938,2623,138938,16374,138938,28952,-45.90449641149351,590.0262342547004,853.8123723231279
138938,2618,138938,16346,138938,28928,-45.28085985510241,581.1216062140375,840.2334178571945
138949,2626,138949,16317,138949,28912,-44.64976269245239,572.1790716986609,826.6024730614834
138949,2616,138949,16352,138949,28931,-44.012085802314246,563.213234150643,812.9427132483928
138949,2625,138949,16344,138949,28917,-43.36875760654882,554.238463352183,799.2774591113932
138949,2615,138949,16362,138949,28895,-42.720784517081086,545.2692513378571,785.6304567917017
138949,2625,138949,16335,138949,28862,-42.06928358954323,536.3206819828467,772.025969985428
138949,2633,138949,16256,138949,28838,-41.41547080523898,527.4085281009089,758.4885072577979
138959,2635,138959,16260,138959,28816,-40.76055030538513,518.5486720059605,745.0423598443849
138959,2625,138959,16296,138959,28813,-40.1055773933121,509.7563185344316,731.7111960441127
138959,2627,138959,16293,138959,28800,-39.45144299811443,501.04588236082117,718.5178611770675
138959,2626,138959,16256,138959,28813,-38.798965399842544,492.4314438826554,705.4844106747331
138959,2626,138959,16240,138959,28761,-38.14896776363207,483.9269232445711,692.6322541391592
138959,2630,138959,16209,138959,28745,-37.502303004570535,475.54572717394944,679.9821141926757
138969,2633,138969,16208,138969,28716,-36.85983607470396,467.30023244884956,667.5536456230451
138969,2623,138969,16233,138969,28737,-36.22240995289247,459.20147995680475,655.3650075949364
138969,2629,138969,16240,138969,28730,-35.59086209220804,451.25932381594384,643.4327788717694
138969,2641,138969,16214,138969,28711,-34.96605689426147,443.48289151470027,631.7721891518659
138969,2631,138969,16179,138969,28683,-34.348826926453384,435.88080631911066,620.397265283799
138969,2629,138969,16157,138969,28662,-33.739899755760234,428.4608640447367,609.3206389012335
138980,2632,138980,16202,138980,28672,-33.139935842791374,421.2295322323031,598.5532012054252
138980,2635,138980,16218,138980,28666,-32.54959450002151,414.19194537496276,588.103954591335
138980,2637,138980,16205,138980,28674,-31.96952063537179,407.35250121945836,577.9801680218895
138980,2638,138980,16185,138980,28643,-31.400284639180136,400.7154184740075,568.1876274135168
138980,2637,138980,16143,138980,28616,-30.84233610563352,394.2847356787656,558.730671165422
138980,2640,138980,16133,138980,28615,-30.29598553679142,388.06381181227596,549.6119074342886
138990,2631,138990,16152,138990,28641,-29.76141199112134,382.05475551163954,540.8319469281234
138990,2634,138990,16171,138990,28648,-29.23871285590059,376.25827861306357,532.38957409132
138990,2635,138990,16175,138990,28647,-28.727977523448452,370.67407917835965,524.2822838037403
138990,2642,138990,16132,138990,28609,-28.229308066018078,365.30130066752656,516.5067080523692
138990,2636,138990,16125,138990,28606,-27.742768692679082,360.13855323795633,509.05860683206424
138990,2640,138990,16126,138990,28594,-27.26833886262166,355.18354374166006,501.93256099457335
139000,2638,139000,16127,139000,28611,-26.80591052752562,350.43279004066744,495.12174966646603
139000,2643,139000,16164,139000,28603,-26.355291053228743,345.88169494190566,488.61800061765615
139000,2629,139000,16157,139000,28604,-25.91620575292629,341.5249535537495,482.411996424026
139000,2646,139000,16115,139000,28573,-25.488334440945295,337.3569805313183,476.49339181558486
139000,2633,139000,16094,139000,28588,-25.071343564918944,333.37184740086457,470.85072108596506
139000,2636,139000,16110,139000,28602,-24.664891665358144,329.56275038090195,465.4713002919358
139010,2639,139010,16139,139010,28595,-24.268656742097484,325.92168076889646,460.34138769536895
139010,2637,139010,16135,139010,28591,-23.882359229972828,322.4396765503942,455.44646726578435
139010,2635,139010,16120,139010,28584,-23.505756309218953,319.107279075679,450.77137236347767
139010,2642,139010,16088,139010,28590,-23.13864600998509,315.91464059077555,446.3002682827085
139010,2641,139010,16085,139010,28564,-22.78085481049789,312.8511736459819,442.01661354282294
139010,2640,139010,16090,139010,28561,-22.432190522153498,309.90508471098786,437.903041751402
139020,2642,139020,16134,139020,28599,-22.09241308410411,307.0632395840324,433.9412171911873
139020,2645,139020,16160,139020,28589,-21.761225297585096,304.3116017984379,430.11196622528024
139020,2641,139020,16154,139020,28606,-21.438249104854588,301.6360542152127,426.3956891575821
139020,2641,139020,16096,139020,28583,-21.123013730747616,299.0229667749857,422.7727010362334
139020,2639,139020,16078,139020,28568,-20.814986054713643,296.4589664795281,419.22328346711356
139020,2633,139020,16130,139020,28582,-20.513631085734527,293.9302439575847,415.7274925933873
139031,2644,139031,16146,139031,28602,-20.218476248138675,291.4223522457158,412.26503957827714
139031,2642,139031,16164,139031,28616,-19.92912080706902,288.92078559896726,408.81554172107064
139031,2647,139031,16124,139031,28572,-19.645166164173535,286.4116669188215,405.3589303444645
139031,2645,139031,16091,139031,28571,-19.366131796008695,283.88185417262895,401.87551017875023
139031,2637,139031,16108,139031,28592,-19.09142565519607,281.31844398991655,398.3456708894058
139031,2646,139031,16146,139031,28579,-18.820383216155193,278.70834271338293,394.74974921935683
139041,2642,139041,16159,139041,28603,-18.55231042532432,276.0385043439732,391.0681901112434
139041,2636,139041,16160,139041,28600,-18.28649212617361,273.29661723865604,387.28180709480864
139041,2642,139041,16100,139041,28595,-18.02222466862287,270.4715397692689,383.3720413810915
139041,2646,139041,16082,139041,28582,-17.758850464606503,267.5530239280821,379.32109480843957
139041,2654,139041,16113,139041,28573,-17.495697374123058,264.53099234886133,375.1118421228519
139041,2635,139041,16131,139041,28594,-17.23197151276993,261.39518059037874,370.7276729220435
139051,2636,139051,16140,139051,28596,-16.966771471514576,258.13547082902676,366.15252285200177
139051,2638,139051,16118,139051,28586,-16.699238139938267,254.74241743118927,361.3711128042783
139051,2649,139051,16103,139051,28580,-16.428645884071713,251.20742439397384,356.3691254517459
139051,2636,139051,16077,139051,28566,-16.154350109475427,247.52248591269372,351.13316581077515
139051,2642,139051,16114,139051,28574,-15.87573289299366,243.67978581663186,345.65062164277447
139051,2643,139051,16137,139051,28567,-15.592221581820723,239.67164384957567,339.90959007218953
139062,2647,139062,16109,139062,28589,-15.303287289074756,235.49094058809806,333.89895987119775
139062,2650,139062,16090,139062,28565,-15.008376759142244,231.1314707903599,327.60862348437774
139062,2645,139062,16079,139062,28541,-14.706834284547739,226.5877862548764,321.0296005873159
139062,2641,139062,16065,139062,28538,-14.397884523005203,221.8547712353664,314.1538589893724
139062,2637,139062,16092,139062,28554,-14.080706591560155,216.92734926275028,306.97403958942294
139062,2640,139062,16118,139062,28559,-13.754548868989723,211.8005724821409,299.48348431619866
139072,2638,139072,16115,139072,28564,-13.418805606618815,206.4701402111147,291.676585501678
139072,2651,139072,16078,139072,28544,-13.073016920111273,200.93293403383313,283.54915738693785
139072,2644,139072,16046,139072,28506,-12.716792181723584,195.18701708877524,275.09852840150404
139072,2643,139072,16048,139072,28491,-12.349727658594079,189.23109967294806,266.323218759534
139072,2642,139072,16055,139072,28505,-11.971407453856333,183.06402370311372,257.2224523774669
139072,2650,139072,16077,139072,28510,-11.581445265701202,176.68470927333453,247.79597873648035
139082,2646,139082,16058,139082,28497,-11.17946983927117,170.0924925156908,238.0442978055691
139082,2643,139082,16044,139082,28458,-10.765084479521791,163.28743993265533,227.96886912034057
139082,2639,139082,16007,139082,28465,-10.337893727920093,156.2702972098007,217.57198120281822
139082,2649,139082,16021,139082,28444,-9.897576978209445,149.04212107449627,206.85646745500543
139082,2641,139082,16044,139082,28470,-9.443913928639153,141.60402725301,195.82561248366497
139082,2641,139082,16053,139082,28457,-8.976776046387993,133.95743292653054,184.48334994835366
139093,2649,139093,16024,139093,28432,-8.49614476240323,126.10459127380213,172.83456766357958
139093,2644,139093,15991,139093,28397,-8.002111878878827,118.04882307512483,160.8851555533135
139093,2646,139093,15960,139093,28388,-7.494846000193794,109.79417007545746,148.64166880272484
139093,2642,139093,15977,139093,28387,-6.9745917669242505,101.34478367676505,136.11092981169355
139093,2645,139093,16020,139093,28386,-6.441707958427669,92.70467618476187,123.2999147947258
139093,2647,139093,15978,139093,28381,-5.896693862726298,83.87810767760706,110.21592885282405
139103,2655,139103,15973,139103,28368,-5.340161403708452,74.87007410077993,96.86685882059697
139103,2650,139103,15951,139103,28340,-4.77275300976657,65.68634194561619,83.26130734602611
139103,2645,139103,15931,139103,28317,-4.195086153368461,56.333168982747,69.40849461506468
139103,2650,139103,15929,139103,28319,-3.6077892999899923,46.81700430324125,55.318004342049164
139103,2650,139103,15963,139103,28304,-3.0115604397644553,37.14437388546912,40.99962871525264
139103,2649,139103,15946,139103,28303,-2.4071733033601816,27.32215992017484,26.463425314349877
139113,2646,139113,15911,139113,28287,-1.7954757607030238,17.358022736714815,11.719870327811407
139113,2654,139113,15871,139113,28256,-1.1774147802965835,7.260380248600427,-3.2200501095061895
139113,2658,139113,15873,139113,28239,-0.5540231626209255,-2.962122113612338,-18.344938295555153
139113,2668,139113,15888,139113,28245,0.07368864669566833,-13.301080563678,-33.643192465795664
139113,2655,139113,15886,139113,28242,0.7048790321001803,-23.748294251195603,-49.10302226027392
139113,2650,139113,15862,139113,28198,1.338914295601299,-34.29541728096609,-64.71225229418496
139124,2661,139124,15837,139124,28187,1.9752659803428365,-44.933803611720805,-80.45828051013848
139124,2661,139124,15810,139124,28164,2.6134384674046487,-55.6547393845392,-96.32831313198011
139124,2662,139124,15807,139124,28138,3.2530219783123933,-66.44986463615004,-112.30964794882175
139124,2665,139124,15838,139124,28153,3.893769813467568,-77.31140624194217,-128.38985658779092
139124,2661,139124,15839,139124,28144,4.535633056453449,-88.23192082579419,-144.55674678810192
139124,2651,139124,15802,139124,28125,5.17873656219102,-99.20375228856597,-160.7980868690604
139134,2662,139134,15785,139134,28078,5.8232820651499395,-110.21879512841815,-177.10143075250915
139134,2654,139134,15744,139134,28068,6.46945732973548,-121.26877831920473,-193.45432523614676
139134,2658,139134,15751,139134,28052,7.117408001650812,-132.34577049867465,-209.84469754988902
139134,2658,139134,15774,139134,28070,7.767225609584116,-143.44246960813905,-226.26101885436128
139134,2661,139134,15798,139134,28051,8.418943618063242,-154.55193118448085,-242.6920963421968
139134,2654,139134,15765,139134,28020,9.072547599833705,-165.66686911164027,-259.1267493083136
139144,2654,139144,15720,139144,27995,9.727946910402768,-176.77920296297475,-275.55375608682255
139144,2662,139144,15692,139144,27979,10.384913936928484,-187.88031965506542,-291.9621106706502
139144,2662,139144,15698,139144,27973,11.043081992204566,-198.96173397466612,-308.341285820312
139144,2661,139144,15718,139144,27977,11.702009956096898,-210.015452094912,-324.6812621959958
139144,2666,139144,15704,139144,27964,12.361232727300752,-221.03376515164462,-340.9723056427232
139144,2661,139144,15663,139144,27951,13.020279285708106,-232.00889407423375,-357.2046629504446
139155,2667,139155,15647,139155,27910,13.678680641051429,-242.9330343517035,-373.3684212799169
139155,2662,139155,15632,139155,27883,14.335969706806882,-253.7987726554087,-389.45368537665195
139155,2671,139155,15643,139155,27895,14.9916852569222,-264.59942832761965,-405.4509393291704
139155,2666,139155,15659,139155,27882,15.6453961702145,-275.3290164169269,-421.3512026141333
139155,2670,139155,15643,139155,27863,16.296733834913933,-285.9818628347393,-437.1458734802262
139155,2663,139155,15611,139155,27852,16.94539630029219,-296.5522401487528,-452.826567569596
139165,2660,139165,15564,139165,27815,17.591095855540498,-307.03446132474005,-468.3851443124263
139165,2673,139165,15577,139165,27809,18.233482425938995,-317.4234194601821,-483.81388696529746
139165,2671,139165,15598,139165,27810,18.87214398218967,-327.71500502631056,-499.1056847787564
139165,2671,139165,15614,139165,27801,19.506694092913,-337.9058968767856,-514.2540010073168
139165,2663,139165,15588,139165,27789,20.13681509166358,-347.9929295315919,-529.2526492558393
139165,2675,139165,15553,139165,27756,20.76221234896093,-357.9726965829169,-544.0956434852073
139175,2665,139175,15522,139175,27733,21.38257477456633,-367.84175662398377,-558.7773060394347
139175,2672,139175,15535,139175,27735,21.997573939585173,-377.5971807517302,-573.2925488931841
139175,2680,139175,15546,139175,27765,22.606881591596043,-387.23686094481593,-587.6369559399546
139175,2676,139175,15584,139175,27727,23.21023997626572,-396.759235378836,-601.8064398319265
139175,2674,139175,15533,139175,27710,23.80754450101258,-406.16263919459595,-615.7968499311675
139175,2675,139175,15512,139175,27686,24.398845657522358,-415.4449182486579,-629.603978751643
139186,2670,139186,15485,139186,27664,24.984292467351693,-424.60368231677876,-643.2238658433815
139186,2668,139186,15509,139186,27675,25.564061971513965,-433.6368092664378,-656.6530774835335
139186,2666,139186,15531,139186,27682,26.138268689390358,-442.54255470789167,-669.8887235033193
139186,2674,139186,15513,139186,27681,26.706888445801,-451.31913160415513,-682.9281263682713
139186,2675,139186,15495,139186,27644,27.269761322402417,-459.96424154606007,-695.7684117655888
139186,2674,139186,15465,139186,27640,27.826661592065115,-468.4750333297038,-708.4063931552071
139196,2681,139196,15439,139196,27612,28.377363810792673,-476.8484828416799,-720.8387544292572
139196,2673,139196,15464,139196,27620,28.92168281282344,-485.0818685235431,-733.0622677005312
139196,2672,139196,15484,139196,27629,29.45947344977599,-493.17289729242486,-745.0738216948824
139196,2674,139196,15482,139196,27610,29.99057186664087,-501.11929280089385,-756.8701960949925
139196,2679,139196,15434,139196,27597,30.514747126306787,-508.9182994279088,-768.4478025255753
139196,2688,139196,15422,139196,27555,31.03174818438709,-516.5666950290382,-779.802701916907
139206,2681,139206,15395,139206,27566,31.54142598414621,-524.0612943229912,-790.9309084830284
139206,2668,139206,15424,139206,27564,32.04379306599026,-531.3994451809237,-801.8286586701979
139206,2677,139206,15450,139206,27591,32.538923557740205,-538.5790666291003,-812.4923133147826
139206,2686,139206,15421,139206,27553,33.02683722996306,-545.5981962721686,-822.9179518231099
139206,2674,139206,15402,139206,27520,33.50752748851703,-552.454581470683,-833.1011360934664
139206,2681,139206,15380,139206,27518,33.981024023357534,-559.1457797959919,-843.0371600102434
139217,2685,139217,15385,139217,27504,34.44739297516471,-565.6695644409757,-852.7214871673142
139217,2680,139217,15414,139217,27511,34.90675556707679,-572.024134805564,-862.1499661555943
139217,2683,139217,15418,139217,27525,35.35932519919584,-578.2078651980665,-871.3187547538791
139217,2678,139217,15408,139217,27479,35.80539824294859,-584.2187859912448,-880.2240968430738
139217,2685,139217,15359,139217,27480,36.24532281309676,-590.0543173870691,-888.8622678708932
139217,2677,139217,15330,139217,27460,36.679483958771414,-595.7116079835699,-897.2298205317879
139227,2682,139227,15365,139227,27457,37.10829109668,-601.1882252600279,-905.3238757934172
139227,2683,139227,15378,139227,27444,37.53216160323238,-606.4824796478864,-913.1423015289639
139227,2679,139227,15385,139227,27466,37.9515228134107,-611.5930847775468,-920.6837788470697
139227,2683,139227,15329,139227,27456,38.366816223333586,-616.5187084568181,-927.9476853587748
139227,2682,139227,15320,139227,27434,38.7784897167707,-621.258066063331,-934.9338925651341
139227,2686,139227,15318,139227,27411,39.18700815709131,-625.8104835401258,-941.642797135163
139237,2679,139237,15347,139237,27441,39.59287625896168,-630.1762986321927,-948.0755961973332
139237,2680,139237,15366,139237,27451,39.99662515557243,-634.3566996869606,-954.2343573662935
139237,2675,139237,15357,139237,27453,40.398748479451484,-638.3531800969789,-960.1216649058723
139237,2684,139237,15327,139237,27430,40.79963650965939,-642.1671244002619,-965.740206234782
139237,2678,139237,15311,139237,27418,41.19956301053141,-645.7999003824552,-971.0926993920835
139237,2686,139237,15293,139237,27407,41.59871665481385,-649.2533498789104,-976.1821472115714
139248,2685,139248,15322,139248,27417,41.99724666635133,-652.5302633658433,-981.012134795278
139248,2681,139248,15357,139248,27428,42.395306485943514,-655.6344213910616,-985.586913174456
139248,2681,139248,15331,139248,27431,42.793054980831606,-658.5701339478138,-989.9112144013061
139248,2681,139248,15316,139248,27407,43.190609121804926,-661.3418078876658,-993.9900104263488
139248,2691,139248,15298,139248,27394,43.58802300064329,-663.9540340002583,-997.8285232155497
139248,2687,139248,15298,139248,27387,43.98534580080827,-666.4120155303702,-1001.4325324918354
139258,2683,139258,15343,139258,27417,44.38269598396151,-668.7218360988049,-1004.8086692770878
139258,2680,139258,15353,139258,27423,44.780248480717276,-670.8902228250558,-1007.964359108425
139258,2681,139258,15345,139258,27391,45.17814500058384,-672.9239481419304,-1010.9075239953809
139258,2680,139258,15321,139258,27410,45.576416499892794,-674.829438754976,-1013.6464759551509
139258,2679,139258,15288,139258,27381,45.974946136289866,-676.6129477058079,-1016.1900828196707
139258,2689,139258,15321,139258,27408,46.373464614636,-678.2810808873088,-1018.5479530798727
139269,2689,139269,15353,139269,27433,46.77160626007441,-679.841070688921,-1020.7304249647981
139269,2689,139269,15378,139269,27433,47.1690136839197,-681.3003796710586,-1022.7482339750222
139269,2688,139269,15332,139269,27426,47.56540808073213,-682.6660043787142,-1024.6120710300384
139269,2684,139269,15306,139269,27403,47.96058671668852,-683.9442764031495,-1026.332441700964
139269,2684,139269,15301,139269,27406,48.35437190282647,-685.1413830757891,-1027.9198990378618
139269,2695,139269,15323,139269,27415,48.74657014797445,-686.2640126121911,-1029.3853602582856
139279,2691,139279,15353,139279,27466,49.13701232745825,-687.3194941235755,-1030.740122446298
139279,2688,139279,15380,139279,27441,49.525634399165654,-688.3153432341504,-1031.995445367464
139279,2692,139279,15336,139279,27426,49.91249546231336,-689.2586198385934,-1033.1621219707195
139279,2684,139279,15314,139279,27419,50.297741255543656,-690.1557352332163,-1034.2505259555408
139279,2691,139279,15304,139279,27431,50.68156368564939,-691.0129289788485,-1035.2709680863277
139279,2683,139279,15350,139279,27440,51.064164477707266,-691.8368506668085,-1036.2338833180916
139289,2689,139289,15391,139289,27475,51.44572496471834,-692.6345198668146,-1037.1496763813254
139289,2684,139289,15382,139289,27478,51.826382010756184,-693.4126073782572,-1038.0282902486274
139289,2689,139289,15376,139289,27461,52.206214109553486,-694.176699319938,-1038.8787460682202
139289,2692,139289,15325,139289,27446,52.585253843978805,-694.9311631071004,-1039.709026610668
139289,2693,139289,15335,139289,27466,52.96354086960415,-695.6796333500633,-1040.5263231749318
139289,2688,139289,15363,139289,27478,53.341181017495565,-696.4255913619603,-1041.3372186892411
139300,2687,139300,15386,139300,27486,53.71834473181327,-697.1724269897445,-1042.1475436887877
139300,2686,139300,15394,139300,27494,54.09520483880852,-697.9229502750475,-1042.9620749497046
139300,2689,139300,15337,139300,27495,54.47187840123389,-698.678947811356,-1043.7842911070968
139300,2685,139300,15329,139300,27475,54.84840705646979,-699.4413523738514,-1044.6162761722321
139300,2688,139300,15352,139300,27490,55.22475155045647,-700.2108739830367,-1045.4588153582545
139300,2688,139300,15401,139300,27508,55.60078427654302,-700.9882889509465,-1046.3115131534098
139310,2686,139310,15419,139310,27534,55.976289939173064,-701.7739396432837,-1047.1726300578125
139310,2690,139310,15399,139310,27496,56.35096827539329,-702.5668962256068,-1048.0387068040982
139310,2685,139310,15366,139310,27497,56.724432770008086,-703.3645554738091,-1048.9044355037984
139310,2689,139310,15355,139310,27482,57.09620537410959,-704.1629600032167,-1049.7629538945598
139310,2693,139310,15376,139310,27509,57.46571938178925,-704.9574028984994,-1050.6062127534137
139310,2685,139310,15419,139310,27526,57.832346670070834,-705.7426439688013,-1051.4250321873142
139320,2685,139320,15421,139320,27533,58.19539872738078,-706.5124908843652,-1052.208800514271
139320,2693,139320,15420,139320,27532,58.55408125381313,-707.2591480872354,-1052.945085188209
139320,2694,139320,15386,139320,27513,58.9074994939565,-707.9729124654003,-1053.6194637189678
139320,2693,139320,15388,139320,27523,59.25474063603869,-708.6423880615353,-1054.2156417734136
139320,2689,139320,15393,139320,27525,59.59493009611074,-709.2549125232861,-1054.7156585745638
139320,2692,139320,15433,139320,27555,59.92721314702256,-709.7967261569856,-1055.0999129925688
139331,2690,139331,15447,139331,27555,60.25071656074288,-710.252651265247,-1055.3469259114877
139331,2692,139331,15397,139331,27546,60.56453481376987,-710.6055918446425,-1055.4330337841711
139331,2694,139331,15368,139331,27529,60.867738860369535,-710.8365381537734,-1055.3323297716424
139331,2689,139331,15377,139331,27540,61.1593933368657,-710.9252446713933,-1055.016913943521
139331,2690,139331,15426,139331,27567,61.43855187118024,-710.8508393489268,-1054.4571214849243
139331,2691,139331,15450,139331,27569,61.70422445682334,-710.5916625768446,-1053.6214222048902
139341,2697,139341,15429,139341,27567,61.95537156244756,-710.1245692679856,-1052.476133965615
139341,2699,139341,15401,139341,27559,62.19096548312161,-709.4245184164776,-1050.9853072279584
139341,2693,139341,15384,139341,27530,62.41007646816135,-708.4648718173173,-1049.1109295338624
139341,2700,139341,15387,139341,27554,62.611912827722094,-707.2180708639657,-1046.8133600177252
139341,2686,139341,15426,139341,27574,62.795804929019916,-705.6561013528084,-1044.0516673284026
139341,2685,139341,15460,139341,27561,62.9611310843095,-703.7503687453927,-1040.7836192747268
139351,2693,139351,15408,139351,27552,63.107201543052895,-701.4711770479731,-1036.9656088363374
139351,2690,139351,15389,139351,27539,63.233207866481706,-698.7875772010466,-1032.5528983623003
139351,2697,139351,15373,139351,27528,63.33827615799349,-695.6679663976597,-1027.5001368180585
139351,2682,139351,15386,139351,27545,63.42152298944992,-692.0809232769926,-1021.7619066503172
139351,2690,139351,15417,139351,27565,63.48203107884301,-687.9956567008703,-1015.2930588827057
139351,2690,139351,15431,139351,27573,63.518787246011826,-683.3819153202451,-1008.0487225536492
139362,2692,139362,15399,139362,27556,63.530681838486665,-678.209684744774,-999.984218634169
139362,2684,139362,15387,139362,27537,63.51654942314612,-672.4492358877894,-991.0552704520453
139362,2690,139362,15380,139362,27524,63.475163759617914,-666.0716792574319,-981.2186395561321
139362,2685,139362,15416,139362,27552,63.40520328276698,-659.0495748600911,-970.4329091705558
139362,2688,139362,15427,139362,27572,63.30523772701284,-651.3571352118403,-958.6589754558819
139362,2684,139362,15432,139362,27567,63.173725816861506,-642.9700607916694,-945.8601426751143
139372,2684,139372,15433,139372,27555,63.009001809157496,-633.8653993470446,-932.0022201719396
139372,2688,139372,15388,139372,27553,62.809261055569436,-624.0217414893466,-917.0539744694486
139372,2695,139372,15385,139372,27553,62.57259320826017,-613.4198747394862,-900.9878343770563
139372,2695,139372,15421,139372,27598,62.297093482053214,-602.0436457651839,-883.7805101204917
139372,2694,139372,15457,139372,27608,61.98099334564053,-589.880402044347,-865.4132642929233
139372,2677,139372,15452,139372,27616,61.622699397576774,-576.9208212166133,-845.8719244168101
139382,2690,139382,15432,139382,27625,61.22070203321065,-563.1587275496537,-825.1470040101111
139382,2688,139382,15427,139382,27626,60.77348144879346,-548.59144424655,-803.2340864118754
139382,2693,139382,15474,139382,27649,60.27954055005456,-533.2204591790476,-780.1343421480342
139382,2682,139382,15512,139382,27698,59.73749196044834,-517.0517362983736,-755.8549472426112
139382,2689,139382,15544,139382,27737,59.14607775381407,-500.0954156578436,-730.4091454161272
139382,2688,139382,15547,139382,27769,58.50415231144352,-482.36530457380724,-703.8159660764956
139393,2682,139393,15539,139393,27769,57.8106951266371,-463.8786918365283,-676.0999680124075
139393,2680,139393,15559,139393,27793,57.0648090720016,-444.65663832613524,-647.2913441084423
139393,2686,139393,15589,139393,27855,56.26567987797338,-424.7244257453828,-617.4262567643311
139393,2682,139393,15677,139393,27933,55.412573752840046,-404.1116386385782,-586.5468505607555
139393,2683,139393,15715,139393,27979,54.50488531271701,-382.8515753187933,-554.7006435124783
139393,2678,139393,15727,139393,27983,53.54216703839559,-360.9802963792873,-521.9397448124744
139403,2681,139403,15724,139403,28033,52.52412408838924,-338.5360524229537,-488.3205329801888
139403,2690,139403,15753,139403,28075,51.45063519367834,-315.5593913808682,-453.90374415926414
139403,2673,139403,15812,139403,28162,50.32182999875274,-292.09345848835903,-418.75440816806383
139403,2690,139403,15865,139403,28229,49.13815202181888,-268.18386834513086,-382.94129642266523
139403,2668,139403,15912,139403,28304,47.90036877842395,-243.87806064278283,-346.53596462719395
139403,2672,139403,15926,139403,28318,46.609535124895366,-219.22455092605514,-309.61177049623296
139413,2674,139413,15947,139413,28361,45.266913844563646,-194.27250793389572,-272.2433195376559
139413,2665,139413,15976,139413,28428,43.87392832072709,-169.0717308307161,-234.50636081003677
139413,2674,139413,16041,139413,28502,42.432171540493655,-143.67269284622205,-196.47761419224776
139413,2660,139413,16099,139413,28571,40.94341876678601,-118.12622877780137,-158.23416042116628
139413,2667,139413,16116,139413,28613,39.40962358948324,-92.48285258139668,-119.8525978368441
139413,2658,139413,16127,139413,28662,37.83289729811031,-66.79220124431686,-81.4083660660026
139424,2658,139424,16158,139424,28701,36.215483655142265,-41.102971624796396,-42.975392019269634
139424,2649,139424,16200,139424,28771,34.55971888327471,-15.463093662832136,-4.625899936191445
139424,2649,139424,16279,139424,28823,32.867960604810904,10.080371593079803,33.56987392710437
139424,2650,139424,16310,139424,28887,31.142524108832472,35.48182116144176,71.54415739590638
139424,2644,139424,16331,139424,28917,29.38566836841196,60.69787232457412,109.23216380075735
139424,2653,139424,16308,139424,28946,27.59962363809224,85.68769827383483,146.5724059305669
139434,2643,139434,16325,139434,28974,25.78664436821175,110.41265933403662,183.5066568813404
139434,2632,139434,16385,139434,29027,23.949034746504537,134.83563988564845,219.97970145534464
139434,2637,139434,16455,139434,29099,22.089075963733286,158.92087137505462,255.93925236551365
139434,2643,139434,16468,139434,29125,20.208950243755098,182.63448748820133,291.3362354085856
139434,2641,139434,16480,139434,29144,18.31080524812249,205.9451771965874,326.12513567280223
139434,2634,139434,16485,139434,29160,16.396883906254956,228.82430334500452,360.2639449631922
139444,2647,139444,16498,139444,29221,14.46959817713973,251.2455404118466,393.71377668143725
139444,2621,139444,16538,139444,29264,12.531562858135239,273.18443711826967,426.43864331437305
139444,2622,139444,16598,139444,29312,10.58555495906137,294.6182912756485,458.40562849986304
139444,2620,139444,16633,139444,29342,8.634364154388258,315.5265299193014,489.5852261580046
139444,2625,139444,16620,139444,29367,6.680686003548487,335.8912838097601,519.9515543148491
139444,2620,139444,16624,139444,29370,4.727154988309351,355.6975377075745,549.4822948203653
139455,2614,139455,16620,139455,29406,2.7764100228887187,374.9326748671433,578.1583517086231
139455,2611,139455,16681,139455,29450,0.8310871176563523,393.58587360235015,605.963475824065
139455,2607,139455,16713,139455,29481,-1.1062446995127573,411.64793310039454,632.8841679922139
139455,2607,139455,16726,139455,29510,-3.033139530260115,429.1116037163208,658.909820792257
139455,2603,139455,16712,139455,29524,-4.947296595503097,445.9718857618857,684.0328160514564
139455,2608,139455,16713,139455,29526,-6.84655017070309,462.22582549821425,708.2483922263198
139465,2592,139465,16735,139465,29556,-8.7288477785562,477.87195420636147,731.5542758517522
139465,2593,139465,16797,139465,29599,-10.592279444616231,492.90992291387795,753.9503241138084
139465,2600,139465,16803,139465,29625,-12.435147963546122,507.3406890048926,775.4384801607025
139465,2592,139465,16817,139465,29651,-14.255966909534322,521.1669714058642,796.0229804499081
139465,2592,139465,16776,139465,29625,-16.053396564607233,534.3933651761315,815.7104417070484
139465,2598,139465,16793,139465,29634,-17.826202809773648,547.0258725712446,834.509515711165
139475,2589,139475,16808,139475,29663,-19.57321069140515,559.071202564429,852.4302310995752
139475,2588,139475,16845,139475,29695,-21.293256751208737,570.536393140047,869.4835359467886
139475,2579,139475,16878,139475,29724,-22.985210988434133,581.4289564967429,885.6813079323342
139475,2583,139475,16868,139475,29750,-24.64805027852274,591.757291945481,901.0366313994086
139475,2580,139475,16835,139475,29735,-26.280904359393496,601.5308481866325,915.5640231971768
139475,2586,139475,16824,139475,29717,-27.88303192018504,610.7596522136378,929.2792932083601
139486,2582,139486,16881,139486,29769,-29.45374098717363,619.4535364342662,942.1990208843035
139486,2582,139486,16918,139486,29795,-30.99230422494138,627.6218873466005,954.3401977343358
139486,2574,139486,16921,139486,29808,-32.497921793084274,635.2741380647167,965.7204015317263
139486,2568,139486,16927,139486,29817,-33.9697601146552,642.4203608465234,976.3581273011139
139486,2575,139486,16910,139486,29787,-35.40703420258234,649.0714169580582,986.272805016637
139486,2571,139486,16900,139486,29804,-36.80904047957445,655.2386716423878,995.4844143715356
139496,2569,139496,16950,139496,29834,-38.175117855860194,660.933579427144,1004.0129975310012
139496,2561,139496,16979,139496,29856,-39.504630178742815,666.1676331947045,1011.878530636304
139496,2562,139496,16979,139496,29851,-40.79701864473684,670.9528385430787,1019.1011574634947
139496,2564,139496,16941,139496,29844,-42.051859435729185,675.3021363039534,1025.7013252080767
139496,2564,139496,16923,139496,29841,-43.26885374321296,679.2291717841209,1031.6995667572448
139496,2560,139496,16945,139496,29864,-44.44777043170072,682.7475823314918,1037.11612914033
139506,2559,139506,16985,139506,29867,-45.58841420543858,685.8705353775999,1041.9707692699628
139506,2554,139506,16989,139506,29881,-46.69064154734926,688.6109232885142,1046.2827729878818
139506,2554,139506,16990,139506,29880,-47.754400152020835,690.9818564006757,1050.0710267866302
139506,2558,139506,16957,139506,29891,-48.77975340657417,692.9968649201393,1053.35403432769
139506,2554,139506,16944,139506,29882,-49.76685551793305,694.6695866515599,1056.1498730990918
139506,2558,139506,16959,139506,29887,-50.71589549836813,696.0131748749295,1058.4760804978332
139517,2551,139517,17009,139517,29943,-51.627054526869316,697.0399763868163,1060.3495962491636
139517,2546,139517,17012,139517,29925,-52.500509060362376,697.7618415296354,1061.7870155845524
139517,2551,139517,17011,139517,29909,-53.33648373642342,698.1907480841743,1062.8049543049356
139517,2543,139517,16956,139517,29905,-54.135299421107575,698.3390627159478,1063.4200111673902
139517,2545,139517,16956,139517,29892,-54.89739210958,698.2191279342751,1063.6483513443293
139517,2543,139517,16982,139517,29918,-55.62333302455605,697.8425728411556,1063.5053212380985
139527,2539,139527,17026,139527,29943,-56.31384989828324,697.220102124041,1063.005381501735
139527,2546,139527,17029,139527,29952,-56.969837277164544,696.3620077886366,1062.1624366961535
139527,2541,139527,17000,139527,29922,-57.59233963582335,695.2788325936012,1060.990253509193
139527,2549,139527,16965,139527,29917,-58.18249715355596,693.9814704771289,1059.502501629473
139527,2546,139527,16958,139527,29911,-58.74147031001429,692.4805984007901,1057.712400640677
139527,2545,139527,16978,139527,29930,-59.27036754901076,690.7859816206993,1055.6323752180053
139538,2545,139538,17004,139538,29945,-59.770208353430874,688.9062429738937,1053.2740258087354
139538,2539,139538,17016,139538,29926,-60.24192979093107,686.8492011010264,1050.6483536855767
139538,2541,139538,16991,139538,29908,-60.68642030781214,684.6223746046344,1047.7658737046359
139538,2540,139538,16941,139538,29910,-61.104556455877244,682.2330751272011,1044.6363897803826
139538,2551,139538,16961,139538,29912,-61.497189906770075,679.6878948293428,1041.2686695153955
139538,2545,139538,17011,139538,29924,-61.86505639389519,676.992195151518,1037.6703293243722
139548,2535,139548,17022,139548,29938,-62.20869357519818,674.1503373303261,1033.8479763167506
139548,2536,139548,16977,139548,29914,-62.52848516923103,671.166369150649,1029.80745895995
139548,2536,139548,16989,139548,29918,-62.82478075391478,668.0442894948146,1025.5539794146007
139548,2544,139548,16959,139548,29887,-63.0979414597132,664.7877590134082,1021.0919439057361
139548,2540,139548,16955,139548,29912,-63.34827714232206,661.3996878424423,1016.4246865531561
139548,2532,139548,16992,139548,29932,-63.57597823318237,657.8819592896762,1011.5543680555115
139558,2530,139558,17029,139558,29932,-63.78115153896381,654.2355808142103,1006.4822535168364
139558,2531,139558,16987,139558,29913,-63.96393165156044,650.4613027105532,1001.2091184027099
139558,2533,139558,16976,139558,29906,-64.12455058862406,646.560048775252,995.7353616491606
139558,2548,139558,16939,139558,29895,-64.26329685335426,642.5326732364468,990.0608117321419
139558,2536,139558,16968,139558,29900,-64.38037604900893,638.3793818793902,984.184490793791
139558,2527,139558,17009,139558,29927,-64.47581267667455,634.0994912432403,978.1045695613857
139569,2531,139569,17002,139569,29926,-64.5495226283324,629.6918456318887,971.8186365379652
139569,2529,139569,16977,139569,29912,-64.60144911706806,625.1554406687771,965.3241095052947
139569,2539,139569,16950,139569,29888,-64.63159610136105,620.4895491746144,958.6183988364339
139569,2528,139569,16941,139569,29889,-64.63996932334877,615.6932886876668,951.6987073482956
139569,2535,139569,16974,139569,29918,-64.62652817084867,610.7651568203369,944.561812835022
139569,2532,139569,16993,139569,29913,-64.59118276675034,605.7030485090589,937.2042118091566
139579,2532,139579,16997,139579,29914,-64.53379378945576,600.5047855615628,929.6225294390038
139579,2537,139579,16977,139579,29915,-64.4541568140125,595.1686870384884,921.8138497359491
139579,2532,139579,16934,139579,29869,-64.3519752261825,589.6936928182771,913.7758122945731
139579,2525,139579,16937,139579,29873,-64.22685409581686,584.0789574260693,905.5064169911406
139579,2532,139579,16971,139579,29893,-64.07835751707327,578.3233796193448,897.0037148062231
139579,2521,139579,16986,139579,29905,-63.90608490591937,572.4256728527542,888.2658462456105
139589,2531,139589,16977,139589,29893,-63.70971769896808,566.3849402298811,879.2914780147538
139589,2527,139589,16953,139589,29874,-63.48903444222175,560.2011428160012,870.080172548047
139589,2529,139589,16933,139589,29853,-63.24389023241871,553.8750768296619,860.6323808036343
139589,2526,139589,16937,139589,29859,-62.974194921502715,547.4080216108542,850.949185831181
139589,2525,139589,16970,139589,29886,-62.679926515946434,540.8015237974223,841.0321856531647
139589,2521,139589,16964,139589,29874,-62.36117572626932,534.0576353930912,830.88377243661
139600,2528,139600,16951,139600,29861,-62.01819738233722,527.1793810419649,820.5075711256295
139600,2531,139600,16923,139600,29844,-61.65141204699914,520.170952556904,809.9086205669828
139600,2529,139600,16888,139600,29823,-61.261337582799015,513.0374302538793,799.0932362970489
139600,2532,139600,16943,139600,29825,-60.848517441463166,505.78431630301645,788.0687592229896
139600,2526,139600,16950,139600,29846,-60.41349827688264,498.41748300274315,776.8434530786611
139600,2525,139600,16940,139600,29837,-59.95685888806348,490.94370781421884,765.4267406470245
139610,2534,139610,16917,139610,29814,-59.47925809464358,483.37117975112653,753.8295842016806
139610,2526,139610,16864,139610,29785,-58.98143879066802,475.7094304969533,742.0645828543222
139610,2531,139610,16850,139610,29761,-58.46420029745321,467.9687122461069,730.1456630051922
139610,2529,139610,16878,139610,29786,-57.92839565563193,460.15927527947645,718.0876670722168
139610,2533,139610,16898,139610,29799,-57.37493359350275,452.2911763491597,705.9063034819771
139610,2528,139610,16874,139610,29762,-56.80476490700782,444.374700515019,693.6185262480194
139620,2535,139620,16857,139620,29741,-56.21887548286129,436.42076470467583,681.242807339627
139620,2536,139620,16826,139620,29727,-55.61826974452268,428.44083720513913,668.7989511863484
139620,2536,139620,16840,139620,29682,-55.00392020491231,420.4465487956074,656.3076713059783
139620,2534,139620,16847,139620,29711,-54.376723568209975,412.4494525128095,643.7901813838055
139620,2530,139620,16869,139620,29686,-53.73751394253897,404.4612048755344,631.2679903661731
139620,2531,139620,16829,139620,29691,-53.08712706314176,396.4939941523477,618.7629838559664
139631,2532,139631,16797,139631,29629,-52.42646692911045,388.5606992431573,606.2974936267303
139631,2536,139631,16782,139631,29607,-51.756526256625726,380.6745015294198,593.893982183498
139631,2537,139631,16783,139631,29611,-51.07835262426177,372.8482912875487,581.5744225993669
139631,2528,139631,16800,139631,29627,-50.393012895018316,365.0943802445274,569.3599152621339
139631,2536,139631,16798,139631,29626,-49.70161659280491,357.4246514030989,557.2708686645158
139631,2541,139631,16781,139631,29593,-49.00534760583489,349.85088062964564,545.3274116634877
139641,2533,139641,16749,139641,29577,-48.30542727972614,342.38483499187265,533.5495204957815
139641,2537,139641,16717,139641,29544,-47.603077668446694,335.0379430686842,521.9567425198131
139641,2541,139641,16750,139641,29546,-46.8995354966965,327.82075136839785,510.5677609086574
139641,2540,139641,16762,139641,29541,-46.196041916851875,320.74270884569387,499.4000890565578
139641,2538,139641,16750,139641,29537,-45.49380397315716,313.81248762007897,488.4700256385565
139641,2534,139641,16751,139641,29519,-44.7940046342549,307.038402463883,477.7927463096559
139651,2542,139651,16725,139651,29505,-44.09785730736711,300.42854629154493,467.38230890581906
139651,2546,139651,16678,139651,29488,-43.406613728229345,293.99058066682767,457.2515008242816
139651,2539,139651,16726,139651,29508,-42.72149887915805,287.73127213505916,447.4116657411607
139651,2540,139651,16722,139651,29506,-42.04367408089162,281.65623959083723,437.8727440033015
139651,2536,139651,16732,139651,29485,-41.37428690645801,275.77023221034005,428.64352025393777
139651,2543,139651,16694,139651,29484,-40.71453907269539,270.07751278327527,419.7317744094889
139662,2544,139662,16672,139662,29446,-40.06569537036651,264.58182012074,411.14417582662645
139662,2548,139662,16659,139662,29430,-39.429025498939296,259.285898258389,402.88595683470294
139662,2546,139662,16707,139662,29475,-38.80572733482689,254.1910496975662,394.96055160215445
139662,2541,139662,16724,139662,29475,-38.19689432794536,249.2972549542747,387.36963526803635
139662,2552,139662,16727,139662,29472,-37.603535083077006,244.60385229983308,380.113625960234
139662,2548,139662,16667,139662,29444,-37.02657223691253,240.11010581241396,373.19209311813626
139672,2549,139672,16660,139672,29427,-36.46679428992026,235.8150667818923,366.603697712943
139672,2555,139672,16675,139672,29430,-35.92481500385284,231.7169612190259,360.34583234638274
139672,2550,139672,16709,139672,29458,-35.40104236363804,227.81289275289015,354.4143882769625
139672,2551,139672,16723,139672,29476,-34.89565303680042,224.0992211969637,348.803975276523
139672,2543,139672,16716,139672,29461,-34.40861886269657,220.5722465328071,343.5084709992366
139672,2540,139672,16654,139672,29430,-33.939801554972426,217.22856095061422,338.5213819589357
139682,2546,139682,16649,139682,29437,-33.4890710950456,214.0646865796705,333.8357107264468
139682,2554,139682,16681,139682,29449,-33.05634663392288,211.07636531428756,329.44364930280517
139682,2549,139682,16719,139682,29446,-32.641515384344856,208.25835890837874,325.3365380418967
139682,2544,139682,16740,139682,29460,-32.24434890558033,205.6050569631474,321.50506406619314
139682,2553,139682,16673,139682,29447,-31.864513923548408,203.1112514525936,317.9394687489378
139682,2548,139682,16663,139682,29443,-31.501598768965422,200.7722259757842,314.6296411134021
139693,2547,139693,16658,139693,29436,-31.155100803793474,198.58311740426237,311.5650488930547
139693,2555,139693,16688,139693,29459,-30.82441937089083,196.5383292121879,308.73462293058174
139693,2548,139693,16719,139693,29441,-30.50884214094306,194.63156936317876,306.1267753664695
139693,2546,139693,16695,139693,29459,-30.20752892364534,192.85636115555138,303.7295094758139
139693,2552,139693,16692,139693,29451,-29.919539511535774,191.20645248850175,301.53050010279446
139693,2552,139693,16659,139693,29430,-29.64385094313669,189.67574127129163,299.5170965092951
139703,2546,139703,16665,139703,29423,-29.37932778881295,188.2578446711853,297.6761347075865
139703,2539,139703,16684,139703,29483,-29.12474060688527,186.94570095457323,295.993697299697
139703,2546,139703,16705,139703,29474,-28.878869033026586,185.73155018651562,294.4552826561784
139703,2538,139703,16715,139703,29469,-28.640594426908812,184.60731830086283,293.046319121799
139703,2546,139703,16679,139703,29454,-28.40893152142582,183.56502432862078,291.75241962030793
139703,2552,139703,16649,139703,29451,-28.183005181191056,182.59673344421574,290.5592010618535
139713,2548,139713,16690,139713,29466,-27.961962183963937,181.69405608757347,289.45200495475035
139713,2554,139713,16714,139713,29484,-27.744868647231588,180.84786327168814,288.4158394350749
139713,2535,139713,16739,139713,29504,-27.530682172063806,180.04868177869818,287.4356423491554
139713,2544,139713,16718,139713,29506,-27.318333137765013,179.28738300509843,286.496728256448
139713,2553,139713,16711,139713,29480,-27.106822089292816,178.55554447355004,285.5851162758417
139713,2543,139713,16684,139713,29467,-26.895197662244296,177.84529811900666,284.68745997248146
139724,2545,139724,16696,139724,29480,-26.68248793134238,177.14889430151138,283.79065259044813
139724,2543,139724,16742,139724,29500,-26.467716754912683,176.45842702101314,282.8815512587767
139724,2546,139724,16728,139724,29518,-26.249950506451793,175.7660524755383,281.9471180820479
139724,2544,139724,16703,139724,29499,-26.028304394386648,175.06438753989656,280.97479235620574
139724,2549,139724,16691,139724,29502,-25.80192256595607,174.34647118167504,279.95269363038756
139724,2548,139724,16691,139724,29479,-25.569942142562706,173.60530524244035,278.86950019100203
139734,2545,139734,16736,139734,29509,-25.33145538068531,172.8335313341105,277.7141895333804
139734,2534,139734,16743,139734,29505,-25.085530697874603,172.02362453715938,276.47592855558287
139734,2553,139734,16762,139734,29525,-24.83129664014796,171.1684746175185,275.1442170398448
139734,2549,139734,16713,139734,29503,-24.56795525503589,170.2618551402345,273.70910668205147
139734,2538,139734,16695,139734,29499,-24.294700613715335,169.29833548646582,272.1612430407717
139734,2539,139734,16703,139734,29499,-24.01072261882647,168.27269263922312,270.4916801325074
139744,2544,139744,16731,139744,29523,-23.71531636091125,167.1794259853561,268.69170677391014
139744,2541,139744,16741,139744,29550,-23.407933127820296,166.01282861891104,266.7529864931179
139744,2540,139744,16742,139744,29518,-23.08816094673117,164.76741295113723,264.66796676633516
139744,2541,139744,16723,139744,29511,-22.75572574335602,163.43822130441214,262.4301045312249
139744,2541,139744,16700,139744,29496,-22.410511107819868,162.02075453248221,260.03363906332567
139744,2549,139744,16708,139744,29497,-22.052546083025625,160.51058156213156,257.4731694390803
139755,2538,139755,16732,139755,29535,-21.681958955638148,158.9030064156438,254.7434273514011
139755,2547,139755,16735,139755,29531,-21.29895168931487,157.1931287961552,251.83944984809017
139755,2543,139755,16756,139755,29517,-20.903807138530354,155.37621136642366,248.75695990685796
139755,2541,139755,16714,139755,29501,-20.496892609515246,153.44800579515552,245.4924895474381
139755,2548,139755,16698,139755,29493,-20.078663806358534,151.4047058303072,242.04312216911438
139755,2555,139755,16720,139755,29504,-19.649636770897008,149.24252955985799,238.40615373591726
139765,2546,139765,16748,139765,29510,-19.210293398989226,146.95746726995662,234.57896432036932
139765,2547,139765,16754,139765,29524,-18.761019679300034,144.5455815528439,230.55916282791543
139765,2546,139765,16739,139765,29520,-18.30214342203411,142.0035238532352,226.34487546517215
139765,2548,139765,16713,139765,29498,-17.833990516235936,139.32872117095036,221.93495339134023
139765,2547,139765,16692,139765,29477,-17.356898992857047,136.51906707996588,217.3288790240569
139765,2547,139765,16712,139765,29496,-16.871215167099713,133.57239237430076,212.5264196049448
139775,2551,139775,16737,139775,29510,-16.37729006232363,130.48621122339986,207.52743076176716
139775,2560,139775,16767,139775,29495,-15.875439677534843,127.25803837038248,202.33202458806747
139775,2554,139775,16738,139775,29475,-15.365844803133314,123.88603460264939,196.94076428142517
139775,2547,139775,16703,139775,29451,-14.848479419094833,120.3693511915712,191.3545048748477
139775,2552,139775,16695,139775,29465,-14.323156713668638,116.707819205592,185.57397920474617
139775,2546,139775,16723,139775,29488,-13.78962391661835,112.90139453942749,179.59956823562842
139786,2550,139786,16738,139786,29484,-13.247618932101807,108.95003256555358,173.43151475311632
139786,2539,139786,16729,139786,29470,-12.696915086452009,104.8540571682189,167.07031327818459
139786,2552,139786,16709,139786,29454,-12.137382330278733,100.61450608595234,160.51684311344403
139786,2556,139786,16686,139786,29441,-11.568996095186376,96.23306197006721,153.77217569498373
139786,2555,139786,16682,139786,29457,-10.991739168987673,91.71164804955833,146.83731120849203
139786,2543,139786,16702,139786,29448,-10.405511942749984,87.05205666684321,139.7131054944818
139796,2552,139796,16711,139796,29473,-9.810174477388813,82.25593846639498,132.40044184890564
139796,2559,139796,16714,139796,29460,-9.205615159629241,77.32513396348261,124.90054447728352
139796,2546,139796,16679,139796,29432,-8.591720480970038,72.26198316598126,117.21522917213042
139796,2544,139796,16665,139796,29425,-7.968361294680744,67.06926105865483,109.3468442756373
139796,2559,139796,16678,139796,29423,-7.335472455271251,61.749809703169944,101.29797674429147
139796,2547,139796,16694,139796,29424,-6.693082160230743,56.30633434377097,93.07126727115633
139807,2551,139807,16691,139807,29446,-6.041272782160455,50.74161032005759,84.66949830243368
139807,2562,139807,16693,139807,29405,-5.380166281212134,45.05884773139468,76.09584962633329
139807,2558,139807,16636,139807,29391,-4.709873484109995,39.26182925189295,67.35399359747214
139807,2550,139807,16621,139807,29377,-4.03041329758554,33.3545720726344,58.447825495681286
139807,2561,139807,16655,139807,29390,-3.3417192285438375,27.340718246509482,49.38111424437642
139807,2552,139807,16657,139807,29369,-2.643688688613068,21.2233029226239,40.15739918155526
139817,2551,139817,16680,139817,29388,-1.9362103257415129,15.005124985436339,30.780080144324245
139817,2558,139817,16632,139817,29392,-1.2192078359116572,8.689240375077787,21.252611705267043
139817,2562,139817,16598,139817,29357,-0.4926516888188708,2.279007304222432,11.578767041946946
139817,2552,139817,16576,139817,29329,0.24349765705190052,-4.222484697216771,1.7626778838442192
139817,2551,139817,16613,139817,29325,0.9892956497314067,-10.813128464112566,-8.191529698254271
139817,2552,139817,16668,139817,29337,1.7447180556999449,-17.491880616666634,-18.28012940580021
139827,2556,139827,16644,139827,29339,2.509577215737984,-24.258012465069527,-28.49980602328776
139827,2561,139827,16605,139827,29297,3.2835331188541907,-31.110307548006546,-38.84742975598908
139827,2561,139827,16585,139827,29304,4.0661729922221,-38.04703353781673,-49.320026780726494
139827,2561,139827,16577,139827,29278,4.857090611105708,-45.06651856274863,-59.914998730354625
139827,2562,139827,16610,139827,29315,5.655920819555135,-52.16759536674516,-70.63025931996242
139827,2561,139827,16609,139827,29303,6.462339393168378,-59.34951063835024,-81.46404940224437
139838,2564,139838,16601,139838,29287,7.276056587749778,-66.6114877541265,-92.41455599483652
139838,2566,139838,16542,139838,29242,8.096824621693543,-73.95250353542775,-103.47977044144523
139838,2570,139838,16544,139838,29224,8.924475291139384,-81.37162914967604,-114.65784075704505
139838,2560,139838,16549,139838,29228,9.758961417354158,-88.86861341655049,-125.94764097161772
139838,2564,139838,16576,139838,29220,10.600337372774831,-96.4440811933093,-137.34909814512793
139838,2559,139838,16583,139838,29254,11.448678687737946,-104.09916471251455,-148.86310102524317
139848,2558,139848,16558,139848,29231,12.303997401288552,-111.83494426833246,-160.4910935630727
139848,2564,139848,16515,139848,29195,13.166179463320105,-119.65224057796036,-172.23469527308475
139848,2572,139848,16519,139848,29193,14.034986686603567,-127.55196115842449,-184.09573087912787
139848,2570,139848,16520,139848,29200,14.910153608090965,-135.5355878527456,-196.07649718128908
139848,2560,139848,16538,139848,29221,15.791476056929632,-143.60529144922697,-208.1797328250774
139848,2567,139848,16550,139848,29185,16.678778109150088,-151.76361061068053,-220.40822816672568
139858,2575,139858,16549,139858,29176,17.571844455567586,-160.01292575241405,-232.7645264406496
139858,2571,139858,16504,139858,29146,18.470457825393552,-168.35506575524948,-245.2510055355167
139858,2567,139858,16463,139858,29146,19.37447266617896,-176.79143194807875,-257.87017030667585
139858,2569,139858,16489,139858,29144,20.283797592787188,-185.3236028737134,-270.6248538139848
139858,2571,139858,16516,139858,29146,21.19833113202582,-193.9537256540561,-283.51817360149175
139858,2571,139858,16511,139858,29141,22.11794183376314,-202.6842041626481,-296.5532894757605
139869,2572,139869,16489,139869,29129,23.04248263377624,-211.51711499035724,-309.7331347028463
139869,2570,139869,16447,139869,29095,23.97179495103814,-220.45404324397214,-323.0603006380933
139869,2572,139869,16439,139869,29105,24.905692405799222,-229.49647167899985,-336.53713945650895
139869,2573,139869,16475,139869,29089,25.843942377339935,-238.64624754032843,-350.1658966960432
139869,2567,139869,16490,139869,29091,26.786251479000654,-247.9055158982743,-363.94867116767193
139869,2584,139869,16495,139869,29084,27.73225495841585,-257.2760708538942,-377.8872466838527
139879,2566,139879,16426,139879,29053,28.681536340923167,-266.75876404635216,-391.98294327295764
139879,2580,139879,16412,139879,29036,29.633648995948363,-276.3535997869871,-406.23664567539765
139879,2580,139879,16425,139879,29025,30.58811535521287,-286.0603488251285,-420.6490293176481
139879,2582,139879,16438,139879,29035,31.54446855591113,-295.87889149263435,-435.2207327948613
139879,2574,139879,16430,139879,29045,32.502308191933935,-305.8089765565416,-449.9522178057317
139879,2575,139879,16443,139879,29026,33.461269002350704,-315.8497742214839,-464.8433509263007
139889,2584,139889,16374,139889,28981,34.42094500853509,-325.9996219682161,-479.89308564937676
139889,2585,139889,16351,139889,28966,35.38089458273949,-336.2562526502296,-495.0995988491866
139889,2585,139889,16384,139889,28974,36.340728485034234,-346.6174016910649,-510.46068338232305
139889,2585,139889,16402,139889,28974,37.30017564905922,-357.0810507481638,-525.9738707168474
139889,2575,139889,16406,139889,28982,38.259068040860356,-367.6449315051818,-541.6361278360671
139889,2590,139889,16358,139889,28957,39.21727090813546,-378.30588058882256,-557.4434017038423
139900,2592,139900,16320,139900,28901,40.17466568285049,-389.05977018121064,-573.3904100686885
139900,2585,139900,16318,139900,28872,41.13123208720121,-399.9020569303706,-589.4709762276808
139900,2587,139900,16338,139900,28875,42.0870999285309,-410.8283199131819,-605.6787035238154
139900,2580,139900,16340,139900,28897,43.04249165874416,-421.83424139057865,-622.0073381354341
139900,2582,139900,16330,139900,28861,43.99762045356444,-432.9151762062618,-638.4505471609639
139900,2587,139900,16310,139900,28842,44.952612612130714,-444.06580376059526,-655.0015837299006
139910,2582,139910,16268,139910,28818,45.90748867436948,-455.2801500827927,-671.6533068279086
139910,2593,139910,16245,139910,28810,46.86218706284972,-466.5520024351954,-688.3984305864212
139910,2585,139910,16284,139910,28799,47.81659989264542,-477.87541510573396,-705.2296875680647
139910,2596,139910,16272,139910,28796,48.77061285593402,-489.2447824435809,-722.139809145272
139910,2594,139910,16264,139910,28774,49.72415120798683,-500.6544530222146,-739.1213940390959
139910,2591,139910,16235,139910,28756,50.67722781022311,-512.0984315186898,-756.1668150114875
139920,2592,139920,16202,139920,28717,51.62994871061049,-523.5704963379402,-773.2683056131739
139920,2591,139920,16208,139920,28720,52.582468166196094,-535.0645955634972,-790.4182191395374
139920,2598,139920,16228,139920,28718,53.5349578636771,-546.5751085952367,-807.6092171990566
139920,2589,139920,16228,139920,28721,54.4876146180628,-558.0966357084254,-824.8341392249134
139920,2586,139920,16205,139920,28693,55.44063976162933,-569.623518090727,-842.0856563799383
139920,2594,139920,16160,139920,28669,56.39415581427717,-581.1496389880404,-859.3560622182638
139931,2589,139931,16154,139931,28649,57.34814542575522,-592.6687368486697,-876.6373683132219
139931,2603,139931,16156,139931,28648,58.3024732979584,-604.1748805590865,-893.9215209439288
139931,2599,139931,16185,139931,28646,59.25696882687856,-615.6625767568155,-911.2004476838009
139931,2602,139931,16191,139931,28636,60.211524945839976,-627.1263373969151,-928.4658572516937
139931,2602,139931,16138,139931,28598,61.16615651036347,-638.560082142719,-945.709011451515
139931,2602,139931,16096,139931,28570,62.12101215613418,-649.9570415674432,-962.9207710055799
139941,2595,139941,16097,139941,28556,63.0763558191138,-661.3103333805493,-980.0919398495229
139941,2597,139941,16091,139941,28564,64.03249970002835,-672.6135966836986,-997.213574269268
139941,2598,139941,16151,139941,28569,64.98971699769342,-683.8610591451301,-1014.2769273103216
139941,2587,139941,16105,139941,28543,65.94817487660353,-695.0470008713708,-1031.273081367206
139941,2600,139941,16088,139941,28526,66.9078654003779,-706.165187880477,-1048.1926456520682
139941,2606,139941,16057,139941,28488,67.86858097198233,-717.2088683168287,-1065.025781918565
139951,2600,139951,16057,139951,28480,68.8300010636684,-728.1711939981061,-1081.7624899396008
139951,2608,139951,16070,139951,28489,69.79179512794744,-739.0455170594022,-1098.3928636642663
139951,2602,139951,16068,139951,28492,70.75365670281539,-749.8252927593879,-1114.9070127951275
139951,2599,139951,16045,139951,28459,71.71528895848022,-760.5037687753304,-1131.2947027250862
139951,2615,139951,16017,139951,28434,72.67637205132996,-771.0738720161071,-1147.545148256729
139951,2611,139951,15994,139951,28416,73.63659526717063,-781.5284793547031,-1163.647184046927
139962,2607,139962,15992,139962,28403,74.59575396360538,-791.8608701348481,-1179.589579397897
139962,2600,139962,16021,139962,28415,75.55375751863112,-802.0649721243375,-1195.3611901487632
139962,2608,139962,16032,139962,28409,76.51051996014311,-812.1351117393215,-1210.950816488657
139962,2602,139962,16024,139962,28383,77.46586684548588,-822.0653962337321,-1226.3468945481309
139962,2605,139962,15983,139962,28379,78.41950494055658,-831.8492461157819,-1241.5373175976945
139962,2612,139962,15964,139962,28345,79.37101827795603,-841.479468564713,-1256.5094843687996
139972,2614,139972,15990,139972,28345,80.31991286449784,-850.9486575472383,-1271.2504595376672
139972,2608,139972,16012,139972,28353,81.26569790861961,-860.2492813698198,-1285.7470767865266
139972,2605,139972,16022,139972,28373,82.20789834981156,-869.3731745867449,-1299.9857460625751
139972,2616,139972,15960,139972,28320,83.14599061094225,-878.3109181811236,-1313.9520079619256
139972,2617,139972,15939,139972,28306,84.07939313062732,-887.0518125419044,-1327.6303294693666
139972,2609,139972,15927,139972,28301,85.00753597717089,-895.584486039955,-1341.0043479431938
139982,2609,139982,15930,139982,28310,85.9298719499769,-903.8975162390027,-1354.0571166054585
139982,2615,139982,15969,139982,28317,86.8458028785218,-911.9795682920706,-1366.7709736308668
139982,2620,139982,15976,139982,28297,87.75465672592836,-919.8189760137325,-1379.1271709729297
139982,2618,139982,15937,139982,28289,88.65576206202965,-927.4031059838225,-1391.1056014635033
139982,2623,139982,15904,139982,28266,89.54853290721262,-934.7181567027566,-1402.684786692958
139982,2620,139982,15895,139982,28252,90.43251337479185,-941.7496137940553,-1413.842057515934
139993,2607,139993,15923,139993,28253,91.30736391681984,-948.4828092221098,-1424.5537841917521
139993,2614,139993,15945,139993,28247,92.17275276159835,-954.9029556139071,-1434.7955010639735
139993,2615,139993,15920,139993,28227,93.02822540894103,-960.9946784193075,-1444.5419063045751
139993,2616,139993,15913,139993,28230,93.87317159447926,-966.7416271984954,-1453.7668892918923
139993,2617,139993,15863,139993,28205,94.70686140637308,-972.1265834230102,-1462.4436410803955
139993,2621,139993,15866,139993,28207,95.52847974392078,-977.1319944876748,-1470.5448022598237
140002,2616,140002,15930,140002,28230,96.3371550936988,-981.7404386743376,-1478.0425499070095
140002,2618,140002,15928,140002,28214,97.13196645944116,-985.9344104690192,-1484.9084646412653
140002,2619,140002,15904,140002,28208,97.91192037890806,-989.6956150036476,-1491.11329606005
140002,2609,140002,15893,140002,28203,98.67591627117491,-993.004628226278,-1496.6269148436556
140002,2626,140002,15862,140002,28196,99.42270419440807,-995.8411844544344,-1501.4184342622095
140002,2619,140002,15881,140002,28189,100.15088564294956,-998.1846932653789,-1505.456356350661
140012,2620,140012,15928,140012,28210,100.85897361369867,-1000.0144925864837,-1508.708681013311
140012,2620,140012,15938,140012,28228,101.54542091937151,-1001.3094946177144,-1511.1428333678386
140012,2629,140012,15884,140012,28215,102.20861679622047,-1002.0475733367896,-1512.7253678669063
140012,2617,140012,15878,140012,28185,102.84691863848265,-1002.2055118547753,-1513.4217942848463
140012,2621,140012,15834,140012,28174,103.45866427109053,-1001.759676281794,-1513.196874730397
140012,2622,140012,15899,140012,28203,104.04212433946668,-1000.6868056840594,-1512.0151782832472
140023,2619,140023,15913,140023,28210,104.59546570048471,-998.9642449901846,-1509.8413560794029
140023,2614,140023,15915,140023,28210,105.116729918466,-996.5695224333156,-1506.640034777413
140023,2621,140023,15890,140023,28199,105.60378038062129,-993.479913782041,-1502.3757261955784
140023,2621,140023,15878,140023,28170,106.05427071235185,-989.6725587065271,-1497.0130780574887
140023,2627,140023,15857,140023,28187,106.46569122566618,-985.1250409692994,-1490.5174467517145
140023,2633,140023,15884,140023,28207,106.83547323874791,-979.816052713692,-1482.855449209293
140033,2626,140033,15925,140033,28211,107.161108848342,-973.7257246568864,-1473.9951691932624
140033,2632,140033,15932,140033,28220,107.44022754863829,-966.8354002630101,-1463.9061485925429
140033,2629,140033,15893,140033,28201,107.6706156105335,-959.1272633297376,-1452.5595108044495
140033,2614,140033,15879,140033,28182,107.85019246347208,-950.5845157506269,-1439.9284134868724
140033,2622,140033,15870,140033,28188,107.97690772510515,-941.1921748312936,-1425.9888235102558
140033,2625,140033,15937,140033,28220,108.04862370612315,-930.9378410798064,-1410.7202952182897
140044,2626,140044,15938,140044,28246,108.06311904650018,-919.81184197329,-1394.1063459957015
140044,2627,140044,15952,140044,28255,108.01817914916919,-907.8068978045787,-1376.1344399147924
140044,2626,140044,15937,140044,28256,107.91166622511477,-894.917945368312,-1356.7959806850147
140044,2622,140044,15921,140044,28252,107.74154271212345,-881.1424495866177,-1336.0866259589748
140044,2621,140044,15951,140044,28274,107.50585015953547,-866.4810393112,-1314.006880767215
140044,2620,140044,16001,140044,28325,107.20266185842596,-850.9379796589124,-1290.562626180123
140054,2619,140054,16015,140054,28353,106.83004570785569,-834.5210922995823,-1265.7652452103866
140054,2631,140054,16027,140054,28381,106.3860738066039,-817.2413866384252,-1239.631426708378
140054,2621,140054,16022,140054,28386,105.86890109331841,-799.112952090724,-1212.183051622309
140054,2622,140054,16015,140054,28405,105.2768483374762,-780.1532952486791,-1183.4474079731021
140054,2625,140054,16068,140054,28456,104.6084187097201,-760.383894821573,-1153.4575962165732
140054,2622,140054,16126,140054,28523,103.86230262541497,-739.8304536792097,-1122.2527011452992
140064,2620,140064,16158,140064,28555,103.03740733622541,-718.5225113618098,-1089.877490454896
140064,2624,140064,16173,140064,28590,102.13287488473193,-696.4927845418483,-1056.3819483370721
140064,2612,140064,16179,140064,28640,101.14808643320522,-673.7768416004211,-1021.8210231097493
140064,2623,140064,16203,140064,28683,100.08265501770425,-650.4132438258782,-986.2545184602576
140064,2620,140064,16276,140064,28769,98.93643507922016,-626.4437635269936,-949.7468533201779
140064,2616,140064,16319,140064,28811,97.70958116321663,-601.9131759274437,-912.3665528474148
140075,2614,140075,16364,140075,28870,96.40258900885385,-576.8685870629756,-874.1855959269981
140075,2613,140075,16392,140075,28913,95.01627854785804,-551.3587293120416,-835.278886130936
140075,2599,140075,16368,140075,28965,93.55174915254099,-525.4336358787501,-795.7239227353249
140075,2602,140075,16439,140075,29028,92.01029294089595,-499.14481002732236,-755.6005459246105
140075,2604,140075,16486,140075,29101,90.39330050726606,-472.5454523462429,-714.9905796351084
140075,2599,140075,16569,140075,29174,88.70225010458336,-445.69012309088004,-673.9772379132553
140085,2593,140085,16609,140085,29248,86.93873975897449,-418.6338378845466,-632.6443164290674
140085,2592,140085,16605,140085,29280,85.10446513025761,-391.4311738021367,-591.0753708530857
140085,2599,140085,16636,140085,29327,83.20118556440056,-364.1359466559568,-549.3531829479084
140085,2593,140085,16668,140085,29397,81.23076934991107,-336.80141724475527,-507.55956833684417
140085,2582,140085,16744,140085,29464,79.19526145643118,-309.48042175340635,-465.77516507234753
140085,2592,140085,16789,140085,29531,77.09687250845086,-282.2250036432507,-424.0789332252358
140095,2589,140095,16821,140095,29576,74.9379638047815,-255.08570924515783,-382.54751871238864
140095,2586,140095,16841,140095,29605,72.72111735506445,-228.111029043523,-341.25480260459494
140095,2575,140095,16859,140095,29647,70.44919371761108,-201.34725622048637,-300.27182163990165
140095,2578,140095,16896,140095,29717,68.12529255814378,-174.83863137235898,-259.6668916032454
140095,2571,140095,16962,140095,29785,65.75268464301028,-148.62741572213378,-219.50551438291222
140095,2569,140095,16993,140095,29841,63.33477992575787,-122.7536020016218,-179.84990054486525
140106,2562,140106,16998,140106,29864,60.875103289459645,-97.25444984082179,-140.75841291015377
140106,2563,140106,17010,140106,29887,58.37725557367958,-72.16435839455835,-102.28536624532637
140106,2559,140106,17021,140106,29925,55.84489012774661,-47.51521261070263,-64.4812803361915
140106,2557,140106,17088,140106,29996,53.28172096337844,-23.33680739518752,-27.393216363463125
140106,2556,140106,17121,140106,30035,50.69154417452218,0.34311884403734894,8.93522599579353
140106,2549,140106,17164,140106,30097,48.07825631380357,23.499296882566,44.46424417453716
140116,2543,140116,17139,140116,30101,45.445845317548056,46.109337227094215,79.15817055361083
140116,2537,140116,17162,140116,30118,42.79832956852414,68.15366376947941,112.98547990783118
140116,2533,140116,17179,140116,30168,40.13966722862235,89.61502794006606,145.91841297985923
140116,2529,140116,17230,140116,30213,37.473678210195516,110.47811397849955,177.93261993018882
140116,2532,140116,17265,140116,30257,34.8040069906232,130.72958396696527,209.0071787205942
140116,2527,140116,17279,140116,30252,32.13414233623828,150.3584315834795,239.1247686400643
140126,2522,140126,17293,140126,30266,29.46746143764699,169.35625442977755,268.2715301532985
140126,2524,140126,17271,140126,30319,26.807247749777716,187.71715792303542,296.4365752127894
140126,2518,140126,17278,140126,30358,24.15669861625029,205.43724448290527,323.6116483503913
140126,2514,140126,17365,140126,30400,21.518940784544,222.51404034060442,349.7912404428092
140126,2506,140126,17385,140126,30434,18.89701323372867,238.94651578836613,374.9729267425
140126,2508,140126,17400,140126,30444,16.293811142271032,254.73570704698955,399.1576257958458
140137,2499,140137,17377,140137,30453,13.712039466896321,269.88513434391393,422.3495931467696
140137,2500,140137,17388,140137,30464,11.154190205042923,284.40056083126785,444.55609313686796
140137,2501,140137,17421,140137,30501,8.62253920585956,298.2894544797631,465.7869490206923
140137,2497,140137,17444,140137,30530,6.119184709451602,311.5607234578745,486.0542868702902
140137,2496,140137,17457,140137,30559,3.646109326319305,324.2248360655059,505.37257616842203
140137,2489,140137,17459,140137,30560,1.205212771347675,336.2939829288358,523.7587623074323
140147,2488,140147,17440,140147,30561,-1.2016968550021119,347.781969467457,541.2321910193948
140147,2492,140147,17443,140147,30573,-3.572912826016477,358.70376741412576,557.8142290802712
140147,2476,140147,17493,140147,30601,-5.906810291806551,369.0749941029122,573.5278093506263
140147,2472,140147,17512,140147,30624,-8.201868411753495,378.9118027173255,588.3972010044399
140147,2473,140147,17507,140147,30621,-10.456776666745967,388.23119716341216,602.4479981402642
140147,2473,140147,17502,140147,30646,-12.670510048052023,397.05121857149754,615.7070730303926
140157,2473,140157,17489,140157,30633,-14.842296263723625,405.3906851544705,628.2023818805606
140157,2465,140157,17515,140157,30641,-16.971547849986763,413.26870542913593,639.9626505691308
140157,2467,140157,17538,140157,30684,-19.057838138546614,420.7043709663718,651.017038631273
140157,2473,140157,17551,140157,30707,-21.10088872038125,427.7168284058099,661.3950740044129
140157,2464,140157,17560,140157,30712,-23.100499614521866,434.32553989027156,671.1269304492637
140157,2462,140157,17529,140157,30690,-25.056474768667,440.55037715054857,680.2436095698813
140168,2462,140168,17523,140168,30698,-26.9686177767248,446.41131993306794,688.7766763560708
140168,2449,140168,17540,140168,30722,-28.836767464561902,451.9278775330954,696.7577759310577
140168,2453,140168,17597,140168,30726,-30.66085513680372,457.11876098512323,704.2183676139807
140168,2442,140168,17583,140168,30761,-32.440983489381324,462.0021472926669,711.1897602762076
140168,2452,140168,17581,140168,30730,-34.177480643990265,466.59612630179697,717.7032294162436
140168,2457,140168,17584,140168,30717,-35.87086656585663,470.91877310694986,723.789899243523
140178,2447,140178,17579,140178,30721,-37.52172376030542,474.9879061157095,729.4802288915835
140178,2440,140178,17580,140178,30744,-39.130605798201756,478.8208155360278,734.8034356759197
140178,2443,140178,17610,140178,30761,-40.698082814734136,482.4340750432161,739.787291543141
140178,2440,140178,17622,140178,30786,-42.22481468329154,485.8435777317151,744.4583039146221
140178,2431,140178,17634,140178,30777,-43.71157089703728,489.06481807763976,748.8420189683457
140178,2434,140178,17598,140178,30770,-45.159261895387516,492.11311179250924,752.9631510385911
140188,2440,140188,17574,140188,30765,-46.56896966812387,495.00337058545324,756.8453814826632
140188,2438,140188,17628,140188,30795,-47.94188654090824,497.74951836328296,760.5110184729253
140188,2434,140188,17652,140188,30815,-49.27920258258719,500.3642405040026,763.9808994362886
140188,2428,140188,17640,140188,30810,-50.58206302008594,502.8593693148848,767.2746143482971
140188,2431,140188,17636,140188,30804,-51.85160776562873,505.24629005460304,770.4106970824273
140188,2429,140188,17597,140188,30799,-53.08900599969991,507.53582275599035,773.4065028859045
140199,2431,140199,17629,140199,30791,-54.29543518005852,509.7377130493637,776.277858406407
140199,2425,140199,17654,140199,30832,-55.47203681890136,511.8602537620251,779.0387447743265
140199,2424,140199,17681,140199,30850,-56.61990160742212,513.9104518460501,781.7013046499269
140199,2430,140199,17678,140199,30861,-57.74007575658345,515.8945723979309,784.2762254019635
140199,2432,140199,17658,140199,30844,-58.833515665724775,517.8185192078494,786.7731236364828
140199,2417,140199,17646,140199,30836,-59.90100100473862,519.6877339103576,789.2005522942013
140209,2420,140209,17658,140209,30850,-60.94313165020306,521.5067653268461,791.565684647938
140209,2419,140209,17681,140209,30858,-61.96041249803544,523.2789560711369,793.8740351507074
140209,2418,140209,17710,140209,30872,-62.95329863890724,525.0065538810424,796.1294293984033
140209,2421,140209,17683,140209,30896,-63.922170524129854,526.6911038849719,798.3341683921378
140209,2411,140209,17687,140209,30870,-64.86729981912681,528.3336623459159,800.4892432936695
140209,2409,140209,17660,140209,30861,-65.7888646204457,529.9345910107036,802.5943395411564
140219,2419,140219,17687,140219,30902,-66.68700188539404,531.4931465481027,804.6475675610775
140219,2413,140219,17712,140219,30934,-67.56179588284057,533.0072657661115,806.6454037588701
140219,2409,140219,17745,140219,30938,-68.41320873237402,534.4738198377836,808.5831474323832
140219,2406,140219,17750,140219,30929,-69.24107445274184,535.8892283202899,810.4554565976744
140219,2413,140219,17699,140219,30930,-70.04514640268647,537.2499251110032,812.2564893268693
140219,2406,140219,17705,140219,30928,-70.82509693395737,538.5522089753463,813.9797195772821
140230,2400,140230,17716,140230,30941,-71.58049557292162,539.7916770891575,815.6177211436625
140230,2404,140230,17757,140230,30966,-72.31084669020119,540.9629439514531,817.1621182737936
140230,2401,140230,17791,140230,30969,-73.01564215049437,542.0599999645499,818.6037699735352
140230,2397,140230,17743,140230,30971,-73.69437229437618,543.076869869832,819.9330385179733
140230,2403,140230,17726,140230,30972,-74.34652764793152,544.0078406679097,821.1399117606672
140230,2393,140230,17738,140230,30965,-74.97160149548408,544.8470102991375,822.2139390793586
140240,2398,140240,17774,140240,30992,-75.56909333218708,545.5878210533178,823.14411080284
140240,2392,140240,17794,140240,31034,-76.13852940273208,546.2231951382637,823.9189404957124
140240,2399,140240,17805,140240,31017,-76.67947403420136,546.7461147702592,824.5269002124948
140240,2388,140240,17770,140240,31009,-77.1915176125747,547.1500985842318,824.9568427979854
140240,2390,140240,17768,140240,31012,-77.67428573893872,547.4291860336881,825.1979987670758
140240,2399,140240,17767,140240,31017,-78.12746553139064,547.577531177239,825.2397343078435
140250,2390,140250,17797,140250,31035,-78.55077420757586,547.5890816231909,825.0714451478774
140250,2396,140250,17807,140250,31070,-78.9438901957989,547.4576585258258,824.6827282911748
140250,2383,140250,17838,140250,31065,-79.3064378518917,547.1773730711074,824.0638137549379
140250,2384,140250,17784,140250,31054,-79.63804805349343,546.7430558540341,823.2059834382173
140250,2386,140250,17774,140250,31052,-79.93845016170836,546.1502480469201,822.1016455465825
140250,2386,140250,17800,140250,31056,-80.20751441271757,545.3947241720656,820.7441397328741
140261,2392,140261,17845,140261,31086,-80.44521236841996,544.4722387387541,819.1276314004101
140261,2373,140261,17883,140261,31094,-80.65156828450786,543.3790392393668,817.2473139477959
140261,2384,140261,17843,140261,31042,-80.82669448826633,542.1127813684724,815.0997026065565
140261,2384,140261,17804,140261,31063,-80.97086624351466,540.6729622145418,812.6825545724668
140261,2386,140261,17803,140261,31077,-81.08450860474292,539.0604788960162,809.9945207790629
140261,2384,140261,17812,140261,31091,-81.16811751272441,537.2768873980527,807.0351061486283
140271,2380,140271,17845,140271,31105,-81.22222237560366,535.3241083407542,803.8050233622115
140271,2384,140271,17854,140271,31100,-81.24740428614915,533.2047152224441,800.3066082732236
140271,2380,140271,17827,140271,31072,-81.24431926536974,530.9224104501494,796.544029807546
140271,2385,140271,17788,140271,31051,-81.21369615795815,528.482114335708,792.5231060682097
140271,2385,140271,17805,140271,31051,-81.15630915855346,525.8894928986863,788.2507953199807
140271,2390,140271,17812,140271,31081,-81.07292089847553,523.1504383462277,783.7347866529307
140281,2372,140281,17851,140281,31095,-80.96423654303439,520.2710484556254,778.9835746111975
140281,2385,140281,17847,140281,31104,-80.8309437526861,517.2580905043029,774.0069507559998
140281,2386,140281,17833,140281,31051,-80.67377574993519,514.1195225417947,768.8164282160633
140281,2380,140281,17792,140281,31054,-80.49348616520479,510.8646002543189,763.4251557117294
140281,2380,140281,17795,140281,31040,-80.29081051553999,507.5034538122462,757.8474319864199
140281,2381,140281,17816,140281,31047,-80.06649726437466,504.04656545743876,752.098299846213
140292,2380,140292,17818,140292,31064,-79.82134367971624,500.5046534375686,746.1934581494176
140292,2380,140292,17833,140292,31058,-79.5562000394318,496.88895183216243,740.1494447163163
140292,2388,140292,17771,140292,31035,-79.27195430014841,493.21144677608856,733.9838609704477
140292,2389,140292,17749,140292,31011,-78.96946887078377,489.4846133803368,727.7153058859338
140292,2374,140292,17767,140292,30990,-78.64950588980268,485.72069141746476,721.3629397485843
140292,2380,140292,17815,140292,31019,-78.312758354431,481.93123600824543,714.9459806920377
140302,2377,140302,17813,140302,31027,-77.95996481604334,478.1274650365557,708.4835603990058
140302,2385,140302,17760,140302,31016,-77.59196393465736,474.32086865581954,701.9950031070342
140302,2373,140302,17741,140302,30975,-77.20967267822861,470.5231921088348,695.5000476779816
140302,2392,140302,17739,140302,30956,-76.81406099341899,466.74576518163724,689.0185729590503
140302,2381,140302,17766,140302,30949,-76.40610875274909,462.998926692908,682.5699654369881
140302,2374,140302,17787,140302,30970,-75.9867611371935,459.292049587705,676.1726263837683
140313,2372,140313,17808,140313,30982,-75.55699575071161,455.6340752343156,669.8439497620343
140313,2382,140313,17736,140313,30954,-75.11795691367595,452.03405473425215,663.600626612582
140313,2388,140313,17734,140313,30923,-74.67096889707659,448.5010878128561,657.4587593119765
140313,2385,140313,17720,140313,30915,-74.21740579960912,445.0436610227204,651.4334937453839
140313,2380,140313,17754,140313,30949,-73.7585799232505,441.66908113038215,645.5385412411134
140313,2378,140313,17758,140313,30956,-73.29575788471367,438.3834668491559,639.7861564216228
140323,2374,140323,17773,140323,30946,-72.83026192236285,435.19214488072834,634.1875482672225
140323,2382,140323,17757,140323,30945,-72.36356124198022,432.10006960503455,628.7532261583756
140323,2389,140323,17718,140323,30917,-71.8972724090447,429.111930304978,623.4930194708292
140323,2385,140323,17717,140323,30901,-71.4330545741233,426.2317980336668,618.4158149047823
140323,2386,140323,17774,140323,30921,-70.97250268966661,423.4626863636586,613.5291690833642
140323,2386,140323,17773,140323,30940,-70.51711961443758,420.806673478878,608.8391502873276
140333,2393,140333,17742,140333,30932,-70.06831241446895,418.2654559928452,604.3505912174376
140333,2383,140333,17731,140333,30903,-69.6273601957348,415.84053910199106,600.0673781991745
140333,2388,140333,17729,140333,30888,-69.19540199244636,413.5328869540492,595.992329430389
140333,2382,140333,17742,140333,30922,-68.77347704907558,411.3425553041183,592.1268038075239
140333,2387,140333,17755,140333,30923,-68.3625729371575,409.2686524867377,588.4705785506911
140333,2389,140333,17772,140333,30955,-67.96363695103526,407.30960037100573,585.0221817665168
140344,2388,140344,17757,140344,30931,-67.57754265563386,405.4634990245135,581.7793804426302
140344,2392,140344,17722,140344,30904,-67.20503988802051,403.7282672914055,578.739411078116
140344,2396,140344,17716,140344,30909,-66.84670235126066,402.1013205470048,575.8987486246297
140344,2393,140344,17742,140344,30923,-66.50285861125734,400.57905080690176,573.2527194106001
140344,2389,140344,17791,140344,30940,-66.17354695322456,399.15673460701174,570.7954377866448
140344,2384,140344,17801,140344,30944,-65.85855479902887,397.8291278069976,568.520097000097
140354,2381,140354,17745,140354,30945,-65.55753054134209,396.5912051080414,566.4193170000573
140354,2386,140354,17758,140354,30922,-65.27009697008947,395.4382794829317,564.4852984485561
140354,2388,140354,17727,140354,30931,-64.99589142376078,394.3655178688938,562.7097062733599
140354,2381,140354,17778,140354,30942,-64.73453672457575,393.3674887256807,561.083469197539
140354,2381,140354,17781,140354,30948,-64.48563802380005,392.4381645766654,559.5967687186558
140354,2389,140354,17802,140354,30968,-64.24882378283368,391.5713493532146,558.2392461631866
140364,2393,140364,17775,140364,30958,-64.0237236459253,390.76114420320926,557.0002783764971
140364,2395,140364,17744,140364,30932,-63.809846790265325,390.00201078939807,555.869107866501
140364,2385,140364,17733,140364,30942,-63.60647004740988,389.28830679786745,554.8346516804845
140364,2382,140364,17792,140364,30963,-63.41264914112769,388.6137228684855,553.8852119735193
140364,2390,140364,17800,140364,30991,-63.22732068566436,387.97129503219884,553.0085338465067
140364,2384,140364,17808,140364,30963,-63.04935938522495,387.35400702503455,552.1921966653706
140375,2385,140375,17779,140375,30977,-62.87756820744777,386.75530475380197,551.4238818945489
140375,2382,140375,17748,140375,30965,-62.710686562995676,386.16903541964484,550.6913255904632
140375,2380,140375,17754,140375,30968,-62.54743474322341,385.58889246057174,549.9821603481905
140375,2383,140375,17812,140375,31010,-62.38656025304452,385.0079412527161,549.2838676841692
140375,2367,140375,17828,140375,31009,-62.2268881033845,384.4188389640385,548.5840152942488
140375,2380,140375,17819,140375,31006,-62.06740545848529,383.81459093235753,547.8706844739352
140385,2398,140385,17764,140385,30990,-61.9072896080769,383.1889978849198,547.1326793079321
140385,2383,140385,17777,140385,30977,-61.74575382712823,382.536330790423,546.3593439724359
140385,2376,140385,17772,140385,30980,-61.581887214471756,381.8506747164811,545.5401767194794
140385,2383,140385,17826,140385,31020,-61.414703050894545,381.12565018447,544.6645768287182
140385,2380,140385,17842,140385,31027,-61.2432540461412,380.3547752988169,543.7220183072093
140385,2383,140385,17819,140385,31012,-61.06664856121048,379.5321511297416,542.7024988990379
140395,2381,140395,17780,140395,30998,-60.8840204525952,378.6527804648838,541.5967466698016
140395,2378,140395,17777,140395,30991,-60.69452137371034,377.71217001462423,540.3959922337333
140395,2390,140395,17804,140395,31009,-60.49732341939959,376.705699904031,539.0916185771136
140395,2380,140395,17843,140395,31016,-60.29158559573503,375.6284911634872,537.6750429146928
140395,2386,140395,17809,140395,31030,-60.07640235573374,374.4758482700835,536.1378895468043
140395,2382,140395,17830,140395,31014,-59.850790892694384,373.24368596861103,534.472245549876
140406,2378,140406,17780,140406,31004,-59.6137131732252,371.9285317287792,532.6707364851496
140406,2378,140406,17807,140406,31002,-59.36412667024864,370.5272132503241,530.7263414315667
140406,2376,140406,17810,140406,31023,-59.101055733905426,369.0365589728588,528.6321681673634
140406,2380,140406,17835,140406,31039,-58.82363911141883,367.45342334782185,526.3814943094894
140406,2374,140406,17814,140406,31039,-58.531141504452656,365.7749884052622,523.9680968932971
140406,2381,140406,17786,140406,31016,-58.222955499732805,363.99891066306554,521.3865528821734
140416,2381,140416,17781,140416,31012,-57.89858984923109,362.1230321720996,518.6322092711326
140416,2382,140416,17806,140416,31018,-57.557623882656564,360.14492897707464,515.7009140259296
140416,2379,140416,17812,140416,31034,-57.199662471774325,358.061796924442,512.5888662070842
140416,2376,140416,17850,140416,31041,-56.824342153398135,355.8707882242593,509.29276350056415
140416,2378,140416,17830,140416,31041,-56.43138235256298,353.56955195895114,505.81010966274704
140416,2376,140416,17793,140416,30997,-56.020635171542196,351.15656983361185,502.13937437760114
140426,2381,140426,17791,140426,31003,-55.59210137364822,348.63094523187254,498.2797668060888
140426,2372,140426,17791,140426,31006,-55.14592673216937,345.9918722840305,494.23080501313353
140426,2386,140426,17830,140426,31031,-54.682403028827316,343.2383738818176,489.9921487789499
140426,2379,140426,17832,140426,31021,-54.201947388757134,340.36955758498505,485.56382532868963
140426,2378,140426,17797,140426,31030,-53.7050599428126,337.3850616063688,480.94656062072363
140426,2389,140426,17788,140426,30977,-53.19230634942783,334.2851283067682,476.1418923933852
140437,2383,140437,17786,140437,30979,-52.66428873336315,331.0702364034026,471.1518909050466
140437,2381,140437,17775,140437,30988,-52.12159490485599,327.74071686692974,465.97867552520637
140437,2374,140437,17835,140437,30995,-51.564822978144626,324.2966641470786,460.62419459157366
140437,2390,140437,17818,140437,31007,-50.994665180192236,320.7382702101068,455.0904101257869
140437,2399,140437,17784,140437,30966,-50.41188286138767,317.0663081786918,449.37956557143355
140437,2384,140437,17769,140437,30968,-49.81714030683533,313.2821422586839,443.4941762659572
140447,2387,140447,17758,140447,30964,-49.21090576758858,309.38721738139884,437.43675471447125
140447,2376,140447,17788,140447,30972,-48.59353706658521,305.3826052800178,431.20962068787435
140447,2379,140447,17814,140447,30985,-47.965442482620816,301.2690461032445,424.8149923644715
140447,2386,140447,17817,140447,30973,-47.32719345213504,297.04748350620093,418.2552572519536
140447,2387,140447,17774,140447,30962,-46.67952431512734,292.7196155909319,411.5331941332919
140447,2394,140447,17751,140447,30940,-46.02323527618393,288.28788894791575,404.65194763128284
140457,2393,140457,17747,140457,30922,-45.35907545900332,283.7549438375222,397.6147472055985
140457,2390,140457,17768,140457,30961,-44.68766269393966,279.1230912429132,390.4246032093731
140457,2395,140457,17775,140457,30968,-44.00946429990849,274.3942669310934,383.08436643136963
140457,2383,140457,17783,140457,30962,-43.32482467488589,269.57037542757917,375.5972097108996
140457,2395,140457,17750,140457,30931,-42.63401741853189,264.6536332607076,367.96703976382844
140457,2397,140457,17710,140457,30908,-41.937269358510775,259.6465188086781,360.1984262730739
140468,2398,140468,17737,140468,30906,-41.23469778370492,254.55128617959426,352.2961695386692
140468,2388,140468,17756,140468,30924,-40.526239802263795,249.36959349817505,344.26495175936793
140468,2386,140468,17787,140468,30921,-39.81169929128566,244.10276764648268,336.10938142084666
140468,2390,140468,17742,140468,30897,-39.090879059985866,238.75244636556437,327.8342586215945
140468,2396,140468,17718,140468,30879,-38.36365454747491,233.32086710643006,319.44463620342555
140468,2400,140468,17700,140468,30871,-37.629920254248724,227.8104990161152,310.9455692721043
140478,2393,140478,17741,140478,30862,-36.88948581286086,222.22350975090356,302.34180793323566
140478,2390,140478,17743,140478,30890,-36.142049196006,216.56172272414963,293.6376880695649
140478,2391,140478,17765,140478,30885,-35.38727540029237,210.82710923933607,284.83733940408075
140478,2392,140478,17725,140478,30854,-34.62488752368385,205.02233582250082,275.9450386886625
140478,2395,140478,17681,140478,30839,-33.85469536878364,199.1508506357149,266.9652849227582
140478,2400,140478,17682,140478,30828,-33.07656360399591,193.21636115224746,257.90250741759223
140488,2396,140488,17707,140488,30845,-32.29034984459817,187.2222170096223,248.76078297179407
140488,2399,140488,17722,140488,30849,-31.49586122782624,181.17135765642874,239.54388176276774
140488,2394,140488,17704,140488,30845,-30.692859842633958,175.06676194924015,230.25559932134433
140488,2392,140488,17674,140488,30824,-29.88111094900609,168.91177224779065,220.90006888095542
140488,2401,140488,17656,140488,30789,-29.06044363799993,162.70991447291857,211.481764581939
140488,2399,140488,17654,140488,30796,-28.23075918045328,156.46441639092038,202.0051812290689
140499,2406,140499,17693,140499,30802,-27.391968856230832,150.17792184766415,192.47453044273664
140499,2396,140499,17703,140499,30809,-26.543932097641328,143.85274690442682,182.89379506705808
140499,2406,140499,17702,140499,30794,-25.686449590699794,137.49153207779264,173.26704860516355
140499,2400,140499,17644,140499,30762,-24.819283006852977,131.09770372267695,163.59865301821162
140499,2396,140499,17632,140499,30748,-23.94217708667675,124.6752830598007,153.8930959539161
140499,2400,140499,17628,140499,30743,-23.05491646195105,118.22824510870814,144.15461094687276
140509,2394,140509,17651,140509,30756,-22.157403057352628,111.76007296650045,134.38694471600303
140509,2401,140509,17661,140509,30759,-21.24970753209794,105.27385943369882,124.59347177035028
140509,2403,140509,17649,140509,30749,-20.33207857405838,98.77274540636904,114.77753072835253
140509,2399,140509,17607,140509,30723,-19.404912067418216,92.26019709477697,104.94266653602705
140509,2406,140509,17581,140509,30695,-18.468722623874967,85.73975567069266,95.09253764925467
140509,2405,140509,17615,140509,30713,-17.524129607058434,79.21446969889632,85.23058115509997
140519,2402,140519,17637,140519,30715,-16.571837396483353,72.68669628140998,75.35983843395951
140519,2416,140519,17619,140519,30710,-15.612617965906878,66.1585217567565,65.48314766967161
140519,2416,140519,17593,140519,30695,-14.647251231892476,59.63221499570227,55.60343395130025
140519,2414,140519,17586,140519,30641,-13.676408982417378,53.110193125445164,45.72371843537354
140519,2416,140519,17547,140519,30666,-12.700583547100607,46.594631148575786,35.84676147595758
140519,2404,140519,17579,140519,30654,-11.720115828246072,40.08704119967592,25.974701871335185
140530,2413,140530,17588,140530,30652,-10.735290296829191,33.58812897742263,16.109040218526218
140530,2412,140530,17614,140530,30673,-9.7464220636274,27.09813979292801,6.250861071931865
