c_ts,c_val,d_ts,d_val,e_ts,e_val,c_val_filtered,d_val_filtered,e_val_filtered
207952,10518,207952.0,37234.0,207952.0,37199.0,191.7753291361667,100.90633289915402,211.12198494851586
207952,10497,207952.0,37217.0,207952.0,37199.0,190.1216734023098,99.90042728856484,210.45669679496262
207952,10498,207952.0,37204.0,207952.0,37187.0,188.42793693406026,98.88958556270785,209.75842058673447
207952,10479,207952.0,37219.0,207952.0,37176.0,186.70219220251465,97.87942593894215,209.03209945507757
207952,10484,207952.0,37231.0,207952.0,37183.0,184.95203974602353,96.87509052626973,208.28260807611977
207952,10497,207952.0,37233.0,207952.0,37193.0,183.18451453546254,95.88144528648,207.5146730746861
207962,10484,207962.0,37228.0,207962.0,37205.0,181.4061794666869,94.90338307902219,206.7330250321165
207962,10490,207962.0,37209.0,207962.0,37172.0,179.62329849399126,93.94595237949186,205.94266051966727
207962,10469,207962.0,37168.0,207962.0,37150.0,177.8419070552835,93.01415568541455,205.14884770905127
207962,10470,207962.0,37204.0,207962.0,37168.0,176.06774518145505,92.1124781599311,204.35677825979585
207962,10476,207962.0,37225.0,207962.0,37169.0,174.3061522563795,91.2446138341376,203.57128220071064
207962,10484,207962.0,37209.0,207962.0,37170.0,172.56209323379974,90.41372313772737,202.79688895956656
207973,10470,207973.0,37184.0,207973.0,37153.0,170.84034042157361,89.62276832427173,202.03799153858714
207973,10455,207973.0,37194.0,207973.0,37132.0,169.14558401409428,88.87443087571036,201.2988000116709
207973,10451,207973.0,37167.0,207973.0,37140.0,167.48231539074618,88.17079697152593,200.58306801135123
207973,10464,207973.0,37208.0,207973.0,37143.0,165.85464694968672,87.51315699389093,199.89384908333744
207973,10464,207973.0,37218.0,207973.0,37147.0,164.2663233203258,86.90210720830649,199.2334973026575
207973,10447,207973.0,37210.0,207973.0,37156.0,162.72088537012849,86.33795964705436,198.603851340681
207983,10455,207983.0,37176.0,207983.0,37139.0,161.2217480840722,85.82105138087694,198.00643595940784
207983,10427,207983.0,37174.0,207983.0,37119.0,159.77212946535025,85.35157473092315,197.44250480719398
207983,10433,207983.0,37171.0,207983.0,37125.0,158.37489510564495,84.92913887733818,196.91283744573886
207983,10437,207983.0,37192.0,207983.0,37134.0,157.03240331807802,84.55251212716732,196.4175152013582
207983,10432,207983.0,37199.0,207983.0,37146.0,155.74648632993586,84.21972294372928,195.9559652076333
207983,10435,207983.0,37223.0,207983.0,37144.0,154.51855126871192,83.92842870854682,195.52724025595063
207993,10425,207993.0,37177.0,207993.0,37124.0,153.34966124421805,83.67630133411365,195.13026126723577
207993,10421,207993.0,37176.0,207993.0,37127.0,152.2405418391101,83.46107767219667,194.76382004040383
207993,10423,207993.0,37182.0,207993.0,37112.0,151.19153523325377,83.280246459847,194.42640504632652
207993,10423,207993.0,37200.0,207993.0,37134.0,150.20258086281723,83.13082923800849,194.1160607734808
207993,10423,207993.0,37234.0,207993.0,37143.0,149.27327319510627,83.00959733291344,193.83045066683576
207993,10414,207993.0,37204.0,207993.0,37125.0,148.40293590827034,82.91358130969884,193.56710955528106
208003,10402,208003.0,37165.0,208003.0,37117.0,147.5906113018164,82.84034885503202,193.32360231996824
208003,10412,208003.0,37161.0,208003.0,37108.0,146.83495484064557,82.78765655753216,193.0974026990006
208003,10415,208003.0,37176.0,208003.0,37125.0,146.1341825949014,82.75282779437785,192.88569265510716
208003,10421,208003.0,37198.0,208003.0,37122.0,145.48619101760033,82.73252058098987,192.6853454718791
208003,10415,208003.0,37206.0,208003.0,37137.0,144.88876209584788,82.72301903802534,192.49311088234762
208003,10414,208003.0,37201.0,208003.0,37117.0,144.33970418549603,82.72069443059173,192.30584043096923
208013,10413,208013.0,37195.0,208013.0,37101.0,143.83689621867734,82.72228376775797,192.12054675196885
208013,10383,208013.0,37179.0,208013.0,37108.0,143.37824142472218,82.72488286569788,191.93422198700534
208013,10396,208013.0,37198.0,208013.0,37115.0,142.96148813524073,82.72578349693316,191.7436441192305
208013,10412,208013.0,37205.0,208013.0,37125.0,142.58406142621646,82.72241375575186,191.54543035738794
208013,10405,208013.0,37189.0,208013.0,37111.0,142.24315863475147,82.7124768418927,191.33626077169882
208013,10392,208013.0,37159.0,208013.0,37093.0,141.93597121963808,82.69399288238398,191.11298289675346
208023,10388,208023.0,37173.0,208023.0,37102.0,141.65970723569632,82.66501113878726,190.8724719367093
208023,10385,208023.0,37158.0,208023.0,37096.0,141.4114347486456,82.62323955975664,190.6114429752218
208023,10394,208023.0,37177.0,208023.0,37100.0,141.18797091355913,82.56588316095035,190.32640956886462
208023,10390,208023.0,37190.0,208023.0,37109.0,140.98591395050147,82.4897216639172,190.01376252184468
208023,10393,208023.0,37205.0,208023.0,37100.0,140.80175538413258,82.39141029316637,189.66990824149576
208023,10393,208023.0,37178.0,208023.0,37092.0,140.63198361174688,82.26785609978276,189.29137572139516
208034,10382,208034.0,37174.0,208034.0,37095.0,140.47314450774994,82.11634612082196,188.87479715162578
208034,10389,208034.0,37177.0,208034.0,37087.0,140.32184298676742,81.93437080806713,188.41683309752278
208034,10384,208034.0,37202.0,208034.0,37092.0,140.17472206284933,81.71949291715504,187.9141415172357
208034,10398,208034.0,37198.0,208034.0,37098.0,140.02850653335594,81.4695229975076,187.36341298668458
208034,10393,208034.0,37195.0,208034.0,37073.0,139.8801397264004,81.18283359105047,186.76144390641855
208034,10377,208034.0,37154.0,208034.0,37073.0,139.72691425319184,80.8584459148687,186.10510613598404
208044,10366,208044.0,37156.0,208044.0,37070.0,139.5664228227228,80.49571908714077,185.3911726848866
208044,10362,208044.0,37163.0,208044.0,37078.0,139.39631504032278,80.09388680074515,184.6161978859836
208044,10376,208044.0,37185.0,208044.0,37090.0,139.214080854614,79.65188263945761,183.77659988689862
208044,10371,208044.0,37175.0,208044.0,37084.0,139.0170448884718,79.1685552488567,182.86890104715823
208044,10379,208044.0,37152.0,208044.0,37073.0,138.80251911809177,78.64290912584637,181.88994624228374
208044,10371,208044.0,37167.0,208044.0,37084.0,138.5679581580967,78.0740614328775,180.83696359449164
208054,10357,208054.0,37154.0,208054.0,37048.0,138.31101402734396,77.461064623302,179.70751225175596
208054,10365,208054.0,37180.0,208054.0,37075.0,138.0294601203616,76.80287417957204,178.49936992057027
208054,10367,208054.0,37198.0,208054.0,37074.0,137.72110588282064,76.09855863287724,177.21047355974054
208054,10364,208054.0,37182.0,208054.0,37071.0,137.38383987531876,75.34770130105134,175.83906103699113
208054,10355,208054.0,37149.0,208054.0,37061.0,137.0157142754099,74.55065580964498,174.38386001030983
208054,10354,208054.0,37146.0,208054.0,37036.0,136.6149332719548,73.70832756472117,172.84406910025749
208065,10340,208065.0,37120.0,208065.0,37034.0,136.1797555325307,72.82165520736973,171.21910913262968
208065,10350,208065.0,37153.0,208065.0,37048.0,135.7083796084545,71.89118462677692,169.50835292162526
208065,10341,208065.0,37163.0,208065.0,37047.0,135.19888114047845,70.91700466017173,167.71110074431022
208065,10354,208065.0,37159.0,208065.0,37047.0,134.64924442116748,69.89906065214595,165.8267893835444
208065,10347,208065.0,37156.0,208065.0,37044.0,134.05747016137852,68.83750992974957,163.85520000766581
208065,10327,208065.0,37122.0,208065.0,37011.0,133.42165833804165,67.73278730155279,161.7965070518409
208075,10330,208075.0,37139.0,208075.0,37031.0,132.73993059742764,66.58537652618928,159.65113572667482
208075,10343,208075.0,37147.0,208075.0,37022.0,132.01028536592494,65.39558117668392,157.41960623529863
208075,10347,208075.0,37160.0,208075.0,37031.0,131.23065083545086,64.16360451405312,155.1025771754027
208075,10346,208075.0,37152.0,208075.0,37018.0,130.3991379101066,62.889869552869115,152.70100918264367
208075,10316,208075.0,37129.0,208075.0,36998.0,129.5142139047683,61.575231229125635,150.21623023034923
208075,10326,208075.0,37108.0,208075.0,36980.0,128.57461087219787,60.22083983192559,147.64977101118916
208085,10322,208085.0,37114.0,208085.0,36993.0,127.57912038635061,58.82773459729792,145.00305535477568
208085,10333,208085.0,37134.0,208085.0,36985.0,126.52654802501897,57.396545865229456,142.27722490621247
208085,10321,208085.0,37137.0,208085.0,37004.0,125.41583973280777,55.92759111256136,139.47322956167264
208085,10325,208085.0,37129.0,208085.0,36999.0,124.24620606130958,54.42120496662356,136.59209053098164
208085,10309,208085.0,37106.0,208085.0,36959.0,123.01715122716695,52.87791260826381,133.63512147812907
208085,10305,208085.0,37109.0,208085.0,36960.0,121.72840498813522,51.29829274876991,130.60383652541952
208096,10300,208096.0,37108.0,208096.0,36975.0,120.37979175614353,49.68273860642762,127.49965638258075
208096,10306,208096.0,37124.0,208096.0,36973.0,118.97113207100847,48.031394114509126,124.3238618172384
208096,10306,208096.0,37129.0,208096.0,36968.0,117.50226750759523,46.344338201672514,121.07783691781867
208096,10305,208096.0,37132.0,208096.0,36952.0,115.97318675981398,44.621903808857155,117.76325807261708
208096,10287,208096.0,37090.0,208096.0,36938.0,114.38412541007284,42.86488676631622,114.38205457712928
208096,10284,208096.0,37079.0,208096.0,36940.0,112.73552200687598,41.07437536319529,110.93622783378413
208106,10293,208106.0,37103.0,208106.0,36940.0,111.02789520097605,39.25131796075726,107.42772740616553
208106,10285,208106.0,37101.0,208106.0,36925.0,109.26182810727659,37.39633049878938,103.85847088260044
208106,10292,208106.0,37103.0,208106.0,36932.0,107.43808011179254,35.50988754959292,100.23039820422744
208106,10262,208106.0,37099.0,208106.0,36916.0,105.55766825282103,33.59256500866739,96.54549361105754
208106,10262,208106.0,37076.0,208106.0,36900.0,103.62178053739134,31.645105723377483,92.80576502263892
208106,10253,208106.0,37064.0,208106.0,36909.0,101.63155353939763,29.66826149412907,89.01314436151898
208116,10269,208116.0,37108.0,208116.0,36911.0,99.58792470848965,27.66256725085924,85.16943624778972
208116,10275,208116.0,37114.0,208116.0,36899.0,97.49172732134977,25.62846021896698,81.27644047111471
208116,10247,208116.0,37087.0,208116.0,36895.0,95.34392888079338,23.566756196757183,77.33609640069875
208116,10235,208116.0,37068.0,208116.0,36872.0,93.1456911616981,21.47888997693913,73.35047927998272
208116,10235,208116.0,37047.0,208116.0,36865.0,90.89814259020548,19.36662239650336,69.32164631801325
208116,10238,208116.0,37059.0,208116.0,36855.0,88.60215433426393,17.2315519311082,65.25141345962007
208127,10230,208127.0,37077.0,208127.0,36880.0,86.25832648903219,15.074880046149715,61.14123680817616
208127,10232,208127.0,37088.0,208127.0,36873.0,83.86707302417028,12.897612389235988,56.992368633825635
208127,10225,208127.0,37067.0,208127.0,36852.0,81.4286860724342,10.700975197299755,52.8061604225756
208127,10226,208127.0,37043.0,208127.0,36840.0,78.94338359118595,8.486597616273016,48.58416079493827
208127,10211,208127.0,37038.0,208127.0,36841.0,76.41134038532678,6.256275732892263,44.32795563098409
208127,10220,208127.0,37046.0,208127.0,36822.0,73.83268426941203,4.011607658503465,40.039005339397676
208137,10218,208137.0,37078.0,208137.0,36852.0,71.2075180731328,1.7539245895575988,35.718622903114806
208137,10220,208137.0,37058.0,208137.0,36826.0,68.53604033767431,-0.5153830451589556,31.368116937605805
208137,10205,208137.0,37043.0,208137.0,36809.0,65.81869386670951,-2.794514737416989,26.988960080038794
208137,10188,208137.0,37005.0,208137.0,36802.0,63.05618224932533,-5.081325571216638,22.582727675798537
208137,10189,208137.0,36996.0,208137.0,36792.0,60.24931184111861,-7.373830732190811,18.150867425560364
208137,10191,208137.0,37027.0,208137.0,36801.0,57.39882917304459,-9.67073810484412,13.69456504898659
208147,10196,208147.0,37049.0,208147.0,36814.0,54.50544196754794,-11.971499040867911,9.214835435979069
208147,10197,208147.0,37053.0,208147.0,36797.0,51.570011593926836,-14.275794368461334,4.712812935898
208147,10181,208147.0,37024.0,208147.0,36781.0,48.59376111038637,-16.582959571616826,0.18999790125610616
208147,10159,208147.0,36998.0,208147.0,36770.0,45.57831267944877,-18.89188139377933,-4.351771258511235
208147,10152,208147.0,36991.0,208147.0,36752.0,42.525475390772925,-21.201396245347837,-8.910541638585698
208147,10164,208147.0,37016.0,208147.0,36772.0,39.43697569267772,-23.51073713580925,-13.484440441660524
208158,10157,208158.0,37029.0,208158.0,36766.0,36.31440357681868,-25.81955763891122,-18.071656527194364
208158,10138,208158.0,37012.0,208158.0,36744.0,33.159321843273744,-28.127565295237034,-22.670249443290913
208158,10143,208158.0,37000.0,208158.0,36722.0,29.97328138113187,-30.434235993068526,-27.27810979709335
208158,10131,208158.0,36974.0,208158.0,36707.0,26.757736341272988,-32.73891289772746,-31.89323292500552
208158,10120,208158.0,36981.0,208158.0,36714.0,23.513980573264547,-35.041158404985524,-36.51407320216725
208158,10119,208158.0,37015.0,208158.0,36723.0,20.243076947155487,-37.34097463109207,-41.139663354259994
208168,10134,208168.0,37005.0,208168.0,36736.0,16.945824039503947,-39.638596990159044,-45.769385493828395
208168,10121,208168.0,36991.0,208168.0,36707.0,13.62289168909345,-41.934085493942206,-50.402578074728126
208168,10112,208168.0,36973.0,208168.0,36691.0,10.275016112948123,-44.22720553372841,-55.03834710659089
208168,10106,208168.0,36975.0,208168.0,36687.0,6.903044091241497,-46.517650761305944,-59.67572129079167
208168,10107,208168.0,36972.0,208168.0,36680.0,3.507870716715132,-48.80528428120685,-64.31389004818863
208168,10100,208168.0,36995.0,208168.0,36686.0,0.09043055329453864,-51.0901654350979,-68.9522735285268
208179,10093,208179.0,36975.0,208179.0,36680.0,-3.3482578262498635,-53.37236015942365,-73.59042462812269
208179,10090,208179.0,36987.0,208179.0,36665.0,-6.807072880431093,-55.65171907505592,-78.22788850729992
208179,10082,208179.0,36943.0,208179.0,36659.0,-10.284798775288976,-57.92783175271016,-82.8641633088636
208179,10061,208179.0,36954.0,208179.0,36647.0,-13.780167805449992,-60.20023001368226,-87.49878030761485
208179,10081,208179.0,36969.0,208179.0,36653.0,-17.29195278968254,-62.468646001115076,-92.13138410905967
208179,10070,208179.0,36974.0,208179.0,36651.0,-20.81897996482695,-64.73297898031859,-96.76170160892156
208189,10066,208189.0,36962.0,208189.0,36649.0,-24.359995636878722,-66.99299718608873,-101.38938758475965
208189,10047,208189.0,36957.0,208189.0,36624.0,-27.91357685876926,-69.24814101619955,-106.0138804968662
208189,10043,208189.0,36915.0,208189.0,36616.0,-31.478215695381948,-71.49762388177186,-110.63443850464358
208189,10025,208189.0,36928.0,208189.0,36611.0,-35.05249819736457,-73.7407943048569,-115.25032738561725
208189,10049,208189.0,36968.0,208189.0,36623.0,-38.63523647189086,-75.97742537274846,-119.86092967732768
208189,10036,208189.0,36951.0,208189.0,36617.0,-42.22541425978511,-78.20751873046379,-124.46562531167342
208199,10021,208199.0,36954.0,208199.0,36608.0,-45.82200879459316,-80.43083156422787,-129.0635591159816
208199,10025,208199.0,36932.0,208199.0,36583.0,-49.423927777720706,-82.64665477061564,-133.65354007431523
208199,10000,208199.0,36904.0,208199.0,36568.0,-53.03008983696594,-84.85396981708709,-138.23419784949243
208199,10004,208199.0,36910.0,208199.0,36576.0,-56.63954124765266,-87.05184265546944,-142.80426708605154
208199,10000,208199.0,36925.0,208199.0,36588.0,-60.25155633451584,-89.23975925533009,-147.36269193266736
208199,10010,208199.0,36938.0,208199.0,36568.0,-63.865618376130584,-91.41757898989906,-151.90843547353575
208210,9996,208210.0,36922.0,208210.0,36555.0,-67.48125675256435,-93.58519088843957,-156.44027944964637
208210,9976,208210.0,36903.0,208210.0,36535.0,-71.09792653771817,-95.74229369586871,-160.95689155544534
208210,9975,208210.0,36895.0,208210.0,36517.0,-74.71509245113248,-97.88852842618167,-165.45711178192454
208210,9978,208210.0,36910.0,208210.0,36536.0,-78.33238969359476,-100.0237509288929,-169.94024130966216
208210,9977,208210.0,36936.0,208210.0,36552.0,-81.94962693302921,-102.14804580698845,-174.40605673872824
208210,9981,208210.0,36918.0,208210.0,36524.0,-85.5666213352707,-104.26137848247222,-178.85448694457762
208220,9963,208220.0,36883.0,208220.0,36522.0,-89.18301540395424,-106.36329622497476,-183.28532695874912
208220,9940,208220.0,36873.0,208220.0,36498.0,-92.79824563082593,-108.45311526971236,-187.698270177467
208220,9947,208220.0,36861.0,208220.0,36492.0,-96.41172570468467,-110.53045035446956,-192.0931293886535
208220,9939,208220.0,36891.0,208220.0,36493.0,-100.02304597264708,-112.59559897696838,-196.470044254683
208220,9939,208220.0,36901.0,208220.0,36500.0,-103.63199894266535,-114.64948289526882,-200.82952752455571
208220,9929,208220.0,36910.0,208220.0,36490.0,-107.23850976593533,-116.69320959805475,-205.17231152128988
208230,9927,208230.0,36893.0,208230.0,36487.0,-110.84259515423864,-118.72760179943697,-209.49915274046128
208230,9924,208230.0,36859.0,208230.0,36482.0,-114.44434668918478,-120.75306122108168,-213.81072810515684
208230,9908,208230.0,36869.0,208230.0,36467.0,-118.04391626366797,-122.76984556218989,-218.10760868987643
208230,9918,208230.0,36895.0,208230.0,36457.0,-121.64152186742487,-124.77837616053893,-222.39030684580007
208230,9908,208230.0,36881.0,208230.0,36471.0,-125.23743323891074,-126.77915337789,-226.65935825904194
208230,9910,208230.0,36880.0,208230.0,36456.0,-128.83188678534452,-128.7724537365548,-230.9152932186858
208241,9894,208241.0,36859.0,208241.0,36424.0,-132.42499857077985,-130.7582297265936,-235.15856588475265
208241,9882,208241.0,36829.0,208241.0,36428.0,-136.01677857610247,-132.73632358076065,-239.3896965280531
208241,9893,208241.0,36857.0,208241.0,36445.0,-139.60722801485912,-134.70685538012398,-243.60948911433684
208241,9894,208241.0,36865.0,208241.0,36438.0,-143.19634364212567,-136.67042729435417,-247.8189518520981
208241,9876,208241.0,36872.0,208241.0,36420.0,-146.7839663227386,-138.6279011057462,-252.01901984200134
208241,9863,208241.0,36862.0,208241.0,36404.0,-150.36970051747335,-140.5800100590768,-256.2104764469173
208251,9857,208251.0,36840.0,208251.0,36415.0,-153.95304433036353,-142.5271895201278,-260.3941057337886
208251,9848,208251.0,36830.0,208251.0,36395.0,-157.53358239879464,-144.46973570229625,-264.5708027610195
208251,9847,208251.0,36829.0,208251.0,36390.0,-161.1110999814519,-146.4081345961761,-268.74158299761865
208251,9855,208251.0,36855.0,208251.0,36389.0,-164.68558385400172,-148.34324943763383,-272.90761631607296
208251,9849,208251.0,36848.0,208251.0,36413.0,-168.2570918073385,-150.276174444081,-277.0701924360757
208251,9840,208251.0,36832.0,208251.0,36371.0,-171.82557372392245,-152.207949069546,-281.23051052669206
208261,9824,208261.0,36814.0,208261.0,36354.0,-175.3908122018732,-154.13951320440938,-285.3895863667742
208261,9814,208261.0,36817.0,208261.0,36349.0,-178.95253939420206,-156.07195792729485,-289.5485239190789
208261,9805,208261.0,36831.0,208261.0,36359.0,-182.51064102662798,-158.006747982653,-293.7088396316115
208261,9822,208261.0,36832.0,208261.0,36361.0,-186.0652897515984,-159.9456609589619,-297.87246706494284
208261,9818,208261.0,36847.0,208261.0,36367.0,-189.6168641583149,-161.89050383265862,-302.0414883424247
208261,9805,208261.0,36807.0,208261.0,36339.0,-193.1657202178232,-163.84285371695512,-306.21785342389836
208272,9788,208272.0,36802.0,208272.0,36335.0,-196.7120863320065,-165.8040858434805,-310.40331177208174
208272,9779,208272.0,36794.0,208272.0,36312.0,-200.25620137625964,-167.7757049148386,-314.59958468244724
208272,9790,208272.0,36820.0,208272.0,36333.0,-203.79851157033715,-169.75962360718069,-318.808577871474
208272,9793,208272.0,36825.0,208272.0,36325.0,-207.33967522837213,-171.75807247211915,-323.03240153935366
208272,9786,208272.0,36827.0,208272.0,36328.0,-210.88035311388035,-173.7732261735358,-327.2731735614505
208272,9760,208272.0,36807.0,208272.0,36310.0,-214.42103734582685,-175.8068839518583,-331.53281013844025
208282,9755,208282.0,36779.0,208282.0,36288.0,-217.96213739819763,-177.8604814985083,-335.81300621125985
208282,9760,208282.0,36787.0,208282.0,36289.0,-221.50420377828783,-179.93542811119792,-340.11542581695306
208282,9758,208282.0,36797.0,208282.0,36287.0,-225.04800402573454,-182.03342909637874,-344.44190805293215
208282,9752,208282.0,36830.0,208282.0,36299.0,-228.59441054022096,-184.1564169596484,-348.7944639621747
208282,9744,208282.0,36803.0,208282.0,36268.0,-232.14428639654426,-186.30611763836583,-353.1751047549368
208282,9729,208282.0,36761.0,208282.0,36270.0,-235.69848649648372,-188.4837637184229,-357.5857583155733
208292,9730,208292.0,36771.0,208292.0,36260.0,-239.25795379345226,-190.69036134841633,-362.0283569035181
208292,9731,208292.0,36788.0,208292.0,36272.0,-242.82379521064775,-192.9271424934784,-366.5048956388167
208292,9728,208292.0,36794.0,208292.0,36269.0,-246.39723198932091,-195.19559335446831,-371.01730790787684
208292,9726,208292.0,36804.0,208292.0,36261.0,-249.97946490718203,-197.49708724433688,-375.5672345284835
208292,9721,208292.0,36788.0,208292.0,36260.0,-253.5715534920268,-199.83250840707265,-380.1558464884165
208292,9705,208292.0,36760.0,208292.0,36241.0,-257.1743618108565,-202.2021358938159,-384.78378394306884
208303,9691,208303.0,36743.0,208303.0,36221.0,-260.78862544205015,-204.60590686801865,-389.45122762544275
208303,9688,208303.0,36764.0,208303.0,36221.0,-264.4151355549827,-207.04386100391753,-394.1581087184027
208303,9705,208303.0,36767.0,208303.0,36214.0,-268.05486400907245,-209.5163288532464,-398.9043134977369
208303,9691,208303.0,36785.0,208303.0,36225.0,-271.7088614781208,-212.023708351214,-403.68970870712
208303,9687,208303.0,36770.0,208303.0,36211.0,-275.3780499932105,-214.5660743229088,-408.51399576363923
208303,9676,208303.0,36740.0,208303.0,36192.0,-279.06314057655635,-217.14297108444282,-413.3765739109097
208313,9669,208313.0,36736.0,208313.0,36180.0,-282.7646880808786,-219.75358848668455,-418.27660053654995
208313,9655,208313.0,36768.0,208313.0,36187.0,-286.48319416828264,-222.3970724982237,-423.213181890933
208313,9670,208313.0,36768.0,208313.0,36198.0,-290.2191956750315,-225.07248061268209,-428.1854068660111
208313,9654,208313.0,36750.0,208313.0,36182.0,-293.9732472787608,-227.77841448830972,-433.1921247019001
208313,9646,208313.0,36731.0,208313.0,36168.0,-297.74583487842494,-230.51284387712695,-438.23171961752075
208313,9629,208313.0,36716.0,208313.0,36165.0,-301.53739775716866,-233.27333438067905,-443.3021029904669
208323,9643,208323.0,36727.0,208323.0,36152.0,-305.34845546535945,-236.05741196591683,-448.4008219539184
208323,9641,208323.0,36737.0,208323.0,36153.0,-309.1796228720304,-238.86271421357742,-453.52512460431245
208323,9643,208323.0,36751.0,208323.0,36165.0,-313.0314263491836,-241.68679481233792,-458.67191713996084
208323,9630,208323.0,36725.0,208323.0,36137.0,-316.9040789215808,-244.52676958317886,-463.83760087885605
208323,9636,208323.0,36719.0,208323.0,36143.0,-320.797356028595,-247.3791521956329,-469.01793698904424
208323,9614,208323.0,36699.0,208323.0,36123.0,-324.71055570429064,-250.24001121319336,-474.2080564253766
208334,9609,208334.0,36711.0,208334.0,36120.0,-328.64253306584595,-253.10524823144274,-479.40253426217015
208334,9613,208334.0,36726.0,208334.0,36139.0,-332.5917949672155,-255.97069974738417,-484.5954031087809
208334,9610,208334.0,36747.0,208334.0,36117.0,-336.55651724240573,-258.831886829115,-489.7800066223518
208334,9604,208334.0,36695.0,208334.0,36110.0,-340.5344339944878,-261.68359688160643,-494.94880259379795
208334,9579,208334.0,36676.0,208334.0,36082.0,-344.5227669592202,-264.51982787067567,-500.093372835985
208334,9579,208334.0,36677.0,208334.0,36088.0,-348.5183326301989,-267.3342570712876,-505.2046401187732
208344,9572,208344.0,36693.0,208344.0,36079.0,-352.51773009661787,-270.1206962218108,-510.27305767025416
208344,9580,208344.0,36701.0,208344.0,36086.0,-356.5174113713234,-272.87307997197684,-515.2886157103911
208344,9569,208344.0,36698.0,208344.0,36075.0,-360.51358979720317,-275.58513150821113,-520.2407057999512
208344,9562,208344.0,36691.0,208344.0,36061.0,-364.5021181895787,-278.2500617296942,-525.1179971329636
208344,9547,208344.0,36663.0,208344.0,36053.0,-368.47847445147545,-280.86051264860316,-529.9084465403628
208344,9552,208344.0,36651.0,208344.0,36038.0,-372.43784670203684,-283.4087938039688,-534.599426381877
208354,9546,208354.0,36673.0,208354.0,36056.0,-376.3751824754417,-285.8872318139248,-539.1778331025362
208354,9540,208354.0,36688.0,208354.0,36047.0,-380.2851414347427,-288.288244758728,-543.6300291303859
208354,9546,208354.0,36678.0,208354.0,36037.0,-384.16201247651816,-290.6040262904645,-547.941652943786
208354,9522,208354.0,36655.0,208354.0,35999.0,-387.99964396991584,-292.8262383896245,-552.0975729763795
208354,9510,208354.0,36638.0,208354.0,36007.0,-391.7914702883804,-294.9460914586748,-556.0821436745015
208354,9506,208354.0,36633.0,208354.0,36001.0,-395.53069352064614,-296.9547290493183,-559.879525395685
208365,9505,208365.0,36643.0,208365.0,35995.0,-399.2104687932162,-298.8435714484218,-563.4737934258594
208365,9516,208365.0,36678.0,208365.0,36014.0,-402.8239092648666,-300.60432294305343,-566.848856863478
208365,9499,208365.0,36681.0,208365.0,36005.0,-406.3639272046343,-302.22855399906723,-569.9882587167419
208365,9494,208365.0,36627.0,208365.0,35989.0,-409.82309351249717,-303.7072127766271,-572.8749488047831
208365,9483,208365.0,36631.0,208365.0,35976.0,-413.19365150294124,-305.03064099500966,-575.4912526065425
208365,9476,208365.0,36625.0,208365.0,35981.0,-416.46763055201103,-306.1890458704761,-577.8190487517107
208375,9487,208375.0,36658.0,208375.0,35972.0,-419.6369262930311,-307.1728010839538,-579.8399149024616
208375,9486,208375.0,36667.0,208375.0,35977.0,-422.693238338011,-307.9722532980928,-581.5351394010056
208375,9482,208375.0,36627.0,208375.0,35994.0,-425.6278759068965,-308.5773178566203,-582.8856235634686
208375,9464,208375.0,36627.0,208375.0,35950.0,-428.4316117464193,-308.9773921714984,-583.8717278435155
208375,9463,208375.0,36609.0,208375.0,35940.0,-431.0947161631161,-309.1616984291214,-584.4733235439418
208375,9458,208375.0,36619.0,208375.0,35947.0,-433.6070844497271,-309.11968156796445,-584.6701620145471
208385,9459,208385.0,36641.0,208385.0,35953.0,-435.9583021928869,-308.8411572906915,-584.4421774781399
208385,9456,208385.0,36605.0,208385.0,35907.0,-438.13761438542093,-308.3162124734358,-583.7695581910875
208385,9451,208385.0,36627.0,208385.0,35938.0,-440.1338614158552,-307.53512947952095,-582.6329022843065
208385,9435,208385.0,36595.0,208385.0,35920.0,-441.9354672799914,-306.48850873803656,-581.013469041701
208385,9426,208385.0,36608.0,208385.0,35914.0,-443.5305532294939,-305.16748669053527,-578.8933056558628
208385,9425,208385.0,36617.0,208385.0,35930.0,-444.9071428275203,-303.5639097708148,-576.2553249423808
208396,9431,208396.0,36632.0,208396.0,35918.0,-446.0533029675537,-301.67031090024966,-573.0833730424117
208396,9416,208396.0,36635.0,208396.0,35911.0,-446.9571463639242,-299.479664477895,-569.3622654043643
208396,9420,208396.0,36606.0,208396.0,35918.0,-447.6068092276833,-296.98518116861555,-565.0779089413452
208396,9390,208396.0,36590.0,208396.0,35901.0,-447.990534030088,-294.1804503224465,-560.2174987110417
208396,9398,208396.0,36610.0,208396.0,35902.0,-448.09688404450776,-291.05988774442176,-554.7697369541929
208396,9389,208396.0,36625.0,208396.0,35914.0,-447.91499492986844,-287.619037728864,-548.7250708545552
208406,9405,208406.0,36631.0,208406.0,35945.0,-447.4346977780421,-283.85446645221464,-542.0757692719227
208406,9408,208406.0,36639.0,208406.0,35918.0,-446.6464431452178,-279.7634775718676,-534.8157517362531
208406,9392,208406.0,36623.0,208406.0,35921.0,-445.5411356775555,-275.34394763084447,-526.9404897000886
208406,9381,208406.0,36603.0,208406.0,35910.0,-444.11011236866614,-270.5944331353413,-518.4472413049252
208406,9392,208406.0,36634.0,208406.0,35936.0,-442.34533152577325,-265.51451092132424,-509.3354113616623
208406,9385,208406.0,36636.0,208406.0,35947.0,-440.2395501144028,-260.10501389220406,-499.60670676362747
208417,9399,208417.0,36660.0,208417.0,35955.0,-437.7863460558808,-254.36792941123105,-489.2650428265905
208417,9395,208417.0,36653.0,208417.0,35956.0,-434.98004844633533,-248.3061404320715,-478.3164190608162
208417,9383,208417.0,36634.0,208417.0,35962.0,-431.81568720964646,-241.9233169096795,-466.768944358961
208417,9384,208417.0,36625.0,208417.0,35979.0,-428.2890777194991,-235.22415167495015,-454.6329587879386
208417,9391,208417.0,36647.0,208417.0,35974.0,-424.39700007571696,-228.21481517995892,-441.9211323204221
208417,9395,208417.0,36675.0,208417.0,36010.0,-420.1372910337192,-220.9031958814834,-428.64851790790794
208427,9403,208427.0,36702.0,208427.0,36027.0,-415.5088021443786,-213.29867107170602,-414.83249777193373
208427,9396,208427.0,36688.0,208427.0,36031.0,-410.5113294070529,-205.4116345585806,-400.4925859990451
208427,9394,208427.0,36679.0,208427.0,36040.0,-405.1456298247987,-197.2532564692259,-385.6502872253239
208427,9402,208427.0,36689.0,208427.0,36059.0,-399.41354510465146,-188.8356670950574,-370.329140296799
208427,9415,208427.0,36725.0,208427.0,36106.0,-393.3180989115531,-180.1722163359906,-354.55472359993576
208427,9424,208427.0,36746.0,208427.0,36121.0,-386.86344214455085,-171.27737325002093,-338.3543784544299
208437,9413,208437.0,36697.0,208437.0,36132.0,-380.0547311332988,-162.16641705435578,-321.75678330769955
208437,9421,208437.0,36745.0,208437.0,36156.0,-372.89812884995297,-152.8554392056931,-304.79168950154934
208437,9425,208437.0,36736.0,208437.0,36152.0,-365.4009370636775,-143.36160142406953,-287.4898723254366
208437,9440,208437.0,36768.0,208437.0,36179.0,-357.571689244456,-133.70319784837142,-269.8831972310048
208437,9456,208437.0,36804.0,208437.0,36223.0,-349.4200987449968,-123.8994317231384,-252.004654502305
208437,9463,208437.0,36812.0,208437.0,36246.0,-340.9568882928124,-113.9699889989869,-233.8881326694796
208448,9469,208448.0,36846.0,208448.0,36274.0,-332.1936117837239,-103.93452560554799,-215.56795995553165
208448,9484,208448.0,36826.0,208448.0,36277.0,-323.1425550509979,-93.8122822797308,-197.07851824407737
208448,9486,208448.0,36830.0,208448.0,36291.0,-313.8166828577179,-83.62199428553518,-178.45411868960616
208448,9498,208448.0,36842.0,208448.0,36311.0,-304.22959731171187,-73.38209540301526,-159.7290872647341
208448,9489,208448.0,36811.0,208448.0,36311.0,-294.39555382835465,-63.11103951343932,-140.93790532947037
208448,9529,208448.0,36900.0,208448.0,36389.0,-284.32952205761063,-52.82754692601489,-122.11524625821764
208458,9537,208458.0,36892.0,208458.0,36396.0,-274.04712334455104,-42.550485453923756,-103.29569856467202
208458,9544,208458.0,36893.0,208458.0,36411.0,-263.56439162261876,-32.29839372981289,-84.51325130555122
208458,9545,208458.0,36887.0,208458.0,36422.0,-252.89759603384258,-22.08923910135917,-65.8009939596183
208458,9567,208458.0,36911.0,208458.0,36458.0,-242.06324820481444,-11.940603785479766,-47.19111670409856
208458,9586,208458.0,36951.0,208458.0,36474.0,-231.0780973514395,-1.8698028880595814,-28.71487408077303
208458,9589,208458.0,36954.0,208458.0,36485.0,-219.95898316006335,8.106379956850759,-10.402430060413792
208468,9604,208468.0,36952.0,208468.0,36512.0,-208.72267744485399,17.97207275671542,7.717244490615428
208468,9610,208468.0,36951.0,208468.0,36531.0,-197.3858273652905,27.71240086554397,25.61642089443359
208468,9586,208468.0,36882.0,208468.0,36494.0,-185.96502596883343,37.3131188650471,43.26860316412183
208468,9640,208468.0,36976.0,208468.0,36559.0,-174.47701558881735,46.759922674811094,60.648300951367446
208468,9646,208468.0,37025.0,208468.0,36595.0,-162.938772616917,56.038166850613806,77.73086507364752
208468,9665,208468.0,37023.0,208468.0,36591.0,-151.36727073543256,65.13355012886129,94.49278511984977
208479,9661,208479.0,37011.0,208479.0,36614.0,-139.77919930996245,74.03300876876312,110.91208768626029
208479,9671,208479.0,37014.0,208479.0,36610.0,-128.1909136438486,82.72491152261424,126.9683948319772
208479,9687,208479.0,37000.0,208479.0,36622.0,-116.61853155831437,91.19872259854131,142.64275274571924
208479,9694,208479.0,37039.0,208479.0,36660.0,-105.07798958552107,99.4446389244466,157.91746401391003
208479,9713,208479.0,37063.0,208479.0,36679.0,-93.58500765816333,107.45352787723402,172.77613457306887
208479,9725,208479.0,37057.0,208479.0,36681.0,-82.15500225330999,115.21722650775644,187.2039359204216
208489,9740,208489.0,37048.0,208489.0,36691.0,-70.80296367150325,122.72881197829071,201.1877714602628
208489,9743,208489.0,37039.0,208489.0,36692.0,-59.54333742705114,129.9824771832039,214.7161956872077
208489,9752,208489.0,37059.0,208489.0,36716.0,-48.389984142081346,136.97316355732153,227.77924245848698
208489,9767,208489.0,37087.0,208489.0,36722.0,-37.35621140516341,143.69636814986177,240.36833879195217
208489,9776,208489.0,37101.0,208489.0,36751.0,-26.45478405387169,150.14834166781014,252.47635713192602
208489,9783,208489.0,37090.0,208489.0,36740.0,-15.697886141081852,156.32646311957222,264.09773755473975
208499,9790,208499.0,37068.0,208499.0,36752.0,-5.097107024625103,162.22935203150445,275.22852836678146
208499,9799,208499.0,37054.0,208499.0,36749.0,5.336520483110775,167.85651595065093,285.866262303599
208499,9811,208499.0,37097.0,208499.0,36768.0,15.592480875129155,173.20782267463272,296.0097736942628
208499,9834,208499.0,37112.0,208499.0,36797.0,25.66080883143556,178.28334363368532,305.6591529740541
208499,9846,208499.0,37133.0,208499.0,36778.0,35.532247179625955,183.08372628132474,314.8158932255534
208499,9845,208499.0,37119.0,208499.0,36783.0,45.198457402160045,187.61069074545793,323.48298185219005
208510,9841,208510.0,37090.0,208510.0,36775.0,54.652086688463044,191.86718323601076,331.6647187756911
208510,9843,208510.0,37092.0,208510.0,36781.0,63.88660478252754,195.85704651632767,339.3663966532281
208510,9875,208510.0,37119.0,208510.0,36806.0,72.89609300096137,199.5845473309244,346.59408784931304
208510,9874,208510.0,37132.0,208510.0,36802.0,81.67523860028777,203.05427064690707,353.3546553707715
208510,9889,208510.0,37128.0,208510.0,36818.0,90.2195083780459,206.27139878665218,359.6559025734798
208510,9893,208510.0,37116.0,208510.0,36796.0,98.52529121273511,209.2419402030721,365.5066529761075
208520,9890,208520.0,37092.0,208520.0,36787.0,106.58993278732228,211.97260821871987,370.9166101740051
208520,9893,208520.0,37076.0,208520.0,36790.0,114.41166261363449,214.4703637026161,375.89600364200567
208520,9906,208520.0,37125.0,208520.0,36809.0,121.98945594347498,216.7419169362588,380.45526903440293
208520,9901,208520.0,37123.0,208520.0,36809.0,129.32294193070055,218.793643785281,384.6050075252256
208520,9902,208520.0,37104.0,208520.0,36802.0,136.41234189020048,220.63189167706798,388.3561085016281
208520,9906,208520.0,37126.0,208520.0,36802.0,143.25834457739006,222.26316115287852,391.7197661135872
208530,9907,208530.0,37091.0,208530.0,36786.0,149.86195491066314,223.69402315122835,394.707326593474
208530,9912,208530.0,37094.0,208530.0,36805.0,156.22438290007602,224.93091549660687,397.3300793137562
208530,9920,208530.0,37132.0,208530.0,36810.0,162.34697882354527,225.97992968870625,399.59916323475704
208530,9935,208530.0,37137.0,208530.0,36825.0,168.2312449689034,226.84690348514283,401.5257017067912
208530,9923,208530.0,37133.0,208530.0,36802.0,173.87891985138197,227.5378514589437,403.1210337240001
208530,9912,208530.0,37044.0,208530.0,36793.0,179.29197093743613,228.05911610569376,404.3967559250168
208541,9937,208541.0,37091.0,208541.0,36788.0,184.47241082409369,228.41680623135244,405.36448795393767
208541,9937,208541.0,37113.0,208541.0,36795.0,189.42216953984655,228.61611941728125,406.03558746607393
208541,9950,208541.0,37132.0,208541.0,36806.0,194.1431888485228,228.661406426513,406.42106534648156
208541,9960,208541.0,37145.0,208541.0,36814.0,198.63761302337713,228.55682965205585,406.53174327397824
208541,9954,208541.0,37124.0,208541.0,36782.0,202.9079586514885,228.30694561030356,406.37846911511247
208541,9932,208541.0,37094.0,208541.0,36785.0,206.95714804603074,227.9168511168233,405.9721085004023
208551,9950,208551.0,37100.0,208551.0,36770.0,210.7883090474844,227.39186668674614,405.32328997182924
208551,9960,208551.0,37114.0,208551.0,36777.0,214.40455968313512,226.737135432956,404.442152270208
208551,9943,208551.0,37078.0,208551.0,36762.0,217.809004242691,225.95748537373424,403.3382168689436
208551,9973,208551.0,37129.0,208551.0,36783.0,221.004807105488,225.05743761107232,402.0203550732741
208551,9962,208551.0,37110.0,208551.0,36776.0,223.9952592227903,224.04131165488053,400.4968716386866
208551,9971,208551.0,37072.0,208551.0,36769.0,226.7838958398615,222.91339738975762,398.77567224139875
208561,9951,208561.0,37083.0,208561.0,36759.0,229.37455202269695,221.6778292755355,396.86433846766613
208561,9957,208561.0,37099.0,208561.0,36760.0,231.77124861852792,220.3382496643937,394.7700534018931
208561,9950,208561.0,37118.0,208561.0,36756.0,233.9779955477615,218.89782167218465,392.499519229015
208561,9974,208561.0,37119.0,208561.0,36781.0,235.99868026842097,217.35965219753007,390.0590082798617
208561,9956,208561.0,37098.0,208561.0,36755.0,237.83712223394332,215.72720404919363,387.4545736103916
208561,9966,208561.0,37068.0,208561.0,36744.0,239.49717381976114,214.00433078478648,384.69221653854316
208572,9956,208572.0,37063.0,208572.0,36738.0,240.98272795854427,212.19488557943293,381.7777964281016
208572,9961,208572.0,37105.0,208572.0,36764.0,242.29766271545003,210.30230672321596,378.7168788263908
208572,9972,208572.0,37110.0,208572.0,36757.0,243.44582386410872,208.32969769777114,375.51485972768444
208572,9963,208572.0,37103.0,208572.0,36736.0,244.43109795493302,206.2803410086667,372.17725852414816
208572,9955,208572.0,37059.0,208572.0,36725.0,245.25748468410637,204.15802438792946,368.70979091456303
208572,9951,208572.0,37042.0,208572.0,36720.0,245.92902677759798,201.96677451506883,365.11816695125503
208582,9955,208582.0,37059.0,208582.0,36716.0,246.44965594986547,199.71025919593797,361.40788522017095
208582,9966,208582.0,37096.0,208582.0,36716.0,246.82313896644655,197.39151153549784,357.5841727271517
208582,9963,208582.0,37081.0,208582.0,36727.0,247.05318844308943,195.0132694271187,353.6520642424886
208582,9965,208582.0,37077.0,208582.0,36719.0,247.14363302569802,192.5784911115185,349.6166047441623
208582,9951,208582.0,37057.0,208582.0,36703.0,247.098503145773,190.09052864046993,345.4830533715255
208582,9941,208582.0,37054.0,208582.0,36701.0,246.92196139686934,187.5529611706738,341.25692075590086
208592,9953,208592.0,37067.0,208592.0,36696.0,246.61813204332623,184.9693895137664,336.9438881263898
208592,9955,208592.0,37059.0,208592.0,36712.0,246.19102178151854,182.3434184851533,332.5498144317739
208592,9954,208592.0,37069.0,208592.0,36697.0,245.64462471227296,179.6788066982924,328.08091426673843
208592,9924,208592.0,37044.0,208592.0,36669.0,244.9830130706112,176.9796015522803,323.54392022935906
208592,9941,208592.0,37024.0,208592.0,36663.0,244.2102193069788,174.2500832268036,318.9459745195672
208592,9933,208592.0,37006.0,208592.0,36663.0,243.33005509715707,171.49443255893556,314.29434670061755
208603,9947,208603.0,37053.0,208603.0,36656.0,242.34610595066772,168.71636146574272,309.5962870234868
208603,9942,208603.0,37065.0,208603.0,36651.0,241.2618871288845,165.91919349587806,304.8590535319333
208603,9942,208603.0,37066.0,208603.0,36646.0,240.0810190954341,163.1064551000087,300.0899649828297
208603,9934,208603.0,37024.0,208603.0,36632.0,238.80732726863596,160.28239670009984,295.2964166113928
208603,9941,208603.0,37006.0,208603.0,36615.0,237.4448619100898,157.4519294144211,290.4858200537918
208603,9931,208603.0,37029.0,208603.0,36624.0,235.9979129027323,154.62015741139905,285.665467188877
208613,9932,208613.0,37026.0,208613.0,36622.0,234.47103952437936,151.79211082825256,280.84247348661074
208613,9924,208613.0,37027.0,208613.0,36624.0,232.86907257994557,148.97288146386,276.02391395544805
208613,9923,208613.0,37016.0,208613.0,36604.0,231.19708672141905,146.1678312173334,271.2170178918334
208613,9911,208613.0,36990.0,208613.0,36591.0,229.46035494215369,143.38259383295335,266.4292117345749
208613,9914,208613.0,36977.0,208613.0,36577.0,227.6642810348685,140.62281513794244,261.66795919673825
208613,9884,208613.0,36942.0,208613.0,36574.0,225.814293654408,137.8936821875813,256.94052997814083
208623,9907,208623.0,37005.0,208623.0,36583.0,223.91568967011273,135.19948398682598,252.25388097744738
208623,9907,208623.0,37010.0,208623.0,36572.0,221.9735601993139,132.543654913564,247.61473274233435
208623,9892,208623.0,36996.0,208623.0,36565.0,219.99290843188538,129.92934724907553,243.02972355653318
208623,9895,208623.0,36969.0,208623.0,36545.0,217.9787668276074,127.35986689688504,238.50544464448026
208623,9877,208623.0,36973.0,208623.0,36554.0,215.93615769755075,124.83856339295963,234.04833806453362
208623,9884,208623.0,36981.0,208623.0,36548.0,213.86998605038264,122.36854848693957,229.6646311178634
208634,9885,208634.0,36992.0,208634.0,36551.0,211.78498394149614,119.95268435799431,225.36042039251893
208634,9889,208634.0,37000.0,208634.0,36542.0,209.68578306796866,117.59386160161812,221.14182833907157
208634,9857,208634.0,36910.0,208634.0,36494.0,207.57702641227257,115.29518441049832,217.0150277838985
208634,9859,208634.0,36951.0,208634.0,36499.0,205.463296175814,113.0596216853226,212.98595204800554
208634,9855,208634.0,36948.0,208634.0,36510.0,203.34888011410146,110.88941944147825,209.05989082287434
208634,9867,208634.0,36952.0,208634.0,36513.0,201.23764932904584,108.7859604603199,205.24141885610578
208644,9862,208644.0,36978.0,208644.0,36511.0,199.13316070921093,106.75005087762773,201.5346694189146
208644,9860,208644.0,36986.0,208644.0,36503.0,197.03884223187262,104.78234022276033,197.9436103968686
208644,9861,208644.0,36960.0,208644.0,36480.0,194.9581193497266,102.8837595244534,194.4721245427214
208644,9831,208644.0,36913.0,208644.0,36469.0,192.89443378043666,101.05561318856444,191.1238593583839
208644,9831,208644.0,36939.0,208644.0,36467.0,190.85109792432283,99.29913236432412,187.90194766782625
208644,9844,208644.0,36977.0,208644.0,36487.0,188.8310718204407,97.61507461423265,184.80885375383224
208655,9856,208655.0,36955.0,208655.0,36478.0,186.83696204566087,96.00394458581796,181.84651090323644
208655,9839,208655.0,36951.0,208655.0,36473.0,184.87129102993686,94.46645722483645,179.0165924295874
208655,9834,208655.0,36934.0,208655.0,36452.0,182.93670885914403,93.00363437101261,176.32062266908048
208655,9822,208655.0,36911.0,208655.0,36454.0,181.0359532050221,91.6165387592873,173.75985908787646
208655,9820,208655.0,36919.0,208655.0,36452.0,179.1716807430276,90.30588621802822,171.33512758622118
208655,9826,208655.0,36947.0,208655.0,36458.0,177.3463480581809,89.07180518894158,169.04679511845762
208665,9829,208665.0,36954.0,208665.0,36455.0,175.5622390926338,87.91401472516482,166.89488972071257
208665,9825,208665.0,36935.0,208665.0,36461.0,173.8216167943325,86.83225906458146,164.879272818323
208665,9814,208665.0,36922.0,208665.0,36434.0,172.12685116004934,85.82651106738788,162.99976060020032
208665,9802,208665.0,36908.0,208665.0,36423.0,170.4803940805264,84.8967745321099,161.2560588743188
208665,9802,208665.0,36908.0,208665.0,36434.0,168.88462114841192,84.04272419077739,159.64752152967162
208665,9803,208665.0,36937.0,208665.0,36441.0,167.34168808261597,83.26349908681973,158.17301998364138
208675,9808,208675.0,36945.0,208675.0,36435.0,165.85352514034705,82.55785981432109,156.83107946305142
208675,9799,208675.0,36934.0,208675.0,36421.0,164.4219411153253,81.92459834039121,155.62005145044202
208675,9788,208675.0,36903.0,208675.0,36413.0,163.04868912766182,81.36275927667259,154.53808354353944
208675,9774,208675.0,36893.0,208675.0,36399.0,161.73537272353948,80.87139741169557,153.58291106594555
208675,9793,208675.0,36914.0,208675.0,36415.0,160.48326305910896,80.4491265254737,152.75163845936885
208675,9790,208675.0,36931.0,208675.0,36426.0,159.29325579804475,80.09396342625325,152.0407088571253
208686,9788,208686.0,36926.0,208686.0,36420.0,158.1660223223167,79.80359879739001,151.4461226438679
208686,9774,208686.0,36928.0,208686.0,36424.0,157.1021366646931,79.57574683714039,150.9637047662319
208686,9772,208686.0,36903.0,208686.0,36395.0,156.10202838513112,79.4082580625641,150.58919628827638
208686,9773,208686.0,36891.0,208686.0,36405.0,155.16585446353108,79.29893666218724,150.3181278274155
208686,9772,208686.0,36915.0,208686.0,36398.0,154.29343995099757,79.2452182951263,150.14561666955564
208686,9775,208686.0,36938.0,208686.0,36424.0,153.4843177309747,79.24408886881926,150.06631638976518
208696,9758,208696.0,36925.0,208696.0,36420.0,152.73778239970974,79.29240829979949,150.0746122273481
208696,9765,208696.0,36903.0,208696.0,36407.0,152.05286721348767,79.38722853772386,150.16489441753762
208696,9765,208696.0,36893.0,208696.0,36395.0,151.42828459993012,79.52568906631531,150.33162633848883
208696,9762,208696.0,36898.0,208696.0,36396.0,150.86243954543818,79.70463568464862,150.56915908478948
208696,9751,208696.0,36933.0,208696.0,36384.0,150.35346935502287,79.92042002460371,150.8715010909238
208696,9772,208696.0,36942.0,208696.0,36414.0,149.8992369820655,80.16914906196718,151.2322129820523
208706,9761,208706.0,36916.0,208706.0,36409.0,149.49738119723145,80.44716212792963,151.64451891402962
208706,9757,208706.0,36902.0,208706.0,36402.0,149.14543783066404,80.75120532883905,152.10155973203075
208706,9752,208706.0,36884.0,208706.0,36398.0,148.84086824191306,81.07811933258694,152.59652305755594
208706,9748,208706.0,36909.0,208706.0,36393.0,148.58097081231836,81.42439073278005,153.122571599016
208706,9761,208706.0,36933.0,208706.0,36409.0,148.36281315516356,81.78602648051574,153.67275406417858
208706,9758,208706.0,36941.0,208706.0,36415.0,148.18328631720777,82.15890125342821,154.24007293550108
208717,9753,208717.0,36914.0,208717.0,36407.0,148.0392365440188,82.53923183236438,154.81769516586158
208717,9745,208717.0,36890.0,208717.0,36405.0,147.92751888234721,82.92365851942293,155.39910769463754
208717,9746,208717.0,36889.0,208717.0,36384.0,147.84492415169726,83.30884062816307,155.97807431945526
208717,9745,208717.0,36904.0,208717.0,36377.0,147.78808866796015,83.69099113869822,156.54840627699562
208717,9751,208717.0,36934.0,208717.0,36421.0,147.75348193829794,84.06580394270993,157.10373898981848
208717,9749,208717.0,36940.0,208717.0,36418.0,147.73747648366134,84.42884058423732,157.63765516500993
208727,9750,208727.0,36911.0,208727.0,36392.0,147.7364452618837,84.77601033878122,158.14407552379998
208727,9746,208727.0,36917.0,208727.0,36387.0,147.74682811965693,85.1037005755626,158.6173770343505
208727,9739,208727.0,36905.0,208727.0,36393.0,147.76513703399215,85.40856562773286,159.05214777559976
208727,9741,208727.0,36939.0,208727.0,36405.0,147.78790228180645,85.68735677069884,159.4430177612109
208727,9748,208727.0,36931.0,208727.0,36397.0,147.8116304808584,85.93703423999884,159.78475612940508
208727,9752,208727.0,36924.0,208727.0,36407.0,147.83287175259395,86.15502580394738,160.0724486895811
208737,9742,208737.0,36904.0,208737.0,36385.0,147.84836171566636,86.3392940263078,160.30158600079932
208737,9725,208737.0,36900.0,208737.0,36377.0,147.8550583097648,86.48809695010644,160.46799130961875
208737,9736,208737.0,36901.0,208737.0,36390.0,147.8499946301081,86.59965476088121,160.5676228968342
208737,9743,208737.0,36905.0,208737.0,36389.0,147.83014619617467,86.67195521679015,160.59646750750142
208737,9736,208737.0,36933.0,208737.0,36391.0,147.79249286217947,86.70279706757708,160.55063225235352
208737,9728,208737.0,36918.0,208737.0,36388.0,147.7341297593276,86.69005128958796,160.4264813071062
208748,9735,208748.0,36882.0,208748.0,36382.0,147.65225535074947,86.63185890878269,160.220694087177
208748,9717,208748.0,36883.0,208748.0,36358.0,147.5440974041637,86.52641335282054,159.93020049242347
208748,9724,208748.0,36903.0,208748.0,36383.0,147.40683363759484,86.37152774233272,159.55200142473694
208748,9734,208748.0,36943.0,208748.0,36395.0,147.23753748440365,86.16459025009816,159.08310942984295
208748,9733,208748.0,36946.0,208748.0,36378.0,147.03325834954944,85.90309580390684,158.52077145710092
208748,9731,208748.0,36913.0,208748.0,36375.0,146.79120002357257,85.58527863828809,157.86269051121496
208758,9718,208758.0,36881.0,208758.0,36359.0,146.50881116590583,85.21020829937015,157.10697915207396
208758,9711,208758.0,36888.0,208758.0,36358.0,146.18370497438812,84.7772783283655,156.25195014987642
208758,9730,208758.0,36904.0,208758.0,36357.0,145.81351740454645,84.28567655959728,155.29592851623352
208758,9737,208758.0,36920.0,208758.0,36369.0,145.39593472004344,83.73433893920613,154.23719829590584
208758,9721,208758.0,36933.0,208758.0,36375.0,144.92892080552923,83.12232618041872,153.0741408370843
208758,9717,208758.0,36904.0,208758.0,36364.0,144.41086099436205,82.44924485057858,151.80548162128267
208768,9712,208768.0,36892.0,208768.0,36356.0,143.84047879143532,81.7153466231737,150.43044130639592
208768,9695,208768.0,36894.0,208768.0,36346.0,143.2166570850896,80.92126118403712,148.94868174124258
208768,9708,208768.0,36885.0,208768.0,36350.0,142.53826305339413,80.06768253273617,147.36015423317406
208768,9706,208768.0,36900.0,208768.0,36348.0,141.8040577515213,79.15523936564443,145.66501804897987
208768,9701,208768.0,36904.0,208768.0,36360.0,141.01274505796357,78.18455356737996,143.8637020045079
208768,9691,208768.0,36891.0,208768.0,36330.0,140.16302443033703,77.15640786459477,141.9570342591862
208779,9689,208779.0,36863.0,208779.0,36319.0,139.25352406559404,76.07178584548608,139.94622376253122
208779,9719,208779.0,36884.0,208779.0,36323.0,138.2827500955069,74.93164468333711,137.8326204720154
208779,9689,208779.0,36881.0,208779.0,36327.0,137.24922590070832,73.73669575900882,135.61751941148037
208779,9693,208779.0,36901.0,208779.0,36323.0,136.15165969269566,72.4874784968418,133.30220280447583
208779,9689,208779.0,36896.0,208779.0,36321.0,134.98891982478642,71.18464644124208,130.88808465076485
208779,9698,208779.0,36858.0,208779.0,36303.0,133.7599656041217,69.82917009078122,128.3767755684464
208789,9691,208789.0,36855.0,208789.0,36287.0,132.46390970422198,68.42217921755457,125.76998488200519
208789,9675,208789.0,36863.0,208789.0,36295.0,131.10009685917603,66.96455594642826,123.06929633173814
208789,9686,208789.0,36876.0,208789.0,36317.0,129.66806125466,65.45673592043657,120.27606829138122
208789,9693,208789.0,36897.0,208789.0,36311.0,128.16748405936735,63.898917873535275,117.39166890843887
208789,9677,208789.0,36882.0,208789.0,36299.0,126.59829681877245,62.291487317087416,114.4178437484905
208789,9663,208789.0,36860.0,208789.0,36271.0,124.96075668090907,60.63529613101052,111.35682734140528
208799,9648,208799.0,36844.0,208799.0,36280.0,123.25528096576532,58.93153698440494,108.21113178801744
208799,9670,208799.0,36862.0,208799.0,36270.0,121.48218070769641,57.1813764796494,104.98329972351846
208799,9668,208799.0,36864.0,208799.0,36283.0,119.6416048114126,55.385776012089565,101.67586035641901
208799,9666,208799.0,36872.0,208799.0,36282.0,117.73373730965011,53.545643992853684,98.29148242947039
208799,9661,208799.0,36854.0,208799.0,36263.0,115.7589967747144,51.66207858018229,94.83318033456509
208799,9649,208799.0,36858.0,208799.0,36239.0,113.71808002535695,49.73645804095456,91.30434461235956
208810,9636,208810.0,36818.0,208810.0,36239.0,111.61186428005516,47.77032204158864,87.70849757653093
208810,9646,208810.0,36863.0,208810.0,36246.0,109.44124058853978,45.7651389388988,84.04902489491019
208810,9642,208810.0,36863.0,208810.0,36245.0,107.20703231667841,43.72226258008048,80.32916431203421
208810,9652,208810.0,36859.0,208810.0,36235.0,104.91008769963382,41.64323843713183,76.55218259663852
208810,9633,208810.0,36838.0,208810.0,36225.0,102.55144322564395,39.53009678348927,72.72148966652722
208810,9617,208810.0,36812.0,208810.0,36212.0,100.13236354425045,37.385258472628095,68.84058859710677
208820,9631,208820.0,36831.0,208820.0,36200.0,97.65420120046967,35.21116253391943,64.9129160431731
208820,9626,208820.0,36827.0,208820.0,36207.0,95.11829269192546,33.010006087714125,60.94167617108208
208820,9630,208820.0,36841.0,208820.0,36210.0,92.52605067875443,30.783806969548344,56.92980965109861
208820,9615,208820.0,36834.0,208820.0,36205.0,89.8791106417209,28.534645308011584,52.88014819841439
208820,9611,208820.0,36818.0,208820.0,36190.0,87.17936397243612,26.26484114212166,48.79559266800297
208820,9604,208820.0,36808.0,208820.0,36182.0,84.42887946527938,23.976916229782184,44.67913449820145
208830,9591,208830.0,36809.0,208830.0,36188.0,81.62978802746706,21.673384493969508,40.53376897691348
208830,9603,208830.0,36830.0,208830.0,36180.0,78.7841851814939,19.356630061704877,36.36248236725457
208830,9606,208830.0,36822.0,208830.0,36176.0,75.89414438231022,17.02905292593615,32.168341126842904
208830,9590,208830.0,36811.0,208830.0,36157.0,72.9618694123186,14.69331822987801,27.95454146266502
208830,9575,208830.0,36773.0,208830.0,36143.0,69.98977734256852,12.35235899132661,23.72431186399092
208830,9574,208830.0,36769.0,208830.0,36147.0,66.98036628013583,10.008998615529272,19.480715055999255
208841,9569,208841.0,36792.0,208841.0,36136.0,63.93602972121387,7.66549261543058,15.22651319170933
208841,9565,208841.0,36799.0,208841.0,36139.0,60.85898135134556,5.323444788163222,10.964169037657669
208841,9581,208841.0,36792.0,208841.0,36136.0,57.75129628698618,2.984113965179297,6.695922352041862
208841,9558,208841.0,36790.0,208841.0,36122.0,54.6150444009422,0.6487105854574509,2.4238806621390694
208841,9547,208841.0,36777.0,208841.0,36118.0,51.452376026180225,-1.6815334905097075,-1.8499484869810203
208841,9548,208841.0,36776.0,208841.0,36115.0,48.26542033339089,-4.005445065918053,-6.123696024465914
208851,9551,208851.0,36782.0,208851.0,36112.0,45.056156186244124,-6.3219999956927495,-10.395641490111288
208851,9553,208851.0,36784.0,208851.0,36110.0,41.82646182453989,-8.630298444619768,-14.66415035504059
208851,9530,208851.0,36781.0,208851.0,36097.0,38.578252243087775,-10.929423025936792,-18.927597271660943
208851,9532,208851.0,36756.0,208851.0,36083.0,35.31349373744061,-13.21834984335996,-23.184366374487183
208851,9513,208851.0,36745.0,208851.0,36067.0,32.03407126915248,-15.496088530306096,-27.43298939652304
208851,9517,208851.0,36724.0,208851.0,36061.0,28.741632034243146,-17.76204524651692,-31.672379154425528
208861,9527,208861.0,36774.0,208861.0,36060.0,25.437524574216845,-20.016341529983244,-35.902026906260105
208861,9525,208861.0,36758.0,208861.0,36082.0,22.122922419541602,-22.259744989003543,-40.12200981342336
208861,9513,208861.0,36763.0,208861.0,36053.0,18.799047223710275,-24.4932826617218,-44.332778168267225
208861,9500,208861.0,36760.0,208861.0,36057.0,15.46725861971855,-26.717947836687472,-48.53494904420573
208861,9484,208861.0,36740.0,208861.0,36048.0,12.12892373801742,-28.934641965727167,-52.72928241986436
208861,9489,208861.0,36740.0,208861.0,36051.0,8.78518776556514,-31.144274737558305,-56.9167041706998
208872,9509,208872.0,36775.0,208872.0,36057.0,5.436880254295005,-33.347860385419,-61.09822007861203
208872,9500,208872.0,36767.0,208872.0,36053.0,2.08471296796381,-35.54632890355157,-65.27471880828236
208872,9478,208872.0,36745.0,208872.0,36044.0,-1.2704371811586412,-37.74016142305588,-69.44675893560063
208872,9471,208872.0,36721.0,208872.0,36013.0,-4.627508211006798,-39.929341483342185,-73.61451404242084
208872,9457,208872.0,36716.0,208872.0,36023.0,-7.985488098433677,-42.11373146472414,-77.77794871439318
208872,9467,208872.0,36732.0,208872.0,36023.0,-11.343639684043794,-44.293477531217135,-81.93701092193052
208882,9464,208882.0,36744.0,208882.0,36011.0,-14.70154751560787,-46.46906667308831,-86.09162019930022
208882,9472,208882.0,36746.0,208882.0,36020.0,-18.058982606416876,-48.6410317964248,-90.24154471511909
208882,9450,208882.0,36728.0,208882.0,35996.0,-21.415716665638016,-50.80961852336543,-94.38631901732055
208882,9447,208882.0,36697.0,208882.0,35981.0,-24.771463897624557,-52.97475164981353,-98.52527329189522
208882,9443,208882.0,36712.0,208882.0,35981.0,-28.12597263998697,-55.136345775190335,-102.65771462501152
208882,9437,208882.0,36740.0,208882.0,35980.0,-31.479119118486736,-57.29455738520811,-106.78310446275549
208893,9450,208893.0,36738.0,208893.0,35992.0,-34.830898093510726,-59.44957971702783,-110.90102991871518
208893,9438,208893.0,36717.0,208893.0,35971.0,-38.1813043318446,-61.60121515519391,-115.01100942215453
208893,9431,208893.0,36708.0,208893.0,35960.0,-41.53019394947215,-63.74874322746028,-119.1123654499182
208893,9411,208893.0,36687.0,208893.0,35943.0,-44.8772855010011,-65.89116313383383,-123.20432625691981
208893,9419,208893.0,36680.0,208893.0,35950.0,-48.22231296330668,-68.02757405539855,-127.28624734619771
208893,9420,208893.0,36694.0,208893.0,35944.0,-51.56513432145128,-70.15748685180859,-131.35772402239016
208903,9417,208903.0,36694.0,208903.0,35937.0,-54.90566017626827,-72.28089718098047,-135.41854850315823
208903,9399,208903.0,36681.0,208903.0,35926.0,-58.24372987335978,-74.39815445886786,-139.46865933364361
208903,9393,208903.0,36688.0,208903.0,35908.0,-61.579133481985906,-76.50986748285355,-143.50820655801124
208903,9383,208903.0,36664.0,208903.0,35928.0,-64.91177355825756,-78.61693979943662,-147.53768003372764
208903,9387,208903.0,36668.0,208903.0,35913.0,-68.24181491967462,-80.72069027522821,-151.55792077251076
208903,9397,208903.0,36695.0,208903.0,35914.0,-71.56969089174078,-82.82294146522959,-155.56998696111404
208913,9385,208913.0,36723.0,208913.0,35922.0,-74.89594376109346,-84.92579039282862,-159.57500820185203
208913,9387,208913.0,36701.0,208913.0,35914.0,-78.2210370361673,-87.03102930711685,-163.57402794180797
208913,9370,208913.0,36665.0,208913.0,35884.0,-81.54528318448948,-89.13974454599877,-167.56787655515927
208913,9364,208913.0,36641.0,208913.0,35866.0,-84.86889897559081,-91.25255688196921,-171.55730372607078
208913,9369,208913.0,36667.0,208913.0,35879.0,-88.19211151844002,-93.37023618312315,-175.54333367727696
208913,9360,208913.0,36689.0,208913.0,35895.0,-91.51519558681557,-95.49398813449872,-179.52742835572772
208924,9366,208924.0,36688.0,208924.0,35895.0,-94.83840984601957,-97.62514383809145,-183.51122986190543
208924,9350,208924.0,36670.0,208924.0,35872.0,-98.16191494553067,-99.76468937777662,-187.49616742227087
208924,9345,208924.0,36659.0,208924.0,35855.0,-101.48575644300581,-101.91312909766447,-191.48334574179097
208924,9336,208924.0,36650.0,208924.0,35854.0,-104.80994088716466,-104.07068863545607,-195.47375516670527
208924,9339,208924.0,36667.0,208924.0,35855.0,-108.1345342278702,-106.23754806516231,-199.46849399255737
208924,9327,208924.0,36676.0,208924.0,35865.0,-111.45969755659263,-108.4138339619551,-203.46876003789643
208934,9343,208934.0,36661.0,208934.0,35856.0,-114.78565208044037,-110.59937847870069,-207.4756418045305
208934,9322,208934.0,36645.0,208934.0,35841.0,-118.11258546780999,-112.79355708469197,-211.48991763104982
208934,9308,208934.0,36620.0,208934.0,35818.0,-121.44060074585732,-114.9954559139926,-215.5120732732637
208934,9309,208934.0,36625.0,208934.0,35825.0,-124.76983119097605,-117.20427362726628,-219.5425318156988
208934,9309,208934.0,36647.0,208934.0,35822.0,-128.10059371436043,-119.41961175728383,-223.58184495608674
208934,9302,208934.0,36664.0,208934.0,35821.0,-131.4334006268466,-121.64134798022445,-227.630673631739
208944,9317,208944.0,36645.0,208944.0,35823.0,-134.76886012870364,-123.86919148976773,-231.68964094284183
208944,9301,208944.0,36612.0,208944.0,35800.0,-138.1075241972995,-126.10242033997599,-235.75920710820947
208944,9283,208944.0,36603.0,208944.0,35801.0,-141.44978301751723,-128.3401265871039,-239.8396655973096
208944,9282,208944.0,36617.0,208944.0,35793.0,-144.79595366956062,-130.58169200289026,-243.93123816364403
208944,9284,208944.0,36629.0,208944.0,35795.0,-148.14645580438295,-132.82697631298134,-248.03412710968257
208944,9280,208944.0,36648.0,208944.0,35798.0,-151.50184763939436,-135.0760621527484,-252.1484498988118
208955,9284,208955.0,36620.0,208955.0,35773.0,-154.8627242844818,-137.3288279256199,-256.27412491534596
208955,9261,208955.0,36591.0,208955.0,35761.0,-158.22962004169176,-139.58478771206214,-260.410882409496
208955,9261,208955.0,36593.0,208955.0,35744.0,-161.60302798876492,-141.84339453514073,-264.5584916970273
208955,9252,208955.0,36602.0,208955.0,35756.0,-164.98352671089228,-144.10445689304524,-268.71703665166615
208955,9264,208955.0,36621.0,208955.0,35760.0,-168.37186036172815,-146.36820514186843,-272.88698450719045
208955,9254,208955.0,36612.0,208955.0,35746.0,-171.7688708489379,-148.63499963902763,-277.06901761022925
208965,9238,208965.0,36615.0,208965.0,35759.0,-175.17539140176788,-150.90500038991826,-281.2638284584649
208965,9233,208965.0,36592.0,208965.0,35728.0,-178.59228160513032,-153.17803698886829,-285.47200954655574
208965,9227,208965.0,36578.0,208965.0,35719.0,-182.02058363609365,-155.45373146750916,-289.6940885922724
208965,9233,208965.0,36600.0,208965.0,35738.0,-185.4616215870114,-157.73175060867652,-293.93068079140454
208965,9245,208965.0,36594.0,208965.0,35734.0,-188.9169264655394,-160.01190036818576,-298.1824950010751
208965,9235,208965.0,36609.0,208965.0,35727.0,-192.3879969488742,-162.29394706271304,-302.4501027650039
208975,9216,208975.0,36585.0,208975.0,35711.0,-195.8760880987192,-164.57737782222148,-306.7337575278757
208975,9221,208975.0,36561.0,208975.0,35691.0,-199.38221822042823,-166.8613755421049,-311.0334603226656
208975,9205,208975.0,36552.0,208975.0,35694.0,-202.9072987119016,-169.14512370306988,-315.34919097382465
208975,9211,208975.0,36572.0,208975.0,35694.0,-206.4522148528086,-171.42820430756342,-319.6810862530866
208975,9210,208975.0,36590.0,208975.0,35698.0,-210.01782107701865,-173.71066195112257,-324.0294051132419
208975,9201,208975.0,36556.0,208975.0,35682.0,-213.60486284224694,-175.99271582812972,-328.3943599207231
208986,9210,208986.0,36568.0,208986.0,35679.0,-217.2138756635087,-178.27455881888093,-332.77601200467103
208986,9192,208986.0,36549.0,208986.0,35665.0,-220.84510176222918,-180.55643590608165,-337.17430032323904
208986,9180,208986.0,36551.0,208986.0,35671.0,-224.4984728843186,-182.8387975192134,-341.58911420217487
208986,9178,208986.0,36584.0,208986.0,35678.0,-228.17372201473913,-185.12232947373047,-346.02027051107234
208986,9182,208986.0,36590.0,208986.0,35684.0,-231.87051066191438,-187.40768949877616,-350.4673042147764
208986,9176,208986.0,36588.0,208986.0,35669.0,-235.58841184633528,-189.69499485723048,-354.9291573050733
208996,9163,208996.0,36533.0,208996.0,35652.0,-239.32682165821296,-191.98351637833363,-359.40400492976727
208996,9155,208996.0,36524.0,208996.0,35634.0,-243.0849693907912,-194.27196138398446,-363.8893604157618
208996,9148,208996.0,36537.0,208996.0,35641.0,-246.86203841124328,-196.55910268345403,-368.3823337739546
208996,9177,208996.0,36557.0,208996.0,35641.0,-250.65722173018477,-198.844102035711,-372.87977258612733
208996,9149,208996.0,36559.0,208996.0,35626.0,-254.46956254160966,-201.1262812221258,-377.3781983461485
208996,9147,208996.0,36543.0,208996.0,35628.0,-258.297747729541,-203.40471919293157,-381.8737144205199
209005,9143,209005.0,36525.0,209005.0,35620.0,-262.14009317295404,-205.67811648327225,-386.361984904389
209005,9130,209005.0,36534.0,209005.0,35604.0,-265.99463589643597,-207.94497145229965,-390.83823997766143
209005,9129,209005.0,36548.0,209005.0,35614.0,-269.85920360276026,-210.20373447344133,-395.2973079017626
209005,9128,209005.0,36559.0,209005.0,35619.0,-273.73145962636346,-212.45265275626812,-399.73359083917984
209005,9130,209005.0,36558.0,209005.0,35610.0,-277.6088727848995,-214.68938882420127,-404.1408794309552
209005,9108,209005.0,36526.0,209005.0,35590.0,-281.488632442225,-216.91074055109513,-408.5121702362697
209016,9113,209016.0,36509.0,209016.0,35581.0,-285.3676424307257,-219.11274210780155,-412.8397088456471
209016,9099,209016.0,36516.0,209016.0,35581.0,-289.2426020190548,-221.29107509113288,-417.1151840165061
209016,9111,209016.0,36519.0,209016.0,35591.0,-293.1100485547506,-223.44138723994598,-421.3298140450779
209016,9098,209016.0,36517.0,209016.0,35574.0,-296.96630117689165,-225.559304360404,-425.47423255186885
209016,9087,209016.0,36529.0,209016.0,35565.0,-300.8073866601249,-227.6402792839731,-429.53836217107846
209016,9083,209016.0,36519.0,209016.0,35559.0,-304.62906690896034,-229.6794176376928,-433.5114484640439
209026,9094,209026.0,36491.0,209026.0,35544.0,-308.4269054958728,-231.67139795135415,-437.3821916474
209026,9075,209026.0,36506.0,209026.0,35537.0,-312.19622362531106,-233.6106157783732,-441.13889148641346
209026,9093,209026.0,36525.0,209026.0,35550.0,-315.93198209473155,-235.4913415350232,-444.7695591714644
209026,9082,209026.0,36536.0,209026.0,35543.0,-319.62865214087213,-237.30753201752978,-448.2618812035636
209026,9073,209026.0,36503.0,209026.0,35540.0,-323.28008140763296,-239.05243744477625,-451.6030518669353
209026,9068,209026.0,36496.0,209026.0,35520.0,-326.87945033083525,-240.71849194094062,-454.7796770602616
209036,9046,209036.0,36485.0,209036.0,35515.0,-330.4193677086013,-242.29759493446392,-457.77786322969405
209036,9042,209036.0,36481.0,209036.0,35526.0,-333.8920631788523,-243.7814700396058,-460.58337243724327
209036,9055,209036.0,36511.0,209036.0,35519.0,-337.28957160749746,-245.16182847695143,-463.1816375936879
209036,9058,209036.0,36517.0,209036.0,35528.0,-340.6037133366283,-246.43020373347028,-465.5576160557746
209036,9047,209036.0,36497.0,209036.0,35502.0,-343.82586852719453,-247.57757510792388,-467.69565002866784
209036,9025,209036.0,36477.0,209036.0,35502.0,-346.9468372778059,-248.5942074228067,-469.5794840166537
209047,9023,209047.0,36460.0,209047.0,35484.0,-349.9569679342541,-249.4699298048574,-471.1924479231477
209047,9026,209047.0,36480.0,209047.0,35486.0,-352.8463838943221,-250.19457862074827,-472.517688948209
209047,9029,209047.0,36494.0,209047.0,35503.0,-355.6050481588751,-250.7581738410601,-473.53829901758985
209047,9027,209047.0,36504.0,209047.0,35482.0,-358.2226416633834,-251.1506834519689,-474.2372573382314
209047,9019,209047.0,36474.0,209047.0,35479.0,-360.6884176128892,-251.36167372559302,-474.5973464771375
209047,8996,209047.0,36454.0,209047.0,35477.0,-362.99119000562246,-251.3802908939509,-474.6012307198169
209057,8996,209057.0,36462.0,209057.0,35461.0,-365.1195153805221,-251.19564134650784,-474.2316244106374
209057,8992,209057.0,36452.0,209057.0,35478.0,-367.0619426781632,-250.79719833493274,-473.4714375057389
209057,8986,209057.0,36477.0,209057.0,35464.0,-368.8071595664899,-250.1749501886448,-472.3038543737697
209057,8996,209057.0,36475.0,209057.0,35468.0,-370.34402143359324,-249.3192984740116,-470.7123504432291
209057,8978,209057.0,36466.0,209057.0,35444.0,-371.6615241241483,-248.22086022424668,-468.68077068592703
209057,8968,209057.0,36443.0,209057.0,35444.0,-372.7488239893912,-246.87044370593938,-466.1935655836866
209067,8967,209067.0,36435.0,209067.0,35450.0,-373.5953966729053,-245.25934778024072,-463.2360920064597
209067,8982,209067.0,36485.0,209067.0,35453.0,-374.19119534494683,-243.37971195115233,-459.79478522427775
209067,8986,209067.0,36488.0,209067.0,35473.0,-374.5265921868249,-241.2244458534658,-455.8571256228133
209067,8962,209067.0,36455.0,209067.0,35441.0,-374.59219047051556,-238.78682343134577,-451.4115280548616
209067,8966,209067.0,36447.0,209067.0,35425.0,-374.37880098483674,-236.06039772302867,-446.447441599974
209067,8959,209067.0,36437.0,209067.0,35446.0,-373.8776195390826,-233.0394266984797,-440.9557612901097
209078,8962,209078.0,36459.0,209078.0,35436.0,-373.0803913257877,-229.71934287582667,-434.92921215309286
209078,8963,209078.0,36469.0,209078.0,35460.0,-371.9794713579279,-226.0968925094619,-428.36245897000236
209078,8967,209078.0,36488.0,209078.0,35466.0,-370.567815649311,-222.1699404473747,-421.25203911697747
209078,8956,209078.0,36480.0,209078.0,35466.0,-368.8389539779913,-217.93715730209493,-413.596234015404
209078,8964,209078.0,36454.0,209078.0,35458.0,-366.78701529024517,-213.39789458799493,-405.3950290578375
209078,8952,209078.0,36465.0,209078.0,35476.0,-364.4068120248357,-208.55241988439374,-396.6502531315784
209088,8949,209088.0,36469.0,209088.0,35473.0,-361.69396330866243,-203.40229550466208,-387.3657500068106
209088,8964,209088.0,36491.0,209088.0,35502.0,-358.64503897589884,-197.95053841327535,-377.5474337958369
209088,8973,209088.0,36510.0,209088.0,35510.0,-355.25759503249884,-192.2014722939884,-367.20320609632046
209088,8976,209088.0,36495.0,209088.0,35506.0,-351.53002984635884,-186.1604457117541,-356.34281355175114
209088,8962,209088.0,36473.0,209088.0,35501.0,-347.46144327723516,-179.8337541907918,-344.9778600869625
209088,8962,209088.0,36470.0,209088.0,35526.0,-343.05170117023965,-173.22899066733453,-333.12203421297954
209098,8970,209098.0,36517.0,209098.0,35555.0,-338.3016485766653,-166.3555165041284,-320.7912535360825
209098,8975,209098.0,36542.0,209098.0,35570.0,-333.21325516605424,-159.22447605686793,-308.00348925134057
209098,8982,209098.0,36544.0,209098.0,35578.0,-327.78961589838013,-151.84829782511662,-294.77844414505375
209098,8983,209098.0,36534.0,209098.0,35583.0,-322.03490200585645,-144.24023835254607,-281.1373850602406
209098,8988,209098.0,36532.0,209098.0,35590.0,-315.9543471797691,-136.41437119781378,-267.1032000181564
209098,8999,209098.0,36561.0,209098.0,35613.0,-309.5542627555884,-128.38583234194573,-252.70054169327835
209109,9014,209109.0,36581.0,209109.0,35666.0,-302.84200280145956,-120.17088647549234,-237.95580758163882
209109,9021,209109.0,36597.0,209109.0,35661.0,-295.8258303365673,-111.78666391976121,-222.896802261729
209109,9023,209109.0,36607.0,209109.0,35673.0,-288.5147633670566,-103.25079026632832,-207.55234802637057
209109,9020,209109.0,36597.0,209109.0,35696.0,-280.91853403800974,-94.5811692430561,-191.95217487750534
209109,9031,209109.0,36614.0,209109.0,35707.0,-273.04768691744835,-85.79600121076115,-176.12695741049095
209109,9041,209109.0,36633.0,209109.0,35739.0,-264.9136926488515,-76.91388290810546,-160.1082608498694
209119,9069,209119.0,36654.0,209119.0,35766.0,-256.5289228266148,-67.95373691402128,-143.9283567928029
209119,9082,209119.0,36681.0,209119.0,35808.0,-247.90642703510895,-58.93451356214594,-127.61987526022153
209119,9091,209119.0,36680.0,209119.0,35829.0,-239.05960879124953,-49.8748083815325,-111.21529808636794
209119,9086,209119.0,36670.0,209119.0,35823.0,-230.00200841375667,-40.79263325261773,-94.7464969908311
209119,9091,209119.0,36668.0,209119.0,35834.0,-220.7473198810069,-31.705532931016137,-78.24460265346576
209119,9100,209119.0,36706.0,209119.0,35875.0,-211.30955826598426,-22.630880409584094,-61.74014507344603
209130,9130,209130.0,36729.0,209130.0,35895.0,-201.7031587412675,-13.585911401549694,-45.26304934167479
209130,9132,209130.0,36731.0,209130.0,35914.0,-191.942867062179,-4.5873901246041555,-28.842356319550987
209130,9152,209130.0,36730.0,209130.0,35904.0,-182.0435181991843,4.348707640044211,-12.505987003604787
209130,9148,209130.0,36727.0,209130.0,35925.0,-172.01988477799904,13.207189173233985,3.7192014466712635
209130,9152,209130.0,36725.0,209130.0,35938.0,-161.88667377291114,21.973390498984656,19.807194393568807
209130,9169,209130.0,36774.0,209130.0,35976.0,-151.65863859476408,30.63294479470531,35.73272743016935
209140,9183,209140.0,36792.0,209140.0,35993.0,-141.35065634048345,39.171893754640195,51.471453475871044
209140,9206,209140.0,36805.0,209140.0,36004.0,-130.97764020720115,47.57716463153204,67.00023448701057
209140,9201,209140.0,36774.0,209140.0,35993.0,-120.55435337174349,55.83696009190541,82.29727727284362
209140,9214,209140.0,36780.0,209140.0,36010.0,-110.0953039642469,63.94066263317231,97.34196238753574
209140,9231,209140.0,36783.0,209140.0,36041.0,-99.61476113252547,71.87839965353851,112.11457727319137
209140,9235,209140.0,36822.0,209140.0,36051.0,-89.12675613796978,79.64074509639096,126.5962781196165
209150,9245,209150.0,36841.0,209150.0,36078.0,-78.64503968805442,87.2188514316033,140.7692770339529
209150,9266,209150.0,36827.0,209150.0,36087.0,-68.18305778548728,94.6048463336748,154.61705478182887
209150,9269,209150.0,36821.0,209150.0,36085.0,-57.75389910292077,101.79202686222453,168.12448027546486
209150,9269,209150.0,36797.0,209150.0,36093.0,-47.3702377320474,108.77459843425964,181.27774830019717
209150,9281,209150.0,36829.0,209150.0,36117.0,-37.04439230528732,115.54717737025044,194.064196682739
209150,9301,209150.0,36852.0,209150.0,36141.0,-26.7884302480509,122.10451456720918,206.47226036276226
209161,9310,209161.0,36886.0,209161.0,36129.0,-16.614142721409706,128.4417258207131,218.49161741994033
209161,9322,209161.0,36869.0,209161.0,36138.0,-6.53291212448201,134.5548225447799,230.11324815875207
209161,9316,209161.0,36846.0,209161.0,36163.0,3.444366327938411,140.4409986637824,241.32930437687526
209161,9327,209161.0,36834.0,209161.0,36159.0,13.307218254277672,146.09835000906776,252.13302588566745
209161,9345,209161.0,36859.0,209161.0,36154.0,23.04546230836104,151.52530154000573,262.51872477685885
209161,9343,209161.0,36875.0,209161.0,36197.0,32.6491690075718,156.72030505058876,272.4816919489467
209171,9375,209171.0,36904.0,209171.0,36207.0,42.10871663692865,161.68202395434759,282.0182244033138
209171,9381,209171.0,36873.0,209171.0,36195.0,51.41492229007429,166.4097218769242,291.12587060105415
209171,9376,209171.0,36870.0,209171.0,36197.0,60.55920990729592,170.90338964229875,299.8035256836464
209171,9383,209171.0,36887.0,209171.0,36216.0,69.53363752045814,175.16350544237133,308.0512511670265
209171,9395,209171.0,36888.0,209171.0,36217.0,78.33076172240695,179.190812698309,315.8701348465112
209171,9419,209171.0,36919.0,209171.0,36220.0,86.9435763945938,182.98638475515367,323.26229817035824
209181,9429,209181.0,36911.0,209181.0,36232.0,95.36566152412715,186.55188531828844,330.23089927019396
209181,9416,209181.0,36902.0,209181.0,36209.0,103.59138853434956,189.88979389137984,336.78006479818816
209181,9423,209181.0,36874.0,209181.0,36221.0,111.61592330052943,193.00332902997883,342.9147120209433
209181,9434,209181.0,36887.0,209181.0,36227.0,119.43503715245672,195.89604100041595,348.64030758533545
209181,9447,209181.0,36914.0,209181.0,36252.0,127.04498910604428,198.57145420324878,353.9627894570501
209181,9457,209181.0,36943.0,209181.0,36244.0,134.44258874379454,201.03317613555004,358.88872875788115
209192,9453,209192.0,36922.0,209192.0,36244.0,141.62531034827708,203.28539182844185,363.4255066767189
209192,9454,209192.0,36894.0,209192.0,36236.0,148.59129851858654,205.33316688033108,367.5812937509926
209192,9456,209192.0,36870.0,209192.0,36214.0,155.33923297323747,207.1821461103737,371.36481711489785
209192,9464,209192.0,36904.0,209192.0,36251.0,161.86816188278362,208.83792289723533,374.7850469953338
209192,9473,209192.0,36915.0,209192.0,36251.0,168.17741710603468,210.30572863985498,377.85107942637546
209192,9482,209192.0,36913.0,209192.0,36252.0,174.26663564748617,211.59063846381025,380.57232012733164
209202,9476,209202.0,36913.0,209202.0,36226.0,180.13582057607925,212.69788016568793,382.9586333130426
209202,9488,209202.0,36899.0,209202.0,36243.0,185.78534427930032,213.6329102916764,385.02020216744666
209202,9487,209202.0,36891.0,209202.0,36226.0,191.21589810084873,214.40126729901476,386.7672848211803
209202,9496,209202.0,36902.0,209202.0,36233.0,196.42846120494073,215.0083372145458,388.2100597839336
209202,9500,209202.0,36923.0,209202.0,36242.0,201.4243048359894,215.45926231736297,389.35856050268467
209202,9500,209202.0,36930.0,209202.0,36250.0,206.20500765835618,215.75915861686696,390.2227371684566
209212,9509,209212.0,36911.0,209212.0,36237.0,210.77245785134943,215.91345982328517,390.8126272334154
209212,9500,209212.0,36878.0,209212.0,36222.0,215.12882976700274,215.92797682800136,391.1384137303202
209212,9503,209212.0,36874.0,209212.0,36218.0,219.27651283004752,215.8084984788258,391.2102395285397
209212,9509,209212.0,36920.0,209212.0,36222.0,223.21799665921316,215.5603240436073,391.03793909694
209212,9521,209212.0,36902.0,209212.0,36222.0,226.955817567773,215.18826144028134,390.630910057673
209212,9541,209212.0,36913.0,209212.0,36218.0,230.49267362081667,214.69698380606923,389.99813433379074
209223,9522,209223.0,36894.0,209223.0,36231.0,233.83165352611894,214.09125046091145,389.1482474015556
209223,9516,209223.0,36885.0,209223.0,36203.0,236.97633440033314,213.37584438049626,388.08960476357515
209223,9514,209223.0,36862.0,209223.0,36202.0,239.9306026031437,212.55530697401767,386.8302441776984
209223,9523,209223.0,36897.0,209223.0,36217.0,242.69839382652782,211.63361774695352,385.37773730121324
209223,9520,209223.0,36891.0,209223.0,36220.0,245.28357897310673,210.61411416786206,383.73918345592443
209223,9531,209223.0,36898.0,209223.0,36210.0,247.68997950919686,209.49972041797182,381.9214160995516
209233,9517,209233.0,36886.0,209233.0,36184.0,249.9214028878127,208.2931894513109,379.931116191326
209233,9520,209233.0,36875.0,209233.0,36200.0,251.9816108988898,206.9971397071925,377.774664262124
209233,9521,209233.0,36876.0,209233.0,36191.0,253.87421272991088,205.61391876475457,375.45796370146064
209233,9532,209233.0,36901.0,209233.0,36204.0,255.60259999246148,204.14550027505337,372.9864657605567
209233,9543,209233.0,36910.0,209233.0,36221.0,257.1700308559238,202.59366098846257,370.3653900090594
209233,9532,209233.0,36904.0,209233.0,36210.0,258.579814609016,200.9603912655474,367.60007530749965
209243,9536,209243.0,36900.0,209243.0,36198.0,259.8354305977502,199.24821521504202,364.69628303546926
209243,9524,209243.0,36873.0,209243.0,36175.0,260.94049441224524,197.46022004287397,361.6602115772105
209243,9521,209243.0,36882.0,209243.0,36176.0,261.8986218035541,195.59984512284385,358.4982441393745
209243,9532,209243.0,36902.0,209243.0,36191.0,262.7132812829914,193.67069377402146,355.21672516524063
209243,9541,209243.0,36882.0,209243.0,36164.0,263.3877708781146,191.67661048113692,351.8219695367084
209243,9532,209243.0,36892.0,209243.0,36169.0,263.9253573844223,189.6218757098886,348.32034246288504
209254,9526,209254.0,36840.0,209254.0,36146.0,264.3293877763234,187.5111964208965,344.718197360635
209254,9521,209254.0,36840.0,209254.0,36142.0,264.60322494006414,185.34936465061995,341.02170592573145
209254,9529,209254.0,36855.0,209254.0,36153.0,264.7501088071274,183.14077828821965,337.236709708631
209254,9533,209254.0,36872.0,209254.0,36143.0,264.7731188442338,180.88927923412683,333.3687225150112
209254,9532,209254.0,36883.0,209254.0,36159.0,264.6752701755353,178.5984747444812,329.4230976079191
209254,9533,209254.0,36856.0,209254.0,36134.0,264.4596359800692,176.2721856601322,325.40523001376675
209264,9520,209264.0,36828.0,209264.0,36124.0,264.1293948802149,173.914559991896,321.3206359067869
209264,9518,209264.0,36819.0,209264.0,36104.0,263.6877667949015,171.5297121012074,317.1748056874614
209264,9536,209264.0,36852.0,209264.0,36140.0,263.1379181042612,169.12126982744348,312.97299449887646
209264,9536,209264.0,36865.0,209264.0,36143.0,262.4830201806133,166.6923677415695,308.7203183208641
209264,9520,209264.0,36855.0,209264.0,36116.0,261.7264368983908,164.24609450329592,304.4221534465804
209264,9519,209264.0,36833.0,209264.0,36113.0,260.8717819837732,161.78586602678982,300.0843757417719
209274,9512,209274.0,36812.0,209274.0,36089.0,259.92278943096636,159.31534793993762,295.7132351146614
209274,9511,209274.0,36824.0,209274.0,36089.0,258.88316686183276,156.83808102942112,291.31509166330494
209274,9514,209274.0,36831.0,209274.0,36096.0,257.7565248011402,154.35723251305734,286.89623995717324
209274,9523,209274.0,36826.0,209274.0,36094.0,256.5464080571257,151.87566730416282,282.4629426722671
209274,9519,209274.0,36834.0,209274.0,36080.0,255.256437185246,149.39615703116087,278.02160456945876
209274,9514,209274.0,36820.0,209274.0,36060.0,253.89046278071066,146.92153041698302,273.57883364778087
209285,9497,209285.0,36800.0,209285.0,36056.0,252.4525887975617,144.45468397794306,269.1412820079988
209285,9498,209285.0,36821.0,209285.0,36063.0,250.9470323904079,141.99844080827222,264.71545037219533
209285,9504,209285.0,36839.0,209285.0,36063.0,249.37796180780765,139.55551032146468,260.30768877303433
209285,9516,209285.0,36835.0,209285.0,36065.0,247.7495085030127,137.12878360747703,255.92439522603516
209285,9498,209285.0,36808.0,209285.0,36029.0,246.0659513035668,134.72168706585373,251.5721895685356
209285,9494,209285.0,36785.0,209285.0,36030.0,244.33183775377364,132.338149000562,247.25784369556962
209295,9482,209295.0,36787.0,209295.0,36018.0,242.55189880693865,129.98218513740667,242.9880246430212
209295,9479,209295.0,36800.0,209295.0,36015.0,240.73085790703067,127.65752589730427,238.76909517110215
209295,9488,209295.0,36797.0,209295.0,36026.0,238.8732941825449,125.36758885706277,234.6070788916873
209295,9487,209295.0,36810.0,209295.0,36028.0,236.9836567399073,123.11569711564326,230.5077978288539
209295,9487,209295.0,36782.0,209295.0,35989.0,235.06640360007498,120.9052884651535,226.47706888800838
209295,9466,209295.0,36773.0,209295.0,35984.0,233.12610121233791,118.73991693254084,222.52065750981518
209305,9462,209305.0,36757.0,209305.0,35982.0,231.16734476412023,116.6229919406076,218.64396808448106
209305,9463,209305.0,36782.0,209305.0,35999.0,229.19455985156338,114.55747353735165,214.85185747182118
209305,9474,209305.0,36805.0,209305.0,35991.0,227.21190392550054,112.54587975991743,211.14877787276814
209305,9461,209305.0,36788.0,209305.0,35977.0,225.22335641436706,110.59067484298474,207.53902628531338
209305,9459,209305.0,36759.0,209305.0,35974.0,223.2328334681545,108.6946010637667,204.02682112558367
209305,9443,209305.0,36746.0,209305.0,35943.0,221.24416327298462,106.86052511328481,200.6161714703856
209316,9453,209316.0,36755.0,209316.0,35945.0,219.2609602604729,105.0909830645058,197.31061771126002
209316,9450,209316.0,36747.0,209316.0,35955.0,217.28655391530157,103.38788323235396,194.11298920079017
209316,9458,209316.0,36759.0,209316.0,35958.0,215.32405908453495,101.75248219939837,191.02540543503346
209316,9459,209316.0,36765.0,209316.0,35957.0,213.37654518215015,100.1855125233836,188.0495166329904
209316,9451,209316.0,36760.0,209316.0,35949.0,211.44721109499912,98.68738720675734,185.18674079589408
209316,9439,209316.0,36743.0,209316.0,35924.0,209.53945640813393,97.25834328919635,182.4383170793439
209326,9435,209326.0,36744.0,209326.0,35948.0,207.65679218121878,95.89838086438061,179.80518554980108
209326,9437,209326.0,36757.0,209326.0,35935.0,205.80269235271035,94.60712298376222,177.28791387065968
209326,9426,209326.0,36768.0,209326.0,35943.0,203.98051315391353,93.38386560198424,174.88680647665785
209326,9438,209326.0,36754.0,209326.0,35920.0,202.19348244558444,92.22782567013058,172.60203027249563
209326,9411,209326.0,36721.0,209326.0,35919.0,200.444702204937,91.13825550789291,170.433584828843
209326,9414,209326.0,36719.0,209326.0,35902.0,198.7370810867862,90.1141684915841,168.38113326005868
209336,9408,209336.0,36743.0,209336.0,35914.0,197.07317672251068,89.15392904923158,166.44381723218146
209336,9415,209336.0,36754.0,209336.0,35917.0,195.45508527708407,88.25519673749595,164.62020586876253
209336,9411,209336.0,36765.0,209336.0,35914.0,193.8844672261738,87.41529123633283,162.9084231044366
209336,9408,209336.0,36752.0,209336.0,35914.0,192.36263036060333,86.63162215910474,161.30632198944397
209336,9394,209336.0,36725.0,209336.0,35893.0,190.89055056464952,85.90184175223183,159.8115501777047
209336,9400,209336.0,36723.0,209336.0,35885.0,189.46879187511055,85.22361533281928,158.42143786057505
209347,9414,209347.0,36746.0,209347.0,35917.0,188.09745530793833,84.59427869645322,157.1328255987993
209347,9407,209347.0,36756.0,209347.0,35918.0,186.77630416526264,84.01081160114958,155.94214379191348
209347,9404,209347.0,36754.0,209347.0,35915.0,185.5049626087327,83.47015776959509,154.8457782888143
209347,9407,209347.0,36747.0,209347.0,35907.0,184.28300739393728,82.96953128278878,153.84036405318005
209347,9403,209347.0,36724.0,209347.0,35895.0,183.10998717959484,82.50644840131301,152.92280867297399
209347,9383,209347.0,36728.0,209347.0,35872.0,181.98541394630897,82.07849906942022,152.09010248572042
209357,9397,209357.0,36750.0,209357.0,35890.0,180.9086638048059,81.68311317272565,151.33902267899828
209357,9402,209357.0,36750.0,209357.0,35891.0,179.87889446731953,81.31761506788794,150.66595609877382
209357,9400,209357.0,36753.0,209357.0,35886.0,178.89514332353485,80.97950980277932,150.06697038967548
209357,9388,209357.0,36731.0,209357.0,35879.0,177.95648067714825,80.66667529269176,149.53793323599658
209357,9376,209357.0,36715.0,209357.0,35873.0,177.06199151685496,80.37725815966434,149.07448757657698
209357,9384,209357.0,36738.0,209357.0,35898.0,176.21060001799916,80.10937246664218,148.67198816003605
209368,9391,209368.0,36749.0,209368.0,35888.0,175.40095739097308,79.86096567757642,148.32559992866763
209368,9391,209368.0,36751.0,209368.0,35897.0,174.63152870098642,79.63004011098235,148.03053004748608
209368,9389,209368.0,36747.0,209368.0,35893.0,173.90076739768847,79.4149709155551,147.78221362147468
209368,9370,209368.0,36711.0,209368.0,35867.0,173.20718534963294,79.21458266855511,147.57635813842322
209368,9367,209368.0,36693.0,209368.0,35856.0,172.5492334368048,79.02783287056019,147.40876381241617
209368,9376,209368.0,36728.0,209368.0,35883.0,171.9250979837927,78.85329260736681,147.2750069886461
209378,9377,209378.0,36757.0,209378.0,35872.0,171.33262962318224,78.68899105802241,147.17033077971251
209378,9390,209378.0,36741.0,209378.0,35883.0,170.76947143107498,78.53284448116322,147.089809860301
209378,9370,209378.0,36737.0,209378.0,35891.0,170.23324879030145,78.38313750224904,147.02856291620918
209378,9366,209378.0,36712.0,209378.0,35867.0,169.72162880256073,78.23857107229497,146.9819117183496
209378,9377,209378.0,36696.0,209378.0,35855.0,169.23221896970608,78.09792774519909,146.94536960177146
209378,9371,209378.0,36727.0,209378.0,35875.0,168.7625035440826,77.95965585267277,146.91442307433928
209388,9385,209388.0,36750.0,209388.0,35885.0,168.30992690620508,77.82178141063511,146.88443251960115
209388,9385,209388.0,36752.0,209388.0,35878.0,167.8720572674646,77.68231375228557,146.85083832178083
209388,9368,209388.0,36742.0,209388.0,35871.0,167.4467376874097,77.5397584173098,146.80939126463997
209388,9351,209388.0,36694.0,209388.0,35856.0,167.0320565142947,77.39323142755322,146.7561442660321
209388,9365,209388.0,36685.0,209388.0,35854.0,166.62610089233823,77.24201309890319,146.68724808325442
209388,9357,209388.0,36717.0,209388.0,35869.0,166.22675041164325,77.08489962054836,146.59875551384715
209399,9374,209399.0,36734.0,209399.0,35867.0,165.83168500431123,76.9199979963355,146.48662242328976
209399,9365,209399.0,36742.0,209399.0,35869.0,165.43852620689046,76.74511819182806,146.34687537168085
209399,9363,209399.0,36709.0,209399.0,35862.0,165.04497020250125,76.55823840233374,146.17575169126545
209399,9348,209399.0,36698.0,209399.0,35852.0,164.64879331872177,76.35753555560215,145.9697069081967
209399,9359,209399.0,36719.0,209399.0,35858.0,164.24773005548053,76.14105801453512,145.725319985313
209399,9358,209399.0,36734.0,209399.0,35863.0,163.83938358917678,75.90656265921065,145.43922601849448
209409,9364,209409.0,36746.0,209409.0,35866.0,163.42127810756233,75.65178151910445,145.10818982551598
209409,9371,209409.0,36728.0,209409.0,35863.0,162.99100853031473,75.37483470485122,144.7292638706493
209409,9352,209409.0,36705.0,209409.0,35833.0,162.5463865076103,75.0743707993172,144.29984444613234
209409,9344,209409.0,36691.0,209409.0,35834.0,162.0854431363208,74.74928501244395,143.8174825213095
209409,9339,209409.0,36702.0,209409.0,35838.0,161.6062338243833,74.39825192090095,143.279572792326
209409,9363,209409.0,36721.0,209409.0,35848.0,161.106651787575,74.0194856710103,142.68322659514027
209419,9352,209419.0,36744.0,209419.0,35859.0,160.58447892289252,73.61094018041176,142.02542995283002
209419,9334,209419.0,36723.0,209419.0,35840.0,160.0375385373843,73.17077130661525,141.30331078546897
209419,9353,209419.0,36690.0,209419.0,35846.0,159.46368287262646,72.69758344697408,140.51428264924525
209419,9342,209419.0,36705.0,209419.0,35827.0,158.86071060919934,72.19019147284513,139.6559983126394
209419,9346,209419.0,36719.0,209419.0,35835.0,158.22639453123185,71.64727647915026,138.72622050982588
209419,9353,209419.0,36723.0,209419.0,35834.0,157.55855871042343,71.06741096313966,137.72273339460983
209430,9348,209430.0,36733.0,209430.0,35857.0,156.85517087698153,70.44936847890001,136.6434080956461
209430,9333,209430.0,36692.0,209430.0,35825.0,156.1144156431415,69.7923474704549,135.4864123241273
209430,9328,209430.0,36691.0,209430.0,35810.0,155.3346171027094,69.09585433278777,134.25028482809336
209430,9321,209430.0,36684.0,209430.0,35827.0,154.51402705592386,68.35930846293759,132.93372297286433
209430,9340,209430.0,36709.0,209430.0,35817.0,153.65066712126026,67.58174977937979,131.53538705323743
209430,9343,209430.0,36711.0,209430.0,35840.0,152.74238668918647,66.76190776688743,130.05397029751248
209440,9336,209440.0,36705.0,209440.0,35815.0,151.78709225911433,65.89849041719367,128.488407111705
209440,9338,209440.0,36696.0,209440.0,35803.0,150.7829276412932,64.9903713326475,126.83796866289389
209440,9325,209440.0,36678.0,209440.0,35801.0,149.72829985552474,64.0365171824762,125.1021163169764
209440,9329,209440.0,36685.0,209440.0,35798.0,148.62181554443117,63.03574661543331,123.28027282856903
209440,9338,209440.0,36719.0,209440.0,35814.0,147.4622372333552,61.98659791334871,121.37175617166518
209440,9327,209440.0,36729.0,209440.0,35816.0,146.24854447781328,60.887592791103096,119.37593674111648
209450,9331,209450.0,36695.0,209450.0,35810.0,144.9800331548526,59.73773044233657,117.29251068747227
209450,9316,209450.0,36686.0,209450.0,35788.0,143.65633150705207,58.53665535164298,115.12166072190735
209450,9314,209450.0,36674.0,209450.0,35782.0,142.27732081901564,57.2843491486709,112.86395059635367
209450,9309,209450.0,36697.0,209450.0,35779.0,140.84300728431057,55.980769474073995,110.52007062847389
209450,9309,209450.0,36703.0,209450.0,35804.0,139.35341589784733,54.62581631961547,108.09071555158147
209450,9321,209450.0,36721.0,209450.0,35806.0,137.80858125178833,53.21963798603359,105.57677882507508
209461,9301,209461.0,36703.0,209461.0,35781.0,136.20863523369206,51.76303381221307,102.97970553039872
209461,9298,209461.0,36666.0,209461.0,35760.0,134.5538519883642,50.25760761059922,100.30159098148707
209461,9295,209461.0,36657.0,209461.0,35751.0,132.84455097635202,48.705451196353366,97.54488131745215
209461,9304,209461.0,36690.0,209461.0,35764.0,131.0809977567897,47.10864330521795,94.71200183026258
209461,9305,209461.0,36689.0,209461.0,35777.0,129.26346033409584,45.469134524249384,91.80528936191135
209461,9296,209461.0,36684.0,209461.0,35770.0,127.39236237113215,43.789048525222334,88.82725904865484
209471,9278,209471.0,36652.0,209471.0,35733.0,125.4683389814731,42.070881463985714,85.78085320694939
209471,9277,209471.0,36626.0,209471.0,35725.0,123.49209390047939,40.31725746761707,82.66931003205028
209471,9275,209471.0,36641.0,209471.0,35720.0,121.4641875333266,38.53038786232278,79.49574915291674
209471,9283,209471.0,36663.0,209471.0,35716.0,119.38495215927162,36.71172380152749,76.26285440081483
209471,9279,209471.0,36672.0,209471.0,35733.0,117.2545727251149,34.862132091501685,72.97281963856355
209471,9283,209471.0,36666.0,209471.0,35733.0,115.07323607743876,32.98236548567913,69.62752720792074
209481,9283,209481.0,36647.0,209481.0,35715.0,112.84127172390045,31.073368030765025,66.22882333230534
209481,9259,209481.0,36633.0,209481.0,35710.0,110.55923352200456,29.136213064753655,62.778641493089324
209481,9258,209481.0,36655.0,209481.0,35708.0,108.22782716870378,27.171849898711372,59.278925147925165
209481,9260,209481.0,36665.0,209481.0,35728.0,105.84772394751353,25.181043655062133,55.731598644451324
209481,9269,209481.0,36663.0,209481.0,35711.0,103.4194914148207,23.164645843909682,52.13874816232163
209481,9257,209481.0,36643.0,209481.0,35691.0,100.94371385745693,21.123888044710327,48.50281631821433
209492,9256,209492.0,36625.0,209492.0,35674.0,98.42112239094907,19.060364749658774,44.826514901578406
209492,9246,209492.0,36623.0,209492.0,35661.0,95.85260515981125,16.975725565563103,41.112479947132854
209492,9235,209492.0,36607.0,209492.0,35667.0,93.23912189973692,14.871323619054245,37.36293618967841
209492,9251,209492.0,36657.0,209492.0,35688.0,90.5816037818496,12.74805891374924,33.57961366497814
209492,9242,209492.0,36635.0,209492.0,35679.0,87.88095993105054,10.606574446559137,29.763995309473728
209492,9235,209492.0,36638.0,209492.0,35670.0,85.13818856384228,8.447641130379267,25.917666819633425
209502,9224,209502.0,36620.0,209502.0,35649.0,82.3544105804058,6.2723348496707985,22.04243885250787
209502,9216,209502.0,36595.0,209502.0,35645.0,79.53075474777248,4.081884198631499,18.140194968318767
209502,9232,209502.0,36615.0,209502.0,35638.0,76.6682340744942,1.877354812541526,14.212665604584245
209502,9236,209502.0,36643.0,209502.0,35648.0,73.76780154596743,-0.34048976063280634,10.2613222990706
209502,9220,209502.0,36626.0,209502.0,35633.0,70.83057709119781,-2.5709058129384346,6.287436627889335
209502,9206,209502.0,36596.0,209502.0,35621.0,67.85797254585196,-4.8128301499088195,2.2921601263831803
209512,9199,209512.0,36597.0,209512.0,35620.0,64.85155672371654,-7.064973451063139,-1.723520557454691
209512,9195,209512.0,36581.0,209512.0,35619.0,61.812822448581315,-9.32620266788679,-5.758870342183826
209512,9199,209512.0,36611.0,209512.0,35627.0,58.743055845476476,-11.595787517559529,-9.813366289228185
209512,9200,209512.0,36614.0,209512.0,35615.0,55.643362484278825,-13.873310759162237,-13.886530077586883
209512,9204,209512.0,36606.0,209512.0,35621.0,52.51481188254991,-16.15833536810574,-17.977753819916046
209512,9196,209512.0,36606.0,209512.0,35594.0,49.35861735689834,-18.45013420756709,-22.08621637674588
209523,9175,209523.0,36574.0,209523.0,35591.0,46.17622166763228,-20.747678514960853,-26.21094280709974
209523,9170,209523.0,36574.0,209523.0,35594.0,42.96918318264315,-23.0498670144721,-30.35095234206068
209523,9177,209523.0,36587.0,209523.0,35603.0,39.738967747567145,-25.355815576138497,-34.50528444617197
209523,9171,209523.0,36600.0,209523.0,35603.0,36.4868769165476,-27.66489580250368,-38.67279371878851
209523,9164,209523.0,36584.0,209523.0,35575.0,33.21411856766167,-29.976480073681785,-42.85190389907842
209523,9159,209523.0,36567.0,209523.0,35557.0,29.921845820509446,-32.2897532949808,-47.040616476879634
209533,9147,209533.0,36551.0,209533.0,35542.0,26.611105528093574,-34.60385647591849,-51.236832649069214
209533,9140,209533.0,36543.0,209533.0,35548.0,23.282730708692526,-36.91825288540059,-55.438731671004746
209533,9153,209533.0,36586.0,209533.0,35557.0,19.93724366703853,-39.23298087050435,-59.64491222912672
209533,9163,209533.0,36601.0,209533.0,35559.0,16.57492358010427,-41.54844729950376,-63.85422403875148
209533,9153,209533.0,36575.0,209533.0,35549.0,13.196079002818465,-43.864844603348445,-68.06546780198454
209533,9146,209533.0,36561.0,209533.0,35526.0,9.801300648426263,-46.18178638142088,-72.27723676860944
209543,9134,209543.0,36548.0,209543.0,35532.0,6.391502176875321,-48.49846512683803,-76.4880011274098
209543,9126,209543.0,36560.0,209543.0,35519.0,2.9677975395371305,-50.81399412353575,-80.69626528188911
209543,9135,209543.0,36570.0,209543.0,35520.0,-0.46863134659061245,-53.12752474801465,-84.9006280670722
209543,9129,209543.0,36566.0,209543.0,35518.0,-3.916545089218573,-55.43807242090082,-89.09975809804487
209543,9110,209543.0,36527.0,209543.0,35495.0,-7.37457598849339,-57.74434669963475,-93.29236119744667
209543,9101,209543.0,36517.0,209543.0,35491.0,-10.841278294516286,-60.044941719299246,-97.47724113158336
209554,9100,209554.0,36523.0,209554.0,35495.0,-14.315325907036296,-62.33880202517672,-101.65344155479431
209554,9093,209554.0,36532.0,209554.0,35488.0,-17.795671380901453,-64.6255125494633,-105.82029111325778
209554,9098,209554.0,36555.0,209554.0,35495.0,-21.281577235554465,-66.90517801271713,-109.97730114686021
209554,9097,209554.0,36553.0,209554.0,35491.0,-24.772549958151032,-69.17801521172859,-114.12400303262478
209554,9093,209554.0,36537.0,209554.0,35476.0,-28.26821517647548,-71.44394961051113,-118.25980006578385
209554,9075,209554.0,36499.0,209554.0,35458.0,-31.768233181783145,-73.70255419318154,-122.38395734298442
209564,9072,209564.0,36518.0,209564.0,35466.0,-35.27235802471421,-75.95339534078568,-126.49575799969566
209564,9074,209564.0,36541.0,209564.0,35462.0,-38.780571389153764,-78.19634052614128,-130.59462142975966
209564,9089,209564.0,36544.0,209564.0,35470.0,-42.29308685652953,-80.43138869256289,-134.68002566049793
209564,9064,209564.0,36532.0,209564.0,35463.0,-45.81017599293864,-82.65822771781905,-138.75130473358763
209564,9070,209564.0,36501.0,209564.0,35447.0,-49.33202672089277,-84.87604715779932,-142.80748503291653
209564,9067,209564.0,36498.0,209564.0,35426.0,-52.858739202475675,-87.08378436897812,-146.847314385625
209574,9061,209574.0,36504.0,209574.0,35431.0,-56.390321616847075,-89.28051869046689,-150.86948599194275
209574,9062,209574.0,36507.0,209574.0,35433.0,-59.926635237001676,-91.46564337622112,-154.8728224719739
209574,9058,209574.0,36534.0,209574.0,35448.0,-63.467339399788074,-93.63871614351373,-158.85620150945473
209574,9049,209574.0,36500.0,209574.0,35413.0,-67.01184447008211,-95.7991462087902,-162.81831419924038
209574,9044,209574.0,36478.0,209574.0,35398.0,-70.55930721456264,-97.94606590790173,-166.7576021928619
209574,9038,209574.0,36474.0,209574.0,35384.0,-74.10868277096796,-100.07862167170683,-170.67253962976335
209585,9029,209585.0,36503.0,209585.0,35396.0,-77.65879276588055,-102.1963524935639,-174.56199074850983
209585,9036,209585.0,36507.0,209585.0,35396.0,-81.20837521159345,-104.29916010327426,-178.42530931111963
209585,9025,209585.0,36515.0,209585.0,35407.0,-84.7560777697037,-106.38690324251104,-182.26214952083885
209585,9020,209585.0,36497.0,209585.0,35382.0,-88.30041668387867,-108.45901269775712,-186.07219487583853
209585,9003,209585.0,36466.0,209585.0,35369.0,-91.83980665952814,-110.51443065729634,-189.85506603279487
209585,9006,209585.0,36442.0,209585.0,35371.0,-95.37268804676805,-112.55197559736905,-193.61047447504347
209595,8998,209595.0,36467.0,209595.0,35353.0,-98.8976481678047,-114.57091214232508,-197.338419625292
209595,9001,209595.0,36496.0,209595.0,35384.0,-102.41345184241032,-116.57118964700425,-201.03924322915145
209595,8996,209595.0,36497.0,209595.0,35365.0,-105.9189953233631,-118.55308036892151,-204.7134863692101
209595,8986,209595.0,36452.0,209595.0,35361.0,-109.4132504654599,-120.51667864257232,-208.36165838152078
209595,8976,209595.0,36449.0,209595.0,35334.0,-112.89528011359496,-122.46189649815278,-211.98418276650227
209595,8979,209595.0,36454.0,209595.0,35334.0,-116.36433081469917,-124.38888084526752,-215.5815990036292
209606,8972,209606.0,36488.0,209606.0,35356.0,-119.81989765049323,-126.29822689349598,-219.15476121963923
209606,8974,209606.0,36474.0,209606.0,35339.0,-123.26170455136705,-128.19071055466432,-222.70476656116455
209606,8962,209606.0,36463.0,209606.0,35332.0,-126.68965677240325,-130.06690205504177,-226.23274073938683
209606,8946,209606.0,36443.0,209606.0,35327.0,-130.10386065596143,-131.92710595372515,-229.73978022304448
209606,8956,209606.0,36441.0,209606.0,35315.0,-133.5047410397573,-133.7716315972403,-233.22704295041092
209606,8948,209606.0,36431.0,209606.0,35319.0,-136.8931288124371,-135.60111674922734,-236.69583776934758
209616,8963,209616.0,36453.0,209616.0,35316.0,-140.2701931324745,-137.41669998615876,-240.14764780894552
209616,8961,209616.0,36483.0,209616.0,35329.0,-143.6372385222644,-139.21988803435585,-243.58403714759373
209616,8937,209616.0,36464.0,209616.0,35303.0,-146.99549834415942,-141.01209777700453,-247.0064771583423
209616,8938,209616.0,36417.0,209616.0,35290.0,-150.34611282458488,-142.79431203355722,-250.41629283086132
209616,8929,209616.0,36432.0,209616.0,35282.0,-153.69028349241728,-144.5673023810206,-253.81485246942788
209616,8932,209616.0,36437.0,209616.0,35281.0,-157.02939352767714,-146.3320911420086,-257.2038287069337
209626,8939,209626.0,36439.0,209626.0,35287.0,-160.364986723987,-148.09007372829223,-260.58530210818094
209626,8933,209626.0,36459.0,209626.0,35298.0,-163.69862525797083,-149.84280535226452,-263.96164659606336
209626,8918,209626.0,36432.0,209626.0,35268.0,-167.03174561696855,-151.59172931225507,-267.33530591550857
209626,8911,209626.0,36423.0,209626.0,35242.0,-170.365672509933,-153.33807548435948,-270.7087625942181
209626,8906,209626.0,36403.0,209626.0,35255.0,-173.7017704783232,-155.08306658780828,-274.08483895739516
209626,8906,209626.0,36422.0,209626.0,35263.0,-177.04157126588922,-156.82826016611688,-277.46696584521686
209637,8910,209637.0,36424.0,209637.0,35277.0,-180.38678178762223,-158.57569232796956,-280.8590566945944
209637,8900,209637.0,36455.0,209637.0,35259.0,-183.7391949093974,-160.32767951242582,-284.2651346069952
209637,8900,209637.0,36434.0,209637.0,35263.0,-187.10060012275744,-162.08640368542925,-287.68906238269454
209637,8895,209637.0,36392.0,209637.0,35240.0,-190.47275072244886,-163.8536674269104,-291.1344988417759
209637,8889,209637.0,36406.0,209637.0,35245.0,-193.8573570742502,-165.63113656333437,-294.60499631227515
209637,8883,209637.0,36416.0,209637.0,35250.0,-197.25609579840332,-167.42075458582624,-298.1040853643427
209647,8895,209647.0,36443.0,209647.0,35245.0,-200.6706145765817,-169.22475001426025,-301.63521310992905
209647,8885,209647.0,36413.0,209647.0,35245.0,-204.10245360405222,-171.04525890511684,-305.2015794763404
209647,8871,209647.0,36406.0,209647.0,35237.0,-207.55293625173115,-172.88407443415608,-308.80601300423467
209647,8871,209647.0,36402.0,209647.0,35216.0,-211.02318471563248,-174.7427663332715,-312.4509568984626
209647,8866,209647.0,36387.0,209647.0,35224.0,-214.51422216067618,-176.6229454906428,-316.1385773826152
209647,8866,209647.0,36429.0,209647.0,35228.0,-218.0270115672826,-178.52639438799488,-319.8708566650777
209657,8857,209657.0,36434.0,209657.0,35224.0,-221.5624271999914,-180.45487309286028,-323.64950247754973
209657,8847,209657.0,36408.0,209657.0,35208.0,-225.12125175816286,-182.40967765195384,-327.47578542737654
209657,8843,209657.0,36391.0,209657.0,35204.0,-228.70424774977886,-184.39144057209106,-331.350518623664
209657,8853,209657.0,36393.0,209657.0,35184.0,-232.3122261615257,-186.4003797678168,-335.2741896550416
209657,8847,209657.0,36399.0,209657.0,35212.0,-235.94598693011872,-188.43660132908064,-339.2470910893809
209657,8842,209657.0,36417.0,209657.0,35211.0,-239.60616964030095,-190.50010397267687,-343.2692410362116
209668,8847,209668.0,36394.0,209668.0,35202.0,-243.29314394344019,-192.59054790880649,-347.3400755503881
209668,8837,209668.0,36399.0,209668.0,35188.0,-247.00693765437674,-194.70708156360902,-351.45821036606975
209668,8818,209668.0,36368.0,209668.0,35167.0,-250.7472065635142,-196.8484062809647,-355.62149054291973
209668,8823,209668.0,36350.0,209668.0,35163.0,-254.51332691216865,-199.01307295914071,-359.827245096966
209668,8816,209668.0,36387.0,209668.0,35170.0,-258.30452756929583,-201.19985483426404,-364.072522050733
209668,8818,209668.0,36408.0,209668.0,35165.0,-262.11991217393586,-203.40778361614593,-368.3541178045705
209678,8816,209678.0,36396.0,209678.0,35179.0,-265.95838543418006,-205.6356810480449,-372.6684069954914
209678,8804,209678.0,36371.0,209678.0,35157.0,-269.81857063238533,-207.88170602129696,-377.01111258553436
209678,8794,209678.0,36349.0,209678.0,35147.0,-273.69880336926195,-210.14341916833885,-381.37718629178573
209678,8793,209678.0,36373.0,209678.0,35140.0,-277.597225876185,-212.41818690705264,-385.7608925888056
209678,8796,209678.0,36397.0,209678.0,35154.0,-281.51186457355936,-214.70334825324173,-390.15593252555925
209678,8806,209678.0,36394.0,209678.0,35148.0,-285.4405553461929,-216.99587937862958,-394.5553768382678
209688,8791,209688.0,36385.0,209688.0,35132.0,-289.3807368381098,-219.2919101540498,-398.95147737019533
209688,8779,209688.0,36361.0,209688.0,35129.0,-293.32930409214623,-221.5865541876861,-403.33559986981413
209688,8772,209688.0,36337.0,209688.0,35127.0,-297.28266630283593,-223.87415164799813,-407.69829056167043
209688,8759,209688.0,36332.0,209688.0,35098.0,-301.23692783415174,-226.148759081645,-412.02935332218374
209688,8768,209688.0,36349.0,209688.0,35101.0,-305.1880388141871,-228.4045747515119,-416.31798431045195
209688,8781,209688.0,36369.0,209688.0,35094.0,-309.13178591359906,-230.63597993497336,-420.552962358002
209699,8761,209699.0,36368.0,209699.0,35095.0,-313.06358903625147,-232.83717815625067,-424.7227335678087
209699,8748,209699.0,36337.0,209699.0,35099.0,-316.9783367877833,-235.00181299660767,-428.8153439390832
209699,8742,209699.0,36329.0,209699.0,35086.0,-320.8704753856974,-237.12296941689672,-432.8183033647421
209699,8745,209699.0,36338.0,209699.0,35082.0,-324.7341973736764,-239.1934839209303,-436.718490670477
209699,8737,209699.0,36366.0,209699.0,35085.0,-328.5635056858866,-241.20608618444516,-440.5021405751181
209699,8742,209699.0,36359.0,209699.0,35071.0,-332.3521613431654,-243.1531275110748,-444.1548340726612
209709,8745,209709.0,36342.0,209709.0,35058.0,-336.0935777109088,-245.02619991034902,-447.6615048237527
209709,8718,209709.0,36303.0,209709.0,35046.0,-339.78070604391763,-246.8161195979899,-451.00657130301
209709,8716,209709.0,36302.0,209709.0,35037.0,-343.40605621624826,-248.51338042327168,-454.17417090307714
209709,8711,209709.0,36342.0,209709.0,35039.0,-346.9618771484082,-250.1086383697131,-457.1483669786666
209709,8730,209709.0,36328.0,209709.0,35053.0,-350.44025837444326,-251.59271340813984,-459.9132018473074
209709,8714,209709.0,36331.0,209709.0,35040.0,-353.8330052679054,-252.95623649757053,-462.4525537635671
209719,8699,209719.0,36321.0,209719.0,35034.0,-357.1314804365723,-254.1894358205178,-464.7499643291211
209719,8706,209719.0,36309.0,209719.0,35024.0,-360.326632137419,-255.28218398103954,-466.788633162103
209719,8691,209719.0,36300.0,209719.0,35024.0,-363.4091148769008,-256.2241891064656,-468.5515419079485
209719,8708,209719.0,36319.0,209719.0,35027.0,-366.36932237797726,-257.0052047074455,-470.0215462369556
209719,8694,209719.0,36330.0,209719.0,35031.0,-369.1973150024665,-257.61504006605367,-471.1813473344093
209719,8684,209719.0,36322.0,209719.0,35021.0,-371.8827390785921,-258.0433188668675,-472.0133839126478
209730,8679,209730.0,36311.0,209730.0,35008.0,-374.4148699973611,-258.2792676992335,-472.4997970838726
209730,8663,209730.0,36282.0,209730.0,34997.0,-376.7827794121992,-258.3118099935974,-472.6225819897345
209730,8664,209730.0,36271.0,209730.0,34987.0,-378.9755317720618,-258.1299819282882,-472.3638802177142
209730,8673,209730.0,36311.0,209730.0,35003.0,-380.9823174482036,-257.72338733993854,-471.7062516855038
209730,8681,209730.0,36323.0,209730.0,35001.0,-382.79240138400036,-257.0822366514844,-470.63276264680115
209730,8665,209730.0,36311.0,209730.0,34999.0,-384.3949220214373,-256.19693979776173,-469.1269045466724
209740,8653,209740.0,36272.0,209740.0,34985.0,-385.7787958414015,-255.05784641695692,-467.1725567645243
209740,8645,209740.0,36271.0,209740.0,34970.0,-386.93287155368637,-253.65555050507626,-464.7541556751594
209740,8655,209740.0,36290.0,209740.0,34989.0,-387.84617037276905,-251.98143402425305,-461.85699971671875
209740,8649,209740.0,36305.0,209740.0,34992.0,-388.5079881051606,-250.02787098101598,-458.46743597724316
209740,8656,209740.0,36332.0,209740.0,34998.0,-388.9078492832848,-247.78795261439387,-454.5728053259479
209740,8644,209740.0,36289.0,209740.0,34988.0,-389.0354432098463,-245.2550759504364,-450.1613327121123
209750,8632,209750.0,36279.0,209750.0,34961.0,-388.8806576036267,-242.42288771288497,-445.22222207635775
209750,8638,209750.0,36262.0,209750.0,34966.0,-388.43374255883236,-239.28574570077302,-439.7460432724453
209750,8631,209750.0,36297.0,209750.0,34980.0,-387.68549181494313,-235.8392829709435,-433.7251887344425
209750,8643,209750.0,36316.0,209750.0,34991.0,-386.6273202272021,-232.08055288359316,-427.154062227984
209750,8628,209750.0,36313.0,209750.0,34999.0,-385.25126404221027,-228.00771669859495,-420.02898171446304
209750,8636,209750.0,36302.0,209750.0,34978.0,-383.55000139389426,-223.61972308476857,-412.3480818520726
209761,8630,209761.0,36292.0,209761.0,34995.0,-381.51692565609176,-218.91635196766947,-404.1114348135311
209761,8631,209761.0,36286.0,209761.0,34993.0,-379.1462293893481,-213.8985600137124,-395.32130245850425
209761,8639,209761.0,36320.0,209761.0,35018.0,-376.43296671466095,-208.56882014877726,-385.98228510374577
209761,8637,209761.0,36335.0,209761.0,35035.0,-373.37307203989815,-202.931145447497,-376.1012676526666
209761,8642,209761.0,36339.0,209761.0,35028.0,-369.9633433929589,-196.9907790988313,-365.68724590694444
209761,8628,209761.0,36307.0,209761.0,35039.0,-366.20146941734265,-190.75395506303911,-354.75124532791074
209771,8633,209771.0,36335.0,209771.0,35050.0,-362.0861648912961,-184.22804495113098,-343.3064129044065
209771,8645,209771.0,36330.0,209771.0,35056.0,-357.61734401287345,-177.42186021978358,-331.36812796630744
209771,8648,209771.0,36366.0,209771.0,35094.0,-352.7961756638897,-170.3457330286249,-318.9540080688565
209771,8668,209771.0,36372.0,209771.0,35107.0,-347.6249882746957,-163.01132285624269,-306.083746713806
209771,8681,209771.0,36379.0,209771.0,35136.0,-342.1070768690415,-155.43132055763496,-292.7787884094301
209771,8664,209771.0,36384.0,209771.0,35121.0,-336.24649114042984,-147.61925590726702,-279.0620326874187
209781,8665,209781.0,36376.0,209781.0,35134.0,-330.04800682629104,-139.58950333343947,-264.9577950643739
209781,8683,209781.0,36385.0,209781.0,35164.0,-323.5173146514667,-131.35744290701845,-250.49197563683686
209781,8692,209781.0,36420.0,209781.0,35198.0,-316.6611393166879,-122.93961017235027,-235.6920783466516
209781,8697,209781.0,36448.0,209781.0,35217.0,-309.48715882797984,-114.35355909533001,-220.58689591938008
209781,8696,209781.0,36434.0,209781.0,35234.0,-302.00391417785863,-105.61744568945937,-205.20608826746133
209781,8707,209781.0,36447.0,209781.0,35232.0,-294.2208406710539,-96.7497425694523,-189.5799407970974
209792,8710,209792.0,36449.0,209792.0,35260.0,-286.1483518108857,-87.76927609989889,-173.73936237208065
209792,8716,209792.0,36465.0,209792.0,35281.0,-277.7979025852484,-78.69535483750921,-157.71593981939156
209792,8741,209792.0,36507.0,209792.0,35314.0,-269.182011576047,-69.54773569140012,-141.5418253659714
209792,8760,209792.0,36521.0,209792.0,35340.0,-260.314154500669,-60.34630373016665,-125.24942765248451
209792,8760,209792.0,36523.0,209792.0,35351.0,-251.20851461500132,-51.11059856475518,-108.87104492218589
209792,8771,209792.0,36512.0,209792.0,35355.0,-241.87978584400398,-41.85956712640504,-92.43863968644663
209802,8780,209802.0,36522.0,209802.0,35387.0,-232.34313948645644,-32.61170005897699,-75.9838307243215
209802,8795,209802.0,36567.0,209802.0,35408.0,-222.61423461917707,-23.38523945891066,-59.53790305677197
209802,8821,209802.0,36586.0,209802.0,35436.0,-212.70913814393705,-14.198030358447028,-43.1316405946728
209802,8832,209802.0,36570.0,209802.0,35459.0,-202.64411349620266,-5.067084168971377,-26.79503306519132
209802,8830,209802.0,36563.0,209802.0,35451.0,-192.4353847541949,3.991604134622804,-10.557032285132607
209802,8836,209802.0,36558.0,209802.0,35463.0,-182.09907597106775,12.962752911285406,5.554457006482551
209812,8841,209812.0,36585.0,209812.0,35492.0,-171.65134948925763,21.83134736243511,21.512383051073016
209812,8857,209812.0,36609.0,209812.0,35519.0,-161.10857272056631,30.582475132378192,37.29047238525828
209812,8886,209812.0,36632.0,209812.0,35544.0,-150.48734692121687,39.2015618649892,52.86344543743962
209812,8894,209812.0,36656.0,209812.0,35540.0,-139.804334695562,47.67483113426323,68.20731683713012
209812,8903,209812.0,36620.0,209812.0,35560.0,-129.076013185961,55.98968363490718,83.29951007600539
209812,8909,209812.0,36617.0,209812.0,35559.0,-118.3185547825194,64.13466013891156,98.1187589650171
209823,8918,209823.0,36654.0,209823.0,35585.0,-107.54785910445982,72.0990351726623,112.64495447048145
209823,8933,209823.0,36672.0,209823.0,35610.0,-96.77962037676522,79.87261854841941,126.8590974942652
209823,8959,209823.0,36682.0,209823.0,35625.0,-86.02931028657957,87.44602413557712,140.74343919949274
209823,8957,209823.0,36679.0,209823.0,35633.0,-75.31203736001194,94.8110135995853,154.28170021618206
209823,8966,209823.0,36652.0,209823.0,35628.0,-64.64242199505966,101.96052280923425,167.45914264462164
209823,8973,209823.0,36654.0,209823.0,35644.0,-54.03462427418097,108.8882983261453,180.26242253048576
209833,8998,209833.0,36686.0,209833.0,35664.0,-43.50242087265531,115.58842348295093,192.67939733126673
209833,9005,209833.0,36716.0,209833.0,35683.0,-33.05916263452903,122.05522197341966,204.6991114178689
209833,9014,209833.0,36732.0,209833.0,35685.0,-22.717646772536654,128.28367473679035,216.31194381670713
209833,9031,209833.0,36729.0,209833.0,35691.0,-12.490030753977692,134.2699698577307,227.50970200960597
209833,9029,209833.0,36683.0,209833.0,35710.0,-2.3878016243796196,140.0116938764478,238.28558115484975
209833,9048,209833.0,36703.0,209833.0,35708.0,7.578223909838755,145.5074683308709,248.63410839514677
209844,9057,209844.0,36737.0,209844.0,35722.0,17.39789127344605,150.75645254577807,258.55111902030944
209844,9075,209844.0,36733.0,209844.0,35741.0,27.061758822981687,155.7583056676341,268.033744426363
209844,9081,209844.0,36741.0,209844.0,35751.0,36.56121203234173,160.51349059862787,277.08048688484234
209844,9081,209844.0,36750.0,209844.0,35731.0,45.8885442305957,165.02347057474657,285.6913225274005
209844,9076,209844.0,36720.0,209844.0,35734.0,55.03689084345706,169.29070932753592,293.8675857024549
209844,9089,209844.0,36724.0,209844.0,35751.0,64.00001334264184,173.31846466420097,301.6116549445473
209854,9107,209854.0,36742.0,209854.0,35762.0,72.77211121598447,177.110452291147,308.92677240708406
209854,9124,209854.0,36744.0,209854.0,35763.0,81.34784429770332,180.67069750296804,315.81710394172524
209854,9128,209854.0,36742.0,209854.0,35779.0,89.72252314969455,184.003623188498,322.2878494917338
209854,9122,209854.0,36741.0,209854.0,35756.0,97.89224505733978,187.11410284665027,328.3452680755937
209854,9123,209854.0,36721.0,209854.0,35748.0,105.85381389439956,190.00734085671934,333.9965200556154
209854,9132,209854.0,36743.0,209854.0,35758.0,113.60451076790685,192.6886385354258,339.24930827930734
209864,9143,209864.0,36735.0,209864.0,35776.0,121.14191792173023,195.16321580761866,344.11159106841615
209864,9160,209864.0,36778.0,209864.0,35790.0,128.46391134185882,197.43625831350977,348.5916258462436
209864,9158,209864.0,36755.0,209864.0,35773.0,135.5687735740196,199.5131877597795,352.69820351029455
209864,9164,209864.0,36727.0,209864.0,35767.0,142.45528111500835,201.3998558344927,356.4407191322223
209864,9157,209864.0,36717.0,209864.0,35774.0,149.1226591767691,203.1022911702335,359.8289775151468
209864,9172,209864.0,36755.0,209864.0,35774.0,155.57043826753466,204.62620356473025,362.87297615273906
209875,9192,209875.0,36768.0,209875.0,35782.0,161.7983745148082,205.97687666755212,365.58284336315455
209875,9192,209875.0,36763.0,209875.0,35779.0,167.80655516990737,207.15954608837518,367.9688725885761
209875,9185,209875.0,36756.0,209875.0,35789.0,173.59554764206115,208.17975480027746,370.0415715849964
209875,9192,209875.0,36728.0,209875.0,35782.0,179.16636945052744,209.04333151571927,371.811709979248
209875,9191,209875.0,36739.0,209875.0,35782.0,184.52032562300712,209.75606268566162,373.2903385452675
209875,9230,209875.0,36762.0,209875.0,35782.0,189.65894218956134,210.3234019690101,374.48875151971004
209885,9218,209885.0,36767.0,209885.0,35781.0,194.58412929627218,210.75054482983688,375.4184300508904
209885,9213,209885.0,36749.0,209885.0,35780.0,199.29840187279632,211.04273452080082,376.091008915069
209885,9213,209885.0,36746.0,209885.0,35759.0,203.80486232871704,211.2053743024067,376.51821351340124
209885,9210,209885.0,36726.0,209885.0,35750.0,208.10697757776245,211.2438303757329,376.71165951854687
209885,9214,209885.0,36730.0,209885.0,35751.0,212.20836683026567,211.16310951464106,376.68253300857
209885,9213,209885.0,36750.0,209885.0,35752.0,216.11266075712524,210.9676358601257,376.4413429701002
209895,9230,209895.0,36767.0,209895.0,35773.0,219.82343393496996,210.66133920783193,375.99789961454644
209895,9236,209895.0,36778.0,209895.0,35777.0,223.3442570022035,210.24806476290365,375.36153233439614
209895,9220,209895.0,36735.0,209895.0,35750.0,226.67881377027862,209.73197031769843,374.541376988084
209895,9228,209895.0,36733.0,209895.0,35746.0,229.83089699287927,209.11750800492626,373.54642055708825
209895,9228,209895.0,36728.0,209895.0,35733.0,232.80426850880923,208.40902489516301,372.38524621587874
209895,9239,209895.0,36775.0,209895.0,35745.0,235.60257386701448,207.61049632217478,371.0657557758788
209906,9237,209906.0,36765.0,209906.0,35763.0,238.22937809643963,206.72575404283376,369.5951262410901
209906,9248,209906.0,36739.0,209906.0,35755.0,240.68824560222157,205.75891363889383,367.98004474237973
209906,9233,209906.0,36722.0,209906.0,35721.0,242.98279324272016,204.7144161798117,366.226942343873
209906,9227,209906.0,36713.0,209906.0,35730.0,245.11663147648392,203.5966111596844,364.3418925907266
209906,9246,209906.0,36750.0,209906.0,35744.0,247.09319751113037,202.40936423667597,362.3303587494393
209906,9257,209906.0,36726.0,209906.0,35750.0,248.9157049719406,201.15605390738378,360.1972286922518
209916,9252,209916.0,36745.0,209916.0,35732.0,250.5873253314952,199.83980521358765,357.947096774816
209916,9250,209916.0,36728.0,209916.0,35736.0,252.11137433942918,198.4636487182673,355.58443030189585
209916,9243,209916.0,36720.0,209916.0,35720.0,253.49130907186793,197.03052977038143,353.1135313874655
209916,9244,209916.0,36711.0,209916.0,35718.0,254.7305962050757,195.54317807887517,350.53842560619586
209916,9251,209916.0,36742.0,209916.0,35736.0,255.83259306353403,194.0039569015691,347.8627946743968
209916,9258,209916.0,36742.0,209916.0,35741.0,256.80054454170704,192.41496293940648,345.0901007618297
209926,9254,209926.0,36739.0,209926.0,35720.0,257.6376897205049,190.77836673966686,342.22387195826417
209926,9248,209926.0,36717.0,209926.0,35701.0,258.3473445079009,189.09663736333607,339.26781689116655
209926,9249,209926.0,36696.0,209926.0,35705.0,258.9328650841851,187.37241042202382,336.22562469581175
209926,9236,209926.0,36679.0,209926.0,35702.0,259.39753049612756,185.60805607085283,333.10072746907076
209926,9249,209926.0,36714.0,209926.0,35697.0,259.74441512353627,183.80523829224933,329.8962476987889
209926,9253,209926.0,36742.0,209926.0,35715.0,259.97633995778386,181.96490049755312,326.61508401385896
209937,9256,209937.0,36744.0,209937.0,35708.0,260.09596937636553,180.08780893368976,323.2601007499136
209937,9248,209937.0,36711.0,209937.0,35699.0,260.1059541597801,178.17516007221002,319.8343625467164
209937,9241,209937.0,36708.0,209937.0,35689.0,260.00895876649975,176.22869947509042,316.34123174777284
209937,9247,209937.0,36699.0,209937.0,35678.0,259.8075667092667,174.25042292668525,312.78427790907455
209937,9255,209937.0,36718.0,209937.0,35693.0,259.5042197737748,172.24231511323651,309.1671551350941
209937,9248,209937.0,36720.0,209937.0,35697.0,259.10129015905744,170.20638077663068,305.4936454517453
209947,9255,209947.0,36716.0,209947.0,35700.0,258.60119439331686,168.14487923472248,301.7679186900281
209947,9245,209947.0,36678.0,209947.0,35652.0,258.0064497856498,166.06045054922328,297.99475781492595
209947,9246,209947.0,36688.0,209947.0,35664.0,257.31967131134013,163.95591065897167,294.1794460055548
209947,9243,209947.0,36702.0,209947.0,35665.0,256.54352908684,161.83394812225202,290.32746913521345
209947,9256,209947.0,36698.0,209947.0,35661.0,255.68073313320633,159.69711295681913,286.44443417876084
209947,9255,209947.0,36715.0,209947.0,35657.0,254.73412831411127,157.54807118266876,282.53619729982273
209957,9244,209957.0,36679.0,209957.0,35639.0,253.7068426959441,155.38983356771695,278.6089363296113
209957,9238,209957.0,36667.0,209957.0,35633.0,252.60231924493877,153.22572171325615,274.6690723324061
