c_ts,c_val,d_ts,d_val,e_ts,e_val,c_val_filtered,d_val_filtered,e_val_filtered
345319.0,13562.0,345319.0,15550.0,345319.0,34208.0,207.5322401134457,74.4522184923429,169.2643100490161
345319.0,13546.0,345319.0,15545.0,345319.0,34185.0,201.82241419079912,72.2579947952832,162.7521928612966
345319.0,13535.0,345319.0,15554.0,345319.0,34185.0,195.9350824124602,69.95383430210315,156.0428225452346
345319.0,13538.0,345319.0,15552.0,345319.0,34175.0,189.87949825656906,67.5390044035509,149.14481410378056
345329.0,13526.0,345329.0,15562.0,345329.0,34195.0,183.6649673024001,65.01316351671984,142.0668027447715
345329.0,13515.0,345329.0,15556.0,345329.0,34156.0,177.30085945153144,62.3765486227616,134.81759387391546
345329.0,13495.0,345329.0,15514.0,345329.0,34144.0,170.7965573242114,59.63004890671593,127.40622562225177
345329.0,13490.0,345329.0,15527.0,345329.0,34121.0,164.16128588605704,56.774983356295024,119.8417392255995
345329.0,13479.0,345329.0,15529.0,345329.0,34132.0,157.4039241869845,53.81276240294434,112.13284516923257
345329.0,13484.0,345329.0,15532.0,345329.0,34121.0,150.53291628916162,50.74480997575776,104.28779038749259
345339.0,13472.0,345339.0,15541.0,345339.0,34115.0,143.55631145122973,47.57274794647841,96.31444040198471
345339.0,13462.0,345339.0,15542.0,345339.0,34100.0,136.48185032057194,44.2986506636301,88.22037375746444
345339.0,13436.0,345339.0,15527.0,345339.0,34095.0,129.31694913893193,40.925264285531696,80.01287921698412
345339.0,13430.0,345339.0,15495.0,345339.0,34066.0,122.06851695022368,37.4560188256349,71.69887570565703
345339.0,13442.0,345339.0,15503.0,345339.0,34072.0,114.7427613961502,33.8947397296484,63.28477095572458
345339.0,13448.0,345339.0,15504.0,345339.0,34084.0,107.34524798186442,30.245319934743208,54.77639016962752
345350.0,13425.0,345350.0,15508.0,345350.0,34080.0,99.88120248888305,26.511659894097733,46.179174839014934
345350.0,13432.0,345350.0,15481.0,345350.0,34043.0,92.35575481601674,22.697776279195807,37.49849570050526
345350.0,13403.0,345350.0,15462.0,345350.0,34017.0,84.77399050836289,18.807739248597215,28.73964859587514
345350.0,13405.0,345350.0,15471.0,345350.0,34026.0,77.14089277695214,14.845367323427183,19.907494610044182
345350.0,13382.0,345350.0,15476.0,345350.0,34036.0,69.46123353029895,10.813995439423792,11.00622191302432
345350.0,13393.0,345350.0,15486.0,345350.0,34020.0,61.73947801448551,6.716564970046832,2.039512468411914
345360.0,13372.0,345360.0,15472.0,345360.0,34015.0,53.97977575971052,2.5559020457554738,-6.989159732169469
345360.0,13366.0,345360.0,15463.0,345360.0,34001.0,46.18599721243493,-1.6651012735504906,-16.07639449558846
345360.0,13343.0,345360.0,15456.0,345360.0,33991.0,38.361694493634076,-5.9435184195249775,-25.218869123603383
345360.0,13360.0,345360.0,15437.0,345360.0,33969.0,30.50999829828163,-10.276549452186373,-34.41340521449783
345360.0,13352.0,345360.0,15460.0,345360.0,33973.0,22.6336390247713,-14.661676417620157,-43.65708046522184
345360.0,13349.0,345360.0,15457.0,345360.0,33977.0,14.735154764959958,-19.096649095855014,-52.947260108026455
345371.0,13326.0,345371.0,15439.0,345371.0,33947.0,6.81708571409834,-23.579293126915985,-62.281469153475086
345371.0,13309.0,345371.0,15427.0,345371.0,33930.0,-1.1180413863571914,-28.107425934268363,-71.65732611321624
345371.0,13295.0,345371.0,15427.0,345371.0,33936.0,-9.067926715134035,-32.67900598806982,-81.07268399261008
345371.0,13304.0,345371.0,15413.0,345371.0,33928.0,-17.030718599429036,-37.29231310726421,-90.52572971484148
345371.0,13296.0,345371.0,15438.0,345371.0,33932.0,-25.00503818426921,-41.945997968476675,-100.01485586597963
345371.0,13298.0,345371.0,15432.0,345371.0,33913.0,-32.98980558124714,-46.638938142860084,-109.53843838851665
345381.0,13285.0,345381.0,15428.0,345381.0,33909.0,-40.984029442666724,-51.36995534800934,-119.09469027230148
345381.0,13284.0,345381.0,15402.0,345381.0,33870.0,-48.9866632107819,-56.1376489434944,-128.68167427207675
345381.0,13259.0,345381.0,15396.0,345381.0,33871.0,-56.996548315940174,-60.9405136793319,-138.29749697206
345381.0,13249.0,345381.0,15409.0,345381.0,33871.0,-65.01247674006197,-65.77716972711656,-147.9405304581403
345381.0,13251.0,345381.0,15407.0,345381.0,33851.0,-73.03333251028664,-70.64639946063508,-157.60944916876463
345381.0,13239.0,345381.0,15398.0,345381.0,33857.0,-81.0581522894083,-75.54697079412568,-167.3031345951385
345391.0,13227.0,345391.0,15387.0,345391.0,33839.0,-89.08608081617939,-80.47750817922494,-177.0205875129313
345391.0,13215.0,345391.0,15357.0,345391.0,33821.0,-97.11636896011757,-85.43658534207901,-186.76088218845007
345391.0,13213.0,345391.0,15381.0,345391.0,33804.0,-105.14844072903603,-90.42297302255619,-196.5232394951929
345391.0,13210.0,345391.0,15374.0,345391.0,33825.0,-113.18190985634112,-95.43577260617974,-206.30715623703173
345391.0,13206.0,345391.0,15374.0,345391.0,33817.0,-121.21648527772868,-100.47428795711289,-216.1123215508212
345391.0,13198.0,345391.0,15379.0,345391.0,33808.0,-129.25182420105597,-105.53780749922262,-225.9383001712875
345402.0,13180.0,345402.0,15343.0,345402.0,33775.0,-137.2874380161208,-110.62548477668074,-235.78431446278972
345402.0,13169.0,345402.0,15353.0,345402.0,33779.0,-145.32272391261222,-115.73640251564575,-245.64931546606857
345402.0,13156.0,345402.0,15345.0,345402.0,33764.0,-153.3570999631499,-120.86974331369595,-255.53215073409086
345402.0,13156.0,345402.0,15371.0,345402.0,33754.0,-161.39013441108193,-126.02479985611106,-265.4316225729886
345402.0,13164.0,345402.0,15372.0,345402.0,33748.0,-169.4215416888092,-131.20068909820594,-275.3464772002934
345402.0,13135.0,345402.0,15332.0,345402.0,33749.0,-177.45103304075252,-136.3959910258656,-285.27536533598374
345412.0,13121.0,345412.0,15318.0,345412.0,33723.0,-185.4782383012199,-141.60873093635686,-295.2167499849885
345412.0,13116.0,345412.0,15306.0,345412.0,33691.0,-193.5028465703802,-146.83677813993154,-305.1689172837062
345412.0,13108.0,345412.0,15300.0,345412.0,33709.0,-201.52478164337919,-152.07828270821457,-315.1301977185023
345412.0,13117.0,345412.0,15328.0,345412.0,33697.0,-209.54421185545124,-157.33184272932806,-325.09912052278
345412.0,13118.0,345412.0,15324.0,345412.0,33694.0,-217.56137208686408,-162.59631915610473,-335.0742888173538
345412.0,13097.0,345412.0,15327.0,345412.0,33661.0,-225.57629506515667,-167.87042983744246,-345.0542143429735
345422.0,13075.0,345422.0,15287.0,345422.0,33654.0,-233.5886887369519,-173.15247490157287,-355.037374916153
345422.0,13065.0,345422.0,15293.0,345422.0,33651.0,-241.59809530059732,-178.4404222166406,-365.0224056147565
345422.0,13067.0,345422.0,15280.0,345422.0,33637.0,-249.60413560956692,-183.73218906319744,-375.00818899195514
345422.0,13072.0,345422.0,15282.0,345422.0,33643.0,-257.6065576649117,-189.02582259640812,-384.9937957943419
345422.0,13041.0,345422.0,15271.0,345422.0,33644.0,-265.6050932578682,-194.3195305945129,-394.978322768382
345422.0,13035.0,345422.0,15274.0,345422.0,33622.0,-273.59939799896034,-199.61166778975993,-404.9606559219662
345433.0,13020.0,345433.0,15261.0,345433.0,33599.0,-281.58919616760795,-204.90071629133587,-414.93934343283524
345433.0,13007.0,345433.0,15247.0,345433.0,33565.0,-289.5744765917767,-210.18530265252582,-424.91277859062393
345433.0,13010.0,345433.0,15250.0,345433.0,33596.0,-297.55562016706756,-215.46429615334583,-434.87954913551465
345433.0,13022.0,345433.0,15259.0,345433.0,33592.0,-305.5333780675663,-220.73687096758582,-444.83851996919674
345433.0,13011.0,345433.0,15267.0,345433.0,33579.0,-313.5086318326705,-226.00235618855993,-454.78851976741674
345433.0,12991.0,345433.0,15229.0,345433.0,33552.0,-321.48211542115763,-231.25997897615318,-464.7280504442717
345443.0,12978.0,345443.0,15222.0,345443.0,33547.0,-329.45437038679984,-236.50884690510136,-474.65532711565265
345443.0,12973.0,345443.0,15239.0,345443.0,33526.0,-337.4259058227013,-241.7481857303551,-484.5684867151282
345443.0,12969.0,345443.0,15245.0,345443.0,33531.0,-345.39732628301107,-246.9774035701988,-494.46573866377616
345443.0,12946.0,345443.0,15235.0,345443.0,33542.0,-353.36935481219746,-252.19582773056422,-504.3453382549511
345443.0,12959.0,345443.0,15217.0,345443.0,33503.0,-361.34284617800694,-257.4024642953998,-514.2053828142473
345443.0,12943.0,345443.0,15197.0,345443.0,33478.0,-369.31877409686984,-262.5960618043299,-524.0437342514849
345453.0,12929.0,345453.0,15195.0,345453.0,33471.0,-377.2981640944292,-267.77540417245905,-533.8582987715436
345453.0,12934.0,345453.0,15174.0,345453.0,33461.0,-385.28207113419177,-272.93961837636164,-543.6473906103381
345453.0,12935.0,345453.0,15201.0,345453.0,33468.0,-393.271549367125,-278.08835325841386,-553.4098560669532
345453.0,12940.0,345453.0,15203.0,345453.0,33441.0,-401.26745814533,-283.2217100770767,-563.1449922890812
345453.0,12899.0,345453.0,15176.0,345453.0,33435.0,-409.27021962178907,-288.3399693378449,-572.8524814355635
345453.0,12897.0,345453.0,15179.0,345453.0,33405.0,-417.2798152800716,-293.44344579400354,-582.5324859481478
345464.0,12895.0,345464.0,15166.0,345464.0,33425.0,-425.29600114521315,-298.532591009655,-592.1858239944221
345464.0,12876.0,345464.0,15195.0,345464.0,33435.0,-433.3184482377999,-303.6080621790931,-601.8139518754837
345464.0,12877.0,345464.0,15171.0,345464.0,33415.0,-441.3467576861095,-308.6705689830105,-611.4186339749318
345464.0,12868.0,345464.0,15170.0,345464.0,33422.0,-449.38046181224763,-313.7206623833502,-621.0015673378333
345464.0,12852.0,345464.0,15152.0,345464.0,33382.0,-457.419015254339,-318.7587081822891,-630.5642279585003
345464.0,12837.0,345464.0,15131.0,345464.0,33361.0,-465.4618348293069,-323.785069612943,-640.1079953900397
345474.0,12828.0,345474.0,15143.0,345474.0,33359.0,-473.50844481862214,-328.80037550174114,-649.6344989631241
345474.0,12842.0,345474.0,15138.0,345474.0,33370.0,-481.5585921072258,-333.8056837588119,-659.1458799861113
345474.0,12828.0,345474.0,15158.0,345474.0,33353.0,-489.6121652471627,-338.8023904198652,-668.6447169075441
345474.0,12827.0,345474.0,15135.0,345474.0,33357.0,-497.6689842393414,-343.79196920290576,-678.1337853892026
345474.0,12808.0,345474.0,15120.0,345474.0,33329.0,-505.72866341245435,-348.7758106918584,-687.6159102213646
345474.0,12791.0,345474.0,15116.0,345474.0,33306.0,-513.7906384753242,-353.7553290698662,-697.0940122029579
345484.0,12790.0,345484.0,15101.0,345484.0,33300.0,-521.8543152586468,-358.73220279156953,-706.5713559666101
345484.0,12781.0,345484.0,15115.0,345484.0,33310.0,-529.9192005279974,-363.70853463264444,-716.0517841384324
345484.0,12779.0,345484.0,15119.0,345484.0,33314.0,-537.9849096542415,-368.68682582752353,-725.5396523820566
345484.0,12757.0,345484.0,15108.0,345484.0,33302.0,-546.0511219883466,-373.6697763702721,-735.0395036548194
345484.0,12756.0,345484.0,15081.0,345484.0,33269.0,-554.1176033537535,-378.6601481746185,-744.5558235472259
345484.0,12745.0,345484.0,15074.0,345484.0,33266.0,-562.1842815019194,-383.66092171048325,-754.093115360499
345495.0,12742.0,345495.0,15083.0,345495.0,33242.0,-570.2512794247798,-388.6755942476866,-763.6561713307243
345495.0,12736.0,345495.0,15093.0,345495.0,33265.0,-578.3188822428972,-393.7082634340682,-773.2502565317304
345495.0,12731.0,345495.0,15101.0,345495.0,33260.0,-586.3874680228461,-398.76338276641013,-782.8810231662985
345495.0,12716.0,345495.0,15074.0,345495.0,33228.0,-594.4574429911092,-403.84542155163723,-792.5542441200394
345495.0,12702.0,345495.0,15050.0,345495.0,33205.0,-602.5292519642975,-408.9587853916823,-802.2757480801663
345495.0,12696.0,345495.0,15061.0,345495.0,33221.0,-610.6034842206816,-414.10808002071207,-812.0516612664885
345505.0,12693.0,345505.0,15073.0,345505.0,33217.0,-618.6809756367521,-419.2983399155584,-821.8885386996872
345505.0,12695.0,345505.0,15086.0,345505.0,33211.0,-626.7627917182526,-424.5348673786547,-831.793168270919
345505.0,12676.0,345505.0,15060.0,345505.0,33195.0,-634.8501097134292,-429.82283978217157,-841.7723185804019
345505.0,12662.0,345505.0,15046.0,345505.0,33150.0,-642.944159649666,-435.1671158570465,-851.8327318615675
345505.0,12656.0,345505.0,15035.0,345505.0,33180.0,-651.0463173478469,-440.57240073509524,-861.9813759383557
345505.0,12643.0,345505.0,15042.0,345505.0,33163.0,-659.1582461653983,-446.0435166215264,-872.225619058739
345515.0,12647.0,345515.0,15051.0,345515.0,33149.0,-667.2819660000114,-451.585467290896,-882.5731209589302
345515.0,12646.0,345515.0,15057.0,345515.0,33138.0,-675.4198049787349,-457.2032233961481,-893.0317131216472
345515.0,12647.0,345515.0,15032.0,345515.0,33135.0,-683.574221626562,-462.9014166367026,-903.609427855243
345515.0,12629.0,345515.0,15010.0,345515.0,33131.0,-691.7475864859758,-468.6842603510611,-914.314495830503
345515.0,12603.0,345515.0,15012.0,345515.0,33129.0,-699.9421153641697,-474.5557914993771,-925.1552167010576
345515.0,12599.0,345515.0,15010.0,345515.0,33119.0,-708.1600472235187,-480.5201445060672,-936.1397673018586
345526.0,12608.0,345526.0,15024.0,345526.0,33111.0,-716.4038642712759,-486.58156946150933,-947.2760341793646
345526.0,12601.0,345526.0,14999.0,345526.0,33116.0,-724.6762749022065,-492.7442451411441,-958.5714823338175
345526.0,12597.0,345526.0,15009.0,345526.0,33078.0,-732.9799998889627,-499.012123480715,-970.0330376596943
345526.0,12565.0,345526.0,14983.0,345526.0,33070.0,-741.3176349367187,-505.3889126310082,-981.6670941480737
345526.0,12565.0,345526.0,14990.0,345526.0,33058.0,-749.6917412946492,-511.8781397769393,-993.479694195608
345526.0,12562.0,345526.0,14971.0,345526.0,33065.0,-758.1050307750819,-518.4832288412888,-1005.4766551551143
345536.0,12560.0,345536.0,14982.0,345536.0,33042.0,-766.5604042743572,-525.2075443885728,-1017.6634901523739
345536.0,12548.0,345536.0,14989.0,345536.0,33045.0,-775.0608356127793,-532.0543186454998,-1030.045254522448
345536.0,12554.0,345536.0,14978.0,345536.0,33016.0,-783.6092463088911,-539.0264230796695,-1042.6264593485635
345536.0,12543.0,345536.0,14952.0,345536.0,33001.0,-792.2083873839517,-546.1261706160673,-1055.411098486164
345536.0,12516.0,345536.0,14950.0,345536.0,32994.0,-800.8607503652397,-553.3553770797803,-1068.402778806859
345536.0,12514.0,345536.0,14964.0,345536.0,32992.0,-809.5686369180048,-560.7155279873577,-1081.6048057998973
345546.0,12508.0,345546.0,14951.0,345546.0,32991.0,-818.3343283373588,-568.2077329035587,-1095.0200746588794
345546.0,12511.0,345546.0,14942.0,345546.0,32987.0,-827.1601281684289,-575.8325280269657,-1108.6507991267795
345546.0,12491.0,345546.0,14925.0,345546.0,32961.0,-836.0482556198889,-583.589808266063,-1122.498233834899
345546.0,12482.0,345546.0,14923.0,345546.0,32938.0,-845.0007738552973,-591.4789272395773,-1136.562580295932
345546.0,12458.0,345546.0,14922.0,345546.0,32921.0,-854.0196724903595,-599.4987891402002,-1150.8431392461516
345546.0,12478.0,345546.0,14921.0,345546.0,32923.0,-863.1070151852404,-607.6478029637537,-1165.3385170753659
345557.0,12472.0,345557.0,14908.0,345557.0,32931.0,-872.2649215631819,-615.9237396135695,-1180.046607091981
345557.0,12470.0,345557.0,14917.0,345557.0,32901.0,-881.495314583089,-624.3235991897128,-1194.9643072174817
345557.0,12453.0,345557.0,14887.0,345557.0,32899.0,-890.7996538853735,-632.8435188923977,-1210.0872433348404
345557.0,12430.0,345557.0,14871.0,345557.0,32854.0,-900.1788736131045,-641.4787944910244,-1225.40972100214
345557.0,12418.0,345557.0,14868.0,345557.0,32865.0,-909.6335469229793,-650.224078217714,-1240.9248611514058
345557.0,12432.0,345557.0,14902.0,345557.0,32859.0,-919.1640929962041,-659.0734941998851,-1256.6246831804604
345567.0,12420.0,345567.0,14860.0,345567.0,32844.0,-928.7707695169779,-668.0204125684573,-1272.4999494774765
345567.0,12408.0,345567.0,14849.0,345567.0,32829.0,-938.4534809605896,-677.0571900378477,-1288.5399173445026
345567.0,12383.0,345567.0,14837.0,345567.0,32819.0,-948.2116940989843,-686.1752556084134,-1304.7322090871626
345567.0,12375.0,345567.0,14832.0,345567.0,32770.0,-958.0445801266098,-695.3653514086244,-1321.0628228797932
345567.0,12368.0,345567.0,14826.0,345567.0,32781.0,-967.9512255723645,-704.6176314653934,-1337.5162908764885
345567.0,12385.0,345567.0,14833.0,345567.0,32780.0,-977.9306833423102,-713.9216004866289,-1354.0758049077488
345578.0,12373.0,345578.0,14823.0,345578.0,32753.0,-987.9817627364281,-723.265937496431,-1370.723065392105
345578.0,12358.0,345578.0,14818.0,345578.0,32726.0,-998.102724416732,-732.6382815654518,-1387.4380766151394
345578.0,12334.0,345578.0,14787.0,345578.0,32705.0,-1008.2911717831076,-742.0251317833312,-1404.1992188337435
345578.0,12323.0,345578.0,14777.0,345578.0,32687.0,-1018.5442096440652,-751.4119650829607,-1420.9834986889214
345578.0,12332.0,345578.0,14807.0,345578.0,32676.0,-1028.8586476495527,-760.7834124783051,-1437.7667398242215
345578.0,12319.0,345578.0,14780.0,345578.0,32689.0,-1039.2310057313011,-770.1231724133212,-1454.5235829088226
345588.0,12307.0,345588.0,14776.0,345588.0,32673.0,-1049.6573641510333,-779.4137365970134,-1471.2272290639635
345588.0,12300.0,345588.0,14758.0,345588.0,32639.0,-1060.1332727835756,-788.6362850275656,-1487.849101554485
345588.0,12285.0,345588.0,14742.0,345588.0,32630.0,-1070.653760236514,-797.7707932708272,-1504.3587483856497
345588.0,12276.0,345588.0,14728.0,345588.0,32634.0,-1081.2133700962868,-806.7962210589312,-1520.7239239950356
345588.0,12269.0,345588.0,14708.0,345588.0,32624.0,-1091.8061981521068,-815.6907423790585,-1536.9104988978318
345588.0,12273.0,345588.0,14729.0,345588.0,32589.0,-1102.425872085485,-824.431932733195,-1552.8822145184013
345598.0,12271.0,345598.0,14732.0,345598.0,32582.0,-1113.0653969152095,-832.9967179719964,-1568.6006040600107
345598.0,12252.0,345598.0,14716.0,345598.0,32586.0,-1123.7169210455859,-841.3610591202846,-1584.0250623723937
345598.0,12241.0,345598.0,14682.0,345598.0,32539.0,-1134.3716032567818,-849.4997321404901,-1599.112829285676
345598.0,12240.0,345598.0,14685.0,345598.0,32528.0,-1145.0196274377136,-857.3864786382561,-1613.8190131929239
345598.0,12233.0,345598.0,14710.0,345598.0,32534.0,-1155.6502014263956,-864.9942288149786,-1628.0967736376192
345598.0,12230.0,345598.0,14695.0,345598.0,32516.0,-1166.251445160319,-872.2949705110163,-1641.8973810355187
345609.0,12210.0,345609.0,14685.0,345609.0,32504.0,-1176.810257529814,-879.2594109233287,-1655.170078143124
345609.0,12194.0,345609.0,14664.0,345609.0,32482.0,-1187.3122938605716,-885.8568629572687,-1667.8620099551101
345609.0,12181.0,345609.0,14655.0,345609.0,32441.0,-1197.7420928989216,-892.0554259671931,-1679.9183774739654
345609.0,12177.0,345609.0,14635.0,345609.0,32470.0,-1208.0832444807997,-897.8222777179063,-1691.282744204339
345609.0,12175.0,345609.0,14667.0,345609.0,32461.0,-1218.3184486268415,-903.123896460188,-1701.8971733459625
345609.0,12178.0,345609.0,14660.0,345609.0,32461.0,-1228.4294099286835,-907.926013831205,-1711.7020012079215
345619.0,12156.0,345619.0,14645.0,345619.0,32428.0,-1238.3966426637858,-912.193348233083,-1720.6355623946256
345619.0,12140.0,345619.0,14608.0,345619.0,32395.0,-1248.1993754370505,-915.8895387083352,-1728.6342653424217
345619.0,12134.0,345619.0,14601.0,345619.0,32391.0,-1257.8156510940103,-918.9775212744033,-1735.6330424595553
345619.0,12128.0,345619.0,14625.0,345619.0,32379.0,-1267.222470797034,-921.4200291415916,-1741.5658612200918
345619.0,12123.0,345619.0,14617.0,345619.0,32393.0,-1276.3958230987057,-923.1797566000505,-1746.3659947512988
345619.0,12120.0,345619.0,14631.0,345619.0,32371.0,-1285.3106149443552,-924.2191837304601,-1749.9660520208417
345629.0,12096.0,345629.0,14583.0,345629.0,32336.0,-1293.940604541754,-924.5004476507701,-1752.2980530985737
345629.0,12092.0,345629.0,14560.0,345629.0,32322.0,-1302.2584401184486,-923.985617685632,-1753.2938491543898
345629.0,12080.0,345629.0,14574.0,345629.0,32331.0,-1310.235799342531,-922.637357464586,-1752.8857639129042
345629.0,12091.0,345629.0,14574.0,345629.0,32323.0,-1317.8434805340157,-920.4194955466069,-1751.007049969171
345629.0,12082.0,345629.0,14570.0,345629.0,32320.0,-1325.0513373002527,-917.2972184025923,-1747.592095363003
345629.0,12078.0,345629.0,14580.0,345629.0,32294.0,-1331.828122298059,-913.2371156000399,-1742.576661836746
345640.0,12055.0,345640.0,14568.0,345640.0,32297.0,-1338.1414151374747,-908.2072725896905,-1735.8983309312534
345640.0,12051.0,345640.0,14554.0,345640.0,32284.0,-1343.9577345990047,-902.1774668119813,-1727.4970729692466
345640.0,12035.0,345640.0,14568.0,345640.0,32283.0,-1349.2427674039436,-895.1195167200206,-1717.315799274273
345640.0,12056.0,345640.0,14578.0,345640.0,32288.0,-1353.961548671919,-887.0076187458371,-1705.300867176215
345640.0,12036.0,345640.0,14571.0,345640.0,32308.0,-1358.0784737489766,-877.8185051471035,-1691.402489046419
345640.0,12022.0,345640.0,14594.0,345640.0,32302.0,-1361.5572578865035,-867.531538915756,-1675.5749944717975
345650.0,12011.0,345650.0,14557.0,345650.0,32290.0,-1364.3610837188219,-856.1289043466454,-1657.777121209322
345650.0,12012.0,345650.0,14555.0,345650.0,32280.0,-1366.4529053297495,-843.5960295167737,-1637.9725954241844
345650.0,12011.0,345650.0,14577.0,345650.0,32283.0,-1367.7956793903481,-829.9222331476453,-1616.1309863435447
345650.0,12023.0,345650.0,14581.0,345650.0,32318.0,-1368.352427422874,-815.1012502560309,-1592.2285329260185
345650.0,12014.0,345650.0,14613.0,345650.0,32342.0,-1368.086180978934,-799.1314305099573,-1566.248637934484
345650.0,11995.0,345650.0,14650.0,345650.0,32357.0,-1366.959976870637,-782.0156904348448,-1538.1820382630533
345660.0,11990.0,345660.0,14647.0,345660.0,32370.0,-1364.9370857819658,-763.7613004692085,-1508.02696774518
345660.0,11995.0,345660.0,14643.0,345660.0,32384.0,-1361.9814005732455,-744.3797840233357,-1475.789535342206
345660.0,11982.0,345660.0,14672.0,345660.0,32454.0,-1358.0577628510305,-723.8871832908137,-1441.4841690037042
345660.0,11985.0,345660.0,14717.0,345660.0,32481.0,-1353.1322188453619,-702.3043878768798,-1405.133782983208
345660.0,11988.0,345660.0,14734.0,345660.0,32535.0,-1347.1722866733248,-679.6571149040354,-1366.7696215884819
345660.0,11986.0,345660.0,14742.0,345660.0,32527.0,-1340.1471976301211,-655.9757099067349,-1326.431142887716
345671.0,11987.0,345671.0,14788.0,345671.0,32586.0,-1332.0281125518857,-631.2951218306185,-1284.1662408640618
345671.0,11969.0,345671.0,14808.0,345671.0,32639.0,-1322.7884154245455,-605.6549600842225,-1240.0316225979523
345671.0,11992.0,345671.0,14851.0,345671.0,32688.0,-1312.4041175432617,-579.0994159711117,-1194.0929382210772
345671.0,12010.0,345671.0,14880.0,345671.0,32781.0,-1300.8541929643334,-551.6770836445421,-1146.424570730893
345671.0,12004.0,345671.0,14921.0,345671.0,32829.0,-1288.1206901918624,-523.44075403032,-1097.109180674962
345671.0,12019.0,345671.0,14955.0,345671.0,32906.0,-1274.1888008837936,-494.4471902629306,-1046.2371226962302
345681.0,12008.0,345681.0,14991.0,345681.0,32957.0,-1259.0470986423568,-464.75690316279224,-993.9059316122793
345681.0,12035.0,345681.0,15036.0,345681.0,33029.0,-1242.6878997915228,-434.43393301175365,-940.2199499821371
345681.0,12060.0,345681.0,15116.0,345681.0,33112.0,-1225.1075542496728,-403.5455182927335,-885.2899826980581
345681.0,12073.0,345681.0,15174.0,345681.0,33219.0,-1206.306523054401,-372.1614348092601,-829.2327546392953
345681.0,12095.0,345681.0,15182.0,345681.0,33264.0,-1186.289343837253,-340.35313050822487,-772.1700888777991
345681.0,12111.0,345681.0,15231.0,345681.0,33349.0,-1165.0646602918603,-308.1931637302417,-714.2281193841715
345691.0,12130.0,345691.0,15274.0,345691.0,33433.0,-1142.6453256021498,-275.7550498359456,-655.53675083192
345691.0,12143.0,345691.0,15330.0,345691.0,33528.0,-1119.0485572838584,-243.11309292745256,-596.2291003599189
345691.0,12184.0,345691.0,15380.0,345691.0,33632.0,-1094.2961167079557,-210.34197565258864,-536.4406701971889
345691.0,12212.0,345691.0,15419.0,345691.0,33726.0,-1068.414387271358,-177.51623420603494,-476.3082812494482
345691.0,12251.0,345691.0,15450.0,345691.0,33800.0,-1041.4342756273043,-144.70982253174338,-415.9689474271247
345691.0,12278.0,345691.0,15509.0,345691.0,33876.0,-1013.3910282083624,-111.9958422410349,-355.5589453300879
345702.0,12305.0,345702.0,15546.0,345702.0,33959.0,-984.3240956038458,-79.44628812214853,-295.2131659273407
345702.0,12356.0,345702.0,15582.0,345702.0,34049.0,-954.2770659084981,-47.13171783175744,-235.06455561827056
345702.0,12410.0,345702.0,15677.0,345702.0,34157.0,-923.2975058886104,-15.120861652246504,-175.2434014891362
345702.0,12431.0,345702.0,15687.0,345702.0,34227.0,-891.436609390334,16.51994734196478,-115.87639575348726
345702.0,12498.0,345702.0,15729.0,345702.0,34280.0,-858.7488194180514,47.727393388291034,-57.08574229487658
345702.0,12522.0,345702.0,15733.0,345702.0,34344.0,-825.2915213876421,78.44143569234313,1.0113345163579197
345712.0,12573.0,345712.0,15754.0,345712.0,34402.0,-791.1247592464583,108.60512676197447,58.30269887774057
345712.0,12622.0,345712.0,15844.0,345712.0,34473.0,-756.3109786724194,138.16434954151487,114.68133176622268
345712.0,12670.0,345712.0,15878.0,345712.0,34565.0,-720.914738743256,167.06798112388935,170.0455146698123
345712.0,12722.0,345712.0,15908.0,345712.0,34634.0,-685.0023374370392,195.26851312574206,224.29929777828715
345712.0,12771.0,345712.0,15918.0,345712.0,34681.0,-648.6414035143333,222.72253338206247,277.35311831408126
345712.0,12799.0,345712.0,15939.0,345712.0,34728.0,-611.9005356083549,249.39072848854653,329.12419367472353
345722.0,12862.0,345722.0,15962.0,345722.0,34774.0,-574.8490612108101,275.2376150187471,379.5365405095479
345722.0,12912.0,345722.0,16013.0,345722.0,34845.0,-537.5568222640356,300.23133258421035,428.52085312006034
345722.0,12963.0,345722.0,16042.0,345722.0,34901.0,-500.09382524009277,324.3437184534846,476.01454113754085
345722.0,13019.0,345722.0,16066.0,345722.0,34939.0,-462.52979796700606,347.55060000545154,521.9619509888896
345722.0,13054.0,345722.0,16064.0,345722.0,34998.0,-424.9337764065789,369.8319861826052,566.3145505734574
345722.0,13098.0,345722.0,16080.0,345722.0,35012.0,-387.37380412277116,391.17193207264665,609.0309534870537
345733.0,13160.0,345733.0,16096.0,345733.0,35059.0,-349.9167361333846,411.55817845655497,650.0767762761566
345733.0,13206.0,345733.0,16133.0,345733.0,35103.0,-312.6279789957929,430.9818623094378,689.4243968537423
345733.0,13254.0,345733.0,16169.0,345733.0,35153.0,-275.57110424942823,449.43751924295736,727.0528337606474
345733.0,13294.0,345733.0,16157.0,345733.0,35175.0,-238.80748689928873,466.9233033026584,762.9478119340035
345733.0,13333.0,345733.0,16154.0,345733.0,35182.0,-202.3960721147788,483.4410256274806,797.1017424678373
345733.0,13375.0,345733.0,16179.0,345733.0,35204.0,-166.39324791769513,498.9958056162461,829.5133699430653
345743.0,13423.0,345743.0,16173.0,345743.0,35248.0,-130.852743022676,513.5956360832861,860.1872454338015
345743.0,13470.0,345743.0,16187.0,345743.0,35269.0,-95.82545288620372,527.251084855186,889.1333915360817
345743.0,13499.0,345743.0,16228.0,345743.0,35270.0,-61.35920031637761,539.9751123209512,916.3671552359092
345743.0,13555.0,345743.0,16240.0,345743.0,35282.0,-27.498528155146005,551.7831280455987,941.9089062953233
345743.0,13570.0,345743.0,16192.0,345743.0,35309.0,5.715447162337341,562.6931484179709,965.783526030616
345743.0,13594.0,345743.0,16202.0,345743.0,35309.0,38.24506797678259,572.7255226005645,988.019942848131
345753.0,13641.0,345753.0,16225.0,345753.0,35344.0,70.05599230402322,581.9022747745337,1008.6508048124265
345753.0,13689.0,345753.0,16271.0,345753.0,35350.0,101.11709302806526,590.2467865205199,1027.7122458239362
345753.0,13721.0,345753.0,16250.0,345753.0,35388.0,131.40062513827525,597.7840634985978,1045.2437706670473
345753.0,13741.0,345753.0,16248.0,345753.0,35362.0,160.88247988829926,604.5410271269172,1061.2881970553626
345753.0,13752.0,345753.0,16222.0,345753.0,35367.0,189.54220905523061,610.5463366641115,1075.891416628963
345753.0,13799.0,345753.0,16238.0,345753.0,35385.0,217.36280187159787,615.8298622518646,1089.1019047208906
345764.0,13826.0,345764.0,16244.0,345764.0,35411.0,244.33050064372242,620.4222289315467,1100.9703214506965
345764.0,13849.0,345764.0,16262.0,345764.0,35417.0,270.4348134647387,624.3546816172473,1111.5494616215165
345764.0,13886.0,345764.0,16260.0,345764.0,35413.0,295.66858079023825,627.6591992091248,1120.8943312034694
345764.0,13901.0,345764.0,16240.0,345764.0,35408.0,320.0280011067665,630.3685816128025,1129.0620309769881
345764.0,13909.0,345764.0,16230.0,345764.0,35408.0,343.51258962201746,632.5162657863888,1136.111415207039
345764.0,13933.0,345764.0,16248.0,345764.0,35388.0,366.12497903941915,634.1359426122841,1142.1026550512586
345774.0,13959.0,345774.0,16259.0,345774.0,35416.0,387.870647437192,635.2613398103076,1147.0968059941827
345774.0,13988.0,345774.0,16240.0,345774.0,35410.0,408.75778971276134,635.9262892061888,1151.1555251020725
345774.0,14007.0,345774.0,16250.0,345774.0,35411.0,428.79736075467156,636.164787875297,1154.340990771518
345774.0,14004.0,345774.0,16221.0,345774.0,35379.0,448.0031059244186,636.0108658872601,1156.715778113966
345774.0,14018.0,345774.0,16237.0,345774.0,35387.0,466.39138219927895,635.4983384798504,1158.3424835762355
345774.0,14026.0,345774.0,16220.0,345774.0,35380.0,483.9807897764307,634.6605690603178,1159.2832566547731
345784.0,14051.0,345784.0,16244.0,345784.0,35389.0,500.791824085298,633.5303492019002,1159.5994997710852
345784.0,14082.0,345784.0,16232.0,345784.0,35382.0,516.8467236790552,632.13993301018,1159.3517626379585
345784.0,14071.0,345784.0,16222.0,345784.0,35380.0,532.1694991836175,630.5211155195034,1158.599691523119
345784.0,14089.0,345784.0,16214.0,345784.0,35375.0,546.7859037919043,628.70516789566,1157.4019363417638
345784.0,14095.0,345784.0,16207.0,345784.0,35355.0,560.7232109673239,626.7226142529287,1155.8159832975543
345784.0,14110.0,345784.0,16195.0,345784.0,35361.0,574.0099604277805,624.6029806197413,1153.8979051095546
345795.0,14139.0,345795.0,16244.0,345795.0,35378.0,586.6758314090043,622.3746648251588,1151.7021605371656
345795.0,14134.0,345795.0,16215.0,345795.0,35378.0,598.7516524089635,620.0650983694094,1149.281647813219
345795.0,14139.0,345795.0,16206.0,345795.0,35349.0,610.2693946796185,617.7010232965323,1146.6878847562234
345795.0,14141.0,345795.0,16198.0,345795.0,35336.0,621.2619784820447,615.3084723670319,1143.9709293471788
345795.0,14144.0,345795.0,16182.0,345795.0,35336.0,631.7629497653875,612.9124779754002,1141.1789945871735
345795.0,14162.0,345795.0,16190.0,345795.0,35335.0,641.8061881103024,610.5367821765203,1138.3580960081792
345805.0,14152.0,345805.0,16196.0,345805.0,35343.0,651.4257035479109,608.203688676605,1135.5519407510599
345805.0,14174.0,345805.0,16190.0,345805.0,35344.0,660.6554705730416,605.9341025697206,1132.802002087378
345805.0,14162.0,345805.0,16189.0,345805.0,35320.0,669.5292496893103,603.7476356770396,1130.1476140529435
345805.0,14172.0,345805.0,16158.0,345805.0,35300.0,678.0803832516842,601.6625764657693,1127.6258561747038
345805.0,14173.0,345805.0,16172.0,345805.0,35316.0,686.3415523793601,599.6956652279765,1125.2711986915479
345805.0,14199.0,345805.0,16185.0,345805.0,35340.0,694.3445788638144,597.8618803506074,1123.115283487549
345816.0,14209.0,345816.0,16199.0,345816.0,35322.0,702.1204066099922,596.1745285771847,1121.1870986630213
345816.0,14206.0,345816.0,16171.0,345816.0,35315.0,709.6992109928442,594.6455456864201,1119.5132259752843
345816.0,14212.0,345816.0,16175.0,345816.0,35307.0,717.1104185941103,593.2856125319092,1118.1177959439806
345816.0,14205.0,345816.0,16153.0,345816.0,35299.0,724.3825432563428,592.1039686817271,1117.0222367842373
345816.0,14223.0,345816.0,16166.0,345816.0,35309.0,731.5429447650909,591.1081317585241,1116.2450430493184
345816.0,14234.0,345816.0,16183.0,345816.0,35324.0,738.6176691171206,590.303760984439,1115.801704955753
345826.0,14234.0,345826.0,16196.0,345826.0,35319.0,745.6314302071996,589.6948184929453,1115.7048443424678
345826.0,14244.0,345826.0,16201.0,345826.0,35317.0,752.6076167439192,589.2839553703749,1115.9643908201874
345826.0,14235.0,345826.0,16171.0,345826.0,35310.0,759.5682042003327,589.0728106440989,1116.587595333209
345826.0,14248.0,345826.0,16155.0,345826.0,35301.0,766.5335771192547,589.0619276678601,1117.57887272066
345826.0,14254.0,345826.0,16178.0,345826.0,35322.0,773.5223440408524,589.2503586839127,1118.9396005420833
345826.0,14281.0,345826.0,16199.0,345826.0,35343.0,780.551271893406,589.6354452650714,1120.6680905675526
345836.0,14290.0,345836.0,16208.0,345836.0,35356.0,787.635408056035,590.2130681096545,1122.7598705035211
345836.0,14288.0,345836.0,16192.0,345836.0,35349.0,794.7882762256593,590.9780627175196,1125.2080878037777
345836.0,14293.0,345836.0,16185.0,345836.0,35328.0,802.0219331132914,591.9243619319668,1128.0036754880625
345836.0,14296.0,345836.0,16181.0,345836.0,35347.0,809.3468389900595,593.0448068266554,1131.1351668635136
345836.0,14315.0,345836.0,16224.0,345836.0,35371.0,816.7717015715562,594.3309539786337,1134.5884852652844
345836.0,14311.0,345836.0,16213.0,345836.0,35383.0,824.3034102834324,595.7732072039289,1138.3470714371022
345847.0,14337.0,345847.0,16210.0,345847.0,35390.0,831.9470343234054,597.3611364167126,1142.39224984748
345847.0,14339.0,345847.0,16211.0,345847.0,35417.0,839.7058579927764,599.0835953681199,1146.7035612749526
345847.0,14345.0,345847.0,16213.0,345847.0,35384.0,847.5814369472405,600.9286244361075,1151.2589792931715
345847.0,14358.0,345847.0,16226.0,345847.0,35406.0,855.5736024105681,602.8833836984454,1156.0349222748591
345847.0,14361.0,345847.0,16233.0,345847.0,35427.0,863.6804133047999,604.9342198874807,1161.0061243654995
345847.0,14396.0,345847.0,16232.0,345847.0,35440.0,871.8981574924449,607.0668150265062,1166.1456980829228
345857.0,14387.0,345857.0,16240.0,345857.0,35456.0,880.2214629085745,609.2663038613997,1171.4254440025586
345857.0,14390.0,345857.0,16238.0,345857.0,35454.0,888.6433952593261,611.517318052852,1176.8161493630419
345857.0,14413.0,345857.0,16225.0,345857.0,35450.0,897.1553947327361,613.803957611173,1182.287702464698
345857.0,14415.0,345857.0,16241.0,345857.0,35477.0,905.7471834920952,616.1096657885714,1187.8090399973191
345857.0,14457.0,345857.0,16276.0,345857.0,35484.0,914.4068324386819,618.4171799618745,1193.3481387409852
345857.0,14459.0,345857.0,16290.0,345857.0,35511.0,923.1209997216879,620.7088362911461,1198.872208473724
345867.0,14463.0,345867.0,16279.0,345867.0,35511.0,931.8752037695858,622.967097168791,1204.3479960557534
345867.0,14475.0,345867.0,16246.0,345867.0,35513.0,940.6539228328561,625.1747900267325,1209.7420196162402
345867.0,14479.0,345867.0,16278.0,345867.0,35517.0,949.4405235327051,627.3148658150526,1215.020618567111
345867.0,14508.0,345867.0,16281.0,345867.0,35547.0,958.2172071275877,629.3701148330833,1220.1499217146484
345867.0,14506.0,345867.0,16273.0,345867.0,35550.0,966.9650671308766,631.3231885476063,1225.0959612165348
345867.0,14540.0,345867.0,16304.0,345867.0,35580.0,975.6642244556888,633.156743799177,1229.82496383709
345878.0,14549.0,345878.0,16295.0,345878.0,35572.0,984.2940143921451,634.8535885347628,1234.303676914991
345878.0,14551.0,345878.0,16317.0,345878.0,35581.0,992.833195705668,636.396896409137,1238.4995904987984
345878.0,14558.0,345878.0,16300.0,345878.0,35591.0,1001.2600408661744,637.7704058136198,1242.3810101798865
345878.0,14578.0,345878.0,16319.0,345878.0,35609.0,1009.5522817896697,638.9585128081092,1245.91711726479
345878.0,14615.0,345878.0,16326.0,345878.0,35623.0,1017.6871526206808,639.9463333593237,1249.0781690918016
345878.0,14622.0,345878.0,16327.0,345878.0,35626.0,1025.6416982464477,640.7198466940544,1251.835795966933
345888.0,14623.0,345888.0,16312.0,345888.0,35632.0,1033.3931550027328,641.2660312049751,1254.1632459254645
345888.0,14637.0,345888.0,16304.0,345888.0,35614.0,1040.919114921906,641.5727950386002,1256.0354689552987
345888.0,14640.0,345888.0,16303.0,345888.0,35624.0,1048.1974985452941,641.6287179786415,1257.4290172645362
345888.0,14664.0,345888.0,16338.0,345888.0,35663.0,1055.2065373754103,641.4228741736479,1258.3219566829746
345888.0,14679.0,345888.0,16342.0,345888.0,35684.0,1061.9248759663092,640.9450011875041,1258.6941441079434
345888.0,14690.0,345888.0,16359.0,345888.0,35661.0,1068.3317943581121,640.1859610844328,1258.5278170618644
345898.0,14705.0,345898.0,16341.0,345898.0,35663.0,1074.4074544088096,639.1381741289122,1257.8079678189133
345898.0,14702.0,345898.0,16314.0,345898.0,35659.0,1080.13307355524,637.7957400477212,1256.5223043485823
345898.0,14711.0,345898.0,16340.0,345898.0,35654.0,1085.4909861715328,636.1542207901099,1254.661089977153
345898.0,14731.0,345898.0,16353.0,345898.0,35677.0,1090.4646417037825,634.2104694847174,1252.2170908475478
345898.0,14730.0,345898.0,16349.0,345898.0,35656.0,1095.0386696726578,631.9628295328212,1249.1856699452142
345898.0,14753.0,345898.0,16343.0,345898.0,35670.0,1099.199030294741,629.4114550214833,1245.5649348335278
345909.0,14744.0,345909.0,16321.0,345909.0,35646.0,1102.9331662248467,626.558388238936,1241.3558016357497
345909.0,14752.0,345909.0,16309.0,345909.0,35631.0,1106.230087068059,623.4073497648632,1236.5619146136783
345909.0,14763.0,345909.0,16327.0,345909.0,35646.0,1109.0803749269207,619.963435348729,1231.189451671068
345909.0,14774.0,345909.0,16317.0,345909.0,35661.0,1111.476224669341,616.2329967082743,1225.2470645834467
345909.0,14776.0,345909.0,16339.0,345909.0,35650.0,1113.4115900534266,612.2237829861429,1218.7461460078327
345909.0,14780.0,345909.0,16306.0,345909.0,35629.0,1114.8823347767084,607.9451625473446,1211.7011457412545
345919.0,14773.0,345919.0,16285.0,345919.0,35605.0,1115.8862894838444,603.4081557107386,1204.129563493404
345919.0,14769.0,345919.0,16286.0,345919.0,35602.0,1116.423192607196,598.6251526412733,1196.0516460380672
345919.0,14778.0,345919.0,16299.0,345919.0,35612.0,1116.4945616587725,593.6096074641262,1187.4901281642965
345919.0,14782.0,345919.0,16294.0,345919.0,35580.0,1116.1036265268222,588.3760542579465,1178.470221170563
345919.0,14795.0,345919.0,16281.0,345919.0,35546.0,1115.255415797629,582.9403169980712,1169.0195952032586
345919.0,14767.0,345919.0,16255.0,345919.0,35551.0,1113.9568988607255,577.3195588276847,1159.168077376708
345929.0,14758.0,345929.0,16236.0,345929.0,35525.0,1112.2169448372015,571.5320284845858,1148.947279296302
345929.0,14768.0,345929.0,16213.0,345929.0,35508.0,1110.046053586498,565.5966024933946,1138.3903776563727
345929.0,14765.0,345929.0,16224.0,345929.0,35501.0,1107.456145876414,559.5323330048452,1127.531935589344
345929.0,14751.0,345929.0,16250.0,345929.0,35494.0,1104.46054189848,553.3582880440533,1116.4077535762406
345929.0,14770.0,345929.0,16217.0,345929.0,35475.0,1101.0739658483749,547.0937928333893,1105.054837844988
345929.0,14759.0,345929.0,16203.0,345929.0,35428.0,1097.3125700704804,540.7586850411681,1093.5113232014405
345940.0,14727.0,345940.0,16173.0,345940.0,35422.0,1093.1939722198147,534.3731684669647,1081.816134583482
345940.0,14715.0,345940.0,16182.0,345940.0,35404.0,1088.7370560036986,527.9574021352333,1070.0085257445135
345940.0,14742.0,345940.0,16200.0,345940.0,35399.0,1083.9615936246666,521.5312653168478,1058.1277993921108
345940.0,14730.0,345940.0,16194.0,345940.0,35386.0,1078.8881284642914,515.1145305552432,1046.2132500132548
345940.0,14710.0,345940.0,16166.0,345940.0,35349.0,1073.5381295130624,508.7271910875409,1034.304139909417
345940.0,14704.0,345940.0,16124.0,345940.0,35335.0,1067.9340020207335,502.3894421601193,1022.4395128939187
345950.0,14689.0,345950.0,16131.0,345950.0,35291.0,1062.098868677356,496.12120428759255,1010.6578039087941
345950.0,14682.0,345950.0,16121.0,345950.0,35305.0,1056.0563290456992,489.9416107626381,998.9963910330309
345950.0,14690.0,345950.0,16131.0,345950.0,35276.0,1049.8303098286274,483.8688331647206,987.4913011333567
345950.0,14680.0,345950.0,16120.0,345950.0,35278.0,1043.4450598507613,477.92018556325627,976.1771347337542
345950.0,14653.0,345950.0,16113.0,345950.0,35229.0,1036.9251999377234,472.1122680276969,965.0870207332352
345950.0,14630.0,345950.0,16078.0,345950.0,35219.0,1030.295567873883,466.4609546057055,954.2523772444024
345960.0,14629.0,345960.0,16078.0,345960.0,35199.0,1023.5808232418001,460.9811402360639,943.7025058150307
345960.0,14626.0,345960.0,16073.0,345960.0,35205.0,1016.8051047832415,455.6864059585575,933.464273007819
345960.0,14626.0,345960.0,16084.0,345960.0,35210.0,1009.9919459073939,450.588877167068,923.5620827878829
345960.0,14614.0,345960.0,16061.0,345960.0,35187.0,1003.164354476326,445.69930279979025,914.0180882552575
345960.0,14591.0,345960.0,16048.0,345960.0,35165.0,996.3448395687903,441.0270980618005,904.852346467002
345960.0,14587.0,345960.0,16054.0,345960.0,35127.0,989.5552630553245,436.5802066477296,896.0826424283916
345971.0,14579.0,345971.0,16051.0,345971.0,35134.0,982.8166123965508,432.3649703657493,887.724046364061
345971.0,14572.0,345971.0,16054.0,345971.0,35140.0,976.1488599045673,428.38617387454315,879.7885780845397
345971.0,14570.0,345971.0,16057.0,345971.0,35160.0,969.5709219565579,424.64719552064963,872.2852977096522
345971.0,14560.0,345971.0,16049.0,345971.0,35131.0,963.1006588275307,421.1501669804001,865.2207171245655
345971.0,14547.0,345971.0,16048.0,345971.0,35112.0,956.754861913754,417.89608088274815,858.5990745101581
345971.0,14541.0,345971.0,16024.0,345971.0,35126.0,950.5491731290883,414.88477955928465,852.4222592426761
345981.0,14520.0,345981.0,16031.0,345981.0,35110.0,944.4979359320649,412.1148086991835,846.6896824858283
345981.0,14531.0,345981.0,16033.0,345981.0,35111.0,938.614030096088,409.5832593617194,841.3983079278009
345981.0,14532.0,345981.0,16054.0,345981.0,35116.0,932.9088091596972,407.285804813001,836.5427374476895
345981.0,14526.0,345981.0,16062.0,345981.0,35110.0,927.392219065351,405.2170010856593,832.1153234751463
345981.0,14499.0,345981.0,16020.0,345981.0,35100.0,922.072919531372,403.37062676487824,828.1062960726383
345981.0,14495.0,345981.0,16026.0,345981.0,35088.0,916.9581751071449,401.73969385674485,824.5037734437051
345991.0,14506.0,345991.0,16057.0,345991.0,35103.0,912.0536249129105,400.3162169585988,821.2936683242534
345991.0,14492.0,345991.0,16033.0,345991.0,35120.0,907.3632121273248,399.0912185545154,818.4597253910281
345991.0,14493.0,345991.0,16046.0,345991.0,35121.0,902.8892608989563,398.0549484328556,815.983833824349
345991.0,14506.0,345991.0,16064.0,345991.0,35100.0,898.6325568697381,397.19703824102004,813.8463929374283
345991.0,14477.0,345991.0,16019.0,345991.0,35107.0,894.592443375815,396.5066177979064,812.0264218244273
345991.0,14485.0,345991.0,16046.0,345991.0,35134.0,890.7668624688713,395.9723105251262,810.5015330572007
346001.0,14491.0,346001.0,16033.0,346001.0,35140.0,887.1523023279226,395.5820759688668,809.2481454936735
346001.0,14500.0,346001.0,16068.0,346001.0,35141.0,883.7438615938416,395.3231952430144,808.2419328702906
346001.0,14491.0,346001.0,16049.0,346001.0,35151.0,880.5354853788745,395.18250096785414,807.4582053776173
346001.0,14490.0,346001.0,16046.0,346001.0,35129.0,877.5201606167643,395.1466031959382,806.8721015526322
346001.0,14494.0,346001.0,16049.0,346001.0,35126.0,874.6899819029366,395.20190532907924,806.4585791403467
346001.0,14485.0,346001.0,16051.0,346001.0,35122.0,872.0361831643331,395.3345177150035,806.1922259646014
346011.0,14495.0,346011.0,16067.0,346011.0,35135.0,869.5491860063296,395.53028185312536,806.0470818485054
346011.0,14504.0,346011.0,16074.0,346011.0,35169.0,867.2186933510658,395.77495625028024,805.996713228731
346011.0,14483.0,346011.0,16064.0,346011.0,35163.0,865.0338448647819,396.0544672430285,806.0146101070284
346011.0,14492.0,346011.0,16060.0,346011.0,35156.0,862.9833009399549,396.3550350143582,806.0746451286295
346011.0,14476.0,346011.0,16059.0,346011.0,35150.0,861.0551807047676,396.6631024040107,806.1512435120187
346011.0,14481.0,346011.0,16059.0,346011.0,35169.0,859.2369556124902,396.965206594124,806.2193172874481
346022.0,14501.0,346022.0,16097.0,346022.0,35186.0,857.5154183948173,397.2479863619044,806.2543208429777
346022.0,14503.0,346022.0,16080.0,346022.0,35200.0,855.876847183036,397.4984346139195,806.2325945309732
346022.0,14495.0,346022.0,16094.0,346022.0,35167.0,854.3073024862308,397.7042448515646,806.1317704670579
346022.0,14489.0,346022.0,16052.0,346022.0,35151.0,852.7927903363031,397.8539383080502,805.9308324910322
346022.0,14502.0,346022.0,16075.0,346022.0,35155.0,851.3192414548992,397.9366790616971,805.6097581568997
346022.0,14509.0,346022.0,16058.0,346022.0,35166.0,849.8725375968756,397.94199605889514,805.1491603192085
346032.0,14500.0,346032.0,16073.0,346032.0,35179.0,848.438682662066,397.8596471503917,804.5302790678307
346032.0,14505.0,346032.0,16108.0,346032.0,35187.0,847.0039571324003,397.6797125000745,803.7352659493366
346032.0,14504.0,346032.0,16094.0,346032.0,35172.0,845.5549692646068,397.3929500742832,802.7475081121186
346032.0,14499.0,346032.0,16078.0,346032.0,35169.0,844.0786783577212,396.9911747287558,801.5517662910131
346032.0,14493.0,346032.0,16061.0,346032.0,35160.0,842.5623925511308,396.46725442057954,800.1340887137533
346032.0,14493.0,346032.0,16066.0,346032.0,35188.0,840.9937031237409,395.8147663066105,798.4817078394375
346042.0,14503.0,346042.0,16080.0,346042.0,35166.0,839.3604326056991,395.02772579891456,796.5831207262395
346042.0,14531.0,346042.0,16090.0,346042.0,35187.0,837.6507590001653,394.10063972734287,794.4282846319571
346042.0,14499.0,346042.0,16050.0,346042.0,35166.0,835.8535347193839,393.0287158333495,792.0087642938187
346042.0,14494.0,346042.0,16046.0,346042.0,35130.0,833.9584889608298,391.8078139088295,789.3177097854453
346042.0,14489.0,346042.0,16050.0,346042.0,35138.0,831.9560892485806,390.43408814188797,786.3495478467664
346042.0,14495.0,346042.0,16089.0,346042.0,35143.0,829.837307341249,388.9037943544112,783.0995973759307
346053.0,14493.0,346053.0,16085.0,346053.0,35142.0,827.593558969898,387.2135860500854,779.5639856758154
346053.0,14489.0,346053.0,16082.0,346053.0,35127.0,825.2167671049617,385.36103225890207,775.7397866806184
346053.0,14495.0,346053.0,16062.0,346053.0,35118.0,822.6994255815919,383.3448918247671,771.6250595138966
346053.0,14475.0,346053.0,16043.0,346053.0,35130.0,820.0346289391933,381.1649924311489,767.2187631845813
346053.0,14473.0,346053.0,16036.0,346053.0,35113.0,817.2160221708128,378.82186213561835,762.5207397340431
346053.0,14486.0,346053.0,16053.0,346053.0,35112.0,814.2376928656724,376.31638864682856,757.5317800308756
346063.0,14490.0,346063.0,16052.0,346063.0,35114.0,811.0942002260915,373.64976131730293,752.2536649580126
346063.0,14471.0,346063.0,16053.0,346063.0,35093.0,807.780765432253,370.8236674906973,746.689196128647
346063.0,14458.0,346063.0,16050.0,346063.0,35088.0,804.2933422312665,367.8405023394381,740.8421897613833
346063.0,14459.0,346063.0,16020.0,346063.0,35069.0,800.628448503609,364.7034241656036,734.7173587435965
346063.0,14465.0,346063.0,16015.0,346063.0,35061.0,796.782995711967,361.4161781841391,728.3201272796532
346063.0,14461.0,346063.0,16035.0,346063.0,35076.0,792.754316692577,357.9828222516277,721.6565034404216
346073.0,14459.0,346073.0,16032.0,346073.0,35071.0,788.5403089146478,354.40769035677016,714.7331591913255
346073.0,14456.0,346073.0,16011.0,346073.0,35034.0,784.1395455594541,350.69558969256013,707.557632703963
346073.0,14451.0,346073.0,15998.0,346073.0,35032.0,779.5513342461624,346.85184666114617,700.1383167938327
346073.0,14435.0,346073.0,15983.0,346073.0,35003.0,774.7757274948038,342.8820640414037,692.4841806204622
346073.0,14437.0,346073.0,16009.0,346073.0,35010.0,769.8134586382614,338.79185425382565,684.6044793656499
346073.0,14438.0,346073.0,16007.0,346073.0,35033.0,764.6658760335996,334.5868561467934,676.5086863502274
346084.0,14432.0,346084.0,16008.0,346084.0,34985.0,759.334986851406,330.27303309652126,668.2067079980882
346084.0,14419.0,346084.0,15957.0,346084.0,34984.0,753.8235476616048,325.85688189372456,659.7090575411858
346084.0,14397.0,346084.0,15954.0,346084.0,34957.0,748.1350297320345,321.345214260111,651.026703819651
346084.0,14410.0,346084.0,15956.0,346084.0,34923.0,742.2734447827584,316.7446767296001,642.1707304235335
346084.0,14389.0,346084.0,15951.0,346084.0,34945.0,736.2432111936038,312.06146806018893,633.1519788611215
346084.0,14388.0,346084.0,15975.0,346084.0,34932.0,730.0491293405386,307.3014057415864,623.9808797910903
346094.0,14382.0,346094.0,15962.0,346094.0,34930.0,723.6963667542464,302.4702078303733,614.667599459554
346094.0,14372.0,346094.0,15940.0,346094.0,34906.0,717.1904387770817,297.57376528675866,605.2222500588448
346094.0,14359.0,346094.0,15928.0,346094.0,34889.0,710.53718859622,292.618135468727,595.6549046375128
346094.0,14340.0,346094.0,15929.0,346094.0,34880.0,703.7426875475816,287.6092950413015,585.9754405143547
346094.0,14344.0,346094.0,15932.0,346094.0,34879.0,696.813059547625,282.5529779229471,576.1933970496518
346094.0,14356.0,346094.0,15918.0,346094.0,34864.0,689.7544075423972,277.4547174746276,566.3179830401378
346104.0,14328.0,346104.0,15928.0,346104.0,34868.0,682.572953077613,272.3199510839018,556.3581889033027
346104.0,14317.0,346104.0,15895.0,346104.0,34849.0,675.2751621323177,267.1540695862127,546.3229203749852
346104.0,14298.0,346104.0,15886.0,346104.0,34815.0,667.8676222601196,261.9623263489499,536.2210522379672
346104.0,14297.0,346104.0,15898.0,346104.0,34834.0,660.3567942736818,256.7496220326439,526.0613167923916
346104.0,14298.0,346104.0,15900.0,346104.0,34823.0,652.7488770572055,251.52043198935564,515.8522331963554
346104.0,14296.0,346104.0,15906.0,346104.0,34802.0,645.0498743398697,246.27902386901528,505.60225142914044
346115.0,14287.0,346115.0,15876.0,346115.0,34785.0,637.2657802535706,241.02973255712942,495.31985965566804
346115.0,14272.0,346115.0,15856.0,346115.0,34758.0,629.4027155071791,235.77697457769975,485.0134482947537
346115.0,14256.0,346115.0,15852.0,346115.0,34748.0,621.4669107690191,230.52495122592444,474.69103574690354
346115.0,14239.0,346115.0,15864.0,346115.0,34762.0,613.4645471751265,225.27735194062353,464.36007204646467
346115.0,14246.0,346115.0,15857.0,346115.0,34753.0,605.4015650646124,220.03735121989405,454.02752457123
346115.0,14242.0,346115.0,15871.0,346115.0,34735.0,597.2836147804337,214.80783824724801,443.70016866201337
346125.0,14217.0,346125.0,15842.0,346125.0,34696.0,589.1161594593016,209.59166055955745,433.3847125797588
346125.0,14193.0,346125.0,15808.0,346125.0,34706.0,580.9044705888709,204.39164286002745,423.08760479663067
346125.0,14191.0,346125.0,15812.0,346125.0,34664.0,572.6533825877252,199.21025136444132,412.8147581523134
346125.0,14189.0,346125.0,15831.0,346125.0,34670.0,564.3670470587898,194.04922940860308,402.57135661028315
346125.0,14199.0,346125.0,15830.0,346125.0,34673.0,556.0489455943682,188.9096474317572,392.36176668217365
346125.0,14174.0,346125.0,15827.0,346125.0,34650.0,547.7021104021849,183.7922660912655,382.18963227370205
346135.0,14163.0,346135.0,15807.0,346135.0,34638.0,539.3292814565566,178.69780367764088,372.058027335136
346135.0,14155.0,346135.0,15804.0,346135.0,34625.0,530.9328563875885,173.62694387868112,361.9694516789218
346135.0,14151.0,346135.0,15776.0,346135.0,34627.0,522.5147847947985,168.58016683885847,351.9257649744442
346135.0,14163.0,346135.0,15792.0,346135.0,34623.0,514.0766072524543,163.55753098550286,341.9282531110033
346135.0,14158.0,346135.0,15822.0,346135.0,34628.0,505.6196915555813,158.55863833334638,331.9778592425837
346135.0,14142.0,346135.0,15791.0,346135.0,34590.0,497.14554270361725,153.58295527849793,322.07544589984525
346146.0,14110.0,346146.0,15770.0,346146.0,34589.0,488.65592348734623,148.63013473910422,312.22187361757494
346146.0,14104.0,346146.0,15762.0,346146.0,34553.0,480.15266015529835,143.6999065799285,302.41784545116843
346146.0,14098.0,346146.0,15755.0,346146.0,34552.0,471.6373415435293,138.79173060694956,292.663656987669
346146.0,14102.0,346146.0,15777.0,346146.0,34555.0,463.1112030241613,133.90463105058825,282.9590238428957
346146.0,14096.0,346146.0,15783.0,346146.0,34554.0,454.5752498594755,129.037370404191,273.30314852928495
346146.0,14093.0,346146.0,15772.0,346146.0,34536.0,446.0304802803535,124.18884526935375,263.69498015306044
346156.0,14069.0,346156.0,15737.0,346156.0,34512.0,437.47805040037235,119.35833794906534,254.13337756775502
346156.0,14058.0,346156.0,15741.0,346156.0,34498.0,428.9192716468387,114.54537490239181,244.61701209104422
346156.0,14043.0,346156.0,15733.0,346156.0,34516.0,420.3554548336051,109.74941469119409,235.1441959993524
346156.0,14042.0,346156.0,15749.0,346156.0,34493.0,411.7877445148457,104.96973172715451,225.7129242071261
346156.0,14031.0,346156.0,15741.0,346156.0,34490.0,403.21706095107413,100.20556666565938,216.32108061118186
346156.0,14022.0,346156.0,15738.0,346156.0,34474.0,394.6441294104715,95.45636537933325,206.96656024154174
346166.0,14016.0,346166.0,15704.0,346166.0,34455.0,386.06951582321534,90.72187380359873,197.64725466404366
346166.0,14004.0,346166.0,15700.0,346166.0,34443.0,377.49364650025706,86.00195712750724,188.36094724382372
346166.0,14005.0,346166.0,15714.0,346166.0,34470.0,368.9168382021213,81.29631332961696,179.10524178041874
346166.0,13999.0,346166.0,15690.0,346166.0,34432.0,360.3393749662447,76.6043785498785,169.87770873997886
346166.0,13985.0,346166.0,15707.0,346166.0,34430.0,351.76162763001895,71.9254060930133,160.67610142445164
346166.0,13974.0,346166.0,15708.0,346166.0,34425.0,343.1841229441499,67.2585895609256,151.4983972800269
346177.0,13953.0,346177.0,15665.0,346177.0,34392.0,334.60748940594334,62.60319370718031,142.3427473839987
346177.0,13941.0,346177.0,15665.0,346177.0,34386.0,326.0322980056769,57.95847649882319,133.20737666927846
346177.0,13939.0,346177.0,15691.0,346177.0,34382.0,317.4588828599187,53.32343073998641,124.090414706155
346177.0,13938.0,346177.0,15693.0,346177.0,34402.0,308.88727932394534,48.69682085326883,114.98988577515536
346177.0,13939.0,346177.0,15663.0,346177.0,34369.0,300.31734837541046,44.0775350855144,105.90397161427757
346177.0,13926.0,346177.0,15670.0,346177.0,34365.0,291.7490002428224,39.46475938611968,96.83126560072753
346187.0,13897.0,346187.0,15654.0,346187.0,34335.0,283.1823250238317,34.857873827178764,87.77076343039232
346187.0,13899.0,346187.0,15652.0,346187.0,34324.0,274.617504820485,30.25633264870737,78.72165307065848
346187.0,13887.0,346187.0,15661.0,346187.0,34326.0,266.0546449976566,25.659635204749236,69.68309626961388
346187.0,13890.0,346187.0,15658.0,346187.0,34332.0,257.4937410937289,21.067420205260305,60.65420199292919
346187.0,13878.0,346187.0,15628.0,346187.0,34312.0,248.93478542387516,16.479608388941017,51.63423835652611
346187.0,13856.0,346187.0,15640.0,346187.0,34291.0,240.37786361623796,11.896383168779835,42.62282404144969
346197.0,13856.0,346197.0,15611.0,346197.0,34269.0,231.8231257244811,7.318025440282952,33.61985231479923
346197.0,13846.0,346197.0,15638.0,346197.0,34288.0,223.2707027398386,2.7447968221802057,24.625275158874615
346197.0,13849.0,346197.0,15619.0,346197.0,34277.0,214.72072432020332,-1.8230295186668855,15.639085468801795
346197.0,13841.0,346197.0,15631.0,346197.0,34264.0,206.1734559408393,-6.385014754048655,6.661539813602417
346197.0,13825.0,346197.0,15610.0,346197.0,34250.0,197.62945224729413,-10.940404500055479,-2.3066716847247335
346197.0,13797.0,346197.0,15594.0,346197.0,34222.0,189.0895727937526,-15.488118748799593,-11.264476337385531
346208.0,13798.0,346208.0,15583.0,346208.0,34208.0,180.55479943333387,-20.026934269665844,-20.210644221418193
346208.0,13787.0,346208.0,15590.0,346208.0,34209.0,172.0260313934334,-24.55573404492867,-29.144052306772892
346208.0,13791.0,346208.0,15592.0,346208.0,34215.0,163.50405227891645,-29.07358700457064,-38.06376278714333
346208.0,13769.0,346208.0,15599.0,346208.0,34197.0,154.989630519991,-33.57958929176408,-46.96884280116603
346208.0,13763.0,346208.0,15558.0,346208.0,34190.0,146.48358526615118,-38.072667440827104,-55.85814616599714
346208.0,13744.0,346208.0,15579.0,346208.0,34164.0,137.98673674784231,-42.55158837075504,-64.73026560319238
346218.0,13741.0,346218.0,15539.0,346218.0,34161.0,129.4997977395775,-47.01514385211135,-73.58364335756062
346218.0,13735.0,346218.0,15572.0,346218.0,34160.0,121.02330728059292,-51.46230711646655,-82.41668240876265
346218.0,13736.0,346218.0,15556.0,346218.0,34140.0,112.55767543267802,-55.89223415404575,-91.22773285953292
346218.0,13715.0,346218.0,15542.0,346218.0,34129.0,104.10330667345545,-60.304140090965575,-100.01504260041065
346218.0,13696.0,346218.0,15519.0,346218.0,34098.0,95.66064203300994,-64.69730566441837,-108.77684432479145
346218.0,13692.0,346218.0,15533.0,346218.0,34097.0,87.23003091283499,-69.07130691397231,-117.51158502559679
346229.0,13688.0,346229.0,15520.0,346229.0,34095.0,78.81158434833674,-73.42619288741258,-126.21812399350279
346229.0,13679.0,346229.0,15530.0,346229.0,34094.0,70.40517159791125,-77.76245554928516,-134.89571723543634
346229.0,13686.0,346229.0,15541.0,346229.0,34095.0,62.01053374262858,-82.08085867571191,-143.54380049746112
346229.0,13669.0,346229.0,15541.0,346229.0,34063.0,53.62744751237051,-86.38214596185298,-152.16175912908943
346229.0,13657.0,346229.0,15503.0,346229.0,34055.0,45.255858391721176,-90.6667720073853,-160.74888718613977
346229.0,13645.0,346229.0,15495.0,346229.0,34035.0,36.89588182117461,-94.93495971826297,-169.3045600819123
346239.0,13638.0,346239.0,15497.0,346239.0,34033.0,28.547712965190158,-99.18704363748009,-177.82844070214617
346239.0,13639.0,346239.0,15518.0,346239.0,34046.0,20.211584675964104,-103.42366005091816,-186.32052877720184
346239.0,13633.0,346239.0,15525.0,346239.0,34030.0,11.887846496320094,-107.64552482276878,-194.78097864957329
346239.0,13603.0,346239.0,15499.0,346239.0,34009.0,3.577075645589616,-111.85301952967541,-203.20985948273176
346239.0,13596.0,346239.0,15464.0,346239.0,33991.0,-4.7199702570724185,-116.04605942609248,-211.60714528117603
346239.0,13582.0,346239.0,15463.0,346239.0,33973.0,-13.002560777870144,-120.22444155601306,-219.97294686635996
346249.0,13582.0,346249.0,15472.0,346249.0,33987.0,-21.27015821726593,-124.38830267292616,-228.3077429661131
346249.0,13575.0,346249.0,15485.0,346249.0,33987.0,-29.522431867887917,-128.53821544667693,-236.61236757058384
346249.0,13579.0,346249.0,15490.0,346249.0,33953.0,-37.75914731112539,-132.67489057445482,-244.88778592334825
346249.0,13555.0,346249.0,15456.0,346249.0,33960.0,-45.98000969364762,-136.7988247667189,-253.13497482696835
346249.0,13542.0,346249.0,15444.0,346249.0,33945.0,-54.18460670500576,-140.91026493087855,-261.3549780677819
346249.0,13531.0,346249.0,15451.0,346249.0,33930.0,-62.37252412433952,-145.00948651592768,-269.5489467042278
346260.0,13531.0,346260.0,15455.0,346260.0,33946.0,-70.54349431656931,-149.09698936208736,-277.718121691091
346260.0,13534.0,346260.0,15469.0,346260.0,33938.0,-78.69739353633975,-153.17336820131084,-285.8637102385968
346260.0,13508.0,346260.0,15446.0,346260.0,33905.0,-86.8341022187243,-157.23901564585873,-293.9866761097902
346260.0,13513.0,346260.0,15423.0,346260.0,33905.0,-94.95340837681101,-161.29398954018546,-302.08770690666097
346260.0,13477.0,346260.0,15429.0,346260.0,33902.0,-103.0550492300406,-165.33819644567325,-310.1673562953672
346260.0,13474.0,346260.0,15412.0,346260.0,33881.0,-111.13887083672591,-169.3716666246845,-318.2260980690892
346270.0,13487.0,346270.0,15416.0,346270.0,33865.0,-119.20499443731808,-173.39469589377882,-326.2643365559171
346270.0,13477.0,346270.0,15418.0,346270.0,33880.0,-127.25376893136456,-177.40786648737583,-334.28249073564086
346270.0,13466.0,346270.0,15413.0,346270.0,33850.0,-135.2855337737259,-181.41197120872613,-342.28101039631827
346270.0,13449.0,346270.0,15410.0,346270.0,33833.0,-143.30048572386,-185.40789144548353,-350.2603506296276
346270.0,13432.0,346270.0,15404.0,346270.0,33836.0,-151.29876074734022,-189.39652414252413,-358.2210867885692
346270.0,13434.0,346270.0,15401.0,346270.0,33825.0,-159.2806055965366,-193.37876377810562,-366.1640403786789
346280.0,13442.0,346280.0,15395.0,346280.0,33835.0,-167.24643467356498,-197.35550086653518,-374.09021956718277
346280.0,13430.0,346280.0,15429.0,346280.0,33816.0,-175.1966608671637,-201.32754791774823,-382.0006309527945
346280.0,13412.0,346280.0,15394.0,346280.0,33808.0,-183.13147439554245,-205.29539973808983,-389.8961224436148
346280.0,13392.0,346280.0,15389.0,346280.0,33790.0,-191.05083070740716,-209.25902435136283,-397.7773685212111
346280.0,13394.0,346280.0,15360.0,346280.0,33775.0,-198.95463327352786,-213.21797999045145,-405.64498977332437
346280.0,13387.0,346280.0,15377.0,346280.0,33787.0,-206.842870450855,-217.17174685721523,-413.4996852537156
346291.0,13388.0,346291.0,15369.0,346291.0,33779.0,-214.71557083621008,-221.11992558488123,-421.3422096838219
346291.0,13362.0,346291.0,15367.0,346291.0,33758.0,-222.57268437110645,-225.0622012335901,-429.1732076208539
346291.0,13354.0,346291.0,15349.0,346291.0,33726.0,-230.41407740738202,-228.9982711577876,-436.9931939642494
346291.0,13337.0,346291.0,15344.0,346291.0,33730.0,-238.23968221352845,-232.9279128211639,-444.8028163726008
346291.0,13339.0,346291.0,15336.0,346291.0,33745.0,-246.0496653397256,-236.8511490723343,-452.6030838766952
346291.0,13340.0,346291.0,15345.0,346291.0,33733.0,-253.84446306747327,-240.76836315759527,-460.3952398994662
346301.0,13329.0,346301.0,15341.0,346301.0,33731.0,-261.62465561015165,-244.68026633258324,-468.1804314343675
346301.0,13324.0,346301.0,15348.0,346301.0,33723.0,-269.3908035024979,-248.5877403238381,-475.9594758832641
346301.0,13308.0,346301.0,15339.0,346301.0,33697.0,-277.1433736602569,-252.49164973599278,-483.7327882595715
346301.0,13297.0,346301.0,15320.0,346301.0,33666.0,-284.8827712868522,-256.3927417560403,-491.5005112333396
346301.0,13298.0,346301.0,15329.0,346301.0,33689.0,-292.60941690442814,-260.29170193629375,-499.26282372246214
346301.0,13291.0,346301.0,15318.0,346301.0,33669.0,-300.3237592190063,-264.189252705684,-507.0201183980365
346311.0,13292.0,346311.0,15347.0,346311.0,33684.0,-308.0261732174557,-268.08610638330777,-514.7728781083226
346311.0,13278.0,346311.0,15326.0,346311.0,33662.0,-315.7168143170642,-271.98273219962095,-522.5214394190139
346311.0,13263.0,346311.0,15301.0,346311.0,33646.0,-323.395539865651,-275.87915586797556,-530.2658577747284
346311.0,13239.0,346311.0,15287.0,346311.0,33646.0,-331.06199108289115,-279.7750932284399,-538.0059451067905
346311.0,13233.0,346311.0,15305.0,346311.0,33630.0,-338.7158293790063,-283.67030261184277,-545.7413665613861
346311.0,13243.0,346311.0,15315.0,346311.0,33610.0,-346.3569429056764,-287.56469452524465,-553.4717073139094
346322.0,13235.0,346322.0,15298.0,346322.0,33625.0,-353.98541693297636,-291.4580914105857,-561.1965540045611
346322.0,13214.0,346322.0,15315.0,346322.0,33607.0,-361.601355079728,-295.3499531830627,-568.9155058158779
346322.0,13213.0,346322.0,15269.0,346322.0,33594.0,-369.2048185301371,-299.2392830739344,-576.6280828300298
346322.0,13190.0,346322.0,15248.0,346322.0,33577.0,-376.79591966496764,-303.12481498394845,-584.3337279834948
346322.0,13201.0,346322.0,15276.0,346322.0,33580.0,-384.3749244010279,-307.0054439281771,-592.031937041524
346322.0,13202.0,346322.0,15273.0,346322.0,33579.0,-391.9422316968952,-310.8804604646703,-599.7223101943839
346332.0,13187.0,346332.0,15279.0,346332.0,33564.0,-399.4981917700662,-314.7493483201241,-607.4044443466101
346332.0,13169.0,346332.0,15261.0,346332.0,33562.0,-407.04295122387987,-318.61148724658267,-615.0778077770361
346332.0,13158.0,346332.0,15255.0,346332.0,33549.0,-414.5765153073021,-322.4660687355302,-622.7416943261042
346332.0,13150.0,346332.0,15232.0,346332.0,33529.0,-422.09893421530774,-326.31223068378506,-630.395244990076
346332.0,13160.0,346332.0,15253.0,346332.0,33531.0,-429.61040094165185,-330.1492714015528,-638.0375389720242
346332.0,13155.0,346332.0,15263.0,346332.0,33535.0,-437.11114735716535,-333.9766880023425,-645.667651010715
346342.0,13140.0,346342.0,15237.0,346342.0,33500.0,-444.601225532072,-337.7939562268026,-653.2845839533777
346342.0,13118.0,346342.0,15235.0,346342.0,33503.0,-452.0804151227752,-341.60036539619773,-660.8872526690677
346342.0,13111.0,346342.0,15188.0,346342.0,33470.0,-459.54836408291453,-345.3951877880254,-668.4746468322496
346342.0,13102.0,346342.0,15219.0,346342.0,33479.0,-467.00480890580525,-349.1780772232478,-676.0460511903651
346342.0,13095.0,346342.0,15228.0,346342.0,33494.0,-474.4497023949948,-352.9493063092741,-683.601123001425
346342.0,13091.0,346342.0,15228.0,346342.0,33479.0,-481.88323683082353,-356.7095691478964,-691.1396870315069
346353.0,13103.0,346353.0,15214.0,346353.0,33448.0,-489.30577265631894,-360.45961258568985,-698.6614666899857
346353.0,13084.0,346353.0,15224.0,346353.0,33458.0,-496.71765244386893,-364.2000622823775,-706.1660933218553
346353.0,13068.0,346353.0,15189.0,346353.0,33443.0,-504.11903774950247,-367.9314334590021,-713.6532601048717
346353.0,13056.0,346353.0,15201.0,346353.0,33418.0,-511.509955030514,-371.65425143011754,-721.1227918857618
346353.0,13059.0,346353.0,15204.0,346353.0,33431.0,-518.890461581092,-375.36919083637554,-728.5747240582008
346353.0,13064.0,346353.0,15205.0,346353.0,33428.0,-526.260676499288,-379.0770372606677,-736.0093479922344
346363.0,13044.0,346363.0,15186.0,346363.0,33407.0,-533.6206260938708,-382.7785258482269,-743.4270934996232
346363.0,13021.0,346363.0,15178.0,346363.0,33377.0,-540.9701445538639,-386.4743220145868,-750.8284830802852
346363.0,13010.0,346363.0,15173.0,346363.0,33387.0,-548.3090322552822,-390.16518469358374,-758.2143501917562
346363.0,13007.0,346363.0,15176.0,346363.0,33368.0,-555.6373361231655,-393.8521218746428,-765.5860807036112
346363.0,13015.0,346363.0,15186.0,346363.0,33382.0,-562.9554727831625,-397.5363825786629,-772.9456468067668
346363.0,12995.0,346363.0,15188.0,346363.0,33381.0,-570.2641317676662,-401.2192650045024,-780.2954515488707
346373.0,12997.0,346373.0,15172.0,346373.0,33367.0,-577.5641388775391,-404.90187032723423,-787.6380750037988
346373.0,12985.0,346373.0,15146.0,346373.0,33359.0,-584.856405152188,-408.58504697969823,-794.9760879485375
346373.0,12975.0,346373.0,15133.0,346373.0,33335.0,-592.1419229749881,-412.2696589485293,-802.3120624865606
346373.0,12968.0,346373.0,15161.0,346373.0,33336.0,-599.4217890508094,-415.95694937576553,-809.6487248974568
346373.0,12970.0,346373.0,15157.0,346373.0,33337.0,-606.6972299419391,-419.64859671670405,-816.9890786150017
346373.0,12969.0,346373.0,15153.0,346373.0,33333.0,-613.9695370392681,-423.34644722455437,-824.3363515396104
346384.0,12956.0,346384.0,15129.0,346384.0,33314.0,-621.2399129569479,-427.0523183354842,-831.6938444923189
346384.0,12942.0,346384.0,15119.0,346384.0,33293.0,-628.5093750209564,-430.7681116957469,-839.0649154604968
346384.0,12935.0,346384.0,15122.0,346384.0,33293.0,-635.7788048602057,-434.49609411237145,-846.4531602424844
346384.0,12919.0,346384.0,15132.0,346384.0,33306.0,-643.0490752636072,-438.2390509019066,-853.862552608908
346384.0,12937.0,346384.0,15124.0,346384.0,33296.0,-650.3211288059041,-442.00018811674784,-861.2973172098028
346384.0,12920.0,346384.0,15141.0,346384.0,33284.0,-657.5959070305732,-445.7829110550349,-868.7616686678397
346394.0,12904.0,346394.0,15118.0,346394.0,33259.0,-664.874207064133,-449.59061656695906,-876.2597243306838
346394.0,12887.0,346394.0,15089.0,346394.0,33246.0,-672.1567003861361,-453.42664880586887,-883.7956816164113
346394.0,12883.0,346394.0,15104.0,346394.0,33248.0,-679.4441359924549,-457.29453366722845,-891.3740878035134
346394.0,12891.0,346394.0,15123.0,346394.0,33266.0,-686.7374891326263,-461.19819432008677,-898.999918809163
346394.0,12877.0,346394.0,15132.0,346394.0,33260.0,-694.0379058434264,-465.14174904509224,-906.6783231266688
346394.0,12867.0,346394.0,15102.0,346394.0,33226.0,-701.3465687203756,-469.1290754133894,-914.4142756354324
346404.0,12864.0,346404.0,15090.0,346404.0,33206.0,-708.6646599572048,-473.1636526781752,-922.2125600313308
346404.0,12847.0,346404.0,15088.0,346404.0,33204.0,-715.9934013812482,-477.24878344217814,-930.078101979535
346404.0,12842.0,346404.0,15090.0,346404.0,33191.0,-723.3341107374808,-481.387842361514,-938.0162824940601
346404.0,12836.0,346404.0,15095.0,346404.0,33219.0,-730.6882681122195,-485.58429678938296,-946.0329804422479
346404.0,12842.0,346404.0,15096.0,346404.0,33206.0,-738.0575196020817,-489.84154377249854,-954.134323764444
346404.0,12821.0,346404.0,15070.0,346404.0,33187.0,-745.4435817561165,-494.162743401225,-962.3263374289875
346415.0,12805.0,346415.0,15071.0,346415.0,33160.0,-752.8481924485828,-498.5508305403933,-970.6148420797359
346415.0,12802.0,346415.0,15052.0,346415.0,33152.0,-760.2732275285347,-503.0087007918301,-979.0056982987127
346415.0,12810.0,346415.0,15067.0,346415.0,33161.0,-767.7208233180118,-507.5393864344889,-987.5050886906002
346415.0,12794.0,346415.0,15054.0,346415.0,33163.0,-775.1933146704121,-512.1460907057703,-996.1195198748981
346415.0,12801.0,346415.0,15073.0,346415.0,33144.0,-782.6930714951287,-516.8320762787449,-1004.8555765667611
346415.0,12781.0,346415.0,15050.0,346415.0,33134.0,-790.2223793844751,-521.6004827112794,-1013.7197331206955
346425.0,12758.0,346425.0,15022.0,346425.0,33117.0,-797.7834371237414,-526.4542609695752,-1022.7183801775566
346425.0,12763.0,346425.0,15037.0,346425.0,33097.0,-805.3785114867654,-531.3963665855609,-1031.857985258141
346425.0,12767.0,346425.0,15037.0,346425.0,33118.0,-813.0100752070504,-536.4299685058652,-1041.145245436419
346425.0,12760.0,346425.0,15038.0,346425.0,33127.0,-820.6807135384871,-541.5583780733332,-1050.5870032033888
346425.0,12755.0,346425.0,15038.0,346425.0,33100.0,-828.3929065855275,-546.7848133914388,-1060.1898686440106
346425.0,12734.0,346425.0,15015.0,346425.0,33091.0,-836.1489119558375,-552.1122377658785,-1069.9599119797158
346435.0,12724.0,346435.0,14999.0,346435.0,33053.0,-843.9508205124142,-557.5434016394604,-1079.9027156583843
346435.0,12711.0,346435.0,15009.0,346435.0,33064.0,-851.8007284894804,-563.0810575687103,-1090.0236542551506
346435.0,12716.0,346435.0,15012.0,346435.0,33056.0,-859.7008882918988,-568.7280789977756,-1100.328090349541
346435.0,12713.0,346435.0,15020.0,346435.0,33063.0,-867.6537083926765,-574.4872965584229,-1110.8212919275143
346435.0,12707.0,346435.0,15002.0,346435.0,33058.0,-875.6616063049848,-580.3612035840656,-1121.5081399433186
346435.0,12684.0,346435.0,14972.0,346435.0,33007.0,-883.7268764511844,-586.3518363306697,-1132.3928930050024
346446.0,12678.0,346446.0,14967.0,346446.0,32980.0,-891.8517246323372,-592.4609866750711,-1143.4793328231708
346446.0,12674.0,346446.0,14965.0,346446.0,33012.0,-900.0384062902812,-598.6905488989341,-1154.7712154066585
346446.0,12678.0,346446.0,14975.0,346446.0,32998.0,-908.2892681437752,-605.0426605129214,-1166.2724369548725
346446.0,12659.0,346446.0,14971.0,346446.0,32988.0,-916.6066425340487,-611.5195561098383,-1177.9867402850382
346446.0,12667.0,346446.0,14970.0,346446.0,32964.0,-924.9927239242021,-618.1233041712931,-1189.9174433149944
346446.0,12653.0,346446.0,14942.0,346446.0,32959.0,-933.4494800967933,-624.855637225308,-1202.0674404248869
346456.0,12632.0,346456.0,14932.0,346456.0,32956.0,-941.978595957845,-631.7180129027895,-1214.4392701732213
346456.0,12626.0,346456.0,14950.0,346456.0,32923.0,-950.581536905249,-638.711800603538,-1227.0350954716719
346456.0,12618.0,346456.0,14961.0,346456.0,32959.0,-959.2597013518333,-645.8382456447889,-1239.8566305402637
346456.0,12629.0,346456.0,14956.0,346456.0,32930.0,-968.014468079152,-653.0980874029208,-1252.9049437451263
346456.0,12603.0,346456.0,14927.0,346456.0,32908.0,-976.8470796898702,-660.4911734202287,-1266.1801666224053
346456.0,12590.0,346456.0,14905.0,346456.0,32876.0,-985.7585523454476,-668.0164438443519,-1279.681451064825
346467.0,12577.0,346467.0,14912.0,346467.0,32880.0,-994.7497776952648,-675.6722315656613,-1293.407229307555
346467.0,12582.0,346467.0,14908.0,346467.0,32880.0,-1003.8216894705845,-683.4564875074852,-1307.3553800912862
346467.0,12582.0,346467.0,14910.0,346467.0,32842.0,-1012.9752619870511,-691.3667186306861,-1321.5231270120698
346467.0,12571.0,346467.0,14913.0,346467.0,32855.0,-1022.211324337039,-699.3997560947918,-1335.9069119730248
346467.0,12541.0,346467.0,14870.0,346467.0,32840.0,-1031.5304148754212,-707.5515621015857,-1350.5023268017226
346467.0,12551.0,346467.0,14857.0,346467.0,32788.0,-1040.9328439427204,-715.8173062290705,-1365.3040363673654
346477.0,12532.0,346477.0,14855.0,346477.0,32800.0,-1050.4188191014612,-724.1917113852062,-1380.3058694038978
346477.0,12535.0,346477.0,14877.0,346477.0,32806.0,-1059.9884487176332,-732.6692647915108,-1395.5009699540628
346477.0,12524.0,346477.0,14852.0,346477.0,32799.0,-1069.64166030798,-741.2440432246057,-1410.8815967959918
346477.0,12511.0,346477.0,14866.0,346477.0,32788.0,-1079.378120671,-749.9093955412732,-1426.4386601203705
346477.0,12498.0,346477.0,14832.0,346477.0,32749.0,-1089.1972205408688,-758.6577579074051,-1442.1614186699976
346477.0,12497.0,346477.0,14815.0,346477.0,32732.0,-1099.098125799723,-767.4806788496978,-1458.0375197739118
346487.0,12480.0,346487.0,14826.0,346487.0,32726.0,-1109.0798062249314,-776.3690098528205,-1474.0532328687473
346487.0,12486.0,346487.0,14854.0,346487.0,32720.0,-1119.1410033481507,-785.312935956106,-1490.1935571579043
346487.0,12481.0,346487.0,14815.0,346487.0,32709.0,-1129.2801293657321,-794.3016220140628,-1506.4420804048336
346487.0,12454.0,346487.0,14777.0,346487.0,32671.0,-1139.4951234515602,-803.3229302770937,-1522.780795765581
346487.0,12447.0,346487.0,14779.0,346487.0,32665.0,-1149.7834233753301,-812.3636670043755,-1539.1901078964645
346487.0,12435.0,346487.0,14765.0,346487.0,32643.0,-1160.1420929678984,-821.4100326811888,-1555.6489783263592
346498.0,12418.0,346498.0,14773.0,346498.0,32645.0,-1170.5679557608928,-830.4477986661594,-1572.1349901413043
346498.0,12429.0,346498.0,14770.0,346498.0,32620.0,-1181.0576539456433,-839.4621965459007,-1588.624261830938
346498.0,12416.0,346498.0,14758.0,346498.0,32608.0,-1191.6075882320465,-848.4376967211696,-1605.09132637418
346498.0,12412.0,346498.0,14743.0,346498.0,32588.0,-1202.2137427646494,-857.3578547915788,-1621.5090876418835
346498.0,12392.0,346498.0,14710.0,346498.0,32567.0,-1212.8715429457225,-866.2053739738685,-1637.8488569643282
346498.0,12378.0,346498.0,14729.0,346498.0,32557.0,-1223.5758576014478,-874.9623415867356,-1654.0804241939481
346508.0,12387.0,346508.0,14723.0,346508.0,32563.0,-1234.3210748095805,-883.6103588629238,-1670.172060980765
346508.0,12378.0,346508.0,14736.0,346508.0,32545.0,-1245.101065372788,-892.1303582479333,-1686.0903378388743
346508.0,12359.0,346508.0,14707.0,346508.0,32539.0,-1255.9090159064647,-900.5022747269534,-1701.7998349571353
346508.0,12357.0,346508.0,14705.0,346508.0,32497.0,-1266.7373280411944,-908.7048733335665,-1717.2629744944288
346508.0,12338.0,346508.0,14679.0,346508.0,32489.0,-1277.5776345544396,-916.7158184874165,-1732.4400989532912
346508.0,12321.0,346508.0,14678.0,346508.0,32478.0,-1288.4208598235737,-924.5118664477935,-1747.2896774472258
346518.0,12334.0,346518.0,14697.0,346518.0,32451.0,-1299.2572924905467,-932.068979231881,-1761.7684326991139
346518.0,12328.0,346518.0,14690.0,346518.0,32460.0,-1310.076533018635,-939.3621725430245,-1775.8313698745305
346518.0,12307.0,346518.0,14684.0,346518.0,32456.0,-1320.8672800293543,-946.36518348424,-1789.4317025776759
346518.0,12302.0,346518.0,14645.0,346518.0,32411.0,-1331.6171905087235,-953.0503089708728,-1802.5206794896649
346518.0,12301.0,346518.0,14635.0,346518.0,32387.0,-1342.3128790090082,-959.3886200882062,-1815.0476146965416
346518.0,12283.0,346518.0,14659.0,346518.0,32393.0,-1352.9398862537246,-965.3503286553043,-1826.9602345864705
346529.0,12282.0,346529.0,14646.0,346529.0,32411.0,-1363.48260543692,-970.9048778994736,-1838.2048795213443
346529.0,12261.0,346529.0,14643.0,346529.0,32386.0,-1373.9242557281636,-976.0207440371149,-1848.7262644852508
346529.0,12263.0,346529.0,14634.0,346529.0,32348.0,-1384.2468974170108,-980.6652978292407,-1858.4672051893463
346529.0,12243.0,346529.0,14615.0,346529.0,32357.0,-1394.4314487650195,-984.8048586738811,-1867.3687424738746
346529.0,12235.0,346529.0,14598.0,346529.0,32324.0,-1404.457709192273,-988.4049078866049,-1875.3704786497237
346529.0,12242.0,346529.0,14617.0,346529.0,32320.0,-1414.3043813199824,-991.4303792829182,-1882.410844362022
346539.0,12229.0,346539.0,14626.0,346539.0,32315.0,-1423.9490034787634,-993.8457650925438,-1888.427318161188
346539.0,12225.0,346539.0,14614.0,346539.0,32310.0,-1433.3677974194593,-995.614931081379,-1893.356578507743
346539.0,12213.0,346539.0,14577.0,346539.0,32277.0,-1442.5355634956322,-996.7009982040074,-1897.1346084431543
346539.0,12192.0,346539.0,14560.0,346539.0,32274.0,-1451.4256888465156,-997.0666703894503,-1899.6969512713476
346539.0,12172.0,346539.0,14571.0,346539.0,32264.0,-1460.0102997502886,-996.6748598932256,-1900.9791172926657
346539.0,12180.0,346539.0,14554.0,346539.0,32273.0,-1468.2605144839831,-995.4891682203208,-1900.9169109415243
346549.0,12181.0,346549.0,14560.0,346549.0,32256.0,-1476.14657093203,-993.4741206014968,-1899.4465974353327
346549.0,12174.0,346549.0,14577.0,346549.0,32259.0,-1483.6377084527467,-990.5952907838758,-1896.5050486188777
346549.0,12164.0,346549.0,14552.0,346549.0,32222.0,-1490.7019891235627,-986.8193395412214,-1892.0300299344722
346549.0,12148.0,346549.0,14535.0,346549.0,32216.0,-1497.3062657798878,-982.1141420544888,-1885.9607256675763
346549.0,12141.0,346549.0,14547.0,346549.0,32208.0,-1503.4163100225173,-976.4491954660783,-1878.2384437595565
346549.0,12135.0,346549.0,14548.0,346549.0,32236.0,-1508.996994006643,-969.7960647949342,-1868.807222870439
346560.0,12132.0,346560.0,14559.0,346560.0,32233.0,-1514.0124198594349,-962.1285970144606,-1857.614118947096
346560.0,12114.0,346560.0,14569.0,346560.0,32223.0,-1518.425999883188,-953.422970990521,-1844.609328925309
346560.0,12104.0,346560.0,14547.0,346560.0,32216.0,-1522.2005979828275,-943.6577622091538,-1829.7465114692102
346560.0,12106.0,346560.0,14548.0,346560.0,32198.0,-1525.298757782394,-932.814207218931,-1812.9834277734476
346560.0,12097.0,346560.0,14566.0,346560.0,32224.0,-1527.682895181008,-920.876658356488,-1794.2827258278194
346560.0,12112.0,346560.0,14566.0,346560.0,32232.0,-1529.3153735837723,-907.8329541293701,-1773.6125902239205
346570.0,12103.0,346570.0,14596.0,346570.0,32255.0,-1530.1584771867715,-893.6745823084556,-1750.9471190624056
346570.0,12101.0,346570.0,14581.0,346570.0,32274.0,-1530.1743624571668,-878.3967615881661,-1726.2665362365965
346570.0,12075.0,346570.0,14577.0,346570.0,32263.0,-1529.3251468765498,-861.9986485039299,-1699.5574362221064
346570.0,12065.0,346570.0,14594.0,346570.0,32278.0,-1527.5732474724514,-844.483789154218,-1670.8132481845732
346570.0,12079.0,346570.0,14634.0,346570.0,32308.0,-1524.881852981607,-825.8605607578556,-1640.0348914952701
346570.0,12074.0,346570.0,14648.0,346570.0,32355.0,-1521.2152556276383,-806.1422629397422,-1607.231276798357
346580.0,12090.0,346580.0,14668.0,346580.0,32391.0,-1516.538952630199,-785.3469717968442,-1572.419425931922
346580.0,12071.0,346580.0,14700.0,346580.0,32417.0,-1510.8196845407074,-763.4974436792435,-1535.624386469216
346580.0,12058.0,346580.0,14696.0,346580.0,32435.0,-1504.0256280544495,-740.6211207158854,-1496.8792742360135
346580.0,12070.0,346580.0,14740.0,346580.0,32478.0,-1496.1268172229138,-716.750223179282,-1456.2255704801541
346580.0,12081.0,346580.0,14775.0,346580.0,32531.0,-1487.0955674319794,-691.9218326820292,-1413.7134601218415
346580.0,12079.0,346580.0,14827.0,346580.0,32590.0,-1476.9066885934512,-666.17773040797,-1369.4019203407972
346591.0,12083.0,346591.0,14862.0,346591.0,32644.0,-1465.5376260513385,-639.5639567975871,-1323.3585234651787
346591.0,12096.0,346591.0,14878.0,346591.0,32705.0,-1452.9686878615444,-612.130346325407,-1275.6591202173697
346591.0,12092.0,346591.0,14901.0,346591.0,32754.0,-1439.183306551793,-583.9303171778262,-1226.3875387397288
346591.0,12107.0,346591.0,14960.0,346591.0,32854.0,-1424.1683076596105,-555.0208919572005,-1175.6352746824023
346591.0,12117.0,346591.0,14999.0,346591.0,32935.0,-1407.9141956952888,-525.4625955546355,-1123.500957149013
346591.0,12146.0,346591.0,15054.0,346591.0,32997.0,-1390.4153709286786,-495.31905025759283,-1070.0895187342944
346601.0,12145.0,346601.0,15088.0,346601.0,33057.0,-1371.6702348021481,-464.6564421980331,-1015.5114104967184
346601.0,12168.0,346601.0,15127.0,346601.0,33140.0,-1351.6813015201296,-433.5430614803462,-959.8821094143293
346601.0,12186.0,346601.0,15166.0,346601.0,33216.0,-1330.4553866907333,-402.04898467974965,-903.3217083311433
346601.0,12215.0,346601.0,15231.0,346601.0,33305.0,-1308.0037676983534,-370.245796316512,-845.954345858365
346601.0,12247.0,346601.0,15292.0,346601.0,33418.0,-1284.3422164182678,-338.20612240701587,-787.9074156808824
346601.0,12268.0,346601.0,15328.0,346601.0,33481.0,-1259.490928187749,-306.00293128014016,-729.3105613744008
346611.0,12303.0,346611.0,15352.0,346611.0,33568.0,-1233.474435562721,-273.708906918116,-670.2946671303753
346611.0,12324.0,346611.0,15397.0,346611.0,33640.0,-1206.3215628667717,-241.3961656658484,-610.9910891164293
346611.0,12353.0,346611.0,15424.0,346611.0,33716.0,-1178.0654288291944,-209.1361986051873,-551.5310787182676
346611.0,12397.0,346611.0,15501.0,346611.0,33823.0,-1148.7434700660206,-176.99975191436226,-492.0452092558594
346611.0,12430.0,346611.0,15540.0,346611.0,33902.0,-1118.3973892126191,-145.056450644317,-432.66263800631907
346611.0,12485.0,346611.0,15596.0,346611.0,33965.0,-1087.072963757032,-113.37418790825325,-373.5102499035828
346622.0,12507.0,346622.0,15613.0,346622.0,34055.0,-1054.8197729094713,-82.01854234141103,-314.711953963395
346622.0,12556.0,346622.0,15649.0,346622.0,34112.0,-1021.6909604238441,-51.05246448306366,-256.38817892245356
346622.0,12602.0,346622.0,15678.0,346622.0,34187.0,-987.743060096731,-20.536225911398674,-198.65544670606664
346622.0,12658.0,346622.0,15721.0,346622.0,34277.0,-953.0357486565711,9.472565185193503,-141.62596923245655
346622.0,12706.0,346622.0,15791.0,346622.0,34353.0,-917.6314452870449,38.91912072915409,-85.40712716849225
346622.0,12770.0,346622.0,15807.0,346622.0,34401.0,-881.5948165649258,67.75190684224151,-30.100835100158065
346632.0,12798.0,346632.0,15825.0,346632.0,34478.0,-844.9922697897266,95.92308994322968,24.196939179797482
346632.0,12857.0,346632.0,15875.0,346632.0,34515.0,-807.8915459417103,123.38867475089387,77.3964155228739
346632.0,12900.0,346632.0,15897.0,346632.0,34595.0,-770.3614364275738,150.1085077572269,129.41413504198545
346632.0,12965.0,346632.0,15932.0,346632.0,34648.0,-732.4714838078818,176.04639853810613,180.1731148760864
346632.0,12998.0,346632.0,15952.0,346632.0,34715.0,-694.291599519864,201.1702630653465,229.6031077570292
346632.0,13061.0,346632.0,15963.0,346632.0,34736.0,-655.8916914587544,225.45214853391929,277.6408616175893
346642.0,13101.0,346642.0,15995.0,346642.0,34775.0,-617.3413477234984,248.86812050926483,324.2301245077797
346642.0,13150.0,346642.0,15994.0,346642.0,34835.0,-578.7095459310964,271.3980760398913,369.3213827080024
346642.0,13196.0,346642.0,16034.0,346642.0,34879.0,-540.0644020352767,293.0255523226723,412.87165766422254
346642.0,13248.0,346642.0,16068.0,346642.0,34929.0,-501.4729503434761,313.73763478715045,454.84454144413075
346642.0,13288.0,346642.0,16065.0,346642.0,34934.0,-463.0009100268951,333.5250440612515,495.21025152856146
346642.0,13341.0,346642.0,16090.0,346642.0,34977.0,-424.7124541646202,352.3822018919732,533.9454349465227
346653.0,13388.0,346653.0,16093.0,346653.0,35019.0,-386.66998526318343,370.30709419051414,571.0327996287062
346653.0,13437.0,346653.0,16091.0,346653.0,35041.0,-348.93387672134884,387.3010042413878,606.4608590905402
346653.0,13491.0,346653.0,16112.0,346653.0,35081.0,-311.5621721470228,403.3681667409413,640.2238092285659
346653.0,13526.0,346653.0,16148.0,346653.0,35119.0,-274.61027092622953,418.5154863156787,672.3214263071441
346653.0,13577.0,346653.0,16143.0,346653.0,35137.0,-238.13065887527137,432.75251871394494,702.7590166869832
346653.0,13616.0,346653.0,16135.0,346653.0,35151.0,-202.1727064654408,446.09150196224664,731.54733129092
346663.0,13633.0,346663.0,16151.0,346663.0,35162.0,-166.78254303689073,458.547111363236,758.702272628092
346663.0,13684.0,346663.0,16153.0,346663.0,35175.0,-132.00307825280754,470.1360715107618,784.2444203478403
346663.0,13721.0,346663.0,16169.0,346663.0,35211.0,-97.87409036972883,480.8768960325318,808.1985630266495
346663.0,13770.0,346663.0,16178.0,346663.0,35231.0,-64.43217350980717,490.7897727395531,830.593427787753
346663.0,13794.0,346663.0,16183.0,346663.0,35231.0,-31.710556808048295,499.8965166872241,851.4615806530505
346663.0,13833.0,346663.0,16183.0,346663.0,35252.0,0.2610276672046439,508.220507526411,870.8392538608232
346674.0,13854.0,346674.0,16175.0,346674.0,35249.0,31.456350375638976,515.7865193756634,888.7660181553997
346674.0,13885.0,346674.0,16195.0,346674.0,35263.0,61.85259244834924,522.6204606766871,905.2844041199392
346674.0,13944.0,346674.0,16207.0,346674.0,35283.0,91.43026867339972,528.7492033477415,920.4395583020778
346674.0,13964.0,346674.0,16223.0,346674.0,35298.0,120.17332998929601,534.2006440848309,934.2790379999828
346674.0,13982.0,346674.0,16212.0,346674.0,35312.0,148.06935707842285,539.0038795677588,946.852769564136
346674.0,14009.0,346674.0,16205.0,346674.0,35304.0,175.10955619302308,543.1892336101812,958.2130189276284
346684.0,14024.0,346684.0,16187.0,346684.0,35292.0,201.2885475031119,546.7880037733145,968.4141764556532
346684.0,14059.0,346684.0,16215.0,346684.0,35301.0,226.60413851191447,549.8320701513861,977.5123058620668
346684.0,14081.0,346684.0,16216.0,346684.0,35304.0,251.05718390753373,552.3536850697386,985.5646598393589
346684.0,14103.0,346684.0,16211.0,346684.0,35311.0,274.65153192974276,554.3855276651624,992.629369041354
346684.0,14119.0,346684.0,16215.0,346684.0,35318.0,297.39396616402064,555.9607673194331,998.7652863863696
346684.0,14139.0,346684.0,16176.0,346684.0,35309.0,319.29406979149394,557.1129304956935,1004.031873502689
346694.0,14150.0,346694.0,16185.0,346694.0,35307.0,340.36403231992495,557.8755375292988,1008.4890221858941
346694.0,14176.0,346694.0,16186.0,346694.0,35301.0,360.6184409919458,558.2816641213932,1012.196766453188
346694.0,14190.0,346694.0,16195.0,346694.0,35328.0,380.0741070772988,558.3637198965896,1015.2150107590078
346694.0,14207.0,346694.0,16203.0,346694.0,35304.0,398.74994479849124,558.1535056948682,1017.6034221919333
346694.0,14227.0,346694.0,16188.0,346694.0,35294.0,416.6668639025755,557.6823562982082,1019.4213430611271
346694.0,14232.0,346694.0,16185.0,346694.0,35297.0,433.84765098945434,556.9811672159391,1020.7275033871256
346705.0,14240.0,346705.0,16176.0,346705.0,35278.0,450.3167964292528,556.0802438053097,1021.5796366179836
346705.0,14282.0,346705.0,16154.0,346705.0,35288.0,466.10028637621804,555.0090405377778,1022.0341606006255
346705.0,14278.0,346705.0,16202.0,346705.0,35284.0,481.2255209912372,553.7959209772673,1022.14594623282
346705.0,14277.0,346705.0,16194.0,346705.0,35299.0,495.7212953034326,552.4681945334044,1021.9682245941387
346705.0,14299.0,346705.0,16169.0,346705.0,35277.0,509.61759493756813,551.0524027650516,1021.5526044775938
346705.0,14296.0,346705.0,16147.0,346705.0,35254.0,522.9452806605027,549.5743383034371,1020.9489739722515
346715.0,14305.0,346715.0,16151.0,346715.0,35275.0,535.7358247062296,548.0586255464387,1020.2051670574192
346715.0,14330.0,346715.0,16183.0,346715.0,35279.0,548.0210837238503,546.5283560817774,1019.3666850166144
346715.0,14343.0,346715.0,16162.0,346715.0,35286.0,559.8331842391024,545.0051504114163,1018.4767423083374
346715.0,14345.0,346715.0,16164.0,346715.0,35288.0,571.2045459132075,543.5093942916988,1017.576477575361
346715.0,14336.0,346715.0,16151.0,346715.0,35267.0,582.1678169325176,542.0602665076663,1016.7050673371125
346715.0,14349.0,346715.0,16135.0,346715.0,35273.0,592.7555808499608,540.6755452812209,1015.8996378269835
346725.0,14364.0,346725.0,16139.0,346725.0,35260.0,603.0000119169836,539.3713262618493,1015.1950425183034
346725.0,14369.0,346725.0,16164.0,346725.0,35265.0,612.9326943978294,538.1618316407861,1014.6236518752314
346725.0,14393.0,346725.0,16185.0,346725.0,35282.0,622.5845906665425,537.0595668830393,1014.215251345905
346725.0,14383.0,346725.0,16172.0,346725.0,35266.0,631.9860437421887,536.0757841423693,1013.9970850063394
346725.0,14385.0,346725.0,16139.0,346725.0,35278.0,641.1666918425453,535.2207885209854,1013.9939366380117
346725.0,14395.0,346725.0,16147.0,346725.0,35252.0,650.1552251742737,534.5037589667934,1014.2280874877727
346736.0,14414.0,346736.0,16168.0,346736.0,35288.0,658.9791418576324,533.9323971536564,1014.7191822916868
346736.0,14433.0,346736.0,16178.0,346736.0,35294.0,667.6647084834574,533.512922123234,1015.4842274792538
346736.0,14428.0,346736.0,16167.0,346736.0,35289.0,676.2370758486663,533.2503780619888,1016.5378180638581
346736.0,14444.0,346736.0,16173.0,346736.0,35283.0,684.7203365339649,533.1488563394663,1017.8923255404727
346736.0,14442.0,346736.0,16175.0,346736.0,35299.0,693.1374466125944,533.2115243867395,1019.55786216243
346736.0,14446.0,346736.0,16150.0,346736.0,35302.0,701.5100774983168,533.4405766350983,1021.5422255953472
346746.0,14459.0,346746.0,16182.0,346746.0,35295.0,709.8584396942654,533.8371236049062,1023.8509450479648
346746.0,14480.0,346746.0,16179.0,346746.0,35301.0,718.2011667915426,534.4011404994448,1026.487280900526
346746.0,14488.0,346746.0,16189.0,346746.0,35311.0,726.5553602548932,535.1316189535343,1029.4521452762783
346746.0,14486.0,346746.0,16173.0,346746.0,35317.0,734.9366911872489,536.0267478986958,1032.7440871389365
346746.0,14486.0,346746.0,16168.0,346746.0,35307.0,743.3593500809343,537.0838908505217,1036.3593358194694
346746.0,14509.0,346746.0,16169.0,346746.0,35318.0,751.835848100972,538.2993778925395,1040.291757315813
346756.0,14530.0,346756.0,16194.0,346756.0,35353.0,760.3769163406271,539.6683391017945,1044.5328003928523
346756.0,14534.0,346756.0,16195.0,346756.0,35350.0,768.9916281198612,541.1847879810139,1049.0716674355463
346756.0,14550.0,346756.0,16190.0,346756.0,35348.0,777.6875719669945,542.841855893952,1053.8955990293614
346756.0,14554.0,346756.0,16186.0,346756.0,35366.0,786.4709191662982,544.6318903298476,1058.9899731086518
346756.0,14559.0,346756.0,16186.0,346756.0,35365.0,795.3463977714191,546.5463463899156,1064.3382717043992
346756.0,14574.0,346756.0,16191.0,346756.0,35379.0,804.3172093162443,548.5756316196873,1069.9220898073847
346767.0,14584.0,346767.0,16219.0,346767.0,35384.0,813.3849528343976,550.709078506528,1075.7211727192198
346767.0,14604.0,346767.0,16224.0,346767.0,35409.0,822.5496309662406,552.9351481638859,1081.7134824898892
346767.0,14603.0,346767.0,16224.0,346767.0,35436.0,831.8097138214064,555.2417623371795,1087.8753973089338
346767.0,14616.0,346767.0,16218.0,346767.0,35420.0,841.1621594148094,557.6164969722572,1094.1820344456291
346767.0,14612.0,346767.0,16220.0,346767.0,35424.0,850.6023259710591,560.0465405982602,1100.6074283483165
346767.0,14641.0,346767.0,16230.0,346767.0,35440.0,860.1238308413747,562.518571730786,1107.1244250737564
346777.0,14651.0,346777.0,16246.0,346777.0,35460.0,869.7184998726336,565.0187499891964,1113.7045772103756
346777.0,14667.0,346777.0,16251.0,346777.0,35492.0,879.3764641038645,567.5328820721969,1120.3183133795626
346777.0,14693.0,346777.0,16251.0,346777.0,35491.0,889.0863251328924,570.0466416163209,1126.935322525535
346777.0,14690.0,346777.0,16240.0,346777.0,35472.0,898.8353267392588,572.5456572141161,1133.5248362264163
346777.0,14694.0,346777.0,16222.0,346777.0,35492.0,908.6094359958936,575.0153597758856,1140.0555489490202
346777.0,14730.0,346777.0,16255.0,346777.0,35506.0,918.3932857163561,577.4406807708002,1146.4953816416096
346787.0,14742.0,346787.0,16269.0,346787.0,35537.0,928.1701972567764,579.8059418075521,1152.8114944257932
346787.0,14765.0,346787.0,16280.0,346787.0,35567.0,937.922417737987,582.0951262736103,1158.9706445429902
346787.0,14785.0,346787.0,16271.0,346787.0,35558.0,947.6314224738167,584.2922562903103,1164.9396983638972
346787.0,14789.0,346787.0,16269.0,346787.0,35559.0,957.2781658044087,586.3815375391007,1170.6859666444932
346787.0,14795.0,346787.0,16278.0,346787.0,35559.0,966.8432121281796,588.3472805699603,1176.1771779179103
346787.0,14814.0,346787.0,16287.0,346787.0,35599.0,976.3067153713368,590.1738318317884,1181.381335951805
346798.0,14829.0,346798.0,16310.0,346798.0,35599.0,985.6483871637877,591.8456869498186,1186.2668184928536
346798.0,14844.0,346798.0,16298.0,346798.0,35617.0,994.8475778140412,593.3477543769892,1190.8026960744253
346798.0,14849.0,346798.0,16302.0,346798.0,35615.0,1003.8834019362766,594.6655655240794,1194.9590027561592
346798.0,14851.0,346798.0,16290.0,346798.0,35625.0,1012.7347758352892,595.785276029806,1198.7068565860718
346798.0,14868.0,346798.0,16310.0,346798.0,35646.0,1021.3803369727882,596.6935476833451,1202.0185339646455
346798.0,14900.0,346798.0,16326.0,346798.0,35661.0,1029.7984040513077,597.3775522711239,1204.867654672243
346808.0,14918.0,346808.0,16336.0,346808.0,35677.0,1037.967174710585,597.8252293214985,1207.229525001975
346808.0,14929.0,346808.0,16332.0,346808.0,35675.0,1045.8651008274308,598.0256524527438,1209.081508308054
346808.0,14928.0,346808.0,16328.0,346808.0,35670.0,1053.471172969663,597.9692497232869,1210.403245679246
346808.0,14940.0,346808.0,16322.0,346808.0,35668.0,1060.7649750648286,597.6478014345871,1211.1766525920075
346808.0,14948.0,346808.0,16325.0,346808.0,35685.0,1067.726615198783,597.0543229537242,1211.3858156501058
346808.0,14982.0,346808.0,16342.0,346808.0,35701.0,1074.336733556062,596.1830048394069,1211.017034868245
346818.0,15003.0,346818.0,16332.0,346818.0,35704.0,1080.5767379029637,595.0293137081604,1210.0590990351172
346818.0,14997.0,346818.0,16332.0,346818.0,35685.0,1086.429200457237,593.5901427242472,1208.5035780605676
346818.0,15001.0,346818.0,16310.0,346818.0,35680.0,1091.8781131872843,591.8638115118068,1206.3448574432002
346818.0,15012.0,346818.0,16309.0,346818.0,35676.0,1096.9088705632041,589.8498710690253,1203.5799333457612
346818.0,15011.0,346818.0,16306.0,346818.0,35698.0,1101.50817455661,587.5488432595882,1200.2082538070829
346818.0,15049.0,346818.0,16326.0,346818.0,35706.0,1105.664046523379,584.9620972711328,1196.2318429652846
346829.0,15049.0,346829.0,16342.0,346829.0,35690.0,1109.3660233031371,582.0920148041843,1191.6556354560691
346829.0,15042.0,346829.0,16322.0,346829.0,35688.0,1112.60543673765,578.9423650206872,1186.4877072425654
346829.0,15046.0,346829.0,16305.0,346829.0,35668.0,1115.3755037449212,575.5185370451184,1180.7392509368326
346829.0,15051.0,346829.0,16287.0,346829.0,35650.0,1117.6712090174733,571.8273809774265,1174.4243763010809
346829.0,15065.0,346829.0,16317.0,346829.0,35668.0,1119.489229484226,567.8768839010316,1167.5598650877878
346829.0,15062.0,346829.0,16309.0,346829.0,35660.0,1120.8279998634712,563.6761056475775,1160.1650902319368
346839.0,15066.0,346839.0,16305.0,346839.0,35627.0,1121.6878101358047,559.2354044167603,1152.2621089728977
346839.0,15066.0,346839.0,16278.0,346839.0,35612.0,1122.0708358269492,554.5665816169612,1143.875587272345
346839.0,15054.0,346839.0,16266.0,346839.0,35602.0,1121.9810929979644,549.6827169107851,1135.0324556544992
346839.0,15060.0,346839.0,16269.0,346839.0,35592.0,1121.4243219227026,544.5978387930616,1125.7615850661473
346839.0,15062.0,346839.0,16290.0,346839.0,35593.0,1120.4078600375171,539.3267641944382,1116.093655928998
346839.0,15067.0,346839.0,16277.0,346839.0,35573.0,1118.940617308876,533.8852786740248,1106.06116481227
346849.0,15047.0,346849.0,16266.0,346849.0,35558.0,1117.0331133095458,528.2904219690287,1095.6984280972088
346849.0,15059.0,346849.0,16236.0,346849.0,35523.0,1114.6974320332818,522.560520190349,1085.0414318278233
346849.0,15045.0,346849.0,16203.0,346849.0,35501.0,1111.9471102995767,516.7148487610245,1074.1274699759165
346849.0,15050.0,346849.0,16218.0,346849.0,35478.0,1108.7970605459855,510.77308942964896,1062.994650909794
346849.0,15049.0,346849.0,16247.0,346849.0,35499.0,1105.2635417386198,504.75502191095404,1051.6814995458212
346849.0,15043.0,346849.0,16215.0,346849.0,35460.0,1101.3641698252723,498.6807287923221,1040.2268543025184
346860.0,15030.0,346860.0,16184.0,346860.0,35456.0,1097.117914589928,492.5708638004906,1028.6699078575875
346860.0,15029.0,346860.0,16168.0,346860.0,35413.0,1092.5450054391026,486.44643030282884,1017.0500828471476
346860.0,15000.0,346860.0,16147.0,346860.0,35410.0,1087.6667515799509,480.3282191320944,1005.4067048134906
346860.0,15003.0,346860.0,16154.0,346860.0,35387.0,1082.5052901054205,474.23633004141175,993.7786492165033
346860.0,15007.0,346860.0,16169.0,346860.0,35372.0,1077.0833483211416,468.1899987313167,982.2040846869075
346860.0,14991.0,346860.0,16168.0,346860.0,35371.0,1071.4241693565527,462.20778546452567,970.7203112668718
346870.0,14976.0,346870.0,16143.0,346870.0,35336.0,1065.5515011653276,456.30789798767444,959.3636580017778
346870.0,14963.0,346870.0,16122.0,346870.0,35317.0,1059.4894356751092,450.5082535315801,948.1693293970217
346870.0,14952.0,346870.0,16105.0,346870.0,35285.0,1053.262127676905,444.82617406677775,937.1710680252068
346870.0,14954.0,346870.0,16128.0,346870.0,35295.0,1046.8935545759832,439.2780137470628,926.4007394054712
346870.0,14943.0,346870.0,16118.0,346870.0,35292.0,1040.407403246383,433.8790721341086,915.8881274583512
346870.0,14945.0,346870.0,16104.0,346870.0,35268.0,1033.8270609547112,428.64375422446335,905.6610123610569
346880.0,14933.0,346880.0,16094.0,346880.0,35240.0,1027.1756387578016,423.5856327511891,895.7452181866331
346880.0,14908.0,346880.0,16084.0,346880.0,35217.0,1020.4759375745084,418.7173030124983,886.1643542029927
346880.0,14901.0,346880.0,16063.0,346880.0,35217.0,1013.7502570232648,414.050159306988,876.9393886348909
346880.0,14907.0,346880.0,16062.0,346880.0,35228.0,1007.0201333102779,409.59414113994325,868.0884062553498
346880.0,14899.0,346880.0,16072.0,346880.0,35235.0,1000.3062402008356,405.35753180733775,859.6267474538157
346880.0,14885.0,346880.0,16085.0,346880.0,35211.0,993.6284422602567,401.3469992668249,851.5673703441086
346891.0,14884.0,346891.0,16047.0,346891.0,35197.0,987.0057973244543,397.5678243864893,843.9210569764255
346891.0,14868.0,346891.0,16046.0,346891.0,35196.0,980.4564731545646,394.0239500611432,836.6963276417046
346891.0,14848.0,346891.0,16059.0,346891.0,35178.0,973.9976140871169,390.7177781706772,829.8992754091661
346891.0,14865.0,346891.0,16065.0,346891.0,35180.0,967.6451591177893,387.6501007830242,823.5334663293809
346891.0,14863.0,346891.0,16069.0,346891.0,35196.0,961.4137747870586,384.8203294446831,817.5999354624516
346891.0,14839.0,346891.0,16041.0,346891.0,35167.0,955.3169731827259,382.22673921052433,812.0973231364494
346901.0,14836.0,346901.0,16043.0,346901.0,35174.0,949.367151501418,379.86645422758636,807.0220036693188
346901.0,14824.0,346901.0,16033.0,346901.0,35170.0,943.5754333327716,377.73522552113803,802.3680770783221
346901.0,14822.0,346901.0,16063.0,346901.0,35154.0,937.9514913772634,375.82728642132975,798.1273351976034
346901.0,14837.0,346901.0,16068.0,346901.0,35194.0,932.5034969472703,374.1355063536192,794.2892975083386
346901.0,14830.0,346901.0,16067.0,346901.0,35168.0,927.2382485554112,372.6517723469857,790.8413918230269
346901.0,14818.0,346901.0,16044.0,346901.0,35163.0,922.1613761147851,371.36726659683745,787.7691911162894
346912.0,14799.0,346912.0,16059.0,346912.0,35173.0,917.2773756596188,370.27244201733373,785.0564660838581
346912.0,14799.0,346912.0,16032.0,346912.0,35173.0,912.5894157161289,369.35684784619434,782.6851611511785
346912.0,14808.0,346912.0,16067.0,346912.0,35195.0,908.0991398121937,368.60900596001323,780.6355413483486
346912.0,14813.0,346912.0,16063.0,346912.0,35204.0,903.8066916811747,368.0164576383877,778.8865227746892
346912.0,14807.0,346912.0,16083.0,346912.0,35190.0,899.7109287031449,367.5660276922932,777.4160577685657
346912.0,14794.0,346912.0,16076.0,346912.0,35186.0,895.8095888257808,367.24416671969607,776.2013447553159
346922.0,14793.0,346922.0,16060.0,346922.0,35193.0,892.0992713634098,367.0371533488443,775.2187926532308
346922.0,14778.0,346922.0,16065.0,346922.0,35189.0,888.5752985297821,366.9310496477664,774.4439530638901
346922.0,14794.0,346922.0,16069.0,346922.0,35206.0,885.231587333654,366.9115416850123,773.8515667171866
346922.0,14831.0,346922.0,16102.0,346922.0,35222.0,882.0607222185109,366.96395508435705,773.4157472214039
346922.0,14812.0,346922.0,16111.0,346922.0,35229.0,879.0543662536651,367.0735937663792,773.1103211450488
346922.0,14795.0,346922.0,16060.0,346922.0,35205.0,876.2036954120776,367.22614735916403,772.9091633656158
346932.0,14787.0,346932.0,16086.0,346932.0,35217.0,873.499415030039,367.4077083660073,772.7862755629282
346932.0,14803.0,346932.0,16080.0,346932.0,35216.0,870.9315064640009,367.604482524253,772.7156754823435
346932.0,14800.0,346932.0,16103.0,346932.0,35250.0,868.4891373215994,367.80269873530824,772.6714175551502
346932.0,14806.0,346932.0,16111.0,346932.0,35251.0,866.1608003506492,367.9888363879187,772.6278995168711
346932.0,14793.0,346932.0,16104.0,346932.0,35250.0,863.9344647976911,368.1499499324182,772.5602899135408
346932.0,14794.0,346932.0,16090.0,346932.0,35228.0,861.7976029937977,368.2738462695754,772.4447535235748
346943.0,14796.0,346943.0,16080.0,346943.0,35232.0,859.7371330300882,368.3489696627838,772.2583399060748
346943.0,14804.0,346943.0,16096.0,346943.0,35236.0,857.7394135168879,368.36413622861267,771.9787463124051
346943.0,14824.0,346943.0,16115.0,346943.0,35255.0,855.7903960819855,368.3084482469501,771.5842552143511
346943.0,14817.0,346943.0,16103.0,346943.0,35271.0,853.8759279515548,368.17150602805987,771.0539584739821
346943.0,14801.0,346943.0,16106.0,346943.0,35241.0,851.9820128110438,367.9436566273624,770.3681029091545
346943.0,14802.0,346943.0,16077.0,346943.0,35240.0,850.0948138628651,367.61600249229406,769.5082118710621
346953.0,14793.0,346953.0,16081.0,346953.0,35243.0,848.2004703627006,367.18015821047436,768.4569025212568
346953.0,14817.0,346953.0,16107.0,346953.0,35243.0,846.2849790236023,366.6279924234823,767.197709034105
346953.0,14811.0,346953.0,16118.0,346953.0,35245.0,844.3342803730848,365.9516931393774,765.7150822794227
346953.0,14823.0,346953.0,16098.0,346953.0,35254.0,842.3344938504671,365.14412230217704,763.994481520872
346953.0,14816.0,346953.0,16104.0,346953.0,35236.0,840.2721442458512,364.1990389341752,762.0224837529976
346953.0,14812.0,346953.0,16050.0,346953.0,35226.0,838.1342848113201,363.1109623990179,759.7867937690844
346963.0,14816.0,346963.0,16073.0,346963.0,35223.0,835.9085174774432,361.8747447946872,757.2760744439322
346963.0,14821.0,346963.0,16102.0,346963.0,35250.0,833.5830016593197,360.48520276027944,754.4797959531827
346963.0,14821.0,346963.0,16109.0,346963.0,35238.0,831.1465471662681,358.93726015395725,751.3883532119867
346963.0,14812.0,346963.0,16094.0,346963.0,35244.0,828.5887349319253,357.22644796497536,747.9933506845694
346963.0,14812.0,346963.0,16093.0,346963.0,35222.0,825.8999505727106,355.34919700162607,744.2877695267031
346963.0,14796.0,346963.0,16082.0,346963.0,35211.0,823.0713149203626,353.30279600063034,740.2659040003098
346974.0,14807.0,346974.0,16087.0,346974.0,35224.0,820.0945705269193,351.0852540699139,735.9231726189079
346974.0,14804.0,346974.0,16076.0,346974.0,35230.0,816.9620235913965,348.69521326023533,731.2560632429897
346974.0,14809.0,346974.0,16114.0,346974.0,35223.0,813.6666103808384,346.13197811250734,726.2623296471531
346974.0,14802.0,346974.0,16065.0,346974.0,35213.0,810.2020256573555,343.39568650743456,720.9412190831512
346974.0,14791.0,346974.0,16069.0,346974.0,35184.0,806.5627898902419,340.4873870863664,715.2934819899847
346974.0,14774.0,346974.0,16041.0,346974.0,35171.0,802.7441684353145,337.40879455787797,709.3211153036065
346984.0,14790.0,346984.0,16070.0,346984.0,35180.0,798.7419853561942,334.1619454660789,703.0270093347956
346984.0,14774.0,346984.0,16062.0,346984.0,35193.0,794.5525161991347,330.74911054117956,696.4148259932372
346984.0,14782.0,346984.0,16076.0,346984.0,35163.0,790.1725205675768,327.1729979693617,689.4891912355407
346984.0,14780.0,346984.0,16040.0,346984.0,35150.0,785.5993215242987,323.43698644603376,682.255843417104
346984.0,14764.0,346984.0,16028.0,346984.0,35129.0,780.8308813303004,319.54509043520585,674.7214682404785
346984.0,14744.0,346984.0,16028.0,346984.0,35125.0,775.8657703950856,315.5016453825533,666.8933799867126
346994.0,14763.0,346994.0,16021.0,346994.0,35120.0,770.7029870050308,311.31101226387847,658.779301778458
346994.0,14758.0,346994.0,16021.0,346994.0,35133.0,765.3418686977619,306.9774834652755,650.3873599897994
346994.0,14749.0,346994.0,16041.0,346994.0,35114.0,759.7822207839039,302.5053514034323,641.7262783838931
346994.0,14735.0,346994.0,16021.0,346994.0,35074.0,754.0244252602125,297.8991154601061,632.8055248175077
346994.0,14734.0,346994.0,16006.0,346994.0,35069.0,748.0693783387042,293.16366519060364,623.6351228585646
346994.0,14717.0,346994.0,15993.0,346994.0,35070.0,741.9183658582597,288.3042028828988,614.2252899065714
347004.0,14725.0,347004.0,16010.0,347004.0,35061.0,735.5729757109033,283.3260247072132,604.5863021874419
347004.0,14739.0,347004.0,16017.0,347004.0,35059.0,729.0351322358227,278.23451241399846,594.7286146226193
347004.0,14714.0,347004.0,15994.0,347004.0,35047.0,722.307307166859,273.0353779052066,584.6630227461168
347004.0,14705.0,347004.0,15971.0,347004.0,35043.0,715.3926966002718,267.7347942087347,574.400783353098
347004.0,14688.0,347004.0,15962.0,347004.0,34999.0,708.2951433137954,262.3391738703931,563.9536409091825
347004.0,14685.0,347004.0,15962.0,347004.0,35002.0,701.0189196834854,256.8548191965621,553.3336622144799
347014.0,14684.0,347014.0,15983.0,347014.0,35008.0,693.5685876111934,251.28780031576417,542.5530226245231
347014.0,14669.0,347014.0,15980.0,347014.0,34990.0,685.9489899641601,245.6441802538792,531.6240368744529
347014.0,14659.0,347014.0,15972.0,347014.0,34962.0,678.1652661202969,239.93039456936648,520.5593167337161
347014.0,14670.0,347014.0,15932.0,347014.0,34949.0,670.222830748488,234.15342512520348,509.3717110570128
347014.0,14639.0,347014.0,15918.0,347014.0,34940.0,662.1273945796177,228.3205573194939,498.07407031856553
347014.0,14637.0,347014.0,15937.0,347014.0,34911.0,653.8849763975339,222.43893911092118,486.6790598450805
347024.0,14626.0,347024.0,15922.0,347024.0,34918.0,645.5018069006086,216.51538682329775,475.1990375206737
347024.0,14619.0,347024.0,15934.0,347024.0,34906.0,636.9842274468366,210.5565184473264,463.6460076942825
347024.0,14622.0,347024.0,15903.0,347024.0,34909.0,628.3386866884509,204.56892684911926,452.0317379060344
347024.0,14602.0,347024.0,15906.0,347024.0,34872.0,619.5718106035658,198.55919434375315,440.36793887700645
347024.0,14583.0,347024.0,15884.0,347024.0,34844.0,610.6904283373648,192.53376056058272,428.6662422698415
347024.0,14588.0,347024.0,15907.0,347024.0,34845.0,601.7014686394388,186.49879921278475,416.9379090555076
347035.0,14580.0,347035.0,15897.0,347035.0,34846.0,592.6118744053522,180.46027760127797,405.19358987970975
347035.0,14568.0,347035.0,15894.0,347035.0,34820.0,583.4286605661621,174.42417638967584,393.44337586159895
347035.0,14548.0,347035.0,15857.0,347035.0,34809.0,574.158965343191,168.3966104176907,381.69691484430984
347035.0,14538.0,347035.0,15859.0,347035.0,34790.0,564.8099550015621,162.38366215117563,369.9633640867459
347035.0,14537.0,347035.0,15831.0,347035.0,34798.0,555.3886749603332,156.39104697021503,358.2512964560198
347035.0,14529.0,347035.0,15866.0,347035.0,34793.0,545.9020109464863,150.42387520703517,346.56876826344626
347045.0,14525.0,347045.0,15842.0,347045.0,34771.0,536.3567781756242,144.48668681292813,334.92354036683184
347045.0,14509.0,347045.0,15866.0,347045.0,34767.0,526.7598290518679,138.5837058700267,323.3232418058204
347045.0,14488.0,347045.0,15829.0,347045.0,34751.0,517.1180658340818,132.71909218761195,311.77539678819414
347045.0,14471.0,347045.0,15829.0,347045.0,34734.0,507.4382953084251,126.89700568328252,300.2874058425451
347045.0,14482.0,347045.0,15809.0,347045.0,34731.0,497.7270244043583,121.12145710325632,288.8665112459198
347045.0,14465.0,347045.0,15840.0,347045.0,34712.0,487.9904110464165,115.39615136539561,277.51976874416385
347055.0,14459.0,347055.0,15824.0,347055.0,34705.0,478.234374076054,109.72458040612264,266.25404961173905
347055.0,14455.0,347055.0,15814.0,347055.0,34694.0,468.4646920480374,104.11027838858689,255.07604651052958
347055.0,14439.0,347055.0,15785.0,347055.0,34658.0,458.6870583256979,98.55688702873385,243.99223839964066
347055.0,14410.0,347055.0,15788.0,347055.0,34652.0,448.9070700229588,93.06792568922845,233.00872725726822
347055.0,14401.0,347055.0,15780.0,347055.0,34652.0,439.13004537314845,87.64651908816552,222.13101520926034
347055.0,14415.0,347055.0,15809.0,347055.0,34652.0,429.36079885994167,82.29535571100803,211.36398090081946
347066.0,14415.0,347066.0,15786.0,347066.0,34642.0,419.6036876126026,77.01692539227514,200.71209742737096
347066.0,14388.0,347066.0,15771.0,347066.0,34624.0,409.86290462102374,71.81377491643644,190.1796589332747
347066.0,14390.0,347066.0,15764.0,347066.0,34604.0,400.1426685206765,66.68848811441859,179.770825498048
347066.0,14375.0,347066.0,15746.0,347066.0,34587.0,390.4472187385755,61.64345715381319,169.48947604786088
347066.0,14354.0,347066.0,15761.0,347066.0,34598.0,380.7807656143259,56.68068576168969,159.33902902855073
347066.0,14373.0,347066.0,15775.0,347066.0,34592.0,371.1474459489627,51.80180238965755,149.32245534467324
347076.0,14343.0,347076.0,15749.0,347076.0,34568.0,361.5513506246285,47.008309562360466,139.44247333141072
347076.0,14324.0,347076.0,15739.0,347076.0,34555.0,351.99657963579347,42.30177186630351,129.70164233725018
347076.0,14319.0,347076.0,15729.0,347076.0,34533.0,342.4871301195757,37.683703728422586,120.10222328363955
347076.0,14302.0,347076.0,15718.0,347076.0,34536.0,333.02669010406754,33.1553208535903,110.64596598929256
347076.0,14312.0,347076.0,15741.0,347076.0,34539.0,323.6185483100859,28.71739811852433,101.33403769816857
347076.0,14303.0,347076.0,15743.0,347076.0,34531.0,314.26567250117614,24.370377566032175,92.16717774720519
347086.0,14288.0,347086.0,15730.0,347086.0,34556.0,304.97087936977636,20.11467790196997,83.14600952351282
347086.0,14269.0,347086.0,15727.0,347086.0,34519.0,295.7369096763699,15.950918107770462,74.2714064693555
347086.0,14274.0,347086.0,15696.0,347086.0,34500.0,286.5663458108004,11.879879087237953,65.5446996158098
347086.0,14253.0,347086.0,15697.0,347086.0,34486.0,277.46153358098604,7.902257966277091,56.967528286761876
347086.0,14241.0,347086.0,15710.0,347086.0,34503.0,268.4245567118498,4.018413345198496,48.54157272543921
347086.0,14247.0,347086.0,15713.0,347086.0,34468.0,259.45718909830777,0.22836658839815982,40.26850857291345
347097.0,14237.0,347097.0,15714.0,347097.0,34473.0,250.56090569000975,-3.4679368147922673,32.150069813513255
347097.0,14230.0,347097.0,15684.0,347097.0,34432.0,241.73700658655883,-7.07040735671751,24.187967165085638
347097.0,14205.0,347097.0,15682.0,347097.0,34428.0,232.98669644084322,-10.578869862466775,16.38363149960753
347097.0,14203.0,347097.0,15699.0,347097.0,34431.0,224.3110057959995,-13.993272596026202,8.737925921821784
347097.0,14210.0,347097.0,15677.0,347097.0,34443.0,215.71068787898753,-17.31373952279654,1.2510854944551966
347097.0,14197.0,347097.0,15680.0,347097.0,34433.0,207.18628509079963,-20.540496086791165,-6.077028401939742
347107.0,14188.0,347107.0,15664.0,347107.0,34424.0,198.73829838194172,-23.673897180133167,-13.246614076740116
347107.0,14178.0,347107.0,15675.0,347107.0,34388.0,190.3672611661159,-26.71453099086051,-20.25784732245279
347107.0,14161.0,347107.0,15667.0,347107.0,34405.0,182.07369346651933,-29.66325301116973,-27.111063371660975
347107.0,14157.0,347107.0,15653.0,347107.0,34401.0,173.85800305665816,-32.5211643543725,-33.80692171811825
347107.0,14169.0,347107.0,15685.0,347107.0,34408.0,165.72043678544298,-35.28959911363518,-40.34629678229953
347107.0,14141.0,347107.0,15689.0,347107.0,34395.0,157.66117718448038,-37.96997097491146,-46.73000570949512
347118.0,14134.0,347118.0,15654.0,347118.0,34397.0,149.68044066119353,-40.5634567845965,-52.95860195885814
347118.0,14124.0,347118.0,15645.0,347118.0,34346.0,141.77840727540024,-43.07092582118736,-59.03235608665295
347118.0,14120.0,347118.0,15642.0,347118.0,34366.0,133.95509946440075,-45.49325639519611,-64.95148442110212
347118.0,14119.0,347118.0,15660.0,347118.0,34368.0,126.21036553408328,-47.831620839308925,-70.71640706044707
347118.0,14117.0,347118.0,15657.0,347118.0,34362.0,118.5439739827624,-50.08744137336902,-76.32770937070836
347118.0,14115.0,347118.0,15655.0,347118.0,34343.0,110.9557761595895,-52.26216049166834,-81.78595065719139
347128.0,14095.0,347128.0,15642.0,347128.0,34346.0,103.4458542866571,-54.3571010558951,-87.09163771916076
347128.0,14080.0,347128.0,15621.0,347128.0,34316.0,96.01452937372278,-56.37354961553808,-92.2453511318763
347128.0,14077.0,347128.0,15626.0,347128.0,34323.0,88.66221080562082,-58.31302243944168,-97.24792305628023
347128.0,14074.0,347128.0,15688.0,347128.0,34316.0,81.38925555782532,-60.17739244563671,-102.10059775272862
347128.0,14072.0,347128.0,15643.0,347128.0,34337.0,74.19597666087009,-61.96854509284532,-106.80502704279434
347128.0,14048.0,347128.0,15649.0,347128.0,34317.0,67.08271994988763,-63.68791328112792,-111.36306425632472
347138.0,14039.0,347138.0,15613.0,347138.0,34307.0,60.049826950710894,-65.33647201296282,-115.7765731537263
347138.0,14033.0,347138.0,15610.0,347138.0,34289.0,53.09746365099147,-66.91514015399673,-120.0474764016227
347138.0,14029.0,347138.0,15614.0,347138.0,34298.0,46.22548108781962,-68.42521689590905,-124.17797271499467
347138.0,14040.0,347138.0,15638.0,347138.0,34279.0,39.43343321444013,-69.86855944947331,-128.17069594939517
347138.0,14023.0,347138.0,15632.0,347138.0,34305.0,32.720735857026625,-71.24739466845534,-132.02873107757955
347138.0,14040.0,347138.0,15620.0,347138.0,34275.0,26.08686963176831,-72.56402155949826,-135.75552137213083
347149.0,14002.0,347149.0,15612.0,347149.0,34278.0,19.531529696156326,-73.82074459472665,-139.3547921690879
347149.0,13993.0,347149.0,15612.0,347149.0,34250.0,13.054602946510158,-75.02003573186857,-142.83064693142023
347149.0,14001.0,347149.0,15610.0,347149.0,34292.0,6.655962549527203,-76.16469841176291,-146.1877383563335
347149.0,13990.0,347149.0,15633.0,347149.0,34277.0,0.335334797521341,-77.25788167468073,-149.43121488647648
347149.0,13995.0,347149.0,15628.0,347149.0,34275.0,-5.907628145856052,-78.3029018085187,-152.56644045563667
347149.0,13968.0,347149.0,15641.0,347149.0,34274.0,-12.073247691552865,-79.30295237983233,-155.59879896068514
347159.0,13966.0,347159.0,15590.0,347159.0,34235.0,-18.161854376992324,-80.2609413437853,-158.53373304742604
347159.0,13953.0,347159.0,15606.0,347159.0,34238.0,-24.17394332714332,-81.17966964675088,-161.37700692060525
347159.0,13945.0,347159.0,15620.0,347159.0,34251.0,-30.110334264453513,-82.0621609981473,-164.13503919998573
347159.0,13962.0,347159.0,15634.0,347159.0,34269.0,-35.97223891516501,-82.9116772656331,-166.81494339149583
347159.0,13950.0,347159.0,15610.0,347159.0,34262.0,-41.76116495867586,-83.73142344470176,-169.42419684431832
347159.0,13943.0,347159.0,15606.0,347159.0,34256.0,-47.47872529211031,-84.52440148434869,-171.9702860497306
347169.0,13934.0,347169.0,15599.0,347169.0,34242.0,-53.12655291486931,-85.29357476546693,-174.4606052965571
347169.0,13918.0,347169.0,15594.0,347169.0,34231.0,-58.70637197890392,-86.04211850290807,-176.90259630405717
347169.0,13932.0,347169.0,15619.0,347169.0,34250.0,-64.22010960340663,-86.77354550782854,-179.30394443729938
347169.0,13934.0,347169.0,15622.0,347169.0,34238.0,-69.66988245657592,-87.49159387993501,-181.6726228232651
347169.0,13912.0,347169.0,15616.0,347169.0,34258.0,-75.05782769061818,-88.19993723059923,-184.01675174272543
347169.0,13904.0,347169.0,15594.0,347169.0,34230.0,-80.38601898878403,-88.9020208778299,-186.34442482348118
347180.0,13894.0,347180.0,15574.0,347180.0,34236.0,-85.65660324862222,-89.6012505533258,-188.66365760367864
347180.0,13893.0,347180.0,15624.0,347180.0,34223.0,-90.87198582120016,-90.30133518591782,-190.9824865397494
347180.0,13895.0,347180.0,15602.0,347180.0,34244.0,-96.03489829400166,-91.00633236150966,-193.30906439996988
347180.0,13890.0,347180.0,15631.0,347180.0,34241.0,-101.14833660019451,-91.720339676783,-195.65158179466175
347180.0,13887.0,347180.0,15590.0,347180.0,34233.0,-106.21544829513402,-92.44721838941106,-198.01806517656559
347180.0,13883.0,347180.0,15588.0,347180.0,34211.0,-111.2394498569065,-93.19062648569451,-200.4162979449634
347190.0,13871.0,347190.0,15579.0,347190.0,34205.0,-116.22359617500331,-93.95433270999342,-202.85400808168924
347190.0,13872.0,347190.0,15601.0,347190.0,34234.0,-121.1712001035512,-94.74251394982372,-205.33911362601634
347190.0,13864.0,347190.0,15621.0,347190.0,34232.0,-126.08566757438848,-95.55971610639386,-207.87967563751613
347190.0,13875.0,347190.0,15604.0,347190.0,34236.0,-130.97047733631928,-96.41050664959445,-210.483562442123
347190.0,13847.0,347190.0,15585.0,347190.0,34221.0,-135.82910723819077,-97.29921738717047,-213.15816286808018
347190.0,13839.0,347190.0,15596.0,347190.0,34213.0,-140.66505265481135,-98.23004443495819,-215.9103445244458
347200.0,13842.0,347200.0,15577.0,347200.0,34215.0,-145.4819996814174,-99.20729275914951,-218.7465779628713
347200.0,13842.0,347200.0,15605.0,347200.0,34212.0,-150.28395061428012,-100.23549397633926,-221.67304436857177
347200.0,13845.0,347200.0,15600.0,347200.0,34211.0,-155.07515184575482,-101.31933453690539,-224.69563752995998
347200.0,13840.0,347200.0,15624.0,347200.0,34229.0,-159.85992118699835,-102.46340224276071,-227.81987405623624
347200.0,13827.0,347200.0,15586.0,347200.0,34199.0,-164.6425222177552,-103.67190273126175,-231.05073998908807
347200.0,13814.0,347200.0,15572.0,347200.0,34188.0,-169.42718266704037,-104.94864731487894,-234.39264767441938
347211.0,13826.0,347211.0,15590.0,347211.0,34192.0,-174.2182182397496,-106.29736465859409,-237.8496302302462
347211.0,13826.0,347211.0,15603.0,347211.0,34192.0,-179.02005938381774,-107.72191321433479,-241.42553871868745
347211.0,13827.0,347211.0,15607.0,347211.0,34205.0,-183.83708574742514,-109.2260927581847,-245.12400309497178
347211.0,13815.0,347211.0,15622.0,347211.0,34181.0,-188.67342199069935,-110.81325728049023,-248.94824787943844
347211.0,13795.0,347211.0,15589.0,347211.0,34159.0,-193.53288909272806,-112.4860185033842,-252.9010437364568
347211.0,13794.0,347211.0,15577.0,347211.0,34168.0,-198.41915554628304,-114.24624229396673,-256.9849284244099
347221.0,13790.0,347221.0,15575.0,347221.0,34179.0,-203.3359405875376,-116.0953641984124,-261.2024177560809
347221.0,13807.0,347221.0,15583.0,347221.0,34146.0,-208.28705887725926,-118.03471238291877,-265.55596769029466
347221.0,13781.0,347221.0,15595.0,347221.0,34181.0,-213.27628020791445,-120.06554449441799,-270.04787163437857
347221.0,13785.0,347221.0,15598.0,347221.0,34141.0,-218.30720648950552,-122.18882268360741,-274.68021025807366
347221.0,13774.0,347221.0,15555.0,347221.0,34152.0,-223.38329339105172,-124.40500197852452,-279.4548274405365
347221.0,13770.0,347221.0,15549.0,347221.0,34151.0,-228.50791938667396,-126.71416994103572,-284.37336264263956
347231.0,13770.0,347231.0,15581.0,347231.0,34144.0,-233.68441507773633,-129.11643033462605,-289.4372384625211
347231.0,13768.0,347231.0,15583.0,347231.0,34148.0,-238.91603851889397,-131.6119783251129,-294.64755475605523
347231.0,13784.0,347231.0,15558.0,347231.0,34136.0,-244.20585394651044,-134.20080245280843,-300.0049884428156
347231.0,13761.0,347231.0,15549.0,347231.0,34108.0,-249.55651988068308,-136.88255168139023,-305.50979003354985
347231.0,13738.0,347231.0,15555.0,347231.0,34118.0,-254.97018078419842,-139.65673347126102,-311.16194566663637
347231.0,13734.0,347231.0,15519.0,347231.0,34098.0,-260.44865040219736,-142.5229575450557,-316.96138929502945
347242.0,13736.0,347242.0,15545.0,347242.0,34114.0,-265.99370660408556,-145.48113429225276,-322.90808086713673
347242.0,13740.0,347242.0,15580.0,347242.0,34092.0,-271.607179946427,-148.53150640169054,-329.0019545531362
347242.0,13731.0,347242.0,15551.0,347242.0,34100.0,-277.2908237591729,-151.67429111868216,-335.24283820751225
