c_ts,c_val,d_ts,d_val,e_ts,e_val,c_val_filtered,d_val_filtered,e_val_filtered
207249,20758,207249,46722,207249,89998,373.6826897979132,2032.5860031837542,2298.003516047975
207249,20766,207249,46733,207249,89983,373.19295383825136,2023.8163794527215,2290.5876249075814
207249,20780,207249,46756,207249,90012,372.5452765403949,2013.7842964287577,2281.898502828114
207249,20774,207249,46763,207249,90019,371.7348437737301,2002.4651042011105,2271.910214030403
207249,20764,207249,46746,207249,89979,370.7577216004651,1989.8390345353228,2260.600527486272
207249,20746,207249,46659,207249,89912,369.6108753307358,1975.8919850175344,2247.951550742526
207260,20740,207260,46639,207260,89917,368.29195512234884,1960.615518655759,2233.949674840683
207260,20752,207260,46641,207260,89903,366.79905059472196,1944.0064173441224,2218.5853550412166
207260,20744,207260,46630,207260,89874,365.1306290471828,1926.06662929828,2201.8533126366233
207260,20754,207260,46606,207260,89872,363.2856532945017,1906.8037967385303,2183.7530124414
207260,20723,207260,46527,207260,89814,361.263695007917,1886.231766747302,2164.289100413983
207260,20726,207260,46454,207260,89760,359.06488371825617,1864.3704941143442,2143.471609158195
207270,20708,207270,46385,207270,89711,356.6897016117702,1841.2452446468023,2121.315759124501
207270,20706,207270,46397,207270,89686,354.13876375079417,1816.8856386299726,2097.841543382888
207270,20715,207270,46389,207270,89642,351.41269298456365,1791.3253370367568,2073.0734921158987
207270,20720,207270,46285,207270,89600,348.5121745251089,1764.6024403513702,2047.0406708169025
207270,20699,207270,46255,207270,89520,345.43815171433107,1736.7597206140267,2019.7766341405277
207270,20688,207270,46145,207270,89453,342.19190999117603,1707.8441653471432,1991.3190592297185
207280,20663,207280,46076,207280,89379,338.77489319925377,1677.906074819862,1961.709027071669
207280,20673,207280,46074,207280,89362,335.1883857579769,1646.9980956375875,1930.9902562417421
207280,20672,207280,46038,207280,89312,331.43331968688767,1615.1747617410374,1899.2087126833558
207280,20681,207280,45954,207280,89268,327.5103501249117,1582.4926787191052,1866.412662908595
207280,20658,207280,45866,207280,89161,323.4200738408306,1549.0105543407699,1832.6527299744425
207280,20630,207280,45802,207280,89081,319.16308715190394,1514.7885513468686,1797.9814487806066
207291,20647,207291,45718,207291,89010,314.739769900256,1479.887314748466,1762.45230690206
207291,20662,207291,45725,207291,89023,310.1501354505641,1444.3672079702808,1726.118888512162
207291,20658,207291,45697,207291,88951,305.39407251258297,1408.2881808548232,1689.0347551080283
207291,20619,207291,45602,207291,88890,300.47169748655733,1371.7102311370777,1651.2538346382844
207291,20613,207291,45515,207291,88812,295.3833397326673,1334.693629735706,1612.8305563671656
207291,20602,207291,45466,207291,88750,290.12920630317643,1297.2983918589266,1573.8195192490175
207301,20604,207301,45433,207301,88695,284.7091167040254,1259.5835869397742,1534.2750360724237
207301,20617,207301,45389,207301,88669,279.1225060034058,1221.6071593506567,1494.250891583498
207301,20602,207301,45337,207301,88579,273.36864974505306,1183.4261729806942,1453.800403886425
207301,20595,207301,45253,207301,88505,267.44691235511357,1145.0970082851838,1412.9764575026363
207301,20562,207301,45156,207301,88435,261.356788356818,1106.6751274649805,1371.831160295035
207301,20550,207301,45091,207301,88368,255.09767367519308,1068.2143290419287,1330.4152864571593
207311,20571,207311,45046,207311,88312,248.66857144294744,1029.7658725148995,1288.777825644698
207311,20577,207311,45024,207311,88259,242.0681006428328,991.3780319229909,1246.9657377845106
207311,20563,207311,44949,207311,88199,235.2948663030758,953.0962041450116,1205.0238917280733
207311,20533,207311,44888,207311,88118,228.34776832759346,914.9631210966618,1162.9950425337388
207311,20525,207311,44783,207311,88038,221.22593330041238,877.0186665092763,1120.9196071146098
207311,20509,207311,44725,207311,87959,213.92842714690855,839.2992149496263,1078.835147814728
207322,20513,207322,44703,207322,87928,206.45404616604293,801.8368904577849,1036.775791278098
207322,20512,207322,44678,207322,87850,198.80131395761236,764.6593466890597,994.7719193485068
207322,20499,207322,44619,207322,87795,190.96864178259935,727.7901747677702,952.8501187438283
207322,20478,207322,44542,207322,87708,182.9544662180921,691.2493409464646,911.0330707871497
207322,20467,207322,44441,207322,87626,174.75720225667467,655.053056295201,869.3391860457018
207322,20459,207322,44411,207322,87575,166.37508475187474,619.213085859355,827.7820418230315
207332,20462,207332,44393,207332,87550,157.8060945596127,583.7361402978929,786.3699679562342
207332,20448,207332,44373,207332,87501,149.04804633178026,548.6239810142947,745.1061427147313
207332,20431,207332,44307,207332,87442,140.09871660039403,513.8740766529827,703.9890467370869
207332,20412,207332,44214,207332,87341,130.95583817953934,479.4800378266832,663.0127284819164
207332,20396,207332,44139,207332,87290,121.61693869327809,445.4313080221352,622.1665635021609
207332,20396,207332,44128,207332,87229,112.07915889050668,411.7124144394834,581.4347546169802
207342,20388,207342,44104,207342,87191,102.3392046280722,378.30260680153606,540.7960407947035
207342,20381,207342,44086,207342,87149,92.39345689679271,345.1762610367655,500.2237791687194
207342,20376,207342,43977,207342,87087,82.23813880697435,312.3035344681921,459.6862511053696
207342,20349,207342,43901,207342,87010,71.86944048320686,279.6504395494626,419.14689163527237
207342,20327,207342,43875,207342,86963,61.28349877671252,247.17819544172517,378.5642287447231
207342,20338,207342,43856,207342,86935,50.47624203426733,214.8426680115167,337.8917522577558
207353,20326,207353,43853,207353,86938,39.44334896365382,182.59458351356216,297.07820337576004
207353,20333,207353,43865,207353,86859,28.180463384127336,150.3804546374954,256.06839564153825
207353,20295,207353,43782,207353,86799,16.683476790851387,118.14378539008385,214.80400637050843
207353,20275,207353,43738,207353,86746,4.948601619103783,85.82591095193538,173.22383640655062
207353,20257,207353,43706,207353,86726,-7.027837516270495,53.36617885146734,131.2638314856863
207353,20265,207353,43698,207353,86696,-19.24964354420223,20.70201366916217,88.85743381166276
207363,20254,207363,43676,207363,86687,-31.720728114303995,-12.230578282568331,45.93640350886062
207363,20236,207363,43663,207363,86610,-44.444884700136186,-45.49612503294702,2.431846975129247
207363,20203,207363,43610,207363,86557,-57.42565706473499,-79.15875562179735,-41.72499899653576
207363,20197,207363,43548,207363,86508,-70.66645272476717,-113.28155326023398,-86.60243761275478
207363,20182,207363,43537,207363,86475,-84.17072523781735,-147.92630625673382,-132.268113015175
207363,20182,207363,43540,207363,86429,-97.94199854794186,-183.15321756257435,-178.78857934335383
207373,20177,207373,43513,207373,86416,-111.98369280635501,-219.02007919278276,-226.2286074246058
207373,20172,207373,43453,207373,86356,-126.2988183413699,-255.5811726804891,-274.6503119563936
207373,20127,207373,43392,207373,86293,-140.8896995712583,-292.88656559291076,-324.11230757841395
207373,20107,207373,43324,207373,86223,-155.75797363828826,-330.9820229586512,-374.6692014770292
207373,20091,207373,43285,207373,86208,-170.90486571556113,-369.9092324908497,-426.37134779407097
207373,20084,207373,43290,207373,86155,-186.33142523465665,-409.70584025433345,-479.2644027088745
207384,20091,207384,43225,207384,86085,-202.0384821730135,-450.4049514092221,-533.3885794237785
207384,20068,207384,43151,207384,86007,-218.02634967912536,-492.0344327906755,-588.7780488392359
207384,20032,207384,43076,207384,85918,-234.29453609795456,-534.6166962407192,-645.4607902197536
207384,20013,207384,43014,207384,85838,-250.84175173652454,-578.1690204929455,-703.4587835046586
207384,19987,207384,42972,207384,85809,-267.6661557485188,-622.7039231787817,-762.7882165528235
207384,20002,207384,42962,207384,85726,-284.7655274811185,-668.229143258538,-823.4593423536276
207394,19984,207394,42907,207394,85646,-302.1371377128802,-714.7470776590903,-885.4760545028003
207394,19944,207394,42806,207394,85583,-319.777447353109,-762.2540665109495,-948.8355853726985
207394,19929,207394,42712,207394,85480,-337.68200808411484,-810.7402514167256,-1013.5284017470599
207394,19906,207394,42630,207394,85372,-355.8456197055789,-860.1901788984778,-1079.538269693885
207394,19895,207394,42607,207394,85296,-374.2624610072411,-910.5835341397176,-1146.842594230764
207394,19880,207394,42561,207394,85232,-392.9260627982844,-961.89530329751,-1215.4127833775092
207404,19859,207404,42493,207404,85145,-411.82918602035875,-1014.09530838808,-1285.2142528324007
207404,19828,207404,42389,207404,85022,-430.96372860443057,-1067.1477408997016,-1356.206254344927
207404,19801,207404,42276,207404,84940,-450.320778685242,-1121.011310335201,-1428.3419903259796
207404,19772,207404,42224,207404,84844,-469.8908103903543,-1175.6399764738649,-1501.5689856711697
207404,19770,207404,42176,207404,84748,-489.6638788092232,-1230.983598867448,-1575.8293763148731
207404,19755,207404,42106,207404,84660,-509.62962826978253,-1286.9879788995527,-1651.0600575353824
207415,19720,207415,42006,207415,84587,-529.777120318421,-1343.5945935271707,-1727.1927343703983
207415,19688,207415,41908,207415,84437,-550.0947549442784,-1400.740657918343,-1804.153906554512
207415,19667,207415,41799,207415,84317,-570.5704331365469,-1458.3597091193487,-1881.8651403043027
207415,19644,207415,41751,207415,84241,-591.1917810409188,-1516.38240113638,-1960.2437790943577
207415,19626,207415,41697,207415,84165,-611.9462580202569,-1574.736981348186,-2039.2035030203701
207415,19611,207415,41636,207415,84030,-632.8211429500966,-1633.3491611092927,-2118.6543650450476
207425,19599,207425,41508,207425,83930,-653.8034193949736,-1692.1417694079719,-2198.5027986943805
207425,19550,207425,41401,207425,83805,-674.879634959125,-1751.0349083920378,-2278.6520048700468
207425,19526,207425,41316,207425,83684,-696.0359355846073,-1809.9467711189295,-2359.002573084559
207425,19516,207425,41273,207425,83614,-717.2582853530198,-1868.7944947432852,-2439.453097411315
207425,19499,207425,41188,207425,83489,-738.5325747541345,-1927.4944568191672,-2519.900567764317
207425,19476,207425,41101,207425,83372,-759.8444984781729,-1985.9621873974152,-2600.2405863424756
207435,19441,207435,40958,207435,83221,-781.1794258006166,-2044.1125411519283,-2680.3678355368193
207435,19407,207435,40860,207435,83089,-802.5224663975348,-2101.860518805216,-2760.177031388401
207435,19368,207435,40751,207435,82965,-823.8587462326337,-2159.122538237379,-2839.564173751639
207435,19362,207435,40695,207435,82884,-845.17375436055,-2215.8176116206664,-2918.4276837288708
207435,19328,207435,40656,207435,82772,-866.4535567307771,-2271.8679577309167,-2996.66908770787
207435,19313,207435,40561,207435,82674,-887.6848369869324,-2327.198963015721,-3074.193316050274
207446,19294,207446,40456,207446,82573,-908.854876017827,-2381.7390241588355,-3150.9089272298415
207446,19260,207446,40386,207446,82465,-929.9515253341939,-2435.419859419932,-3226.728387999802
207446,19235,207446,40306,207446,82363,-950.9632374203192,-2488.1771231055477,-3301.568410533361
207446,19226,207446,40270,207446,82317,-971.8791696452661,-2539.9508093378695,-3375.350238073959
207446,19210,207446,40221,207446,82232,-992.6891961644176,-2590.6852144821723,-3447.999578243176
207446,19188,207446,40156,207446,82117,-1013.3837553109463,-2640.3285451816237,-3519.4462331133036
207456,19143,207456,40053,207456,82026,-1033.9537331562908,-2688.832588678154,-3589.623968796148
207456,19115,207456,39986,207456,81952,-1054.3906000892566,-2736.1528639939665,-3658.4707624215425
207456,19104,207456,39933,207456,81887,-1074.686721784312,-2782.2491078113476,-3725.9289652287343
207456,19096,207456,39911,207456,81811,-1094.8355230631482,-2827.0855258078113,-3791.9451186814367
207456,19097,207456,39859,207456,81754,-1114.8313166915473,-2870.63050922346,-3856.4695711928034
207456,19062,207456,39820,207456,81671,-1134.6689288697157,-2912.856046511427,-3919.4560671984445
207466,19026,207466,39755,207466,81566,-1154.3434555190743,-2953.737209545522,-3980.861480192768
207466,19005,207466,39665,207466,81508,-1173.8503600038032,-2993.2519662482346,-4040.64586325482
207466,19004,207466,39668,207466,81450,-1193.1856999570307,-3031.3813224811656,-4098.772610027111
207466,18993,207466,39645,207466,81417,-1212.3461170663418,-3068.1092960864935,-4155.208278185269
207466,18974,207466,39606,207466,81346,-1231.3285676869336,-3103.422304796043,-4209.922005766001
207466,18955,207466,39536,207466,81279,-1250.1300534311993,-3137.3084056633993,-4262.884883697158
207477,18913,207477,39473,207477,81203,-1268.7475420669844,-3169.7570340639563,-4314.06962957747
207477,18915,207477,39431,207477,81154,-1287.178076800653,-3200.759248732456,-4363.4505454421615
207477,18895,207477,39417,207477,81111,-1305.4188757195234,-3230.307995471097,-4411.003456851088
207477,18900,207477,39412,207477,81059,-1323.4672170951221,-3258.3979243690783,-4456.705417604205
207477,18871,207477,39366,207477,80997,-1341.3201551616926,-3285.0247405348796,-4500.5342942065645
207477,18852,207477,39310,207477,80920,-1358.9742830000412,-3310.1845762445146,-4542.468528324732
207487,18835,207487,39260,207487,80870,-1376.4256721439494,-3333.8738480898523,-4582.487209502711
207487,18800,207487,39213,207487,80818,-1393.66994247617,-3356.089542597487,-4620.570276708037
207487,18802,207487,39206,207487,80777,-1410.7023734980712,-3376.829535813851,-4656.698590354585
207487,18787,207487,39196,207487,80733,-1427.5179397388356,-3396.0925786412554,-4690.853820816836
207487,18763,207487,39161,207487,80682,-1444.1112016514076,-3413.8778832415014,-4723.018267390872
207487,18742,207487,39072,207487,80595,-1460.476214056565,-3430.1847760118476,-4753.174822817184
207498,18724,207498,39047,207498,80552,-1476.6065838540087,-3445.0129534517055,-4781.307292386
207498,18704,207498,39045,207498,80536,-1492.4955861259134,-3458.3630859566797,-4807.400867833047
207498,18695,207498,39007,207498,80537,-1508.1362396770714,-3470.237067320356,-4831.442185863333
207498,18669,207498,39033,207498,80476,-1523.5213300862758,-3480.63778647744,-4853.418830127217
207498,18656,207498,39001,207498,80405,-1538.643429063789,-3489.5686683276585,-4873.318908489988
207498,18634,207498,38905,207498,80381,-1553.4949568935906,-3497.033329612257,-4891.131244313307
207508,18607,207508,38893,207508,80312,-1568.0682942711778,-3503.035890071454,-4906.845935243128
207508,18584,207508,38881,207508,80305,-1582.3559741361425,-3507.5817687740787,-4920.454854883266
207508,18600,207508,38899,207508,80265,-1596.3508788660952,-3510.678083142921,-4931.9519742251105
207508,18587,207508,38892,207508,80245,-1610.0462002260251,-3512.3333530136606,-4941.333495000058
207508,18556,207508,38858,207508,80210,-1623.4351845648166,-3512.5569749574283,-4948.597910502481
207508,18516,207508,38827,207508,80156,-1636.5110803660814,-3511.3590170508483,-4953.746194354372
207518,18520,207518,38794,207518,80160,-1649.2674543162013,-3508.7505098584634,-4956.782182019591
207518,18508,207518,38833,207518,80190,-1661.6985077886704,-3504.7438872470816,-4957.712811120468
207518,18509,207518,38826,207518,80157,-1673.799082297089,-3499.353038365861,-4956.547827833668
207518,18497,207518,38807,207518,80137,-1685.5644532654055,-3492.592938012751,-4953.299299128856
207518,18472,207518,38789,207518,80128,-1696.9901490583245,-3484.47939729878,-4947.981503252684
207518,18452,207518,38769,207518,80111,-1708.0719613708407,-3475.0292275692887,-4940.611115099016
207529,18432,207529,38783,207529,80105,-1718.806163310183,-3464.260574225479,-4931.207390540421
207529,18443,207529,38795,207529,80130,-1729.1897470976444,-3452.1930637274845,-4919.792247993859
207529,18430,207529,38843,207529,80142,-1739.2204568751172,-3438.8475385598103,-4906.390100890438
207529,18428,207529,38814,207529,80153,-1748.8966187356325,-3424.2454523837096,-4891.027414034152
207529,18406,207529,38802,207529,80135,-1758.2169744704654,-3408.4084063544133,-4873.732276503675
207529,18379,207529,38782,207529,80139,-1767.180697174166,-3391.3582529193045,-4854.534283684497
207539,18370,207539,38819,207539,80176,-1775.7876251734208,-3373.11753367158,-4833.464624314364
207539,18382,207539,38851,207539,80218,-1784.0385200256694,-3353.7096211742387,-4810.555922320173
207539,18382,207539,38886,207539,80249,-1791.9350531264438,-3333.1582726103497,-4785.841601735688
207539,18374,207539,38889,207539,80219,-1799.4795269703297,-3311.4868778293226,-4759.355152086011
207539,18352,207539,38871,207539,80232,-1806.6746406409957,-3288.717935290703,-4731.129886112017
207539,18325,207539,38864,207539,80245,-1813.5235423020033,-3264.873087044697,-4701.199227203528
207549,18336,207549,38902,207549,80286,-1820.0301159820326,-3239.9735177452744,-4669.5969911982165
207549,18334,207549,38947,207549,80322,-1826.1991888719313,-3214.0401119017342,-4636.357283025497
207549,18324,207549,38968,207549,80358,-1832.0364788928055,-3187.0930448879185,-4601.514061739477
207549,18349,207549,38997,207549,80362,-1837.5484078471027,-3159.1511146423004,-4565.100658183894
207549,18327,207549,38949,207549,80375,-1842.7418629402064,-3130.2313416030015,-4527.149570010664
207549,18300,207549,38965,207549,80413,-1847.624025864528,-3100.3491782810265,-4487.69258356598
207560,18303,207560,39060,207560,80426,-1852.202495878272,-3069.5189919821296,-4446.760944339152
207560,18319,207560,39072,207560,80514,-1856.4855245083606,-3037.7539378336614,-4404.385315904998
207560,18303,207560,39118,207560,80532,-1860.481991287508,-3005.0651447519836,-4360.595404923011
207560,18294,207560,39063,207560,80524,-1864.2012437016392,-2971.461100318614,-4315.419494046986
207560,18294,207560,39050,207560,80552,-1867.653094497057,-2936.9478979884047,-4268.884452471357
207560,18298,207560,39076,207560,80569,-1870.8478950935007,-2901.530214808938,-4221.016253549293
207570,18294,207570,39098,207570,80618,-1873.7965006243455,-2865.2122504293984,-4171.840476484725
207570,18307,207570,39110,207570,80659,-1876.5101384083246,-2827.998139518174,-4121.382503878303
207570,18315,207570,39156,207570,80686,-1879.0002037847034,-2789.892053981206,-4069.6674830970237
207570,18299,207570,39126,207570,80691,-1881.2780031853815,-2750.8982882806567,-4016.7203481256106
207570,18277,207570,39126,207570,80701,-1883.3546504935016,-2711.021604962785,-3962.5662208250183
207570,18300,207570,39144,207570,80759,-1885.2412256005955,-2670.2679980971643,-3907.231111853818
207580,18294,207580,39216,207580,80813,-1886.948911477809,-2628.645413054036,-3850.742426639121
207580,18295,207580,39232,207580,80841,-1888.4889090499257,-2586.163863869622,-3793.129016505947
207580,18315,207580,39266,207580,80884,-1889.8722630721006,-2542.8351341183215,-3734.42109786385
207580,18302,207580,39258,207580,80904,-1891.1096654277953,-2498.672651891079,-3674.6503845645657
207580,18287,207580,39261,207580,80953,-1892.2113063191532,-2453.69183598202,-3613.850420301571
207580,18301,207580,39329,207580,81024,-1893.1869207322559,-2407.9107266593296,-3552.056877286611
207591,18326,207591,39399,207591,81086,-1894.0458355669616,-2361.350283278302,-3489.3075327396436
207591,18314,207591,39456,207591,81155,-1894.7967378399267,-2314.0339251903724,-3425.6418815563516
207591,18322,207591,39452,207591,81185,-1895.4473417442696,-2265.9867544172384,-3361.1006753420634
207591,18317,207591,39450,207591,81234,-1896.004225461666,-2217.2353032252167,-3295.7257123499603
207591,18302,207591,39497,207591,81275,-1896.472831404152,-2167.808032442299,-3229.559953900258
207591,18325,207591,39571,207591,81350,-1896.8575446724951,-2117.7358976589953,-3162.647735215151
207601,18328,207601,39684,207601,81436,-1897.1616937236663,-2067.0521526601106,-3095.034727261356
207601,18324,207601,39694,207601,81513,-1897.3873759629823,-2015.791338491837,-3026.767466023733
207601,18330,207601,39747,207601,81584,-1897.5352781419992,-1963.9882483676997,-2957.8925974846625
207601,18321,207601,39750,207601,81624,-1897.6046189856038,-1911.6775452481338,-2888.4562071438068
207601,18319,207601,39794,207601,81687,-1897.593177595099,-1858.893952044745,-2818.503497675395
207601,18337,207601,39877,207601,81766,-1897.4973428885196,-1805.6725154882643,-2748.0787100180214
207611,18329,207611,39943,207611,81843,-1897.3120728403028,-1752.0484244592815,-2677.224920135969
207611,18332,207611,39971,207611,81881,-1897.0307757747291,-1698.0563533133234,-2605.98362906511
207611,18326,207611,39994,207611,81920,-1896.6452636269216,-1643.7299442729586,-2534.394529350048
207611,18313,207611,39995,207611,81965,-1896.1458320199245,-1589.101907385149,-2462.495721746705
207611,18324,207611,40048,207611,82022,-1895.521424918435,-1534.2046074314576,-2390.3241785216787
207611,18345,207611,40115,207611,82112,-1894.7597242922304,-1479.0705963885027,-2317.9160514046857
207622,18343,207622,40160,207622,82147,-1893.8469931253835,-1423.7326431387887,-2245.306636801183
207622,18337,207622,40204,207622,82251,-1892.7678158495291,-1368.2234050790466,-2172.530144815862
207622,18330,207622,40245,207622,82267,-1891.5050280574771,-1312.575169590135,-2099.6194712845704
207622,18323,207622,40269,207622,82321,-1890.0398744417028,-1256.819822159146,-2026.6061518099661
207622,18336,207622,40325,207622,82396,-1888.3522234898921,-1200.9889814158219,-1953.5205918406468
207622,18359,207622,40416,207622,82482,-1886.420622998845,-1145.1140410095381,-1880.3922196339033
207632,18376,207632,40481,207632,82565,-1884.2220533682657,-1089.2257388642408,-1807.2491745778207
207632,18353,207632,40492,207632,82590,-1881.7315351917828,-1033.3533985030444,-1734.1177585923967
207632,18346,207632,40496,207632,82643,-1878.921988536112,-977.5245902241832,-1661.0222062156427
207632,18347,207632,40541,207632,82696,-1875.764470182396,-921.7655612793787,-1587.9849344120444
207632,18356,207632,40599,207632,82781,-1872.2284820930522,-866.1018816781693,-1515.0268625160065
207632,18376,207632,40691,207632,82882,-1868.2820585924069,-810.5585822903167,-1442.1673300453008
207642,18373,207642,40739,207642,82943,-1863.8916291929124,-755.1596285849931,-1369.4235186073015
207642,18364,207642,40763,207642,82989,-1859.0218786807302,-699.9271946508807,-1296.8097718924296
207642,18355,207642,40792,207642,83031,-1853.635844339826,-644.8813499090904,-1224.3373332898273
207642,18372,207642,40845,207642,83079,-1847.6952129988842,-590.040230653549,-1152.0145735075002
207642,18371,207642,40889,207642,83176,-1841.1605560043063,-535.4202525691784,-1079.8473172430654
207642,18391,207642,40960,207642,83250,-1833.991381926388,-481.03605198102343,-1007.838805189521
207653,18409,207653,41017,207653,83293,-1826.1460507648198,-426.9001350606849,-935.9892648684929
207653,18390,207653,41025,207653,83320,-1817.581637977565,-373.02242879127584,-864.295630510318
207653,18377,207653,41032,207653,83366,-1808.25399859145,-319.4101926680348,-792.7518126600794
207653,18383,207653,41075,207653,83443,-1798.1181906243442,-266.06851139198034,-721.3492383218827
207653,18423,207653,41158,207653,83498,-1787.1289313936459,-213.0008441684422,-650.077141726284
207653,18422,207653,41202,207653,83565,-1775.2406834102817,-160.20899094066726,-578.9225068210569
207663,18411,207663,41250,207663,83621,-1762.4075413060543,-107.69258269713487,-507.8699087148216
207663,18409,207663,41225,207663,83642,-1748.5833948090667,-55.44875552368876,-436.9014811407178
207663,18416,207663,41248,207663,83672,-1733.7224157879189,-3.4724961241849996,-365.9972269644277
207663,18426,207663,41318,207663,83743,-1717.779553120045,48.24257181154894,-295.1356601566158
207663,18452,207663,41371,207663,83827,-1700.710842576194,99.70375556441422,-224.2942840472856
207663,18437,207663,41426,207663,83875,-1682.4735776876503,150.91954736134062,-153.44953620089245
207673,18466,207673,41419,207673,83872,-1663.0265231180206,201.90004809026686,-82.57661953632896
207673,18472,207673,41434,207673,83902,-1642.3302184554168,252.6569230126072,-11.649928741565418
207673,18462,207673,41456,207673,83964,-1620.3473049405889,303.2027859439927,59.3559697302112
207673,18491,207673,41486,207673,84012,-1597.0429492479252,353.55043247207095,130.46550145945548
207673,18510,207673,41546,207673,84078,-1572.3853048020435,403.71234275163397,201.70172071946354
207673,18535,207673,41566,207673,84089,-1546.345787110237,453.70055061461335,273.0861338808227
207684,18532,207684,41588,207684,84148,-1518.8992390055223,503.5266418259232,344.6383405146603
207684,18559,207684,41602,207684,84169,-1490.0242356293404,553.2015310007332,416.3754308055504
207684,18556,207684,41582,207684,84199,-1459.7035643572735,602.7348711110685,488.3112621063906
207684,18607,207684,41648,207684,84284,-1427.9247346377147,652.1342045238764,560.4557294568522
207684,18657,207684,41709,207684,84306,-1394.6802774624389,701.4043308481453,632.8142461762145
207684,18684,207684,41717,207684,84381,-1359.9676729628352,750.5472839611809,705.3874787519794
207694,18696,207694,41722,207694,84415,-1323.7891775414507,799.5624445187661,778.1711193287861
207694,18730,207694,41758,207694,84443,-1286.1519533305363,848.4461848234464,851.1555521084135
207694,18763,207694,41757,207694,84497,-1247.0684391814882,897.1912180977404,924.325320727263
207694,18818,207694,41858,207694,84590,-1206.5566330738845,945.7861035815954,997.6585810996471
207694,18878,207694,41897,207694,84656,-1164.6400973223724,994.2152517338054,1071.126993557701
207694,18913,207694,41927,207694,84721,-1121.3477163441562,1042.4594157472047,1144.6960610795627
207704,18951,207704,41945,207704,84767,-1076.7134591809295,1090.4960890776638,1218.3254571725824
207704,18997,207704,41940,207704,84826,-1030.7763643936037,1138.2993603469718,1291.9690713345676
207704,19060,207704,42013,207704,84926,-983.5806247978722,1185.8394024186246,1365.5749474485829
207704,19122,207704,42089,207704,85003,-935.1755076834162,1233.082211705203,1439.0855092145953
207704,19196,207704,42146,207704,85102,-885.615022057602,1279.9900783004618,1512.438209896522
207704,19255,207704,42173,207704,85166,-834.957416308919,1326.5224723374631,1585.5663714762954
207715,19298,207715,42169,207715,85203,-783.264694767238,1372.6365868722646,1658.3998550187298
207715,19353,207715,42228,207715,85257,-730.602361737255,1418.2872573074537,1730.8652608507869
207715,19416,207715,42269,207715,85349,-677.0393768252055,1463.4267100339084,1802.8857863042522
207715,19502,207715,42337,207715,85443,-622.6480442042773,1508.0046881625617,1874.381324214126
207715,19580,207715,42391,207715,85533,-567.5035988275199,1551.9690125597062,1945.2691284616021
207715,19621,207715,42390,207715,85551,-511.68359045180887,1595.2662458983432,2015.4646848893308
207725,19690,207725,42415,207725,85622,-455.26742932660295,1637.8419959574098,2084.8821710111247
207725,19742,207725,42442,207725,85704,-398.3362286446554,1679.640728358614,2153.4344870191967
207725,19828,207725,42522,207725,85780,-340.9727104732099,1720.6055681040361,2221.0334416807023
207725,19928,207725,42599,207725,85882,-283.26087909293733,1760.6786725233865,2287.5903873645284
207725,19987,207725,42650,207725,85956,-225.2853457331846,1799.802266514247,2353.0171633711957
207725,20060,207725,42643,207725,85986,-167.13055697028335,1837.9197752991668,2417.2270468756305
207736,20099,207736,42668,207736,86046,-108.88030248331802,1874.9763502840433,2480.13530352037
207736,20160,207736,42711,207736,86129,-50.61759252050433,1910.9188019879357,2541.6593586819713
207736,20243,207736,42806,207736,86219,7.575302039810822,1945.695684524766,2601.7191628454207
207736,20329,207736,42844,207736,86294,65.61701399955132,1979.2580817856538,2660.238061367295
207736,20400,207736,42882,207736,86348,123.42761713850109,2011.5608116370154,2717.143879801849
207736,20455,207736,42841,207736,86398,180.92927403071894,2042.5632746245765,2772.369802286372
207746,20518,207746,42856,207746,86411,238.04666508090372,2072.229460923889,2825.8548328290726
207746,20566,207746,42855,207746,86464,294.7071527360888,2100.5273455342326,2877.5438436886716
207746,20650,207746,42948,207746,86556,350.84084723963065,2127.428427736908,2927.387558881913
207746,20717,207746,42999,207746,86563,406.38079484929153,2152.9080897588915,2975.342917804641
207746,20766,207746,42958,207746,86595,461.26334138270613,2176.946599500565,3021.373583791463
207746,20816,207746,42934,207746,86597,515.4284263714487,2199.5296673355724,3065.4500202295685
207756,20868,207756,42922,207756,86615,568.8196277573988,2220.6479444339875,3107.5491131497447
207756,20921,207756,42945,207756,86648,621.3840805084822,2240.2961126915293,3147.653683271582
207756,21000,207756,42994,207756,86692,673.072477410552,2258.4724549911775,3185.7522080120643
207756,21056,207756,42981,207756,86725,723.8392913695693,2275.1791144207223,3221.8389260414433
207756,21098,207756,42971,207756,86717,773.643139879744,2290.4225284799027,3255.914122395163
207756,21126,207756,42924,207756,86690,822.4469713676053,2304.21338859463,3287.984094476833
207767,21160,207767,42926,207767,86682,870.2178784604205,2316.566033666567,3318.060503490514
207767,21217,207767,42942,207767,86736,916.9267093832154,2327.4977650366286,3346.1594855009716
207767,21269,207767,42984,207767,86754,962.5478205728211,2337.0286753567525,3372.3012502997226
207767,21315,207767,42967,207767,86757,1007.0591111026483,2345.182106165693,3396.5102910131964
207767,21352,207767,42945,207767,86755,1050.4421636964344,2351.9851911606534,3418.815629070633
207767,21387,207767,42891,207767,86742,1092.6822785419404,2357.4688611015245,3439.2507112614803
207777,21409,207777,42868,207777,86726,1133.768333728689,2361.6672103094816,3457.853018661751
207777,21452,207777,42907,207777,86749,1173.6925112484842,2364.6167337437014,3474.6635867055156
207777,21508,207777,42909,207777,86759,1212.4500649957963,2366.3561398386655,3489.726738757533
207777,21518,207777,42882,207777,86724,1250.03928483642,2366.926784470267,3503.090108769188
207777,21554,207777,42814,207777,86700,1286.4614808466795,2366.3729416181895,3514.8045306576932
207777,21570,207777,42768,207777,86661,1321.7207651814101,2364.741298224487,3524.9234690809863
207787,21597,207787,42748,207787,86667,1355.82370237142,2362.079908596949,3533.50221663211
207787,21638,207787,42750,207787,86668,1388.778989829229,2358.437315159995,3540.5973130964876
207787,21676,207787,42749,207787,86660,1420.5973080008662,2353.8622852979242,3546.2664035567686
207787,21693,207787,42687,207787,86622,1451.2913601315768,2348.403954282509,3550.568284605759
207787,21688,207787,42635,207787,86572,1480.8758341796079,2342.1117190479467,3553.562671353494
207787,21725,207787,42583,207787,86527,1509.367057798675,2335.034521005316,3555.309474891064
207798,21743,207798,42589,207798,86524,1536.782548298941,2327.219894741741,3555.8678412569657
207798,21789,207798,42623,207798,86534,1563.1407909855775,2318.713525757945,3555.2955004329565
207798,21818,207798,42601,207798,86524,1588.461310079315,2309.559669860686,3553.6487452376296
207798,21829,207798,42577,207798,86507,1612.764871755919,2299.801947035104,3550.9827792185233
207798,21831,207798,42491,207798,86455,1636.0735394074732,2289.4836786329565,3547.351919721375
207798,21841,207798,42435,207798,86442,1658.4104064226722,2278.6473819549997,3542.809409480728
207808,21860,207808,42453,207808,86429,1679.7991555393241,2267.333793194093,3537.407053539598
207808,21900,207808,42479,207808,86438,1700.2637536639786,2255.5813806607575,3531.195106784673
207808,21917,207808,42454,207808,86413,1719.8284574678928,2243.426850881478,3524.2225439886424
207808,21939,207808,42384,207808,86378,1738.518017688401,2230.905921829612,3516.5374071753586
207808,21925,207808,42341,207808,86346,1756.357789942354,2218.053394757159,3508.18686849978
207808,21921,207808,42297,207808,86296,1773.3735205550215,2204.9025113263438,3499.2169524484893
207818,21977,207818,42311,207818,86314,1789.5909199227467,2191.484291077866,3489.6721586846315
207818,22002,207818,42324,207818,86279,1805.0355264933314,2177.8274613511016,3479.5953341556137
207818,21993,207818,42288,207818,86242,1819.7330143435947,2163.959039362892,3469.0278173111583
207818,22000,207818,42246,207818,86213,1833.7094133204032,2149.904968511778,3458.009470563804
207818,21999,207818,42188,207818,86178,1846.9909252206312,2135.6901948388895,3446.5784660898767
207818,22012,207818,42142,207818,86171,1859.6035840939162,2121.3381726843727,3434.7710685531356
207829,22034,207829,42214,207829,86163,1871.5730350569984,2106.8703694221967,3422.621644221867
207829,22069,207829,42206,207829,86179,1882.924572447395,2092.3065719307306,3410.1630308942454
207829,22046,207829,42154,207829,86132,1893.6833939954759,2077.6659576701986,3397.427188589652
207829,22050,207829,42109,207829,86088,1903.874720098955,2062.9678348839197,3384.4456968601858
207829,22047,207829,42048,207829,86048,1913.5235568059265,2048.2314664379132,3371.249721271072
207829,22050,207829,42079,207829,86051,1922.6543182374976,2033.4755190269266,3357.8696827781423
207839,22070,207839,42104,207839,86045,1931.2905666879265,2018.718019464668,3344.3352098012406
207839,22082,207839,42058,207839,86032,1939.4549627137285,2003.977121007521,3330.675570332499
207839,22074,207839,42006,207839,85968,1947.169367793139,1989.271922248261,3316.920196585504
207839,22064,207839,41937,207839,85910,1954.4548499122566,1974.6224779022043,3303.0987426865345
207839,22070,207839,41897,207839,85870,1961.3314476941027,1960.0490696707045,3289.240536841859
207839,22088,207839,41904,207839,85883,1967.8179008405727,1945.5714063871778,3275.3739349784405
207849,22095,207849,41912,207849,85861,1973.9316073074983,1931.2084064555736,3261.5261982186125
207849,22102,207849,41898,207849,85854,1979.6887762580104,1916.978711697483,3247.72391957955
207849,22106,207849,41852,207849,85781,1985.1045839831754,1902.9014058212624,3233.9934789153585
207849,22080,207849,41770,207849,85744,1990.1931926336915,1888.9962326460234,3220.361041566444
207849,22096,207849,41712,207849,85705,1994.9675644951863,1875.2830018054522,3206.8520917658893
207849,22101,207849,41738,207849,85698,1999.4392170646615,1861.7806123472865,3193.4909451762514
207860,22108,207860,41745,207860,85670,2003.6181654103793,1848.5066467637369,3180.3006080514715
207860,22131,207860,41712,207860,85630,2007.5130696627766,1835.4778647074504,3167.3028830755
207860,22118,207860,41628,207860,85567,2011.1314699410473,1822.7107600228796,3154.518326506666
207860,22093,207860,41566,207860,85528,2014.4799040431149,1810.2212718945732,3141.965811051929
207860,22090,207860,41540,207860,85491,2017.5636789804803,1798.0237568358164,3129.6618617776535
207860,22109,207860,41545,207860,85489,2020.3864701941206,1786.130079064176,3117.620153004594
207870,22130,207870,41565,207870,85469,2022.9502096962397,1774.5494846084819,3105.851416596793
207870,22137,207870,41478,207870,85406,2025.2553925432908,1763.2890826986809,3094.363599303968
207870,22112,207870,41432,207870,85369,2027.3014615960788,1752.3540396505173,3083.161785138731
207870,22093,207870,41378,207870,85317,2029.0868455723817,1741.7469628919368,3072.24769230162
207870,22103,207870,41377,207870,85295,2030.6086160119773,1731.466978871748,3061.6190318597774
207870,22123,207870,41401,207870,85306,2031.862194264366,1721.509298068251,3051.269108586409
207880,22160,207880,41387,207880,85299,2032.8415194157624,1711.8655565183585,3041.186939262092
207880,22146,207880,41332,207880,85265,2033.539628736965,1702.5244726077544,3031.3577753207846
207880,22119,207880,41270,207880,85204,2033.949155036571,1693.471995730331,3021.763453428981
207880,22130,207880,41242,207880,85166,2034.0623444958583,1684.6907023070821,3012.3821596060498
207880,22135,207880,41253,207880,85163,2033.870844143882,1676.1590426878297,3003.187860436319
207880,22164,207880,41277,207880,85187,2033.3657530154144,1667.8511943485494,2994.150071930102
207891,22144,207891,41275,207891,85192,2032.5379878585,1659.7376940943552,2985.234359473622
207891,22143,207891,41240,207891,85127,2031.3786216724613,1651.7863279734343,2976.4031954575808
207891,22123,207891,41212,207891,85114,2029.8789363352146,1643.9626302275856,2967.616410720014
207891,22137,207891,41193,207891,85110,2028.0302847263974,1636.229866839567,2958.831133750478
207891,22154,207891,41247,207891,85156,2025.8240702377643,1628.549000595523,2950.001929271504
207891,22161,207891,41266,207891,85158,2023.2520402544658,1620.879272266186,2941.081641480118
207901,22159,207901,41269,207901,85140,2020.3067663912864,1613.1794376064113,2932.0226277038
207901,22137,207901,41205,207901,85102,2016.98199604946,1605.4089228153698,2922.777681746962
207901,22122,207901,41180,207901,85086,2013.2726853043664,1597.528187425251,2913.3003469181576
207901,22117,207901,41179,207901,85052,2009.174786183021,1589.4984396032046,2903.5448833368146
207901,22117,207901,41206,207901,85085,2004.6850434881364,1581.281504508815,2893.4662977828193
207901,22137,207901,41193,207901,85081,1999.8010239138698,1572.8403144345978,2883.0207694501387
207911,22130,207911,41173,207911,85054,1994.521422082977,1564.1396799460395,2872.1664528115484
207911,22102,207911,41116,207911,85012,1988.8464229986644,1555.146725973253,2860.864132830482
207911,22081,207911,41082,207911,84950,1982.777766802511,1545.8307308991293,2849.0772886433206
207911,22085,207911,41070,207911,84940,1976.3185016684772,1536.1626186203493,2836.7716722062532
207911,22093,207911,41087,207911,84970,1969.472821429418,1526.114663120011,2823.91499401066
207911,22070,207911,41100,207911,84923,1962.246204378924,1515.6608092088732,2810.477233018244
207922,22052,207922,41031,207922,84878,1954.6455900317528,1504.7773836662468,2796.431211629673
207922,22028,207922,40970,207922,84808,1946.679304275619,1493.4434022911018,2781.752649421919
207922,22011,207922,40932,207922,84782,1938.3567812620367,1481.64003245079,2766.419605458804
207922,22005,207922,40951,207922,84779,1929.688282120299,1469.3497966592345,2750.4119008838434
207922,22005,207922,40974,207922,84779,1920.684774115719,1456.55643858539,2733.7110911679038
207922,21990,207922,40946,207922,84743,1911.358018493027,1443.2456281154575,2716.300996752061
207932,21958,207932,40906,207932,84712,1901.7206905881133,1429.4058017282612,2698.1682867409145
207932,21947,207932,40847,207932,84675,1891.7863051726206,1415.028412117451,2679.302747837766
207932,21923,207932,40804,207932,84629,1881.5689810269387,1400.1075226655291,2659.697285486343
207932,21937,207932,40836,207932,84618,1871.083275011791,1384.6392691612937,2639.3478416976586
207932,21925,207932,40834,207932,84597,1860.3442592240308,1368.6218932030747,2618.2534523922186
207932,21905,207932,40796,207932,84565,1849.367780054591,1352.056446566603,2596.4165658008556
207942,21863,207942,40716,207942,84470,1838.1705829600128,1334.9473631654134,2573.843312315104
207942,21852,207942,40663,207942,84451,1826.7701000636143,1317.302202399119,2550.5432986927153
207942,21826,207942,40642,207942,84377,1815.1840821819808,1299.1308227765323,2526.5290559309674
207942,21823,207942,40618,207942,84371,1803.4303458958068,1280.444740416186,2501.815593805705
207942,21837,207942,40593,207942,84318,1791.5267727072917,1261.2569999474943,2476.4202539200787
207942,21803,207942,40569,207942,84242,1779.491575897853,1241.5823328031292,2450.3626928019585
207953,21769,207953,40498,207953,84175,1767.3435471378898,1221.4372726060267,2423.6645877149545
207953,21732,207953,40390,207953,84090,1755.1019038231148,1200.8398284950179,2396.3488783606094
207953,21715,207953,40393,207953,84048,1742.7858033144717,1179.808533717547,2368.4387987585433
207953,21714,207953,40389,207953,84030,1730.4139221374003,1158.3615650678057,2339.9571336637105
207953,21712,207953,40351,207953,83983,1718.0043848696496,1136.516703607391,2310.926024586341
207953,21671,207953,40293,207953,83930,1705.5749591427204,1114.2917313316254,2281.3671506309943
207963,21648,207963,40217,207963,83848,1693.1431316635985,1091.704397046359,2251.3017491667983
207963,21603,207963,40163,207963,83789,1680.725838025836,1068.771760643652,2220.7502064631362
207963,21602,207963,40188,207963,83751,1668.339005620823,1045.5094373191992,2189.7314341356214
207963,21615,207963,40150,207963,83733,1655.9972814698472,1021.9314454321349,2158.2625042874706
207963,21573,207963,40105,207963,83695,1643.7141549307785,998.0506413056843,2126.3588037872846
207963,21564,207963,40062,207963,83632,1631.5021833898497,973.8790301795775,2094.0344501058394
207974,21531,207974,39995,207974,83560,1619.3729703971896,949.4276189733878,2061.302462270471
207974,21505,207974,39956,207974,83507,1607.3369464323318,924.7059804568332,2028.174486118674
207974,21511,207974,39991,207974,83480,1595.4031340604652,899.7219129728368,1994.660387096869
207974,21517,207974,39956,207974,83481,1583.5791278472823,874.4817154919631,1960.7682303138006
207974,21490,207974,39952,207974,83424,1571.8714020675718,848.9910433296211,1926.5048336986508
207974,21454,207974,39859,207974,83354,1560.2856039502412,823.2556481455,1891.8764265062778
207984,21448,207984,39798,207984,83288,1548.8264963099741,797.2814293133874,1856.8887977211095
207984,21428,207984,39739,207984,83227,1537.497735563708,771.07378432323,1821.5469280717775
207984,21422,207984,39771,207984,83210,1526.301786512209,744.6368975162446,1785.8545891288895
207984,21418,207984,39755,207984,83186,1515.2400061482035,717.973778486022,1749.8143626277817
207984,21417,207984,39703,207984,83116,1504.312864029683,691.0870317871927,1713.4281041666795
207984,21364,207984,39623,207984,83049,1493.5201878661915,663.9794431189134,1676.6973331083802
207994,21347,207994,39571,207994,82971,1482.8611388371635,636.6537606032346,1639.6231094633933
207994,21360,207994,39531,207994,82939,1472.3339328367217,609.1120049739181,1602.2055757804555
207994,21330,207994,39541,207994,82903,1461.935736700533,581.3550249796062,1564.4436719545688
207994,21341,207994,39531,207994,82875,1451.6628467290539,553.3827391012838,1526.335320424432
207994,21313,207994,39480,207994,82826,1441.510910797753,525.1948996236397,1487.8779461895474
207994,21290,207994,39378,207994,82725,1431.4750525098266,496.79161408136133,1449.0688905258621
208004,21259,208004,39321,208004,82650,1421.5497882489012,468.1729926755294,1409.9052692014611
208004,21268,208004,39287,208004,82615,1411.7287858582154,439.33822116097645,1370.3833481212866
208004,21267,208004,39325,208004,82618,1402.004788918575,410.2850224896274,1330.498183237462
208004,21242,208004,39301,208004,82521,1392.3698403940489,381.01012244141486,1290.2439680303694
208004,21230,208004,39242,208004,82464,1382.8155225564399,351.5103003930176,1249.6145018273446
208004,21200,208004,39139,208004,82375,1373.3329726197367,321.7829507177296,1208.603103209558
208014,21190,208014,39087,208014,82345,1363.9127350659842,291.8256165970971,1167.2021488053874
208014,21186,208014,39123,208014,82310,1354.54462498841,261.63517831482875,1125.4028245548247
208014,21194,208014,39084,208014,82274,1345.2177869150469,231.2078010585484,1083.1953851426797
208014,21185,208014,39051,208014,82227,1335.921014198098,200.5396868429525,1040.5697478302395
208014,21144,208014,38997,208014,82163,1326.6431006346113,169.62774427511192,997.5160425449317
208014,21134,208014,38926,208014,82095,1317.372898857114,138.46970474171565,954.0248777114134
208024,21123,208024,38901,208024,82060,1308.0991263278302,107.06384295579085,910.0873565284394
208024,21126,208024,38888,208024,82034,1298.8102754699128,75.40873702773229,865.6951839639951
208024,21123,208024,38903,208024,82001,1289.4948003147174,43.5035679654801,820.8411804388786
208024,21106,208024,38859,208024,81965,1280.1414525388936,11.349017323207022,775.5201154259689
208024,21084,208024,38790,208024,81894,1270.7395345311386,-21.05182589706442,729.7295151169126
208024,21060,208024,38717,208024,81827,1261.2789200920083,-53.69322707722267,683.4701346721245
208035,21044,208035,38718,208035,81790,1251.749891678938,-86.5671678562029,636.7460748756114
208035,21061,208035,38701,208035,81749,1242.1430191552647,-119.66350887067438,589.564907420531
208035,21048,208035,38688,208035,81736,1232.44931915392,-152.96946794112978,541.9381648488179
208035,21033,208035,38608,208035,81655,1222.6606326207893,-186.46882283767513,493.8821361900475
208035,20996,208035,38528,208035,81550,1212.769864647751,-220.1415979505507,445.41844578375844
208035,20976,208035,38473,208035,81472,1202.770884482229,-253.96451265259873,396.57389868984274
208045,20965,208045,38435,208045,81408,1192.658241766639,-287.9117225034788,347.3798004166615
208045,20952,208045,38432,208045,81374,1182.4269805023673,-321.9551801539275,297.871458391887
208045,20954,208045,38389,208045,81310,1172.0726743604318,-356.0643820406997,248.08821628049986
208045,20930,208045,38334,208045,81209,1161.5916187368384,-390.2058478474057,198.0737123890524
208045,20907,208045,38210,208045,81103,1150.9810036272968,-424.3430035825153,147.87574363431008
208045,20881,208045,38149,208045,81015,1140.2388954201851,-458.43689434765963,97.54550092521981
208055,20867,208055,38156,208055,81001,1129.3640560274437,-492.44726657409456,47.136684381809346
208055,20884,208055,38133,208055,80922,1118.3558463070347,-526.3329807969246,-3.294807112576109
208055,20851,208055,38066,208055,80841,1107.2144080906355,-560.0515640215765,-53.690680555905146
208055,20822,208055,37981,208055,80732,1095.9409224601993,-593.5588460767856,-103.99028005369928
208055,20792,208055,37873,208055,80642,1084.5375718994767,-626.8094341623735,-154.13120877076926
208055,20778,208055,37817,208055,80548,1073.0072386583438,-659.7579116724339,-204.05029668512066
208066,20766,208066,37839,208066,80491,1061.353261029035,-692.3599816043891,-253.6845316597096
208066,20762,208066,37764,208066,80418,1049.5794214795455,-724.5727768891616,-302.97168267645293
208066,20731,208066,37730,208066,80345,1037.6901017737646,-756.3545637123275,-351.85060715867166
208066,20702,208066,37646,208066,80260,1025.6903742471413,-787.6646689465124,-400.261497369514
208066,20668,208066,37575,208066,80158,1013.5858449334837,-818.4639305410751,-448.14632691016504
208066,20648,208066,37535,208066,80083,1001.3823111118187,-848.7154677939272,-495.4495741387025
208076,20656,208076,37532,208076,80065,989.0854941508591,-878.3853073183882,-542.118932977801
208076,20637,208076,37513,208076,80014,976.7010822130458,-907.4423802092981,-588.1054827013897
208076,20617,208076,37451,208076,79936,964.2349996560694,-935.8580291294722,-633.3633244767634
208076,20582,208076,37388,208076,79854,951.693569027991,-963.6057184457386,-677.8493520643585
208076,20553,208076,37326,208076,79784,939.0833934422278,-990.6613490495843,-721.5235345884994
208076,20539,208076,37329,208076,79749,926.4110765000306,-1017.0038488615576,-764.3493910153618
208086,20527,208086,37320,208086,79708,913.6830203673161,-1042.6153679295758,-806.2941618334171
208086,20514,208086,37307,208086,79672,900.9054414263317,-1067.4808076327854,-847.3285334224738
208086,20499,208086,37230,208086,79588,888.0845344840408,-1091.5871540844962,-887.4262136749339
208086,20459,208086,37199,208086,79511,875.2266072428259,-1114.9232759697006,-926.5638293382419
208086,20430,208086,37152,208086,79480,862.3380087637813,-1137.480241890488,-964.7212592730405
208086,20423,208086,37168,208086,79445,849.4248719519277,-1159.251633444111,-1001.8819288221403
208097,20420,208097,37181,208097,79424,836.4929713888527,-1180.233332210628,-1038.0326227597293
208097,20418,208097,37142,208097,79387,823.5479229665259,-1200.422734324864,-1073.1629124885021
208097,20368,208097,37088,208097,79321,810.5955450175627,-1219.8180019217239,-1107.2645743443904
208097,20334,208097,37010,208097,79268,797.6419537480124,-1238.418039618746,-1140.331339351951
208097,20309,208097,36983,208097,79223,784.6932409999622,-1256.2231981276843,-1172.3590091172532
208097,20312,208097,37007,208097,79206,771.7550903179799,-1273.2360068498042,-1203.3455940434646
208107,20300,208107,37024,208107,79184,758.8327318165784,-1289.4611401243226,-1233.2911259393381
208107,20281,208107,36997,208107,79134,745.9312073284322,-1304.9045725352962,-1262.1971714097344
208107,20253,208107,36938,208107,79076,733.0556238858611,-1319.5727508418365,-1290.0664406705923
208107,20213,208107,36903,208107,79018,720.2111606134475,-1333.4724906557576,-1316.9028195971669
208107,20201,208107,36881,208107,79018,707.4028389795828,-1346.6114377948363,-1342.711652916012
208107,20210,208107,36951,208107,79004,694.6353294378129,-1358.9983210366697,-1367.4997421416292
208117,20196,208117,36919,208117,79011,681.9131059434545,-1370.6424051078232,-1391.2747606140665
208117,20176,208117,36891,208117,78954,669.2408591435873,-1381.5525160035231,-1414.0443626869433
208117,20137,208117,36851,208117,78880,656.6237694139406,-1391.736551051559,-1435.8156202638984
208117,20096,208117,36802,208117,78849,644.0674048314529,-1401.2017203416954,-1456.5951790563136
208117,20095,208117,36814,208117,78851,631.5773572383569,-1409.955082148744,-1476.3897154369788
208117,20085,208117,36829,208117,78836,619.1589926268296,-1418.0038014299612,-1495.205938838692
208128,20060,208128,36837,208128,78820,606.8175281505287,-1425.3547790471584,-1513.05005247487
208128,20038,208128,36795,208128,78787,594.558202856605,-1432.0139510027946,-1529.927141685855
208128,20001,208128,36728,208128,78699,582.3862667373901,-1437.986004231607,-1545.8409268519713
208128,19978,208128,36689,208128,78672,570.3067717370657,-1443.2749195791027,-1560.794119522614
208128,19978,208128,36742,208128,78655,558.3243325084725,-1447.884848029782,-1574.789104400012
208128,19961,208128,36746,208128,78664,546.4430915043338,-1451.8203284342308,-1587.8282590321123
208138,19953,208138,36757,208138,78639,534.6669246750319,-1455.085617925757,-1599.9136602052322
208138,19917,208138,36720,208138,78568,522.9996690698476,-1457.6838796198956,-1611.0466707601408
208138,19879,208138,36645,208138,78539,511.4451354334799,-1459.616984343911,-1621.2280280600144
208138,19867,208138,36636,208138,78501,500.006853051349,-1460.8861347453044,-1630.4584239582155
208138,19866,208138,36651,208138,78510,488.68781182380553,-1461.4927653151417,-1638.7390257972793
208138,19851,208138,36667,208138,78534,477.49050500891394,-1461.4388723714308,-1646.0714810634486
208148,19823,208148,36638,208148,78481,466.41716932148074,-1460.7267011037573,-1652.4574056702559
208148,19801,208148,36609,208148,78413,455.4699005292082,-1459.3584797088322,-1657.8980135418024
208148,19772,208148,36575,208148,78388,444.6505513753591,-1457.3366761251687,-1662.3945309985206
208148,19758,208148,36580,208148,78361,433.96053924909666,-1454.6646012346025,-1665.9490741420564
208148,19755,208148,36617,208148,78402,423.40073150827016,-1451.3468059760974,-1668.5651918579515
208148,19739,208148,36627,208148,78356,412.97152780296915,-1447.3888634762354,-1670.247772838236
208159,19735,208159,36598,208159,78320,402.67309889051717,-1442.7967768792835,-1671.0027718551191
208159,19686,208159,36542,208159,78307,392.50558966731455,-1437.5767695768925,-1670.8373501119218
208159,19658,208159,36534,208159,78285,382.4690597478582,-1431.735846203316,-1669.7603242547225
208159,19657,208159,36525,208159,78291,372.5631696760838,-1425.2826870715064,-1667.7824786019378
208159,19656,208159,36600,208159,78298,362.78699726975015,-1418.2281169256632,-1664.9165824633124
208159,19665,208159,36616,208159,78303,353.1392775427096,-1410.5847126310553,-1661.177120304606
208169,19614,208169,36583,208169,78266,343.6188598073013,-1402.365899563234,-1656.5799326825872
208169,19591,208169,36573,208169,78239,334.2249084376831,-1393.5854570943834,-1651.1421661673335
208169,19558,208169,36512,208169,78202,324.9566591176315,-1384.2578638045065,-1644.8827159074963
208169,19559,208169,36544,208169,78226,315.81303415315665,-1374.3991237753703,-1637.8228769680263
208169,19554,208169,36598,208169,78254,306.7925013784022,-1364.0273469809242,-1629.9866473102566
208169,19551,208169,36594,208169,78236,297.89327382359807,-1353.162524709641,-1621.4004388858284
208179,19517,208179,36585,208179,78227,289.11364174381424,-1341.825885968387,-1612.0926473678837
208179,19476,208179,36552,208179,78194,280.45208088301456,-1330.0396983574278,-1602.0936260819863
208179,19477,208179,36526,208179,78178,271.90701357495027,-1317.8277515343057,-1591.4360996538321
208179,19465,208179,36578,208179,78216,263.47654854402003,-1305.2160914938179,-1580.155666294213
208179,19456,208179,36612,208179,78212,255.15850908188486,-1292.2332945670194,-1568.2909404243235
208179,19430,208179,36619,208179,78219,246.95061608984633,-1278.9100010250067,-1555.8832899754661
208190,19399,208190,36575,208190,78195,238.85053665870714,-1265.2783569833293,-1542.9766062701635
208190,19363,208190,36570,208190,78197,230.85567075949598,-1251.3721184698404,-1529.6173884768193
208190,19368,208190,36589,208190,78193,222.96278539778723,-1237.2272769825272,-1515.8550198034804
208190,19368,208190,36649,208190,78221,215.1678322501284,-1222.8824121469106,-1501.741956682017
208190,19352,208190,36682,208190,78271,207.46613708828022,-1208.378272475423,-1487.333554126807
208190,19338,208190,36668,208190,78260,199.852722316037,-1193.756906783167,-1472.687456775885
208200,19315,208200,36655,208200,78246,192.3224733687307,-1179.0611281322438,-1457.8629869133053
208200,19282,208200,36655,208200,78251,184.87009448767662,-1164.334655009272,-1442.921025456731
208200,19268,208200,36684,208200,78268,177.4898945034936,-1149.622515516306,-1427.9242079381834
208200,19282,208200,36743,208200,78325,170.17559100134758,-1134.9710878327023,-1412.9368648517348
208200,19275,208200,36763,208200,78339,162.9204285097842,-1120.4275184831713,-1398.0244351977358
208200,19256,208200,36770,208200,78315,155.71757448173912,-1106.0388569057072,-1383.2526850697484
208211,19212,208211,36748,208211,78329,148.56037639061515,-1091.8515240641577,-1368.6873302267131
208211,19204,208211,36727,208211,78301,141.4422292130307,-1077.9114232209022,-1354.3941617211062
208211,19191,208211,36768,208211,78356,134.35628016404235,-1064.2644485242818,-1340.4392717681656
208211,19206,208211,36858,208211,78397,127.29535944815848,-1050.9566350786188,-1326.8889082321843
208211,19184,208211,36860,208211,78404,120.25224247526285,-1038.0333803514732,-1313.808757277589
208211,19141,208211,36834,208211,78415,113.219942231181,-1025.5383263651436,-1301.2630648951224
208221,19129,208221,36802,208221,78374,106.19166168784909,-1013.5130162846623,-1289.3141760020894
208221,19097,208221,36799,208221,78370,99.16045909000695,-1001.9974818471769,-1278.0226590428344
208221,19103,208221,36855,208221,78397,92.11896024851035,-991.0309406817541,-1267.447718616899
208221,19099,208221,36887,208221,78410,85.05932448088515,-980.6518028526286,-1257.6473295612
208221,19095,208221,36892,208221,78416,77.97349276391469,-970.8969711936143,-1248.6779064191658
208221,19067,208221,36845,208221,78398,70.85353418459204,-961.8012032117033,-1240.5938990304483
208231,19028,208231,36822,208231,78383,63.691773216945876,-953.3972295326971,-1233.447686815142
208231,19013,208231,36843,208231,78356,56.48056653216099,-945.7164678920909,-1227.2898226147868
208231,19015,208231,36883,208231,78388,49.21198255076206,-938.7895059322329,-1222.169397743625
208231,19011,208231,36879,208231,78390,41.87776241532606,-932.6458741897052,-1218.134129969151
208231,18986,208231,36861,208231,78389,34.46957072972987,-927.3135454093132,-1215.2300433219198
208231,18952,208231,36843,208231,78333,26.979174078736378,-922.8188149195109,-1213.5011611562404
208242,18932,208242,36828,208242,78335,19.39830879153328,-919.1866380691914,-1212.9896521514718
208242,18923,208242,36812,208242,78332,11.718396060289933,-916.4411223401964,-1213.7362335584771
208242,18926,208242,36871,208242,78336,3.9304284719332827,-914.6058414349968,-1215.7803102346509
208242,18923,208242,36877,208242,78375,-3.97482606705762,-913.7036103377507,-1219.15964983177
208242,18899,208242,36891,208242,78312,-12.006444390276329,-913.7557367813528,-1223.909779053977
208242,18865,208242,36820,208242,78280,-20.173107526821696,-914.7813899107889,-1230.0636299904581
208252,18835,208252,36771,208252,78242,-28.48320771049157,-916.7977634063238,-1237.6518461971327
208252,18828,208252,36835,208252,78238,-36.94517517310737,-919.8208766207293,-1246.703403434201
208252,18823,208252,36836,208252,78253,-45.56768446929755,-923.8659628616131,-1257.2459005260246
208252,18808,208252,36832,208252,78235,-54.35956804813077,-928.946968726137,-1269.3052907299434
208252,18777,208252,36804,208252,78208,-63.329618931917366,-935.0759168231772,-1282.9053583103769
208252,18760,208252,36764,208252,78153,-72.48654733107674,-942.2627972426644,-1298.0674555378953
208262,18718,208262,36753,208262,78136,-81.83913948629902,-950.5159246521368,-1314.8106794639884
208262,18721,208262,36772,208262,78127,-91.39650108523233,-959.8423175027748,-1333.152155896707
208262,18721,208262,36785,208262,78138,-101.16815831691406,-970.2476073119984,-1353.106952367261
208262,18715,208262,36791,208262,78099,-111.1638159273275,-981.7354029222145,-1374.6875325216179
208262,18672,208262,36743,208262,78077,-121.39295411132161,-994.3065588279219,-1397.9031460873625
208262,18651,208262,36688,208262,78043,-131.86467879887346,-1007.9589343427278,-1422.7594838919285
208273,18639,208273,36688,208273,78007,-142.58787158275823,-1022.6877892910079,-1449.2585409815947
208273,18619,208273,36729,208273,78017,-153.5713192517337,-1038.4861545385772,-1477.3984610104835
208273,18612,208273,36723,208273,78032,-164.8236607496856,-1055.3444307652196,-1507.173034004469
208273,18600,208273,36681,208273,77957,-176.35320997104282,-1073.2494787949677,-1538.57076662596
208273,18578,208273,36635,208273,77882,-188.16771888043104,-1092.184104383125,-1571.5742010792642
208273,18540,208273,36579,208273,77825,-200.27421628586058,-1112.1272981153231,-1606.1601063464605
208283,18511,208283,36547,208283,77762,-212.67908391967512,-1133.0549112278886,-1642.3002043635938
208283,18528,208283,36534,208283,77744,-225.38824211160727,-1154.9402944744418,-1679.9617681091136
208283,18495,208283,36556,208283,77716,-238.4070947500079,-1177.754479881751,-1719.1077545580133
208283,18472,208283,36513,208283,77637,-251.7402495364788,-1201.4657767394856,-1759.6965403475906
208283,18426,208283,36424,208283,77548,-265.3914100157174,-1226.0393311938633,-1801.6818138349863
208283,18402,208283,36375,208283,77490,-279.3635889935333,-1251.4374174635625,-1845.0130498798972
208293,18398,208293,36351,208293,77464,-293.65939228686534,-1277.6203424047917,-1889.6361802986794
208293,18386,208293,36373,208293,77423,-308.2810448699838,-1304.547047896516,-1935.4938018936716
208293,18367,208293,36350,208293,77341,-323.23011076969624,-1332.1748740176695,-1982.5249298812685
208293,18337,208293,36264,208293,77254,-338.50717175336285,-1360.4589498028101,-2030.6649158167804
208293,18298,208293,36211,208293,77180,-354.11171166252757,-1389.3521297063883,-2079.8458982874045
208293,18270,208293,36158,208293,77113,-370.04224685546046,-1418.8056796012058,-2129.997523359795
208304,18239,208304,36139,208304,77052,-386.296575286304,-1448.7700763611635,-2181.0475302083487
208304,18241,208304,36159,208304,77013,-402.8719338058827,-1479.1952972702522,-2232.9220342068757
208304,18214,208304,36126,208304,76970,-419.7649018629684,-1510.0304065822263,-2285.545457207516
208304,18186,208304,36045,208304,76868,-436.97113265136954,-1541.2229063100633,-2338.840255135714
208304,18138,208304,35953,208304,76775,-454.4852133559921,-1572.718745359279,-2392.726941164597
208304,18108,208304,35935,208304,76715,-472.30082059075767,-1604.4631910758671,-2447.1246538760915
208314,18091,208314,35948,208314,76699,-490.4110032398978,-1636.4016603505124,-2501.9517286012883
208314,18073,208314,35912,208314,76635,-508.80829744833113,-1668.4796802963551,-2557.1256411344802
208314,18063,208314,35871,208314,76555,-527.4845606630295,-1700.6422979905265,-2612.5625409829145
208314,18006,208314,35819,208314,76472,-546.43069699068,-1732.8337444635358,-2668.177070966396
208314,17972,208314,35733,208314,76376,-565.6365918672179,-1764.9976501824924,-2723.8827248040407
208314,17948,208314,35718,208314,76323,-585.091339312776,-1797.0776661005684,-2779.5924823689834
208324,17933,208324,35726,208324,76275,-604.783446404068,-1829.0179780675078,-2835.219300427506
208324,17910,208324,35658,208324,76208,-624.7007603336128,-1860.7632287051442,-2890.676192523845
208324,17885,208324,35637,208324,76149,-644.8302196200957,-1892.2581804440188,-2945.8760687984377
208324,17832,208324,35585,208324,76041,-665.1576747415647,-1923.4476618476695,-3000.731721042087
208324,17801,208324,35519,208324,75956,-685.6679546853666,-1954.276801037879,-3055.1562148437088
208324,17762,208324,35457,208324,75898,-706.3451373800576,-1984.691525742604,-3109.063622845855
208335,17743,208335,35475,208335,75867,-727.1728018945932,-2014.6392082890047,-3162.3696020596453
208335,17729,208335,35451,208335,75812,-748.1340787651668,-2044.0688906448208,-3214.9914051790947
208335,17694,208335,35368,208335,75720,-769.2114747018716,-2072.931010260026,-3266.847589686298
208335,17653,208335,35340,208335,75632,-790.3866685293151,-2101.17736499046,-3317.858060852532
208335,17619,208335,35296,208335,75563,-811.640511662473,-2128.761579766122,-3367.9446597162814
208335,17597,208335,35288,208335,75527,-832.9531770530259,-2155.639546346227,-3417.031859479698
208345,17570,208345,35285,208345,75504,-854.3042245035447,-2181.7694531511315,-3465.0470122797633
208345,17556,208345,35279,208345,75436,-875.6724878820867,-2207.111386360725,-3511.9200536632134
208345,17511,208345,35202,208345,75347,-897.035867878185,-2231.6268051705315,-3557.583187215757
208345,17470,208345,35152,208345,75279,-918.3712252700716,-2255.278487473766,-3601.9711101627854
208345,17426,208345,35090,208345,75248,-939.6545292273347,-2278.0311860141487,-3645.0216283331856
208345,17413,208345,35122,208345,75207,-960.8611440265304,-2299.8524740869516,-3686.6760413147554
208355,17395,208355,35109,208355,75188,-981.9659433082568,-2320.7130230258904,-3726.8790326809703
208355,17368,208355,35084,208355,75143,-1002.9431251836913,-2340.5862012158077,-3765.5782614678974
208355,17316,208355,35028,208355,75072,-1023.7659698330644,-2359.4476755499904,-3802.7240047764753
208355,17293,208355,35014,208355,75029,-1044.4068318540324,-2377.2755322433845,-3838.2691628273788
208355,17264,208355,34987,208355,74979,-1064.8373014482843,-2394.0506830358977,-3872.169585581371
208355,17250,208355,35012,208355,74993,-1085.0282580967273,-2409.757071798193,-3904.384303537773
208366,17230,208366,35037,208366,74939,-1104.9497103910694,-2424.3813765729183,-3934.875344391768
208366,17196,208366,35005,208366,74955,-1124.5705282049928,-2437.912252095439,-3963.6072380648925
208366,17163,208366,34969,208366,74884,-1143.8582584134879,-2450.3396839195343,-3990.5465108533926
208366,17117,208366,34922,208366,74868,-1162.7791567169575,-2461.655021160064,-4015.661402576691
208366,17081,208366,34951,208366,74842,-1181.29842853051,-2471.8514918745573,-4038.9218462632716
208366,17090,208366,34978,208366,74842,-1199.380487780189,-2480.924426274154,-4060.299432130695
208376,17067,208376,35033,208376,74851,-1216.9889109408632,-2488.8706516952716,-4079.7670573242503
208376,17038,208376,34967,208376,74833,-1234.086075331287,-2495.6873751876024,-4097.298274480485
208376,16987,208376,34933,208376,74801,-1250.632909857639,-2501.3715414032413,-4112.866651652087
208376,16971,208376,34932,208376,74788,-1266.589010371636,-2505.9201495495336,-4126.44547432247
208376,16939,208376,34982,208376,74791,-1281.912902351047,-2509.3307726308612,-4138.007697278231
208376,16927,208376,35039,208376,74808,-1296.5621769874251,-2511.601273284058,-4147.525742462018
208386,16911,208386,35013,208386,74810,-1310.4934494100457,-2512.7287183105977,-4154.97096154892
208386,16866,208386,34997,208386,74747,-1323.6622456567202,-2512.7084188445083,-4160.313081866487
208386,16817,208386,34955,208386,74735,-1336.023074789136,-2511.5338288432995,-4163.520180968164
208386,16793,208386,34950,208386,74724,-1347.5298515157576,-2509.1971543207865,-4164.559198932462
208386,16786,208386,34977,208386,74726,-1358.1363996163711,-2505.69004010054,-4163.396424795944
208386,16762,208386,35040,208386,74759,-1367.796667318764,-2501.0037049552616,-4159.9975939130145
208397,16754,208397,35027,208397,74753,-1376.4646763603073,-2495.128343262453,-4154.327617565099
208397,16720,208397,35010,208397,74719,-1384.0944430036611,-2488.05241879028,-4146.350275792717
208397,16679,208397,34979,208397,74724,-1390.640064752357,-2479.7626260161323,-4136.028329920706
208397,16660,208397,34993,208397,74679,-1396.056073419095,-2470.2445051812388,-4123.324090345583
208397,16646,208397,35039,208397,74725,-1400.2978981822769,-2459.483025461852,-4108.200114960991
208397,16628,208397,35063,208397,74768,-1403.3221749940656,-2447.462570073657,-4090.6196043289797
208407,16602,208407,35049,208407,74745,-1405.0869179477083,-2434.166493782343,-4070.5462560009214
208407,16573,208407,34989,208407,74724,-1405.5517644742001,-2419.577040548146,-4047.944131647545
208407,16547,208407,34996,208407,74698,-1404.6783989360574,-2403.676115623071,-4022.7782424191196
208407,16525,208407,35038,208407,74709,-1402.431095210717,-2386.446398636746,-3995.015699882437
208407,16538,208407,35050,208407,74743,-1398.777203436459,-2367.871913874877,-3964.62678403424
208407,16529,208407,35086,208407,74752,-1393.6873756553914,-2347.937965205653,-3931.5855489763762
208417,16525,208417,35066,208417,74765,-1387.1355415286387,-2326.630980542631,-3895.870141237098
208417,16491,208417,35059,208417,74756,-1379.09892649092,-2303.9387095074444,-3857.4632605921997
208417,16498,208417,35053,208417,74772,-1369.5583236564623,-2279.8509062631606,-3816.3529441886194
208417,16478,208417,35097,208417,74831,-1358.498504861165,-2254.360196365503,-3772.5334357142006
208417,16512,208417,35145,208417,74889,-1345.908524567432,-2227.4625734489473,-3726.0056644093615
208417,16510,208417,35159,208417,74886,-1331.781765344837,-2199.157337767003,-3676.777265285722
208428,16500,208428,35158,208428,74936,-1316.115820397117,-2169.446932044339,-3624.8626889376674
208428,16476,208428,35174,208428,74958,-1298.9125735735408,-2138.3371907032342,-3570.283690079132
208428,16483,208428,35193,208428,75017,-1280.1786590771683,-2105.8379416635557,-3513.069908980001
208428,16510,208428,35248,208428,75071,-1259.9259871300906,-2071.9635416037177,-3453.259286045751
208428,16536,208428,35322,208428,75179,-1238.1719124207757,-2036.7329841295218,-3390.898164882834
208428,16589,208428,35363,208428,75223,-1214.938939714961,-2000.1694710969628,-3326.0409915439905
208438,16568,208438,35362,208438,75273,-1190.2541967774173,-1962.2998532380284,-3258.7499140286072
208438,16568,208438,35367,208438,75343,-1164.1491514806214,-1923.1546172802296,-3189.094725487268
208438,16604,208438,35414,208438,75433,-1136.6598150731406,-1882.768521892042,-3117.1530216162946
208438,16640,208438,35497,208438,75530,-1107.82698942028,-1841.1811974374173,-3043.0100984483597
208438,16670,208438,35584,208438,75622,-1077.6961138579725,-1798.437014266068,-2966.7584625484656
208438,16696,208438,35626,208438,75720,-1046.3168783106016,-1754.5842607483687,-2888.4971552462443
208449,16724,208449,35646,208449,75795,-1013.7429067888729,-1709.6743439906363,-2808.3311084936545
208449,16742,208449,35666,208449,75840,-980.0315825190082,-1663.7616471151669,-2726.37076793898
208449,16780,208449,35738,208449,75983,-945.2439724975359,-1616.9039402490412,-2642.73206481052
208449,16830,208449,35847,208449,76124,-909.4447160522409,-1569.1625987234097,-2557.5361967428735
208449,16887,208449,35910,208449,76206,-872.701671041259,-1520.6020599635967,-2470.9086997642994
208449,16924,208449,35975,208449,76291,-835.0852892966379,-1471.288808496435,-2382.9783357118313
208459,16952,208459,35996,208459,76390,-796.6679801845949,-1421.2906155293952,-2293.8765094314417
208459,16975,208459,36035,208459,76478,-757.5237473788252,-1370.67639724279,-2203.7370840989574
208459,17035,208459,36120,208459,76610,-717.7280742490833,-1319.5164690103886,-2112.6961613739822
208459,17089,208459,36236,208459,76722,-677.3577195372089,-1267.8825194112221,-2020.8915953901824
208459,17136,208459,36293,208459,76860,-636.4902063687745,-1215.846856532178,-1928.4621734364578
208459,17176,208459,36317,208459,76920,-595.2031842577167,-1163.4814301695908,-1835.546679451235
208469,17196,208469,36347,208469,77020,-553.5739631373635,-1110.8574957638355,-1742.2832871253436
208469,17231,208469,36380,208469,77118,-511.6793464293347,-1058.0460512982368,-1648.8094278722772
208469,17275,208469,36517,208469,77255,-469.5956493473552,-1005.1183628505696,-1555.2617021805447
208469,17350,208469,36580,208469,77378,-427.39858425236946,-952.1457872365072,-1461.7753705074376
208469,17370,208469,36654,208469,77468,-385.16282238648216,-899.1988772888551,-1368.4834901170339
208469,17411,208469,36691,208469,77558,-342.9614825054138,-846.3465263558264,-1275.5161771500088
208480,17438,208480,36709,208480,77670,-300.8658779120713,-793.6557062569502,-1183.0002547218755
208480,17487,208480,36784,208480,77766,-258.9454588178723,-741.191751939207,-1091.05904200951
208480,17532,208480,36888,208480,77903,-217.26769273808247,-689.0186300850769,-999.8119766554864
208480,17572,208480,36971,208480,78040,-175.89778556142818,-637.1985460053229,-909.3739045943157
208480,17615,208480,37037,208480,78120,-134.89832813422942,-585.7909717379157,-819.8540516464436
208480,17639,208480,37058,208480,78178,-94.32899577149372,-534.8517975937507,-731.3551770674076
208490,17669,208490,37060,208490,78266,-54.24638974094076,-484.43319210144773,-643.9734256087918
208490,17702,208490,37133,208490,78359,-14.704026886112658,-434.584184724185,-557.7986238142503
208490,17748,208490,37217,208490,78454,24.247662054800045,-385.3512653911048,-472.91442649935243
208490,17792,208490,37291,208490,78567,62.56149918091493,-336.7782808220768,-389.3981141918548
208490,17823,208490,37343,208490,78605,100.19389688797092,-288.9057677914625,-307.3202310672632
208490,17824,208490,37325,208490,78676,137.10513687397273,-241.7704747300827,-226.74447572930194
208500,17839,208500,37363,208500,78733,173.25930877836518,-195.4056410350231,-147.7280691952792
208500,17880,208500,37453,208500,78827,208.62396438077826,-149.8417434936364,-70.32228433139244
208500,17911,208500,37529,208500,78905,243.16988719619505,-105.10675758304842,5.427286066221768
208500,17939,208500,37569,208500,78991,276.8711687478826,-61.22563718376841,79.4808011225291
208500,17947,208500,37586,208500,79028,309.70536378330115,-18.21974235709922,151.80433826253693
208500,17944,208500,37590,208500,79072,341.6534237365353,23.893101610526173,222.3697729380392
208511,17977,208511,37607,208511,79115,372.6993545238735,65.09789436144047,291.1542048477804
208511,18009,208511,37694,208511,79204,402.8298907070793,105.38160836684801,358.139229067659
208511,18026,208511,37776,208511,79296,432.0344678410116,144.73292766313216,423.3105871147054
208511,18031,208511,37833,208511,79342,460.3053355855616,183.14285308355147,486.65837057351746
208511,18039,208511,37817,208511,79376,487.6374921757977,220.60551867210188,548.1772920671237
208511,18056,208511,37820,208511,79416,514.028422287784,257.11828259263484,607.8664876201005
208521,18066,208521,37870,208521,79473,539.4778327404513,292.6809976173399,665.7289477380582
208521,18102,208521,37907,208521,79565,563.9875237299179,327.2952545935477,721.7710973453045
208521,18114,208521,37977,208521,79608,587.5614461988978,360.9641938840391,776.0028482950706
208521,18124,208521,38013,208521,79664,610.205868380112,393.692805817981,828.4379137908963
208521,18121,208521,38007,208521,79657,631.9294348453209,425.488291030259,879.0938805031278
208521,18112,208521,38006,208521,79708,652.7429721480199,456.35994829754964,927.9917768899682
208531,18106,208531,38043,208531,79759,672.659058995003,486.3184904880145,975.1554083488268
208531,18147,208531,38140,208531,79841,691.6915629719125,515.3754703320533,1020.611031248302
208531,18162,208531,38155,208531,79880,709.8554955460407,543.5434713662135,1064.387587694538
208531,18144,208531,38172,208531,79856,727.1672010875452,570.8367135817707,1106.517012477489
208531,18143,208531,38167,208531,79890,743.6444119431935,597.2712254386811,1147.033929279196
208531,18128,208531,38153,208531,79894,759.3059241625093,622.8643288282024,1185.9747573873642
208542,18146,208542,38190,208542,79958,774.1711401978084,647.6337643230704,1223.3768551677008
208542,18162,208542,38265,208542,79978,788.2598017676122,671.5970491227808,1259.278087692364
208542,18161,208542,38338,208542,80045,801.5920195140874,694.7716661558006,1293.716784954524
208542,18163,208542,38289,208542,80063,814.188410608691,717.1758712888213,1326.73191946415
208542,18147,208542,38302,208542,80079,826.0700927115008,738.829049557894,1358.3632652193737
208542,18140,208542,38304,208542,80084,837.2584688565199,759.7511543822102,1388.651259553391
208552,18135,208552,38355,208552,80146,847.774883528781,779.9619414946683,1417.636609080293
208552,18166,208552,38436,208552,80180,857.6403597091041,799.4808044224123,1445.3600937815986
208552,18171,208552,38427,208552,80204,866.8756570183137,818.3273242170671,1471.8627642294682
208552,18146,208552,38428,208552,80213,875.501551115801,836.5218710557087,1497.1861663670784
208552,18142,208552,38433,208552,80212,883.5389127433477,854.0855649716664,1521.3722302823885
208552,18117,208552,38427,208552,80222,891.0084319367329,871.0397205347826,1544.4628175950406
208562,18143,208562,38493,208562,80270,897.9302538604302,887.4053151440576,1566.4992074121833
208562,18144,208562,38518,208562,80304,904.3238493917395,903.2028951194188,1587.5219181863808
208562,18138,208562,38508,208562,80334,910.2081784893209,918.4528905918764,1607.570971409531
208562,18119,208562,38518,208562,80315,915.601854297447,933.1757678463678,1626.6862153806733
208562,18104,208562,38513,208562,80319,920.5230422619886,947.3917189540098,1644.9072443296404
208562,18093,208562,38528,208562,80322,924.9891503183446,961.1201632685979,1662.2728751916147
208573,18122,208573,38585,208573,80381,929.0165766946807,974.3794203696316,1678.8206320550844
208573,18111,208573,38610,208573,80364,932.6207697549302,987.1868351317521,1694.586631667858
208573,18107,208573,38622,208573,80402,935.8165183990973,999.5592733860144,1709.605708925636
208573,18076,208573,38591,208573,80391,938.6181041993068,1011.5134310935387,1723.9114411997934
208573,18061,208573,38571,208573,80373,941.0391225359547,1023.0654991321012,1737.5359509879972
208573,18059,208573,38624,208573,80388,943.0921200020673,1034.2303855393566,1750.5094372447988
208583,18062,208583,38666,208583,80434,944.7883491706984,1045.0212778825617,1762.859687332922
208583,18059,208583,38711,208583,80451,946.1377961454233,1055.4500228818947,1774.612046229105
208583,18056,208583,38665,208583,80428,947.1493692227222,1065.5278371734316,1785.7897186493396
208583,18032,208583,38674,208583,80454,947.8310500141365,1075.265498869961,1796.4138305700376
208583,18025,208583,38643,208583,80410,948.1898812647306,1084.6728111199427,1806.5031057192696
208583,18016,208583,38676,208583,80457,948.2318315808747,1093.7578189741384,1816.0733890950696
208593,18035,208593,38732,208593,80521,947.9617473036307,1102.5263762556006,1825.137423686062
208593,18028,208593,38764,208593,80499,947.3835592995955,1110.9824244308138,1833.7052441611986
208593,17989,208593,38738,208593,80472,946.5005826096568,1119.1286858113795,1841.7846811932063
208593,17975,208593,38704,208593,80482,945.3155243168065,1126.9669048106043,1849.381192918744
208593,17956,208593,38728,208593,80503,943.8301509534496,1134.4972992122816,1856.4973106596321
208593,17993,208593,38783,208593,80539,942.0450302220054,1141.7179378031124,1863.1324535880017
208604,17977,208604,38813,208604,80580,939.9597051679808,1148.6248498134978,1869.2833126117798
208604,17966,208604,38824,208604,80589,937.5731490032621,1155.2127326707741,1874.9445707765226
208604,17941,208604,38819,208604,80575,934.8840412031175,1161.4755478700558,1880.1095373339526
208604,17920,208604,38783,208604,80555,931.8906928875018,1167.406563964982,1884.7702807883907
208604,17915,208604,38808,208604,80594,928.59080973155,1172.9978833075493,1888.9173198321646
208604,17929,208604,38881,208604,80607,924.9813778026125,1178.2400254782629,1892.5394309821404
208614,17911,208614,38911,208614,80642,921.0588464348045,1183.1222800201522,1895.6239273843194
208614,17894,208614,38906,208614,80654,916.8194321699605,1187.6336648653846,1898.1572351153195
208614,17878,208614,38871,208614,80608,912.259240316017,1191.7635416764301,1900.1253586023136
208614,17862,208614,38853,208614,80619,907.3741961447814,1195.501358244354,1901.5138551456248
208614,17853,208614,38900,208614,80663,902.159955843761,1198.835937206848,1902.3075092338177
208614,17868,208614,38974,208614,80692,896.6119430582371,1201.7552504446853,1902.4904376888971
208624,17858,208624,38972,208624,80688,890.7256265110203,1204.247136886349,1902.0467698237871
208624,17822,208624,38968,208624,80712,884.4969012278392,1206.3003023547717,1900.9613364861225
208624,17807,208624,38924,208624,80665,877.9222173332902,1207.9046628424803,1899.2200062560073
208624,17791,208624,38938,208624,80665,870.9984180938097,1209.0509101601574,1896.8096045327052
208624,17777,208624,38959,208624,80708,863.7225787345767,1209.7299195522223,1893.7176183468714
208624,17780,208624,39006,208624,80736,856.0920120748692,1209.9326573008148,1889.9322924245976
208635,17799,208635,39039,208635,80732,848.1045139255846,1209.6507586132138,1885.443319284514
208635,17767,208635,38995,208635,80719,839.7588665413334,1208.8773409861542,1880.2425348471988
208635,17715,208635,38979,208635,80692,831.0552359194614,1207.6073207308932,1874.3241119366576
208635,17694,208635,38985,208635,80686,821.9950258549486,1205.8370203946524,1867.6843065826797
208635,17723,208635,39018,208635,80717,812.5804720623357,1203.563712817017,1860.321164087658
208635,17713,208635,39041,208635,80713,802.814684617689,1200.7857171603691,1852.2345998504343
208645,17658,208645,39041,208645,80736,792.7021123350505,1197.502945822128,1843.42686513413
208645,17642,208645,39030,208645,80676,782.2487267397274,1193.7174004025078,1833.9030031578664
208645,17616,208645,38972,208645,80667,771.4617514484385,1189.4331937746947,1823.6708785556825
208645,17601,208645,38994,208645,80647,760.349373882871,1184.6560293928128,1812.7407598086475
208645,17597,208645,39044,208645,80657,748.9206819272431,1179.3926942374474,1801.124897599209
208645,17564,208645,39058,208645,80667,737.1857726450166,1173.6512897140651,1788.8374792251252
208655,17544,208655,39039,208655,80665,725.1558647867571,1167.4420120827276,1775.8949586830554
208655,17531,208655,38999,208655,80606,712.8432994046046,1160.777589696654,1762.3164159099256
208655,17496,208655,38962,208655,80589,700.2615071299832,1153.6729355513198,1748.1234751504007
208655,17468,208655,38993,208655,80603,687.4249518291823,1146.1443810335554,1733.3398567168028
208655,17448,208655,39028,208655,80577,674.3489712737281,1138.2092816740128,1717.9911422576565
208655,17452,208655,39000,208655,80598,661.0496600616409,1129.8863485345114,1702.1049308616048
208666,17411,208666,38996,208666,80560,647.5439723758906,1121.1961360077976,1685.711124114399
208666,17379,208666,38939,208666,80526,633.849855848067,1112.1610337893762,1668.842068039543
208666,17360,208666,38922,208666,80460,619.9861549134126,1102.8047117687051,1651.5322615684795
208666,17325,208666,38941,208666,80471,605.972386281717,1093.1513955621267,1633.8176426447594
208666,17291,208666,38972,208666,80456,591.8285316190976,1083.2255729778312,1615.7349830964954
208666,17294,208666,38959,208666,80452,577.574846807181,1073.0523714596106,1597.3217918213518
208676,17259,208676,38894,208676,80402,563.2318065292374,1062.658000628167,1578.6164680898842
208676,17216,208676,38855,208676,80359,548.8201531676207,1052.069469860301,1559.6581856873531
208676,17176,208676,38819,208676,80302,534.3607295986807,1041.3135659013392,1540.486292144793
208676,17194,208676,38869,208676,80303,519.8741255665557,1030.4158404516143,1521.1394545315225
208676,17158,208676,38901,208676,80330,505.3805801526395,1019.4004042204651,1501.65512730908
208676,17130,208676,38896,208676,80293,490.90017609707775,1008.2906257902989,1482.0697113455599
208687,17102,208687,38832,208687,80234,476.4529185442984,997.1098987140447,1462.4189111198057
208687,17058,208687,38796,208687,80219,462.0585579202293,985.8815694630343,1442.7375563550427
208687,17038,208687,38816,208687,80165,447.7362858081172,974.6281549908413,1423.0589699050684
208687,17026,208687,38836,208687,80201,433.5044610319589,963.3708023388403,1403.4144292034175
208687,17008,208687,38837,208687,80234,419.38054745856255,952.1294975175765,1383.833187685157
208687,16985,208687,38838,208687,80201,405.3812487535554,940.923630382219,1364.3432029028659
208697,16941,208697,38790,208697,80144,391.5225966739322,929.7723421423038,1344.9718924412605
208697,16927,208697,38770,208697,80138,377.81983247700214,918.6943776298051,1325.746151757352
208697,16898,208697,38765,208697,80120,364.2871881793907,907.7075590874806,1306.6919244755295
208697,16886,208697,38806,208697,80120,350.9377594226024,896.828415141295,1287.8339981707363
208697,16884,208697,38818,208697,80111,337.7835484053187,886.0724298422138,1269.1961401581016
208697,16874,208697,38774,208697,80088,324.83571085534214,875.4546764929553,1250.8013498807372
208707,16807,208707,38744,208707,80023,312.10484474673365,864.9900728164141,1232.6719174991013
208707,16785,208707,38731,208707,80016,299.60091969761106,854.69295746992,1214.8290450960021
208707,16778,208707,38739,208707,80033,287.3328568195903,844.576499430291,1197.2923353640217
208707,16781,208707,38789,208707,80043,275.30831116838954,834.6525631001139,1180.0797865913596
208707,16754,208707,38763,208707,80014,263.53389732543167,824.9321744216636,1163.2083175992598
208707,16730,208707,38745,208707,79978,252.01550370528997,815.4260958513769,1146.6941785058511
208718,16700,208718,38701,208718,79933,240.75835740578407,806.1448662947976,1130.5527934553747
208718,16667,208718,38717,208718,79919,229.76683940341292,797.0983117283549,1114.7981663337937
208718,16659,208718,38714,208718,79953,219.04420777117707,788.295090791757,1099.4423771705026
208718,16663,208718,38745,208718,79936,208.59245947799997,779.7426818087974,1084.4956403071442
208718,16647,208718,38737,208718,79929,198.41250672315488,771.4477603678049,1069.9667721670808
208718,16618,208718,38686,208718,79888,188.50449774140372,763.4165462870883,1055.8634895106745
208728,16577,208728,38677,208728,79853,178.86790360610075,755.6546421537182,1042.1922363581848
208728,16560,208728,38662,208728,79855,169.5012516198783,748.1664219280547,1028.9576850422418
208728,16551,208728,38711,208728,79867,160.40176839017727,740.9545745336527,1016.1623604548072
208728,16552,208728,38745,208728,79885,151.5652665485232,734.020306204377,1003.8067718499265
208728,16546,208728,38731,208728,79862,142.98635614763606,727.3641286487803,991.8899286752876
208728,16519,208728,38679,208728,79840,134.6587825400129,720.9864963555528,980.4097405561586
208738,16488,208738,38653,208738,79827,126.57558936953319,714.8876049580911,969.3629999278787
208738,16480,208738,38682,208738,79843,118.72899556668165,709.0666218262713,958.7451740429549
208738,16491,208738,38726,208738,79855,111.11025572148338,703.5212939649357,948.5504435819876
208738,16471,208738,38733,208738,79841,103.70980763815658,698.2483946601935,938.77206896594
208738,16465,208738,38710,208738,79835,96.51759806664501,693.2444807563688,929.4027526669925
208738,16428,208738,38696,208738,79801,89.52327525936374,688.5061997468597,920.4347063202849
208749,16402,208749,38662,208749,79782,82.71610296324673,684.0299869163423,911.8593864467696
208749,16406,208749,38690,208749,79788,76.08469129202143,679.8115088231687,903.6670609432524
208749,16417,208749,38742,208749,79829,69.61688885459102,675.8454178628592,895.8466073181078
208749,16405,208749,38748,208749,79825,63.30006923024365,672.1258086352982,888.3858586920353
208749,16399,208749,38732,208749,79815,57.12158754270155,668.6470018994937,881.2722186487829
208749,16348,208749,38705,208749,79783,51.069027072607355,665.4038812195945,874.492958448895
208759,16320,208759,38691,208759,79788,45.13002381923519,662.391567971119,868.0350330914143
208759,16334,208759,38708,208759,79808,39.2918130936024,659.6048517646689,861.8848092394874
208759,16321,208759,38763,208759,79819,33.540984233737845,657.0379653551101,856.0281445822945
208759,16335,208759,38737,208759,79821,27.863672532105227,654.6849551510118,850.450802886103
208759,16302,208759,38744,208759,79774,22.24592976661239,652.5401941987584,845.1387741389906
208759,16282,208759,38685,208759,79754,16.67393176652996,650.5984084571071,840.0780914585207
208769,16258,208769,38707,208769,79738,11.13387370181357,648.854147741238,835.2541796245534
208769,16264,208769,38761,208769,79785,5.611723530565371,647.3012722030664,830.6512679353764
208769,16255,208769,38754,208769,79813,0.09314772381526382,645.9330839071963,826.2524345077509
208769,16244,208769,38745,208769,79780,-5.4363315950702145,644.742864905425,822.0402177739306
208769,16232,208769,38721,208769,79773,-10.991145963492329,643.7240449187168,817.9970671824572
208769,16190,208769,38718,208769,79752,-16.585644089645143,642.8698308770402,814.1052026138382
208780,16180,208780,38708,208780,79769,-22.23429207032217,642.172664829066,810.3462149704458
208780,16207,208780,38731,208780,79804,-27.951915578895637,641.6238160324967,806.700922545602
208780,16193,208780,38787,208780,79803,-33.75358083987226,641.2133563947107,803.1496962603933
208780,16189,208780,38759,208780,79818,-39.654138202105685,640.9306146636593,799.6730196361905
208780,16149,208780,38740,208780,79753,-45.66788924025178,640.7646179260323,796.2517984422868
208780,16139,208780,38706,208780,79733,-51.80861773547599,640.7038853109859,792.8670503090491
208790,16123,208790,38750,208790,79762,-58.08982622864494,640.7357503229862,789.4991408756391
208790,16124,208790,38790,208790,79778,-64.52489033575387,640.8460236941212,786.1273199177658
208790,16123,208790,38813,208790,79792,-71.12697861381429,641.0194302467689,782.7299446278009
208790,16102,208790,38764,208790,79769,-77.90880635706708,641.2403122719197,779.2849414547354
208790,16090,208790,38752,208790,79766,-84.88242730081953,641.4927418589484,775.7699790120118
208790,16053,208790,38752,208790,79759,-92.05922270291177,641.7599354281501,772.1623041976527
208800,16053,208800,38813,208800,79791,-99.45006920493717,642.0237197639499,768.4385660460523
208800,16065,208800,38856,208800,79816,-107.06544833455945,642.2647543524074,764.5749822004843
208800,16048,208800,38875,208800,79840,-114.9152463613417,642.4634721597101,760.547931732651
208800,16039,208800,38849,208800,79824,-123.00837166898594,642.6010352162969,756.3346856812625
208800,16011,208800,38829,208800,79784,-131.35251919940492,642.6596256631067,751.9137802566424
208800,15988,208800,38840,208800,79808,-139.95418489853535,642.6220728672795,747.2648229769081
208811,15971,208811,38892,208811,79852,-148.81884492463786,642.4714769200632,742.3682464557721
208811,15975,208811,38910,208811,79879,-157.951113230842,642.1914321447443,737.20569856612
208811,15961,208811,38951,208811,79878,-167.35468307220282,641.7667864021653,731.760958304089
208811,15936,208811,38916,208811,79825,-177.03211502930623,641.1844186468134,726.0206129740741
208811,15920,208811,38856,208811,79822,-186.9847244008264,640.4334422685167,719.9739872364958
208811,15901,208811,38895,208811,79838,-197.21263062440767,639.5046059652846,713.6126320574417
208821,15892,208821,38953,208821,79852,-207.71481893412061,638.3896675897963,706.9301024482461
208821,15876,208821,38924,208821,79873,-218.4891130700346,637.0815973078495,699.9222731884249
208821,15866,208821,38888,208821,79854,-229.53206919740842,635.5750497687136,692.5878709672729
208821,15827,208821,38910,208821,79780,-240.8388821799415,633.8662009138749,684.9286888120917
208821,15800,208821,38871,208821,79770,-252.4034581271717,631.9521863752501,676.9490619113533
208821,15772,208821,38914,208821,79776,-264.21870194492084,629.8306900213926,668.6549265524379
208831,15775,208831,38975,208831,79796,-276.27681974041525,627.4999539291994,660.053297838944
208831,15773,208831,38981,208831,79805,-288.5693469229541,624.9594486548483,651.1524493226029
208831,15734,208831,38930,208831,79788,-301.08689213904313,622.2107485186418,641.9623895797516
208831,15700,208831,38883,208831,79731,-313.8189757583499,619.2576041044073,632.4950688203543
208831,15676,208831,38883,208831,79717,-326.75422832783033,616.1050480030067,622.7639812910844
208831,15670,208831,38915,208831,79723,-339.88071458610216,612.7584281717284,612.7834464113108
208842,15644,208842,38935,208842,79725,-353.18605961394405,609.2231701503928,602.5681975884701
208842,15639,208842,38930,208842,79733,-366.6573795345487,605.5051748763033,592.1334684842656
208842,15588,208842,38877,208842,79700,-380.28120739894234,601.6111314791048,581.4952524610002
208842,15576,208842,38866,208842,79649,-394.0435786003725,597.5481964376204,570.6702814013112
208842,15534,208842,38843,208842,79643,-407.930286376341,593.3231845953253,559.6754987530024
208842,15553,208842,38877,208842,79629,-421.92710952880145,588.9418546440259,548.5273480344276
208852,15537,208852,38933,208852,79647,-436.0197558139272,584.4088028889583,537.2413842135052
208852,15488,208852,38925,208852,79650,-450.19357610826637,579.7280905814719,525.8323490931608
208852,15466,208852,38904,208852,79603,-464.4334808728504,574.9040360012733,514.3144430695903
208852,15429,208852,38838,208852,79587,-478.72422736367594,569.9413313085681,502.70131923545944
208852,15412,208852,38864,208852,79569,-493.05079678306095,564.844354508649,491.0056637798715
208852,15413,208852,38931,208852,79618,-507.39860283066,559.6165324161013,479.238839843909
208862,15392,208862,38918,208862,79629,-521.7534228623061,554.2606044440179,467.4111246371841
208862,15371,208862,38900,208862,79587,-536.1011573680071,548.7793843872101,455.5323937367307
208862,15331,208862,38871,208862,79550,-550.4277096519426,543.1760102719115,443.6124650038322
208862,15297,208862,38857,208862,79538,-564.7191500982193,537.4535142105964,431.66071931337376
208862,15277,208862,38894,208862,79541,-578.9620804857357,531.6142848766412,419.6855097810678
208862,15265,208862,38932,208862,79573,-593.143951910703,525.6600316452743,407.6939885654888
208873,15278,208873,38959,208873,79560,-607.2530898588064,519.5924567429465,395.6924723998195
208873,15225,208873,38906,208873,79542,-621.2784308854585,513.4141354853759,383.6869580641345
208873,15204,208873,38863,208873,79497,-635.2093355580573,507.1287505332526,371.6832614226879
208873,15183,208873,38846,208873,79489,-649.0357289657865,500.74040485593855,359.6866462649542
208873,15163,208873,38873,208873,79497,-662.7483384420104,494.2526892129016,347.7013252477982
208873,15167,208873,38927,208873,79509,-676.3387536029611,487.66839851324517,335.7303184650091
208883,15139,208883,38918,208883,79506,-689.7992847224907,480.9901074077188,323.77575248173116
208883,15114,208883,38882,208883,79489,-703.1227795949872,474.22092100270595,311.83926177230046
208883,15080,208883,38837,208883,79429,-716.3026318691586,467.364534456702,299.92207155549715
208883,15060,208883,38830,208883,79441,-729.3330134682428,460.4245163631605,288.0245940055874
208883,15049,208883,38879,208883,79462,-742.2091309649362,453.4035605354205,276.14595873556937
208883,15042,208883,38885,208883,79471,-754.9273037301008,446.30344069552655,264.28408870513954
208893,15042,208893,38897,208893,79468,-767.4847972316481,439.12560119914133,252.4362588452522
208893,14999,208893,38868,208893,79418,-779.879543150942,431.8717240030953,240.59953439325858
208893,14978,208893,38813,208893,79413,-792.1100337802774,424.54375172881316,228.7706943976957
208893,14953,208893,38815,208893,79400,-804.175510173254,417.1432817719756,216.94581047893536
208893,14957,208893,38866,208893,79419,-816.0761972065912,409.67088792466427,205.11996664605465
208893,14951,208893,38892,208893,79428,-827.8132880942738,402.1261890697564,193.28738945307646
208904,14940,208904,38866,208904,79383,-839.38866216192,394.50861635979834,181.44180247092675
208904,14907,208904,38802,208904,79336,-850.8045888146086,386.8178933376174,169.57646087959984
208904,14878,208904,38783,208904,79347,-862.0636908465266,379.05356725888475,157.68361544331185
208904,14860,208904,38792,208904,79353,-873.1691872609093,371.2140307775696,145.7539545192301
208904,14866,208904,38809,208904,79384,-884.125144339517,363.2959224313426,133.77663551734074
208904,14867,208904,38882,208904,79384,-894.9364272547315,355.29433501421283,121.73986159058876
208914,14837,208914,38843,208914,79374,-905.6083723346538,347.2036680227618,109.63156880064588
208914,14805,208914,38795,208914,79328,-916.1465643368315,339.01835936172296,97.43977689053887
208914,14793,208914,38778,208914,79318,-926.556963433634,330.7327193769415,85.15240167915687
208914,14787,208914,38802,208914,79335,-936.846149004656,322.3401992866148,72.75683504649334
208914,14790,208914,38835,208914,79342,-947.0213380373751,313.83308986919036,60.23985144976183
208914,14787,208914,38852,208914,79350,-957.0901172156651,305.20299465533026,47.587985062532056
208924,14753,208924,38841,208924,79325,-967.0600928648068,296.44162455656897,34.788021786517845
208924,14736,208924,38819,208924,79294,-976.9387499302003,287.5413091031949,21.827201823153928
208924,14722,208924,38789,208924,79291,-986.7335784370215,278.4949553992392,8.693021925078028
208924,14701,208924,38829,208924,79329,-996.45225065402,269.2956958649817,-4.626985847576265
208924,14708,208924,38857,208924,79334,-1006.102690870935,259.93684020847866,-18.144980390293057
208924,14698,208924,38865,208924,79312,-1015.6929829037227,250.41245766608785,-31.872141599329467
208935,14678,208935,38818,208935,79279,-1025.2311494791484,240.71809593591223,-45.8182473542752
208935,14647,208935,38766,208935,79268,-1034.7250319226314,230.85085178827364,-59.99180063881144
208935,14642,208935,38750,208935,79253,-1044.182411554334,220.8086255291443,-74.40039887885719
208935,14640,208935,38825,208935,79256,-1053.611166123424,210.5893102170437,-89.05096880808992
208935,14633,208935,38807,208935,79281,-1063.019208066534,200.19082031028086,-103.94969662099804
208935,14611,208935,38823,208935,79258,-1072.4142711220109,189.61182827191112,-119.10163902442052
208945,14591,208945,38755,208945,79200,-1081.8038000371475,178.8522924508525,-134.51038128482128
208945,14573,208945,38723,208945,79179,-1091.195038237166,167.91322785037235,-150.1782642287838
208945,14568,208945,38736,208945,79174,-1100.5951816759746,156.79593227817836,-166.1070404419983
208945,14585,208945,38740,208945,79189,-1110.0113740038487,145.501390320191,-182.29828366410737
208945,14561,208945,38773,208945,79180,-1119.450429494826,134.03033674737216,-198.7532538317793
208945,14539,208945,38730,208945,79130,-1128.9185081411995,122.38373445493582,-215.47258401247325
208956,14505,208956,38684,208956,79111,-1138.4210928033865,110.56300717535703,-232.45632547472067
208956,14503,208956,38670,208956,79079,-1147.9632621480084,98.56961207160342,-249.7044115854173
208956,14492,208956,38689,208956,79093,-1157.5499354025624,86.40435084087827,-267.2171297136117
208956,14494,208956,38710,208956,79085,-1167.1858681775693,74.06716806380311,-284.99524698765896
208956,14475,208956,38695,208956,79078,-1176.8754599108015,61.55755212739885,-303.039787871185
208956,14464,208956,38676,208956,79052,-1186.6225650373665,48.87499838876677,-321.351754950404
208966,14438,208966,38636,208966,79027,-1196.4304372659183,36.01904890017795,-339.9320661042431
208966,14401,208966,38612,208966,78997,-1206.3018635034377,22.988864189805696,-358.78175254824714
208966,14395,208966,38669,208966,79018,-1216.2394832762398,9.782733884715107,-377.90222546710106
208966,14408,208966,38704,208966,79028,-1226.2460567810022,-3.601779658338785,-397.2952347904172
208966,14396,208966,38691,208966,78987,-1236.324371851909,-17.166896693610752,-416.9624310237357
208966,14364,208966,38632,208966,78969,-1246.4769334413245,-30.913730361214377,-436.9050157744142
208976,14339,208976,38591,208976,78920,-1256.70588681697,-44.84232405427154,-457.12386542845775
208976,14328,208976,38577,208976,78916,-1267.013261417234,-58.95247418250495,-477.61996199429177
208976,14329,208976,38604,208976,78946,-1277.401203406072,-73.24449645649746,-498.39467574489595
208976,14317,208976,38610,208976,78909,-1287.8719499684098,-87.71931643331916,-519.4495576164086
208976,14302,208976,38605,208976,78904,-1298.4276403930417,-102.3779935916771,-540.7858861905038
208976,14276,208976,38566,208976,78871,-1309.0702046964352,-117.2212657878768,-562.4044508593529
208987,14258,208987,38524,208987,78830,-1319.8014410255798,-132.24958963568423,-584.3056541071157
208987,14249,208987,38553,208987,78828,-1330.6231927350636,-147.46359988456527,-606.4898074116065
208987,14237,208987,38606,208987,78867,-1341.5374550880924,-162.86427340648638,-628.9572787421732
208987,14238,208987,38589,208987,78850,-1352.5463265262115,-178.45226553382037,-651.7080605929716
208987,14221,208987,38573,208987,78794,-1363.6518368248999,-194.22694489002237,-674.7410641258443
208987,14191,208987,38511,208987,78748,-1374.8557937307025,-210.1860191602808,-698.0539691528138
208997,14172,208997,38467,208997,78730,-1386.1598301515287,-226.3259966965177,-721.6437716552476
208997,14163,208997,38481,208997,78731,-1397.5656174393625,-242.64307118764376,-745.5073651311864
208997,14158,208997,38489,208997,78731,-1409.0749957949824,-259.13369488910575,-769.6416195772802
208997,14147,208997,38489,208997,78684,-1420.689898293897,-275.79445399810936,-794.043077603044
208997,14133,208997,38470,208997,78693,-1432.412175732697,-292.62160853392265,-818.7077109745487
208997,14106,208997,38425,208997,78635,-1444.243490204704,-309.61086145404465,-843.6308915049608
209006,14085,209006,38397,209006,78611,-1456.1853765092437,-326.75760604628806,-868.8075298770596
209006,14082,209006,38440,209006,78594,-1468.2394106297666,-344.0573724603503,-894.232372426946
209006,14083,209006,38431,209006,78627,-1480.4072605982997,-361.5058421250805,-919.9001484456977
209006,14074,209006,38461,209006,78586,-1492.690482083452,-379.09825210954546,-945.8052302076251
209006,14047,209006,38390,209006,78539,-1505.0902225721738,-396.82870562126135,-971.9411640968543
209006,14011,209006,38350,209006,78516,-1517.6071396795496,-414.690036391673,-998.3006740611605
209017,14001,209017,38328,209017,78480,-1530.2416286656762,-432.6743971325082,-1024.8760607010688
209017,13992,209017,38352,209017,78502,-1542.9941102196701,-450.77396719779483,-1051.6594882730017
209017,13998,209017,38375,209017,78479,-1555.865070891056,-468.981020804864,-1078.6428623666327
209017,13972,209017,38335,209017,78469,-1568.8548399651027,-487.28736011348957,-1105.8173916014925
209017,13954,209017,38312,209017,78447,-1581.963363828079,-505.68382374154663,-1133.1731654987489
209017,13933,209017,38255,209017,78387,-1595.19018423349,-524.1604032242889,-1160.698989640097
209027,13909,209027,38257,209027,78370,-1608.5345759501474,-542.7068179570664,-1188.3825674787877
209027,13920,209027,38296,209027,78374,-1621.995671790086,-561.3129377774248,-1216.2108186970763
209027,13918,209027,38268,209027,78323,-1635.5723726675023,-579.968563775695,-1244.1699439269678
209027,13904,209027,38274,209027,78317,-1649.2629901020389,-598.6628226516059,-1272.2453131569632
209027,13858,209027,38235,209027,78314,-1663.0649288105208,-617.383769924935,-1300.421390760814
209027,13838,209027,38185,209027,78245,-1676.9747534764665,-636.118433060283,-1328.6816227456343
209037,13820,209037,38193,209037,78229,-1690.9885507370782,-654.8532321564222,-1357.0084587375957
209037,13818,209037,38234,209037,78256,-1705.1022080602497,-673.5742929237747,-1385.3835416190554
209037,13830,209037,38210,209037,78232,-1719.3113627416215,-692.2670999130062,-1413.7875351708128
209037,13787,209037,38175,209037,78194,-1733.6110838899394,-710.9158506677736,-1442.1995741258554
209037,13755,209037,38138,209037,78156,-1747.9956720502332,-729.5033086204365,-1470.5969909240766
209037,13735,209037,38097,209037,78096,-1762.4588660165987,-748.0112746423223,-1498.955582928489
209048,13742,209048,38114,209048,78103,-1776.994179767686,-766.4212204410724,-1527.2501395357642
209048,13734,209048,38124,209048,78127,-1791.5949265303525,-784.7145561966958,-1555.4546896262914
209048,13727,209048,38115,209048,78078,-1806.2539139905127,-802.8723286366904,-1583.5421261347549
209048,13708,209048,38065,209048,78032,-1820.9630941901514,-820.8747832286397,-1611.4837145122237
209048,13667,209048,38029,209048,77977,-1835.7134091685716,-838.7014042920863,-1639.2492124731925
209048,13648,209048,38007,209048,77961,-1850.4949378424483,-856.3314842600209,-1666.807508863948
209058,13656,209058,38053,209058,77967,-1865.2971723994478,-873.7446480122549,-1694.1271411048938
209058,13634,209058,38037,209058,77953,-1880.109072396519,-890.9207582096277,-1721.1762753213873
209058,13634,209058,38009,209058,77942,-1894.9188564266606,-907.8393864462454,-1747.9222857677732
209058,13597,209058,37960,209058,77863,-1909.7137927711665,-924.4796057201169,-1774.3314425296655
209058,13586,209058,37942,209058,77821,-1924.480159411733,-940.8204084414564,-1800.3691659207277
209058,13565,209058,37945,209058,77815,-1939.2033475053527,-956.8413175753269,-1826.0007616401765
209068,13581,209068,37982,209068,77832,-1953.8679124636378,-972.5225865004744,-1851.1919254528773
209068,13538,209068,37953,209068,77831,-1968.457433471303,-987.8448040854161,-1875.9085125787415
209068,13548,209068,37988,209068,77806,-1982.9543256270754,-1002.7882698929203,-1900.1158703880737
209068,13530,209068,37907,209068,77787,-1997.339720590759,-1017.3325813169424,-1923.7783284608743
209068,13500,209068,37897,209068,77745,-2011.5933616655325,-1031.4567166137308,-1946.8590940302402
209068,13502,209068,37899,209068,77732,-2025.6935665421809,-1045.139555797104,-1969.3204507540966
209079,13503,209079,37914,209079,77740,-2039.6172037192464,-1058.3602390285891,-1991.1239786822002
209079,13493,209079,37922,209079,77770,-2053.339470810303,-1071.0979624855017,-2012.2304020107563
209079,13466,209079,37869,209079,77704,-2066.833580720806,-1083.3315705793405,-2032.5990314650917
209079,13437,209079,37861,209079,77680,-2080.0706742214443,-1095.0395219581828,-2052.1874258883363
209079,13419,209079,37890,209079,77623,-2093.020032637264,-1106.2002036686658,-2070.951749925918
209079,13415,209079,37879,209079,77675,-2105.64936694956,-1116.7920052703603,-2088.8474264542256
209089,13426,209089,37910,209089,77716,-2117.9248908605605,-1126.792959323407,-2105.8292109182075
209089,13398,209089,37915,209089,77673,-2129.8111080324693,-1136.1802079870977,-2121.8504117696257
209089,13383,209089,37857,209089,77662,-2141.2705837476087,-1144.9295655996007,-2136.862074031831
209089,13360,209089,37837,209089,77587,-2152.263965220828,-1153.0155908193751,-2150.8129531834243
209089,13338,209089,37827,209089,77593,-2162.750207251075,-1160.4122419611936,-2163.650189875387
209089,13363,209089,37876,209089,77633,-2172.6867818717797,-1167.093454586719,-2175.3199828776324
209099,13345,209099,37918,209099,77632,-2182.029638572501,-1173.0329763827738,-2185.7675759154445
209099,13329,209099,37891,209099,77605,-2190.7329650345746,-1178.2035471906208,-2194.9367281016475
209099,13309,209099,37841,209099,77590,-2198.749099907877,-1182.576295239551,-2202.769469104091
209099,13288,209099,37845,209099,77590,-2206.0287306501764,-1186.1210102020532,-2209.2063472868194
209099,13278,209099,37814,209099,77558,-2212.5212201162567,-1188.806927707847,-2214.1868124740104
209099,13281,209099,37866,209099,77551,-2218.174883374423,-1190.6033260785816,-2217.6496259708997
209110,13286,209110,37893,209110,77578,-2222.9370646034913,-1191.4795639052782,-2219.5332896721256
209110,13265,209110,37894,209110,77563,-2226.7540339515194,-1191.404567554866,-2219.7762594552737
209110,13235,209110,37822,209110,77541,-2229.570991400523,-1190.3464090935418,-2218.3170136481403
209110,13217,209110,37818,209110,77524,-2231.3324242403874,-1188.2727183362413,-2215.0944055577124
209110,13228,209110,37827,209110,77538,-2231.982658019582,-1185.151697320425,-2210.0483243024482
209110,13234,209110,37897,209110,77561,-2231.4661980157243,-1180.9527567369128,-2203.120224744598
209120,13224,209120,37883,209120,77619,-2229.727749690835,-1175.6463017872106,-2194.253170258908
209120,13208,209120,37878,209120,77558,-2226.7122214546116,-1169.2032310478326,-2183.391523791931
209120,13193,209120,37860,209120,77547,-2222.364990791909,-1161.5949243830337,-2170.481003421445
209120,13184,209120,37839,209120,77553,-2216.632405173175,-1152.7938260777853,-2155.469506928319
209120,13176,209120,37875,209120,77568,-2209.462345464444,-1142.774229482773,-2138.3081323867864
209120,13193,209120,37919,209120,77608,-2200.804707852913,-1131.512745979553,-2118.9517731373357
209130,13208,209130,37945,209130,77637,-2190.611672397766,-1118.9881433895168,-2097.3592543065492
209130,13200,209130,37960,209130,77628,-2178.837759818578,-1105.1808399251363,-2073.4932956444923
209130,13183,209130,37896,209130,77610,-2165.439963404993,-1090.0727262451987,-2047.3207856721706
209130,13178,209130,37904,209130,77646,-2150.378226664762,-1073.6477857464756,-2018.813592965976
209130,13212,209130,37958,209130,77670,-2133.6160980977543,-1055.8931655875012,-1987.9494785119846
209130,13202,209130,37985,209130,77732,-2115.121187967346,-1036.799759943667,-1954.7125980220057
209141,13245,209141,37990,209141,77770,-2094.865377643149,-1016.3621176920533,-1919.0935483716257
209141,13245,209141,38002,209141,77769,-2072.8249383792268,-994.5783669252276,-1881.0892905526848
209141,13236,209141,38019,209141,77779,-2048.9807081601075,-971.4505085919405,-1840.7034513174622
209141,13252,209141,38033,209141,77841,-2023.318531767445,-946.9848668278908,-1797.9470987144712
209141,13309,209141,38100,209141,77921,-1995.8298250383796,-921.1924267478825,-1752.8393680783884
209141,13322,209141,38169,209141,77993,-1966.511812472059,-894.0887640244164,-1705.4073937217465
209151,13361,209151,38183,209151,78005,-1935.3674465463048,-865.6934829220263,-1655.6858411632325
209151,13381,209151,38181,209151,78044,-1902.4053670239127,-836.0297269013604,-1603.7167918313198
209151,13402,209151,38193,209151,78093,-1867.640029663521,-805.124376367513,-1549.5502199358875
209151,13436,209151,38263,209151,78174,-1831.0919696429303,-773.0086919852129,-1493.244570393191
209151,13504,209151,38338,209151,78323,-1792.788039342526,-739.7185891469215,-1434.8667926315422
209151,13548,209151,38403,209151,78404,-1752.7613506600187,-705.2941459269142,-1374.4915066074802
209161,13596,209161,38420,209161,78460,-1711.0509412173633,-669.7787683396925,-1312.1997319428758
209161,13667,209161,38442,209161,78529,-1667.7014082534765,-633.2187340761521,-1248.0780682083653
209161,13697,209161,38466,209161,78580,-1622.762571671681,-595.6633804436505,-1182.2185847927833
209161,13759,209161,38542,209161,78707,-1576.2891951508961,-557.165552524112,-1114.7189440011575
209161,13812,209161,38644,209161,78804,-1528.3408223913502,-517.7816421185929,-1045.6821897766379
209161,13898,209161,38693,209161,78909,-1478.9815668435629,-477.5708960168944,-975.2160126982092
209172,13940,209172,38732,209172,78960,-1428.279705257504,-436.5944612719097,-903.4318946855648
209172,13985,209172,38738,209172,79074,-1376.3072753445977,-394.914932554662,-830.4446014519741
209172,14045,209172,38803,209172,79121,-1323.1399485398902,-352.59656960386167,-756.3719948110236
209172,14120,209172,38873,209172,79276,-1268.857046008467,-309.7056383585384,-681.3348636304074
209172,14209,209172,38961,209172,79380,-1213.541327123155,-266.31026657199453,-605.4564316528019
209172,14269,209172,39019,209172,79456,-1157.2784507021665,-222.4797611661159,-528.8614694650331
209182,14326,209182,39051,209182,79543,-1100.1563896455523,-178.28385867313904,-451.6755186290452
209182,14395,209182,39070,209182,79621,-1042.2650855871689,-133.79243471442265,-374.0246023700529
209182,14466,209182,39154,209182,79711,-983.6962739282519,-89.0757208507024,-296.0352001932706
209182,14550,209182,39240,209182,79848,-924.5432294424838,-44.204429540405044,-217.83412212032067
209182,14640,209182,39317,209182,79952,-864.9003019841537,0.7507432615184371,-139.5479850066854
209182,14721,209182,39353,209182,80068,-804.862243325133,45.71997909290701,-61.302288857066515
209193,14760,209193,39370,209193,80133,-744.5235264616097,90.63486364067512,16.77950216742306
209193,14826,209193,39413,209193,80209,-683.9779983540889,135.42824538626405,94.5764632482726
209193,14921,209193,39476,209193,80311,-623.3188367300306,180.03376642121953,171.97027055815602
209193,15001,209193,39565,209193,80427,-562.638340426518,224.3856909202192,248.84525603149154
209193,15068,209193,39668,209193,80548,-502.02738633013814,268.4193936471255,325.0889002633173
209193,15137,209193,39689,209193,80621,-441.5748818124089,312.07233455724963,400.59268835893795
209203,15204,209203,39741,209203,80672,-381.3674242303741,355.2848638739574,475.25277990106656
209203,15257,209203,39743,209203,80768,-321.48911199355643,398.0003598017263,548.9701019248905
209203,15341,209203,39815,209203,80870,-262.0214335574326,440.1648586583558,621.6502001574743
209203,15421,209203,39942,209203,80992,-203.04308590620622,481.726857211494,693.2034811130816
209203,15502,209203,39967,209203,81039,-144.62955191259107,522.6378798957305,763.5458906051454
209203,15541,209203,39986,209203,81123,-86.85256556460263,562.8533612879864,832.5994791029234
209213,15601,209213,40013,209213,81167,-29.77981473899945,602.3328659286781,900.2924883401072
209213,15658,209213,39998,209213,81248,26.52502973926994,641.0395234870173,966.559113484675
209213,15743,209213,40158,209213,81350,82.00225641378893,678.9393443681595,1031.3393135433275
209213,15799,209213,40190,209213,81457,136.5962960903671,716.0012608561392,1094.5790485523903
209213,15850,209213,40254,209213,81499,190.25604403859234,752.1980244139397,1156.230947527265
209213,15904,209213,40240,209213,81536,242.93504403367933,787.5070089964734,1216.2547957363413
209224,15940,209224,40238,209224,81601,294.5914509041286,821.9101421241053,1274.6173834528672
209224,15980,209224,40283,209224,81640,345.1878236919538,855.3931101619739,1331.292004863692
209224,16047,209224,40374,209224,81746,394.6908337649015,887.9446458649816,1386.2581040343143
209224,16102,209224,40431,209224,81820,443.07110969064433,919.5566595804141,1439.5013541508038
209224,16162,209224,40440,209224,81860,490.3033535283266,950.2249918678797,1491.0141241663614
209224,16187,209224,40446,209224,81859,536.366543315125,979.9498568870692,1540.7957444188637
209234,16234,209234,40445,209234,81905,581.2439513966856,1008.7355132570779,1588.8520554265347
209234,16265,209234,40491,209234,81979,624.9229367932339,1036.5895104668755,1635.1946122596178
209234,16320,209234,40569,209234,82021,667.3946882176956,1063.522204845679,1679.840276900688
209234,16363,209234,40581,209234,82079,708.6540881595288,1089.5469394826289,1722.8112771582169
209234,16395,209234,40603,209234,82082,748.6997023782296,1114.6804951635393,1764.135272213522
209234,16417,209234,40579,209234,82113,787.5337148719038,1138.9431116876174,1803.8450760110195
209244,16444,209244,40567,209244,82121,825.1616485048191,1162.3578422513576,1841.978011300247
209244,16480,209244,40615,209244,82157,861.5919481374581,1184.9495438139948,1878.5751138685064
209244,16545,209244,40690,209244,82221,896.8356912010793,1206.7442292277165,1913.6805075449597
209244,16574,209244,40684,209244,82227,930.9066278272207,1227.769233651643,1947.3411490114731
209244,16589,209244,40692,209244,82233,963.8213741195491,1248.0536176527035,1979.6066718499333
209244,16589,209244,40685,209244,82229,995.5993149373865,1267.628035074561,2010.5288365559973
209255,16605,209255,40669,209255,82246,1026.262051743332,1286.5240546208618,2040.1605748089623
209255,16657,209255,40720,209255,82289,1055.8327207211264,1304.7733348678794,2068.5550614404287
209255,16691,209255,40755,209255,82337,1084.3356459358224,1322.4071292952087,2095.765223221886
209255,16717,209255,40789,209255,82349,1111.7964016782907,1339.4563914971443,2121.84372121386
209255,16715,209255,40765,209255,82362,1138.2418926393589,1355.9521051790682,2146.8429961822253
209255,16733,209255,40735,209255,82340,1163.7001111103923,1371.9251458281665,2170.81494433293
209265,16751,209265,40773,209265,82377,1188.1996472524038,1387.405505093265,2193.810195371197
209265,16787,209265,40803,209265,82440,1211.7692672412568,1402.4215224507966,2215.8774647689756
209265,16823,209265,40806,209265,82461,1234.4377728908908,1416.9996736491296,2237.0634987096923
209265,16844,209265,40861,209265,82480,1256.2341195730264,1431.164702530565,2257.4134280069698
209265,16830,209265,40813,209265,82457,1277.187516283348,1444.9397250372797,2276.9708697559363
209265,16850,209265,40812,209265,82457,1297.3271932490893,1458.3460050928948,2295.7774514682515
209275,16861,209275,40826,209275,82504,1316.6819069737585,1471.4022700769087,2313.87203151508
209275,16901,209275,40883,209275,82546,1335.279556173653,1484.1240893563886,2331.29024999154
209275,16924,209275,40938,209275,82563,1353.147118154332,1496.5239628663817,2348.0646839804895
209275,16947,209275,40941,209275,82568,1370.3108197371248,1508.6120382878482,2364.2251648976767
209275,16943,209275,40911,209275,82558,1386.796286880554,1520.3967056153647,2379.798740818831
209275,16954,209275,40916,209275,82574,1402.6284495454697,1531.8844454782022,2394.8092322361963
209286,16965,209286,40956,209286,82610,1417.8312272914745,1543.0792162900411,2409.2767284577403
209286,17001,209286,41021,209286,82673,1432.4272497967686,1553.9822380799876,2423.217489342762
209286,17029,209286,41046,209286,82691,1446.4378503359262,1564.5925492911579,2436.6444156497937
209286,17016,209286,41021,209286,82714,1459.8832647083473,1574.9078062901485,2449.5677252242795
209286,17037,209286,41022,209286,82712,1472.782690901136,1584.9245282687014,2461.9953489135555
209286,17041,209286,41029,209286,82731,1485.154095510216,1594.6376945209247,2473.932934572339
209296,17073,209296,41078,209296,82751,1497.0140212951428,1604.0403154941594,2485.38368556108
209296,17097,209296,41136,209296,82797,1508.3776077848684,1613.1235545404193,2496.348339140391
209296,17116,209296,41159,209296,82819,1519.2588244057697,1621.8774734475974,2506.8254546534117
209296,17102,209296,41111,209296,82805,1529.6707072034674,1630.2918232472264,2516.8118171959027
209296,17116,209296,41086,209296,82801,1539.6253315804265,1638.3560508907808,2526.3025075559294
209296,17126,209296,41121,209296,82816,1549.1335611086915,1646.0584978436304,2535.290529250181
209306,17154,209306,41175,209306,82865,1558.204877616818,1653.3857684011828,2543.766456253413
209306,17168,209306,41215,209306,82885,1566.8474541049968,1660.3230067681973,2551.718552943009
209306,17185,209306,41229,209306,82898,1575.0683770965338,1666.8547838235245,2559.1332491902817
209306,17180,209306,41200,209306,82887,1582.8738299596307,1672.9658047939986,2565.9954893327968
209306,17193,209306,41173,209306,82898,1590.2691074565187,1678.64089597417,2572.28869845417
209306,17190,209306,41182,209306,82929,1597.258485610404,1683.8643337230571,2577.9945789513013
209317,17212,209317,41230,209317,82932,1603.845072196868,1688.619182039597,2583.093090056243
209317,17257,209317,41262,209317,82990,1610.030825934335,1692.8872949172007,2587.562703998557
209317,17256,209317,41281,209317,83001,1615.8168920092962,1696.649947600014,2591.380898981531
209317,17228,209317,41232,209317,82973,1621.2039725787495,1699.8884355677737,2594.5246953881738
209317,17242,209317,41222,209317,82969,1626.1922546188093,1702.584010451202,2596.9707644173245
209317,17266,209317,41258,209317,83009,1630.7810570002462,1704.717278954483,2598.6950997755102
209327,17281,209327,41293,209327,83027,1634.9687512911382,1706.267887025954,2599.672904820059
209327,17289,209327,41320,209327,83048,1638.7530150032012,1707.2149351247629,2599.878981276673
209327,17284,209327,41335,209327,83046,1642.1310712828758,1707.5377629934449,2599.2882580871183
209327,17297,209327,41296,209327,83030,1645.0997350145376,1707.2165359399064,2597.8760787157917
209327,17293,209327,41290,209327,83068,1647.6553504261183,1706.232269021697,2595.618211297822
209327,17301,209327,41316,209327,83065,1649.7937275630065,1704.5664354812502,2592.490890030563
209337,17326,209337,41382,209337,83103,1651.5101364424672,1702.200876443764,2588.4711314387414
209337,17347,209337,41380,209337,83078,1652.7994885466223,1699.1184657888068,2583.5371947376875
209337,17346,209337,41347,209337,83073,1653.6567240227896,1695.303996514505,2577.668877406123
209337,17330,209337,41312,209337,83053,1654.077117388972,1690.7443987050183,2570.847456440223
209337,17344,209337,41311,209337,83045,1654.0562712062474,1685.4281884044588,2563.0553791540724
209337,17349,209337,41332,209337,83094,1653.589980009484,1679.3448480301893,2554.2760501911225
209348,17363,209348,41356,209348,83119,1652.6742520116873,1672.4847498650834,2544.4941281549854
209348,17384,209348,41358,209348,83105,1651.3055352678539,1664.8396229700525,2533.696340487017
209348,17369,209348,41355,209348,83072,1649.4810391486362,1656.4031408660765,2521.8721715132315
209348,17358,209348,41306,209348,83056,1647.1989266071973,1647.1712032417558,2509.013912082278
209348,17347,209348,41295,209348,83058,1644.4581911504029,1637.1417155866025,2495.1163220734593
209348,17370,209348,41318,209348,83099,1641.258388571348,1626.3141279430406,2480.1765252829646
209358,17403,209358,41353,209358,83100,1637.599638343711,1614.6893784125623,2464.1944910072857
209358,17395,209358,41344,209358,83064,1633.4830586166322,1602.2704984440009,2447.1738049247415
209358,17373,209358,41306,209358,83026,1628.9112523234571,1589.0633273912968,2429.122037156191
209358,17372,209358,41268,209358,83005,1623.888389031175,1575.0766501942999,2410.050468585431
209358,17368,209358,41279,209358,82994,1618.41998363418,1560.3217762032073,2389.9736042228164
209358,17377,209358,41303,209358,83010,1612.512750197437,1544.812242879051,2368.9089710849794
209368,17385,209368,41306,209368,82988,1606.1746785070554,1528.564143862032,2346.8773458295314
209368,17382,209368,41286,209368,82979,1599.4152703786376,1511.5968199045512,2323.9031768231785
209368,17354,209368,41220,209368,82925,1592.2457371416758,1493.9332443127355,2300.0148296242896
209368,17355,209368,41190,209368,82880,1584.678951575077,1475.599709663707,2275.244422357353
209368,17339,209368,41221,209368,82895,1576.7292186935601,1456.6251651584566,2249.6273674365875
209368,17346,209368,41193,209368,82869,1568.4120956775464,1437.0409687275474,2223.2021164355237
209379,17328,209379,41175,209379,82843,1559.7443373903438,1416.8811419970716,2196.0103113523683
209379,17315,209379,41124,209379,82793,1550.7438617505281,1396.1825098637742,2168.0969200914287
209379,17303,209379,41065,209379,82704,1541.4296170460088,1374.9843431168138,2139.509913640716
209379,17270,209379,41012,209379,82678,1531.8213303778602,1353.327527201795,2110.2994045683245
209379,17296,209379,41025,209379,82661,1521.9392175756534,1331.253585730179,2080.5166682500226
209379,17296,209379,41026,209379,82635,1511.803890726515,1308.804170605418,2050.2136401878174
209389,17296,209389,40991,209389,82622,1501.4366124217884,1286.0212299161647,2019.4429262148944
209389,17248,209389,40976,209389,82581,1490.859580354891,1262.947338221632,1988.2579697548701
209389,17226,209389,40883,209389,82515,1480.0957923178837,1239.6256414628772,1956.7130607523682
209389,17211,209389,40861,209389,82489,1469.1685070725312,1216.0992511999157,1924.8629841950094
209389,17228,209389,40871,209389,82446,1458.1007597431471,1192.410428790066,1892.7624663440274
209389,17203,209389,40876,209389,82437,1446.9152547810254,1168.600296773825,1860.4657892673715
209399,17187,209399,40847,209399,82379,1435.634439459551,1144.709252163702,1828.0266569016874
209399,17195,209399,40754,209399,82344,1424.2804657527838,1120.7773214061108,1795.4980741113372
209399,17150,209399,40699,209399,82281,1412.8750763001735,1096.8436887157418,1762.9320063020032
209399,17152,209399,40725,209399,82282,1401.4394380287438,1072.9456352879606,1730.3788967993173
