c_ts,c_val,d_ts,d_val,e_ts,e_val,c_val_filtered,d_val_filtered,e_val_filtered
242007,13661,242007,35507,242007,52790,-393.5520793621848,-240.7398999663289,-537.0650512032399
242007,13657,242007,35550,242007,52809,-402.97919754486907,-242.41845313329873,-545.7665747017903
242007,13666,242007,35560,242007,52816,-412.6566551741403,-244.23943025330698,-554.6850004707774
242007,13645,242007,35569,242007,52789,-422.5789686401535,-246.2107783371931,-563.8199618608403
242018,13627,242018,35521,242018,52778,-432.7398816009439,-248.33835498177854,-573.1700153774667
242018,13608,242018,35484,242018,52750,-443.1325060452499,-250.62610604304203,-582.732845037407
242018,13581,242018,35480,242018,52733,-453.74966039021564,-253.07684962549303,-592.5056808067898
242018,13601,242018,35521,242018,52751,-464.58421865042544,-255.69302675635103,-602.4856964386427
242018,13602,242018,35547,242018,52770,-475.6292098471096,-258.47673867648143,-612.6700872842057
242018,13592,242018,35553,242018,52740,-486.8775828907128,-261.4291050705108,-623.0557532902358
242028,13565,242028,35506,242028,52734,-498.3219548873659,-264.54963730847714,-633.6390061840007
242028,13551,242028,35492,242028,52686,-509.9546567752466,-267.8362418777976,-644.4156773587849
242028,13542,242028,35496,242028,52716,-521.767991533129,-271.28575081195015,-655.3815051545696
242028,13541,242028,35529,242028,52711,-533.7544320048711,-274.89431135249333,-666.5323706125112
242028,13538,242028,35522,242028,52720,-545.9066209735057,-278.6572382939372,-677.8641268499354
242028,13522,242028,35470,242028,52705,-558.2172445577866,-282.5687116181001,-689.372236703322
242038,13487,242038,35447,242038,52656,-570.6789936834273,-286.621989419596,-701.0516235188525
242038,13482,242038,35426,242038,52642,-583.2847717147818,-290.8101889230595,-712.8969699885236
242038,13490,242038,35464,242038,52687,-596.0279683700372,-295.1270205913033,-724.9031879425629
242038,13487,242038,35486,242038,52682,-608.9024621862197,-299.56690485031385,-737.0654056053968
242038,13482,242038,35496,242038,52675,-621.9023497236308,-304.12444734770673,-749.3784279574849
242038,13462,242038,35467,242038,52650,-635.0216850300337,-308.79379909597,-761.836303787124
242049,13438,242049,35440,242049,52614,-648.2544319296372,-313.5684804638117,-774.4323658965689
242049,13430,242049,35414,242049,52580,-661.5946333767849,-318.4417865820287,-787.1596879894212
242049,13431,242049,35450,242049,52632,-675.0366037907496,-323.40737164925554,-800.0116306063178
242049,13423,242049,35477,242049,52623,-688.5749320717393,-328.45939713871616,-812.9819117097848
242049,13423,242049,35474,242049,52607,-702.2043076235647,-333.59204578532103,-826.06414344317
242049,13402,242049,35425,242049,52575,-715.9193253852042,-338.79897425725414,-839.2514950002544
242059,13368,242059,35390,242059,52528,-729.7144420602963,-344.07341907559305,-852.5369169125821
242059,13355,242059,35386,242059,52533,-743.5842010940692,-349.40894384271326,-865.9137529317932
242059,13351,242059,35443,242059,52568,-757.5235788422682,-354.8000731440195,-879.3761933239732
242059,13362,242059,35425,242059,52574,-771.5281181910373,-360.2421859724069,-892.9190638565094
242059,13358,242059,35446,242059,52571,-785.5937162228167,-365.73091574514103,-906.5371105398492
242059,13328,242059,35406,242059,52532,-799.7162866585427,-371.2617107279761,-920.2244319340124
242069,13307,242069,35398,242069,52497,-813.8916554088203,-376.82983226122127,-933.9744760801191
242069,13304,242069,35405,242069,52504,-828.1157521017044,-382.4306391565632,-947.780486895251
242069,13316,242069,35428,242069,52542,-842.3847557120396,-388.05974355327055,-961.6358072883747
242069,13314,242069,35440,242069,52545,-856.6949070546893,-393.7127408962315,-975.5335312599152
242069,13278,242069,35433,242069,52521,-871.0421562344823,-399.3846861958636,-989.4657682853134
242069,13265,242069,35372,242069,52475,-885.4220499196329,-405.0698064563378,-1003.4232588680625
242080,13253,242080,35349,242080,52453,-899.8299253523746,-410.76186024748176,-1017.3956673376982
242080,13250,242080,35376,242080,52459,-914.2611016098966,-416.45491996938654,-1031.3721798245635
242080,13252,242080,35415,242080,52476,-928.7108577967997,-422.14373918480953,-1045.3417945518513
242080,13247,242080,35420,242080,52460,-943.1742205802146,-427.8232862977365,-1059.2931003940998
242080,13230,242080,35403,242080,52438,-957.6456968104658,-433.48797091718603,-1073.2139265396631
242080,13191,242080,35353,242080,52414,-972.1191739983842,-439.1313300641275,-1087.0913007498084
242090,13180,242090,35336,242090,52405,-986.5881345337348,-444.74643344048735,-1100.9117125592966
242090,13192,242090,35377,242090,52409,-1001.0459753960547,-450.3265526283453,-1114.661370181655
242090,13202,242090,35381,242090,52416,-1015.4860085843558,-455.86534768539605,-1128.326194539421
242090,13202,242090,35398,242090,52398,-1029.9010372450816,-461.3564236196019,-1141.8915670532062
242090,13163,242090,35349,242090,52380,-1044.2828740102063,-466.79282966269363,-1155.3421109178514
242090,13133,242090,35324,242090,52340,-1058.6222490228192,-472.16707021653826,-1168.661773468881
242100,13112,242100,35328,242100,52361,-1072.909186839314,-477.4716357912161,-1181.834163587662
242100,13134,242100,35352,242100,52356,-1087.1334518069298,-482.69947741180135,-1194.84277027192
242100,13141,242100,35381,242100,52397,-1101.2845745179138,-487.84389856528776,-1207.6707411269713
242100,13127,242100,35393,242100,52373,-1115.3514313373503,-492.8979175324677,-1220.300292142719
242100,13094,242100,35336,242100,52336,-1129.3218508948862,-497.85362851709374,-1232.7122046416794
242100,13088,242100,35316,242100,52323,-1143.1826121712588,-502.7021749894255,-1244.8858551940405
242111,13075,242111,35318,242111,52320,-1156.9196726752693,-507.43434764131973,-1256.799629364151
242111,13072,242111,35375,242111,52351,-1170.5183053644193,-512.041040244882,-1268.431139143662
242111,13079,242111,35364,242111,52338,-1183.9630435741565,-516.5129748064062,-1279.7569735881634
242111,13062,242111,35354,242111,52343,-1197.2374789525384,-520.8400585561637,-1290.7522363460082
242111,13034,242111,35302,242111,52276,-1210.3240930114478,-525.0111582803561,-1301.3903322456636
242111,13019,242111,35305,242111,52276,-1223.2043474569246,-529.0145351683104,-1311.643280995334
242121,13033,242121,35304,242121,52283,-1235.858924581836,-532.8384872173232,-1321.4823038607462
242121,13023,242121,35347,242121,52289,-1248.267768213866,-536.4716106656339,-1330.878101387612
242121,13034,242121,35360,242121,52303,-1260.4098489402472,-539.9024602426337,-1339.8006551248732
242121,13000,242121,35337,242121,52276,-1272.262889009224,-543.1189182362914,-1348.2188821373795
242121,12979,242121,35288,242121,52254,-1283.8033147196254,-546.1079304602217,-1356.1005237376812
242121,12970,242121,35286,242121,52246,-1295.0065139184665,-548.8559555686808,-1363.412417171895
242131,12982,242131,35330,242131,52236,-1305.847128186526,-551.3496161361916,-1370.120930712338
242131,12978,242131,35353,242131,52256,-1316.2990587321929,-553.5757404228901,-1376.192245498233
242131,12961,242131,35352,242131,52241,-1326.3352616885868,-555.5207446636149,-1381.592386043431
242131,12944,242131,35293,242131,52219,-1335.9276614989935,-557.1701232990902,-1386.2871927536407
242131,12917,242131,35273,242131,52192,-1345.0473431371447,-558.5087073225664,-1390.2425694366807
242131,12908,242131,35265,242131,52191,-1353.664941093093,-559.5215333566389,-1393.4250494016771
242142,12908,242142,35313,242142,52203,-1361.7510277283725,-560.1945569520273,-1395.8023372080036
242142,12921,242142,35313,242142,52210,-1369.2762813579511,-560.514676321467,-1397.3435195317093
242142,12913,242142,35307,242142,52225,-1376.2113742944769,-560.4693118292649,-1398.0189684480765
242142,12894,242142,35299,242142,52199,-1382.526804409868,-560.0461548476834,-1397.8001931149115
242142,12879,242142,35271,242142,52202,-1388.1929585288542,-559.2333332812169,-1396.659909966384
242142,12866,242142,35258,242142,52217,-1393.1804369368194,-558.0198909437959,-1394.5723262629685
242152,12898,242152,35313,242152,52222,-1397.4603748466761,-556.3962917737665,-1391.5133403873654
242152,12890,242152,35343,242152,52234,-1401.0044683307055,-554.354421044709,-1387.4605423386374
242152,12875,242152,35324,242152,52234,-1403.7847906431866,-551.8869948355128,-1382.3931791202422
242152,12859,242152,35281,242152,52220,-1405.7738086373529,-548.9871510847777,-1376.2922496629944
242152,12845,242152,35269,242152,52212,-1406.9447458832617,-545.6488457701212,-1369.1408432760659
242152,12862,242152,35325,242152,52236,-1407.272042428861,-541.8676132588789,-1360.9246514008182
242162,12870,242162,35338,242162,52267,-1406.7316064804459,-537.6407945105146,-1351.6323051249392
242162,12884,242162,35378,242162,52279,-1405.3007637077112,-532.9670450650383,-1341.2553203493892
242162,12890,242162,35350,242162,52293,-1402.9580567277328,-527.8456854986449,-1329.787871555573
242162,12860,242162,35326,242162,52275,-1399.6831484637921,-522.2764913908507,-1317.2267587124368
242162,12854,242162,35297,242162,52300,-1395.4570648204976,-516.2601697177149,-1303.5716970242079
242162,12875,242162,35385,242162,52356,-1390.2627085193194,-509.7991007381851,-1288.8256422463296
242173,12900,242173,35417,242173,52368,-1384.0851934101083,-502.89742657482475,-1272.9947225429198
242173,12907,242173,35441,242173,52419,-1376.911765052509,-495.5602354687367,-1256.0878233306973
242173,12920,242173,35381,242173,52399,-1368.7315711272545,-487.79273808589016,-1238.116231676311
242173,12895,242173,35349,242173,52380,-1359.5356240949766,-479.6003949561527,-1219.0937082734038
242173,12908,242173,35389,242173,52424,-1349.3170920377997,-470.989883568115,-1199.0370938831893
242173,12940,242173,35413,242173,52510,-1338.0717257132014,-461.9698849781257,-1177.966838618895
242183,12966,242183,35462,242183,52536,-1325.798011217577,-452.5510319984952,-1155.9067168861638
242183,12979,242183,35482,242183,52571,-1312.496969465114,-442.7452817632028,-1132.8830207529297
242183,12987,242183,35465,242183,52584,-1298.171946558526,-432.56529111372765,-1108.9240182063331
242183,12989,242183,35463,242183,52582,-1282.8286580982272,-422.02425582947313,-1084.0599425770745
242183,13026,242183,35481,242183,52650,-1266.4754225569445,-411.13623352986184,-1058.323307815517
242183,13068,242183,35562,242183,52713,-1249.123273898972,-399.91636496269865,-1031.7490386562145
242193,13082,242193,35541,242193,52742,-1230.78575686814,-388.38051359951305,-1004.3740543903457
242193,13103,242193,35547,242193,52774,-1211.478635287181,-376.5447298151742,-976.2366734294695
242193,13124,242193,35534,242193,52781,-1191.2198043423152,-364.4252332740866,-947.3763818448158
242193,13130,242193,35540,242193,52796,-1170.0293962198155,-352.03889074005417,-917.8340617760787
242193,13174,242193,35597,242193,52871,-1147.9299611328925,-339.4036646349425,-887.652405221121
242193,13224,242193,35600,242193,52935,-1124.946526779049,-326.5386351439836,-856.875985706705
242204,13254,242204,35654,242204,52986,-1101.106339191681,-313.46362968580024,-825.5507233685912
242204,13270,242204,35704,242204,53037,-1076.438472378191,-300.1986594790918,-793.7231062662538
242204,13300,242204,35657,242204,53034,-1050.9736681056443,-286.7633062531584,-761.4396642823815
242204,13342,242204,35658,242204,53081,-1024.7443846520316,-273.17654819747594,-728.7469227817904
242204,13375,242204,35732,242204,53144,-997.78477627349,-259.4571621279094,-695.6916159574588
242204,13436,242204,35748,242204,53212,-970.1304829321705,-245.6238674799235,-662.3206038518347
242214,13476,242214,35747,242214,53236,-941.8182433419342,-231.6948998650597,-628.6803599941619
242214,13485,242214,35716,242214,53219,-912.8854718370981,-217.687802832977,-594.8166170353317
242214,13508,242214,35725,242214,53258,-883.3701257151201,-203.6199128189167,-560.7747011082623
242214,13535,242214,35756,242214,53326,-853.3109609989261,-189.5090975543647,-526.6002053436594
242214,13595,242214,35812,242214,53391,-822.7478313497936,-175.3740593052844,-492.3391814556395
242214,13661,242214,35860,242214,53456,-791.7216261475321,-161.2339230803571,-458.0376374455834
242224,13687,242224,35869,242224,53481,-760.2737958494802,-147.10740669181985,-423.74080740966986
242224,13727,242224,35843,242224,53503,-728.4458397141995,-133.01222773965316,-389.4927181278201
242224,13751,242224,35854,242224,53547,-696.2790965553473,-118.96520630042744,-355.3362270315231
242224,13796,242224,35864,242224,53604,-663.8147764675502,-104.98282596904403,-321.3132144193846
242224,13849,242224,35944,242224,53691,-631.0939792156943,-91.08157273216426,-287.46444485734446
242224,13905,242224,35980,242224,53747,-598.1574975995962,-77.27757758460291,-253.828914269164
242235,13926,242235,35978,242235,53753,-565.0454408863362,-63.58577282263923,-220.4430294775766
242235,13950,242235,35972,242235,53760,-531.7969987575268,-50.019330509650956,-187.3402908090468
242235,13982,242235,35930,242235,53781,-498.4505549349815,-36.589878444125475,-154.55172752021258
242235,14034,242235,35986,242235,53827,-465.04394076564415,-23.308250352215623,-122.10661544795539
242235,14087,242235,36003,242235,53910,-431.6144774113152,-10.185063640937926,-90.032830297994
242235,14143,242235,36044,242235,53952,-398.1986920832361,2.7693309847091427,-58.35655431648206
242245,14166,242245,36040,242245,53964,-364.83188722030206,15.545255186699649,-27.101683516177445
242245,14195,242245,36063,242245,53978,-331.547879149677,28.133978583947794,3.710391494842497
242245,14220,242245,36026,242245,53999,-298.3790690039074,40.52766625646041,34.06042746550361
242245,14286,242245,36082,242245,54069,-265.35664849222974,52.719047019034804,63.930839155530066
242245,14335,242245,36158,242245,54115,-232.51057115260267,64.7012803209019,93.30561358672662
242245,14350,242245,36136,242245,54162,-199.86924759386568,76.46849151085951,122.17070334669415
242256,14388,242256,36106,242256,54158,-167.45934623594587,88.01637869162369,150.5144603209692
242256,14407,242256,36072,242256,54160,-135.3059070658204,99.34191389805352,178.3276023591127
242256,14433,242256,36104,242256,54204,-103.4326177827918,110.44230266649765,205.60267076189848
242256,14501,242256,36172,242256,54253,-71.86205318780321,121.31424634403277,232.33351721128724
242256,14543,242256,36231,242256,54291,-40.615640265575394,131.95423780022782,258.5152818047304
242256,14571,242256,36218,242256,54319,-9.713323937647601,142.35960935147142,284.1446924092854
242266,14598,242266,36205,242266,54331,20.826700918842107,152.52932114614202,309.22026051772855
242266,14627,242266,36165,242266,54361,50.98796922783936,162.4638283361562,333.7422017016647
242266,14656,242266,36212,242266,54380,80.7555754548689,172.1643124159886,357.71220011707715
242266,14700,242266,36268,242266,54437,110.11603398396528,181.632169183112,381.1332477683195
242266,14746,242266,36265,242266,54482,139.0572920451341,190.86929564531994,404.0097649037259
242266,14776,242266,36267,242266,54449,167.56892599148546,199.87867597349418,426.34789217099456
242276,14771,242276,36234,242276,54450,195.6422966890973,208.66447718765528,448.15537763624
242276,14810,242276,36246,242276,54468,223.27037699580296,217.23156139059557,469.4408237273924
242276,14846,242276,36278,242276,54524,250.4473932776939,225.5849061852927,490.2129232417833
242276,14879,242276,36282,242276,54571,277.16866975480707,233.72941072466938,510.4803256730934
242276,14909,242276,36312,242276,54608,303.4307062279702,241.67007104925858,530.2520951347688
242276,14930,242276,36300,242276,54615,329.23125661813947,249.41220076164922,549.5382759345423
242287,14950,242287,36261,242287,54615,354.56928094399314,256.96139331985705,568.3501000524623
242287,14969,242287,36299,242287,54632,379.44476272340853,264.32307197962075,586.6997248974253
242287,15006,242287,36364,242287,54675,403.85847886171734,271.50210885618424,604.5998288292951
242287,15071,242287,36399,242287,54702,427.8119486926918,278.5032394485403,622.0634890443403
242287,15080,242287,36380,242287,54725,451.30772000375987,285.3320275963067,639.1043758252933
242287,15082,242287,36344,242287,54705,474.34968641928833,291.99537492288607,655.736892398415
242297,15088,242297,36321,242297,54697,496.94295441985287,298.50108079559834,671.97587950351
242297,15108,242297,36312,242297,54708,519.09330440188,304.85683709293437,687.8358821981963
242297,15152,242297,36367,242297,54796,540.8067070322691,311.0693820314127,703.3305288819618
242297,15184,242297,36409,242297,54827,562.0892124468878,317.1443915985611,718.4726716944654
242297,15223,242297,36427,242297,54827,582.9471837763474,323.0871387339355,733.2751279787299
242297,15225,242297,36389,242297,54822,603.3876036299139,328.90323807865366,747.7511420767748
242307,15238,242307,36376,242307,54838,623.4181538252094,334.59872531934934,761.914178490847
242307,15258,242307,36410,242307,54830,643.0469952897063,340.1795377285638,775.7774203763483
242307,15285,242307,36440,242307,54907,662.2824806214123,345.65117281928735,789.3534080413363
242307,15319,242307,36459,242307,54924,681.1330499950209,351.0189559785754,802.6541226175095
242307,15342,242307,36426,242307,54920,699.6073384832014,356.28850001762646,815.6914315296674
242307,15353,242307,36423,242307,54924,717.7143386994635,361.4657372080136,828.4773004063409
242318,15356,242318,36402,242318,54913,735.463399926942,366.5564325578665,841.0234796368409
242318,15388,242318,36441,242318,54938,752.8640128558632,371.5655970530047,853.3409566121834
242318,15416,242318,36485,242318,54985,769.9256164102662,376.4973187565738,865.43959219099
242318,15434,242318,36508,242318,55019,786.6576267128273,381.3552382650274,877.3282486498772
242318,15447,242318,36469,242318,55007,803.0695563474051,386.14324138171173,889.0152550015393
242318,15451,242318,36467,242318,55020,819.1709908930029,390.8656342771484,900.5086508502243
242328,15464,242328,36445,242328,55016,834.9713718352057,395.5266674456037,911.815985909815
242328,15494,242328,36489,242328,55059,850.4797272138119,400.12993853896194,922.9439886073801
242328,15523,242328,36528,242328,55110,865.7045743425913,404.67825273170774,933.8985406591974
242328,15550,242328,36535,242328,55115,880.6540813359029,409.17409430668613,944.6851132330148
242328,15550,242328,36484,242328,55071,895.3363111077208,413.6201568948261,955.3091808398017
242328,15540,242328,36481,242328,55089,909.7592379541952,418.01920779626016,965.7759712631514
242338,15551,242338,36470,242338,55110,923.9303887341107,422.3733530826969,976.0897780138137
242338,15594,242338,36524,242338,55120,937.8563836245787,426.6834197966499,986.2535434531521
242338,15614,242338,36557,242338,55174,951.5428173889716,430.9489975442742,996.2688864975714
242338,15631,242338,36552,242338,55218,964.9944951165339,435.1690564849604,1006.1364877945973
242338,15648,242338,36541,242338,55171,978.2156741776462,439.34250223302854,1015.8566663740789
242338,15648,242338,36518,242338,55174,991.2101220129955,443.46815974873937,1025.4295386140589
242349,15672,242349,36550,242349,55199,1003.9810220029017,447.544350176694,1034.8545348828322
242349,15693,242349,36580,242349,55243,1016.5308628902417,451.5686394578669,1044.1299882341882
242349,15713,242349,36603,242349,55255,1028.8614634391404,455.53811697161143,1053.2533051595751
242349,15716,242349,36593,242349,55250,1040.9740857089341,459.449949297456,1062.2213582347063
242349,15724,242349,36537,242349,55267,1052.8694405890917,463.3015858837956,1071.030600888806
242349,15721,242349,36534,242349,55256,1064.5474985404267,467.09024030513376,1079.6768821406692
242359,15755,242359,36587,242359,55284,1076.0072148081722,470.8120762262099,1088.1551840318384
242359,15782,242359,36615,242359,55320,1087.2464200569996,474.46200277407354,1096.4595004608125
242359,15815,242359,36657,242359,55346,1098.2620444363367,478.0343141972726,1104.5830579346045
242359,15828,242359,36620,242359,55349,1109.050549678369,481.5235425733547,1112.5187711772808
242359,15818,242359,36590,242359,55330,1119.6082516050212,484.9247688964714,1120.2594966926195
242359,15819,242359,36570,242359,55345,1129.9312781718816,488.23311749554966,1127.7978396431838
242369,15854,242369,36638,242369,55360,1140.0152643594233,491.44298642345825,1135.1257692717672
242369,15879,242369,36689,242369,55421,1149.8552171194644,494.54797727240316,1142.234522733403
242369,15888,242369,36689,242369,55418,1159.4457306350916,497.54175125485017,1149.1149898563294
242369,15887,242369,36643,242369,55427,1168.7812363595176,500.4189091736512,1155.7582391318645
242369,15903,242369,36631,242369,55401,1177.8560087387964,503.17499290255955,1162.1556732277143
242369,15900,242369,36624,242369,55422,1186.664007751673,505.80577045027667,1168.2987252728474
242380,15929,242380,36661,242380,55454,1195.1987345214993,508.3065919863632,1174.1785090375356
242380,15952,242380,36686,242380,55463,1203.4532297199937,510.672324927982,1179.7858320841526
242380,15966,242380,36705,242380,55508,1211.4202837839105,512.8978277667624,1185.111547896301
242380,15969,242380,36684,242380,55487,1219.0927094171868,514.9785196052801,1190.1469801538776
242380,15978,242380,36671,242380,55492,1226.463454004904,516.91056594443,1194.884148271454
242380,15979,242380,36679,242380,55464,1233.5255359848165,518.6906181340439,1199.3155900875906
242390,16018,242390,36713,242390,55530,1240.2719693303732,520.3155417131126,1203.433972198719
242390,16039,242390,36713,242390,55562,1246.6958989842694,521.7825303999618,1207.232079111035
242390,16042,242390,36729,242390,55549,1252.7909737790858,523.0894844116721,1210.7033737041465
242390,16027,242390,36658,242390,55551,1258.5516211304703,524.2351877472844,1213.8425160527881
242390,16029,242390,36664,242390,55504,1263.9729343187528,525.2189141639137,1216.6452842957244
242390,16044,242390,36683,242390,55554,1269.0503344417248,526.0396925953096,1219.1080555786593
242400,16071,242400,36735,242400,55576,1273.7793977817446,526.6960131994848,1221.2274624259899
242400,16077,242400,36771,242400,55612,1278.1560086148943,527.1863788135353,1223.0006739303635
242400,16082,242400,36716,242400,55598,1282.17663726027,527.5102100976728,1224.4260468815776
242400,16084,242400,36704,242400,55583,1285.8384844681136,527.6682058792596,1225.5035215952546
242400,16078,242400,36687,242400,55581,1289.1394396462672,527.6618794402266,1226.2344973868408
242400,16112,242400,36729,242400,55590,1292.0779805134125,527.4929324853873,1226.621458874383
242411,16124,242411,36769,242411,55634,1294.6532409075576,527.163211476864,1226.667822573854
242411,16121,242411,36748,242411,55631,1296.8652973941612,526.6752928269044,1226.3782202484456
242411,16113,242411,36724,242411,55604,1298.7153772165962,526.0330169168979,1225.7589052263002
242411,16108,242411,36671,242411,55604,1300.2057649791866,525.2413070771663,1224.8177654888295
242411,16106,242411,36692,242411,55572,1301.3395254029267,524.3053745926746,1223.563900832666
242411,16135,242411,36716,242411,55595,1302.1202910032519,523.2300340750821,1222.0071018181427
242421,16144,242421,36750,242421,55603,1302.5523230388646,522.01972603743,1220.157535800597
242421,16144,242421,36753,242421,55629,1302.6408112132997,520.6791392599168,1218.0258218688407
242421,16123,242421,36714,242421,55604,1302.3920841496874,519.2137973515992,1215.6233567515094
242421,16122,242421,36705,242421,55580,1301.81349369708,517.6300811610689,1212.9624481542598
242421,16128,242421,36686,242421,55587,1300.9131185750446,515.934737450784,1210.0560244572055
242421,16140,242421,36730,242421,55620,1299.6996028239514,514.1343998003625,1206.917292743059
242431,16146,242431,36733,242431,55621,1298.182246179719,512.2355768625202,1203.559832458216
242431,16126,242431,36747,242431,55613,1296.3711740797617,510.24507942629305,1199.997988692062
242431,16132,242431,36682,242431,55579,1294.2773502257469,508.17037205030454,1196.247032397237
242431,16119,242431,36663,242431,55551,1291.9124192356737,506.01931073576054,1192.3228138864536
242431,16121,242431,36698,242431,55586,1289.2885287894594,503.799412109502,1188.2411458925853
242431,16112,242431,36745,242431,55621,1286.4181875602126,501.51752811524864,1184.017547086923
242442,16134,242442,36753,242442,55597,1283.3141868745126,499.1804096410318,1179.6676329158686
242442,16125,242442,36703,242442,55566,1279.9896686722545,496.79551531516125,1175.2075420912697
242442,16112,242442,36684,242442,55566,1276.4582604287555,494.37114850223173,1170.6537850419868
242442,16102,242442,36694,242442,55544,1272.7340438878323,491.91591011421696,1166.02274046354
242442,16113,242442,36697,242442,55562,1268.831361214853,489.43820158178147,1161.330258822276
242442,16111,242442,36747,242442,55596,1264.7647131056783,486.9462532864316,1156.5915948995398
242452,16110,242452,36724,242452,55576,1260.5488313628264,484.44859925744413,1151.82173362426
242452,16090,242452,36686,242452,55523,1256.198745360546,481.9545040765567,1147.0356877665022
242452,16066,242452,36623,242452,55536,1251.7296415761716,479.47369817025435,1142.248218580141
242452,16072,242452,36636,242452,55528,1247.1565076104825,477.01538679179265,1137.4732440202
242452,16072,242452,36655,242452,55556,1242.4938111522142,474.5873135440502,1132.7235755821384
242452,16084,242452,36696,242452,55568,1237.7554522054484,472.19560669424203,1128.0111270014472
242463,16098,242463,36717,242463,55553,1232.9549820428388,469.8453999380707,1123.3473394103366
242463,16062,242463,36675,242463,55523,1228.105898204612,467.54163243672116,1118.7434117488447
242463,16057,242463,36660,242463,55513,1223.2217095222709,465.28933988895596,1114.2100648813926
242463,16045,242463,36653,242463,55510,1218.3156735926923,463.0932968388269,1109.7570475030116
242463,16057,242463,36688,242463,55557,1213.4005037553427,460.95758479402235,1105.3928651390597
242463,16057,242463,36699,242463,55571,1208.4883122783867,458.88563847867056,1101.1250617919072
242473,16059,242473,36689,242473,55529,1203.5907589887972,456.8806830692085,1096.960823254215
242473,16022,242473,36635,242473,55509,1198.719172227317,454.94597542138627,1092.9071874684344
242473,16027,242473,36632,242473,55493,1193.8844150952318,453.0844262265503,1088.9705925454177
242473,16026,242473,36653,242473,55494,1189.0965978147542,451.2979288147355,1085.1562357691264
242473,16031,242473,36683,242473,55526,1184.3649515547427,449.58711900718197,1081.4677432454132
242473,16025,242473,36694,242473,55570,1179.697916013824,447.95178249766343,1077.9073949009216
242483,16018,242483,36678,242483,55529,1175.1032441624097,446.391458449991,1074.4767934085858
242483,16014,242483,36647,242483,55508,1170.5880064948037,444.90568279071806,1071.1773131812242
242483,15999,242483,36638,242483,55495,1166.158506683438,443.49368907520477,1068.0098517810493
242483,16004,242483,36676,242483,55511,1161.8201529299904,442.15394133230365,1064.9742803514187
242483,16020,242483,36702,242483,55541,1157.5774001632,440.88411210235165,1062.0692406363648
242483,16024,242483,36707,242483,55561,1153.433914687731,439.68163725970004,1059.2924889428746
242494,16014,242494,36681,242494,55516,1149.3928842370942,438.54431545236577,1056.641445079259
242494,15985,242494,36616,242494,55494,1145.4571576098137,437.47031881325483,1054.1133088672166
242494,15977,242494,36627,242494,55491,1141.6290255794936,436.4574693076322,1051.7045561057432
242494,15988,242494,36666,242494,55544,1137.9098392898313,435.50241825447495,1049.4104313155906
242494,15991,242494,36706,242494,55526,1134.2998364047342,434.6005972744016,1047.225032355971
242494,16015,242494,36703,242494,55565,1130.7983044899938,433.74696505793617,1045.1418130280176
242504,15988,242504,36674,242504,55507,1127.4039075780265,432.93674465627475,1043.1539776855088
242504,15981,242504,36644,242504,55516,1124.1148663071526,432.165489694886,1041.2544543848321
242504,15972,242504,36670,242504,55556,1120.9288277559897,431.4285929909852,1039.4356107148094
242504,15997,242504,36708,242504,55590,1117.8426577587354,430.72096221282317,1037.689350006884
242504,15993,242504,36722,242504,55579,1114.8524815972103,430.03736258972026,1036.0077885179621
242504,16004,242504,36708,242504,55562,1111.9539549572528,429.37310506361575,1034.3838682758565
242514,15993,242514,36684,242514,55539,1109.1425284971992,428.7244061471947,1032.81137562267
242514,15964,242514,36645,242514,55517,1106.4135118892987,428.0881261975347,1031.284462821911
242514,15972,242514,36636,242514,55528,1103.761860579451,427.46105015203347,1029.7970311339686
242514,15989,242514,36706,242514,55554,1101.1819120752357,426.8392511685915,1028.3423620863612
242514,16008,242514,36744,242514,55542,1098.667456433191,426.2182516516143,1026.9131893939493
242514,15981,242514,36721,242514,55531,1096.2121006532548,425.5939736934541,1025.5019162846888
242525,15973,242525,36685,242525,55544,1093.809469818235,424.9634813751587,1024.1006162194647
242525,15975,242525,36655,242525,55531,1091.4530569772403,424.32479056026256,1022.7009103420462
242525,15985,242525,36683,242525,55586,1089.1360316081157,423.6761287599944,1021.2939951175176
242525,15991,242525,36703,242525,55568,1086.8512861431896,423.0154930771926,1019.8709539939698
242525,15988,242525,36701,242525,55592,1084.591647924902,422.34082603862237,1018.4232278974807
242525,15985,242525,36708,242525,55570,1082.3500544470685,421.6504167788514,1016.9429453328394
242535,15968,242535,36639,242535,55541,1080.1195747357249,420.94300754400695,1015.4229241569582
242535,15968,242535,36641,242535,55539,1077.8932710260788,420.21734451086814,1013.8563068287108
242535,15976,242535,36670,242535,55570,1075.6640264310129,419.4714643823436,1012.2361106679704
242535,15994,242535,36708,242535,55573,1073.4245513166493,418.70248379471184,1010.555168922599
242535,15981,242535,36730,242535,55589,1071.1676151595436,417.90717896908967,1008.8064790593482
242535,15982,242535,36706,242535,55561,1068.8862774621289,417.0828153620614,1006.9835517399963
242545,15967,242545,36646,242545,55553,1066.5739216565285,416.2274664933881,1005.0804450051235
242545,15970,242545,36669,242545,55548,1064.224136741405,415.33954073922206,1003.0914838743195
242545,15981,242545,36693,242545,55589,1061.8306188816068,414.4171414845866,1001.0110136356882
242545,15974,242545,36726,242545,55575,1059.3872206720125,413.45807827277065,998.833526993537
242545,15969,242545,36707,242545,55592,1056.8880713669084,412.4604581828213,996.5540357373579
242545,15949,242545,36648,242545,55568,1054.3275679241224,411.42306218043245,994.168324860224
242556,15958,242556,36634,242556,55529,1051.7002006261785,410.3449337890611,991.672872746717
242556,15964,242556,36660,242556,55535,1049.0004077368608,409.2245261800614,989.0643869743105
242556,15965,242556,36700,242556,55587,1046.2226334110007,408.0593204161232,986.3393504706904
242556,15979,242556,36717,242556,55580,1043.3615424899724,406.84628119420285,983.4941670372724
242556,15976,242556,36706,242556,55561,1040.4122830778108,405.58265637775963,980.5257019550186
242556,15947,242556,36672,242556,55551,1037.3706736189758,404.26642020176087,977.4314953168739
242566,15937,242566,36660,242566,55557,1034.2331102361386,402.89607893698286,974.2095550929178
242566,15944,242566,36696,242566,55563,1030.9962389846705,401.47020132446943,970.8581772482291
242566,15960,242566,36698,242566,55602,1027.656773600347,399.9872951125179,967.3760803451651
242566,15965,242566,36720,242566,55575,1024.2116753862088,398.4461653318736,963.7628263496188
242566,15938,242566,36712,242566,55557,1020.658468685505,396.84639615533706,960.0191634076602
242566,15924,242566,36654,242566,55516,1016.9953014573395,395.1885556788715,956.1468656217728
242576,15913,242576,36626,242576,55528,1013.2206619893085,393.4737876986803,952.1481406328882
242576,15932,242576,36701,242576,55536,1009.3330614362544,391.70304748207496,948.0251230267621
242576,15935,242576,36706,242576,55545,1005.3310080534567,389.87693062353554,943.7798177659058
242576,15931,242576,36714,242576,55543,1001.2132569810657,387.99633577758823,939.4143681075369
242576,15919,242576,36634,242576,55509,996.9790462323782,386.0630202156173,934.9312614089382
242576,15899,242576,36647,242576,55496,992.6281023839315,384.07931153981235,930.333189426984
242587,15889,242587,36639,242587,55484,988.1604200371385,382.0473458384771,925.6226095768587
242587,15896,242587,36682,242587,55529,983.5759850526703,379.9686639612436,920.8014077608048
242587,15899,242587,36674,242587,55526,978.8746722620256,377.8444390502045,915.8710471945182
242587,15886,242587,36677,242587,55510,974.0563540826778,375.67595279284234,910.8330493638945
242587,15876,242587,36623,242587,55466,969.1209994529411,373.4647982343111,905.6891979201544
242587,15875,242587,36607,242587,55473,964.0686274984349,371.21252376144076,900.4411922584349
242597,15867,242597,36620,242597,55503,958.8992231856465,368.9199387951008,895.0902222483402
242597,15875,242597,36676,242597,55508,953.6127343592112,366.58676516278774,889.6370489161618
242597,15878,242597,36710,242597,55524,948.2091865873999,364.21213803197395,884.0825444912739
242597,15862,242597,36684,242597,55500,942.688879386337,361.795642729959,878.4282303766242
242597,15843,242597,36619,242597,55474,937.0524816828226,359.33792822516966,872.6764689741157
242597,15843,242597,36623,242597,55460,931.3009071032535,356.8403265877271,866.8302202672068
242607,15844,242607,36615,242607,55444,925.4351491757202,354.30400457643134,860.8925695031137
242607,15845,242607,36678,242607,55492,919.456296999118,351.7295640590008,854.8664205061062
242607,15838,242607,36667,242607,55478,913.3656989646577,349.1174028836212,848.7546540322098
242607,15832,242607,36631,242607,55441,907.1651146162877,346.4683322729564,842.5605264350135
242607,15804,242607,36618,242607,55415,900.8567392497613,343.78369182806705,836.2876690497322
242607,15793,242607,36597,242607,55418,894.4430364314101,341.06487711714146,829.9395870022385
242618,15796,242618,36630,242618,55419,887.92646538432,338.31284037800594,823.5192138490123
242618,15810,242618,36677,242618,55464,881.3093783870474,335.52809653006625,817.0289367980599
242618,15785,242618,36649,242618,55438,874.594195359909,332.71132957749023,810.4710701517178
242618,15776,242618,36621,242618,55416,867.7835803329942,329.8639841700266,803.8483417871159
242618,15765,242618,36592,242618,55373,860.8803910328002,326.98816839538495,797.1638623783372
242618,15754,242618,36590,242618,55399,853.887516849863,324.08602560534075,790.4206298854258
242628,15759,242628,36626,242628,55412,846.8077791324661,321.1592389909937,783.6212026337637
242628,15759,242628,36636,242628,55396,839.6439706118068,318.20911203531773,776.7678869420736
242628,15751,242628,36629,242628,55417,832.3990318394201,315.2370831267874,769.8631255359535
242628,15722,242628,36599,242628,55359,825.0761925252233,312.24510359768306,762.9097102538997
242628,15711,242628,36569,242628,55345,817.6788773284976,309.2354905820197,755.9106348030373
242628,15713,242628,36577,242628,55354,810.2104569432406,306.210388195292,748.86863401848
242638,15709,242638,36599,242638,55372,802.6741276858611,303.1713449178882,741.7858992695287
242638,15715,242638,36632,242638,55388,795.0730267305217,300.11944221422266,734.6643402631796
242638,15695,242638,36600,242638,55344,787.4104472949698,297.05585898303076,727.5060956818909
242638,15683,242638,36584,242638,55310,779.6899614161198,293.9822667056245,720.313675352626
242638,15650,242638,36550,242638,55300,771.915320685978,290.9006464583188,713.0895072171813
242638,15654,242638,36585,242638,55318,764.0901712565941,287.812790817519,705.8353686441011
242649,15679,242649,36592,242649,55351,756.2178703591587,284.7200875924817,698.5523273335953
242649,15659,242649,36610,242649,55349,748.3016794418534,281.6238241266653,691.2412888927856
242649,15632,242649,36576,242649,55313,740.3450929899336,278.5256579680798,683.9036511797012
242649,15602,242649,36523,242649,55274,732.3518050820549,275.42767507877835,676.5414319531908
242649,15607,242649,36516,242649,55261,724.3253176136034,272.33178863537285,669.1567604976617
242649,15600,242649,36536,242649,55279,716.268625165849,269.23893571817723,661.7512613484935
242659,15615,242659,36573,242659,55304,708.1842354424845,266.14882667974564,654.3259270477135
242659,15595,242659,36597,242659,55287,700.0744300580925,263.0604677485833,646.8815446341251
242659,15592,242659,36540,242659,55283,691.9415186970139,259.9729327281549,639.4191982309949
242659,15570,242659,36528,242659,55249,683.7879226404774,256.8856046834401,631.9404267635373
242659,15553,242659,36509,242659,55227,675.6160835341242,253.79771360103507,624.4469962904616
242659,15554,242659,36575,242659,55264,667.4282863576085,250.70785406016333,616.940545933651
242670,15558,242670,36562,242670,55251,659.2265766253652,247.61414672058638,609.4225404228022
242670,15551,242670,36563,242670,55249,651.0129012584739,244.51485546389392,601.8945939575107
242670,15514,242670,36503,242670,55223,642.789292945114,241.40870944373026,594.3587302335926
242670,15495,242670,36499,242670,55184,634.5577761502769,238.29454761399882,586.8172709702893
242670,15504,242670,36535,242670,55194,626.3200291089181,235.1707107581753,579.2724156053536
242670,15503,242670,36570,242670,55197,618.0772064786171,232.0349703095544,571.7258743283663
242680,15508,242680,36584,242680,55197,609.8301188948907,228.8852226940537,564.1788801990014
242680,15494,242680,36554,242680,55184,601.5795649903059,225.72035023855057,556.6324366076628
242680,15467,242680,36500,242680,55172,593.3265325226412,222.54049587962555,549.0874681427645
242680,15452,242680,36482,242680,55138,585.072116800573,219.34651088168278,541.5447392376005
242680,15441,242680,36509,242680,55147,576.8172454145543,216.13909565910842,534.0045830614886
242680,15451,242680,36550,242680,55193,568.5624804133153,212.91848768942884,526.4667684704015
242690,15460,242690,36534,242690,55186,560.308108359624,209.68493731886264,518.930905697633
242690,15433,242690,36528,242690,55134,552.0544615771471,206.4393501661972,511.3970852014543
242690,15407,242690,36474,242690,55126,543.8021164210803,203.1834262586055,503.8659847080793
242690,15386,242690,36463,242690,55104,535.5517074959948,199.9191865863002,496.3384039667246
242690,15398,242690,36474,242690,55126,527.3035682655423,196.64827557747026,488.81483835621816
242690,15412,242690,36531,242690,55130,519.0576392017363,193.37168904651668,481.29546772851336
242701,15391,242701,36516,242701,55125,510.8137648817485,190.09024730978382,473.7804916629382
242701,15371,242701,36489,242701,55087,502.57201171045153,186.8052852405483,466.270434706428
242701,15353,242701,36447,242701,55075,494.3326561629084,183.51875783694658,458.7660714832622
242701,15334,242701,36446,242701,55057,486.0959204405882,180.23267221323704,451.2680404597676
242701,15352,242701,36510,242701,55084,477.86173682643073,176.9485583017925,443.7765308441799
242701,15348,242701,36469,242701,55090,469.62977345612285,173.6676055554513,436.2913623466395
242711,15342,242711,36484,242711,55073,461.399723526083,170.39115394638992,428.81239909975966
242711,15320,242711,36443,242711,55050,453.1715766443292,167.1208592485778,421.33986263809504
242711,15303,242711,36443,242711,55035,444.945643646161,163.85844958409007,413.8742545415465
242711,15278,242711,36424,242711,55020,436.7223510591184,160.60533626297763,406.4160425335159
242711,15303,242711,36462,242711,55041,428.50199948079785,157.36234397018967,398.96542166821894
242711,15303,242711,36474,242711,55054,420.284787386252,154.12983750368772,391.52240355402466
242721,15287,242721,36460,242721,55011,412.0711529659292,150.90820658239994,384.0871809840305
242721,15255,242721,36419,242721,54995,403.86203935478875,147.698192658265,376.66028834505516
242721,15251,242721,36427,242721,54971,395.65879181562525,144.50068535085785,369.2422926863244
242721,15228,242721,36446,242721,54998,387.46286897570496,141.31634667737723,361.83338172093033
242721,15239,242721,36473,242721,55016,379.27564734362886,138.14566409311442,354.43335466942324
242721,15248,242721,36472,242721,55013,371.09846071623076,134.989486958148,347.0421070013077
242732,15212,242732,36425,242732,54960,362.9328481168668,131.84952833551995,339.66013147418346
242732,15187,242732,36370,242732,54945,354.78067225403595,128.7282249724729,332.2884668003876
242732,15179,242732,36372,242732,54912,346.6438676225571,125.62787850838322,324.92812225285763
242732,15164,242732,36393,242732,54948,338.52407721968075,122.54976994933162,317.5795104148417
242732,15181,242732,36376,242732,54947,330.42250160645267,119.49388481311769,310.2423514732186
242732,15166,242732,36450,242732,54960,322.34001692190907,116.45919021852922,302.9160753465309
242742,15157,242742,36388,242742,54931,314.2774120497684,113.44418059417222,295.60032499976535
242742,15132,242742,36372,242742,54914,306.23549800815977,110.44725086206728,288.2951541864553
242742,15117,242742,36383,242742,54879,298.21498632074713,107.46650453819234,281.00081438909615
242742,15123,242742,36411,242742,54934,290.2162800223383,104.49945618353075,273.71741224920584
242742,15128,242742,36437,242742,54931,282.23943630789665,101.54329204454882,266.4449717370569
242742,15105,242742,36418,242742,54904,274.2843675891505,98.5955412268458,259.1839496204609
242752,15083,242752,36384,242752,54863,266.35099560598985,95.6545200134617,251.9355161591168
242752,15080,242752,36354,242752,54846,258.4391460986043,92.71913453951726,244.7011922123146
242752,15074,242752,36377,242752,54853,250.54837426712209,89.78827258081054,237.4822474631294
242752,15089,242752,36416,242752,54877,242.67799017416985,86.86049279572927,230.2794567073082
242752,15068,242752,36416,242752,54860,234.8273002883824,83.93441012895443,223.0933679656996
242752,15064,242752,36380,242752,54832,226.9958607876655,81.00932410550678,215.92466550296967
242763,15018,242763,36336,242763,54829,219.18350990900854,78.08530282743703,208.7741825089911
242763,15014,242763,36336,242763,54795,211.39010245238944,75.16257091413377,201.642622102705
242763,15011,242763,36351,242763,54825,203.6151407181378,72.24081659800396,194.53028816271183
242763,15019,242763,36399,242763,54835,195.85763984124742,69.31908377539287,187.43709713715168
242763,15011,242763,36394,242763,54814,188.11631657817952,66.39634616037097,180.36294164727497
242763,15003,242763,36360,242763,54787,180.3898749145942,63.47220501860426,173.30800315923318
242773,14977,242773,36318,242773,54758,172.67715175187845,60.54699006288615,166.27260290575646
242773,14969,242773,36312,242773,54750,164.97704580572315,57.62115423923893,159.25671449456559
242773,14957,242773,36345,242773,54756,157.28833295868787,54.694599867187776,152.25953888930985
242773,14966,242773,36374,242773,54798,149.60956439889083,51.76662621107812,145.2794918660138
242773,14970,242773,36381,242773,54803,141.9391851922336,48.83654907680085,138.31474360143682
242773,14938,242773,36328,242773,54747,134.27579845037712,45.90436104903756,131.36392795063773
242783,14928,242783,36320,242783,54737,126.61828372151263,42.97077669829588,124.42632125495265
242783,14913,242783,36304,242783,54729,118.96564821932543,40.03671132404884,117.50143000535638
242783,14920,242783,36341,242783,54734,111.31684769631806,37.10281854136173,110.58861068649833
242783,14915,242783,36350,242783,54738,103.67080566929667,34.16954606721799,103.68706584796314
242783,14902,242783,36321,242783,54721,96.02659055063737,31.237557904709604,96.79605654568991
242783,14883,242783,36293,242783,54693,88.38353822271893,28.30792388510099,89.91501952030808
242794,14861,242794,36271,242794,54700,80.74117032387971,25.38174870138897,83.04342925662081
242794,14864,242794,36299,242794,54668,73.09897706883999,22.459598597633715,76.18055874070421
242794,14859,242794,36322,242794,54706,65.45628520044102,19.541326725591887,69.32535951393254
242794,14876,242794,36318,242794,54686,57.81237298184692,16.626461070600897,62.47657841877435
242794,14850,242794,36328,242794,54678,50.16677557961066,13.714758297350329,55.63303416253348
242794,14824,242794,36277,242794,54635,42.51949550810468,10.806480328393206,48.79370362889142
242804,14790,242804,36249,242804,54640,34.87083684634035,7.902164978374515,41.9574398830041
242804,14802,242804,36286,242804,54648,27.220964409165617,5.002032296038806,35.122639623849636
242804,14803,242804,36310,242804,54694,19.5696290316057,2.1057045445653557,28.287335691292583
242804,14799,242804,36325,242804,54666,11.916287638167205,-0.787345325249305,21.449801692274832
242804,14801,242804,36285,242804,54629,4.260417750695524,-3.6771145373038507,14.609122394525912
242804,14767,242804,36249,242804,54575,-3.398248782097653,-6.5629114780468285,7.765072225808353
242814,14752,242814,36229,242814,54580,-11.059734722475696,-9.44389894819193,0.9173444025150275
242814,14745,242814,36264,242814,54604,-18.724054879879304,-12.319811507283987,-5.935132669864743
242814,14755,242814,36283,242814,54631,-26.391402775759843,-15.191144704073963,-12.794158289688312
242814,14740,242814,36301,242814,54631,-34.06207202674159,-18.05867049358318,-19.661578517476983
242814,14724,242814,36265,242814,54588,-41.73627231954242,-20.922786784588936,-26.538600847945418
242814,14703,242814,36234,242814,54564,-49.41411317688721,-23.783324405700228,-33.42568323168223
242825,14693,242825,36242,242825,54541,-57.09578586925022,-26.63993088125858,-40.32300146185321
242825,14707,242825,36260,242825,54571,-64.78172693551278,-29.492496760561096,-47.230972793488036
242825,14708,242825,36289,242825,54577,-72.47252248880909,-32.341074060075755,-54.15031974213491
242825,14679,242825,36258,242825,54580,-80.16860794076297,-35.18537991592092,-61.0816436972641
242825,14670,242825,36237,242825,54535,-87.87011121281807,-38.02447232921969,-68.02497986206254
242825,14642,242825,36193,242825,54507,-95.57699323032057,-40.85701085649987,-74.97982932005266
242835,14653,242835,36210,242835,54486,-103.28928939954176,-43.6819221637391,-81.94569454036366
242835,14648,242835,36226,242835,54507,-111.00719708418387,-46.49889372385883,-88.92266097764411
242835,14645,242835,36246,242835,54519,-118.73092813646053,-49.30829296933587,-95.91153099475775
242835,14630,242835,36187,242835,54486,-126.46048635708473,-52.110779042643,-102.9135202276052
242835,14599,242835,36197,242835,54489,-134.19560058891852,-54.9072506785418,-109.9300000410667
242835,14590,242835,36176,242835,54468,-141.9359045176252,-57.69922733790992,-116.96253091454366
242845,14581,242845,36199,242845,54473,-149.6812255791583,-60.48918596586367,-124.01298232336455
242845,14598,242845,36278,242845,54495,-157.43170776341412,-63.2804060834186,-131.0834982481258
242845,14581,242845,36257,242845,54479,-165.1876469011636,-66.07614100378038,-138.17620707236574
242845,14572,242845,36226,242845,54455,-172.94922461877786,-68.8786452930251,-145.2928862740522
242845,14550,242845,36180,242845,54428,-180.7164060663057,-71.68898524382212,-152.4349683802593
242845,14531,242845,36155,242845,54423,-188.48906213155533,-74.50774562186018,-159.60389622730258
242856,14529,242856,36204,242856,54423,-196.2671947228373,-77.33588184728109,-166.8014672604504
242856,14537,242856,36203,242856,54448,-204.05105668519855,-80.17496071541814,-174.02985922319772
242856,14532,242856,36253,242856,54450,-211.8410125523983,-83.02666415474408,-181.29126635318914
242856,14523,242856,36187,242856,54417,-219.63724739065174,-85.89208012048232,-188.587403035762
242856,14486,242856,36154,242856,54370,-227.43960705126335,-88.771501021571,-195.91938483057413
242856,14487,242856,36145,242856,54386,-235.24772161210603,-91.66500285106395,-203.28815479032687
242866,14475,242866,36218,242866,54402,-243.06124607298852,-94.57309873082238,-210.69489851555454
242866,14479,242866,36217,242866,54415,-250.87994714239164,-97.49655416941664,-218.1408832999109
242866,14481,242866,36184,242866,54398,-258.7035713724729,-100.4356088899412,-225.62689942163865
242866,14446,242866,36161,242866,54358,-266.53163834064253,-103.38962314026276,-233.1528985230035
242866,14428,242866,36100,242866,54325,-274.3634199525618,-106.35754108454495,-240.71819130612403
242866,14410,242866,36121,242866,54316,-282.19821516806985,-109.33878274006554,-248.32206693688522
242876,14413,242876,36149,242876,54337,-290.035679354114,-112.33390273038981,-255.9643181301417
242876,14411,242876,36198,242876,54369,-297.87593104021016,-115.34444113336559,-263.6451983892232
242876,14415,242876,36176,242876,54338,-305.7193976411364,-118.37207569047894,-271.36484379172634
242876,14387,242876,36144,242876,54298,-313.5665681184141,-121.41789089598768,-279.1227967941269
242876,14374,242876,36140,242876,54286,-321.4178994680992,-124.48234877564408,-286.9181602506128
242876,14366,242876,36140,242876,54273,-329.2739417846194,-127.56567800414791,-294.7501226292228
242887,14376,242887,36165,242887,54324,-337.13545118712864,-130.6680641124666,-302.61822103193003
242887,14373,242887,36163,242887,54302,-345.0032659632201,-133.7894363827284,-310.5220364666344
242887,14353,242887,36152,242887,54278,-352.87803293217587,-136.9290983219667,-318.4606573307444
242887,14334,242887,36088,242887,54262,-360.7600713764533,-140.08565503460812,-326.43251217352054
242887,14312,242887,36065,242887,54221,-368.64951011616984,-143.2575633357577,-334.4356729597487
242887,14317,242887,36111,242887,54245,-376.546545941727,-146.4439808509913,-342.46829497452234
242897,14314,242897,36136,242897,54229,-384.45156234392584,-149.64504799608898,-350.5288534474249
242897,14317,242897,36135,242897,54226,-392.3649952112754,-152.86132966134306,-358.61607374815594
242897,14290,242897,36118,242897,54215,-400.28709524365524,-156.0931127610317,-366.7287818637607
242897,14257,242897,36074,242897,54169,-408.21788253812065,-159.34023353625435,-374.8659241217158
242897,14252,242897,36072,242897,54203,-416.1574248855227,-162.60248519943457,-383.0267804858802
242897,14265,242897,36136,242897,54213,-424.1061564596248,-165.88006154483497,-391.211041597344
242908,14268,242908,36126,242908,54201,-432.064840250814,-169.17335656235718,-399.41845210274494
242908,14261,242908,36105,242908,54191,-440.03419852069544,-172.4822981395639,-407.6483420594469
242908,14218,242908,36073,242908,54153,-448.0146160047244,-175.80607187834994,-415.899497724365
242908,14207,242908,36036,242908,54143,-456.0062355946917,-179.1435426380176,-424.1704041341243
242908,14205,242908,36049,242908,54113,-464.00931495149894,-182.49398729889083,-432.45966928878227
242908,14208,242908,36076,242908,54168,-472.02442311280083,-185.85756606534494,-440.7663203593843
242918,14206,242918,36119,242918,54167,-480.05231114539185,-189.23510330092762,-449.08959757946525
242918,14196,242918,36104,242918,54126,-488.0936409882531,-192.62729122312408,-457.4283551399128
242918,14163,242918,36041,242918,54096,-496.14882745796,-196.0340510504194,-465.7807956358596
242918,14158,242918,36023,242918,54083,-504.2181370856995,-199.45473762674027,-474.1448477383011
242918,14160,242918,36093,242918,54079,-512.3019000929389,-202.88882123426322,-482.51869133980324
242918,14158,242918,36101,242918,54110,-520.4005359906844,-206.33594166428907,-490.9009243120057
242928,14152,242928,36085,242928,54076,-528.514354345851,-209.79517671557085,-499.2903082006593
242928,14133,242928,36028,242928,54067,-536.64334926935,-213.26453699705888,-507.6854571791639
242928,14106,242928,36018,242928,54038,-544.7871818997194,-216.74131239937594,-516.0848527902642
242928,14088,242928,35995,242928,54020,-552.9454075513347,-220.2228817446329,-524.4871501220784
242928,14108,242928,36023,242928,54033,-561.1177633824962,-223.7073340587325,-532.8915042910357
242928,14097,242928,36067,242928,54060,-569.3041928054529,-227.19350489675674,-541.297595505742
242939,14093,242939,36069,242939,54053,-577.504588437999,-230.68035897889752,-549.7051847757236
242939,14069,242939,36015,242939,54004,-585.7185693052384,-234.16624534918964,-558.1135868145188
242939,14055,242939,36001,242939,53988,-593.9454886025803,-237.6488022065539,-566.521653102946
242939,14041,242939,35986,242939,53977,-602.1846093021934,-241.12552765455365,-574.9282347837
242939,14048,242939,36024,242939,54000,-610.435263468735,-244.59430409533906,-583.3325446187555
242939,14047,242939,36046,242939,54003,-618.6968172245072,-248.05332791861082,-591.7340416362572
242949,14033,242949,36003,242949,53989,-626.9684515094032,-251.50058419234773,-600.1319923002466
242949,14012,242949,35966,242949,53931,-635.2489893665804,-254.93360305228236,-608.525216181521
242949,13997,242949,35951,242949,53928,-643.5369478737066,-258.3499349806708,-616.9123763810919
242949,13979,242949,35990,242949,53933,-651.8307540505109,-261.7478249568808,-625.2925213068941
242949,13977,242949,35997,242949,53949,-660.1289628955162,-265.1263307084021,-633.6652626368693
242949,13974,242949,36001,242949,53935,-668.4303501105471,-268.48486083461614,-642.0304721255559
242959,13977,242959,35989,242959,53907,-676.7338188516942,-271.8226772190361,-650.3879404670593
242959,13955,242959,35951,242959,53893,-685.0381974531363,-275.13876649970666,-658.7373807078966
242959,13937,242959,35930,242959,53879,-693.3421345847321,-278.43217169199784,-667.0787094385155
242959,13923,242959,35956,242959,53877,-701.6442112859384,-281.7025431722003,-675.4123082878614
242959,13938,242959,35983,242959,53910,-709.9431039786937,-284.9503444324223,-683.7390329975226
242959,13919,242959,35986,242959,53890,-718.2375516151126,-288.176443463851,-692.0598729293326
242970,13898,242970,35937,242970,53869,-726.5262099794884,-291.38157747417506,-700.3755200220398
242970,13879,242970,35913,242970,53853,-734.8076886527779,-294.5663769565581,-708.6862721538516
242970,13868,242970,35905,242970,53810,-743.0807969948385,-297.73197944326057,-716.9923214861665
242970,13871,242970,35924,242970,53812,-751.3447583689783,-300.8806258040235,-725.2942254080804
242970,13862,242970,35960,242970,53861,-759.5992267043525,-304.0157128813722,-733.593207946948
242970,13881,242970,35980,242970,53825,-767.8441054252637,-307.1412335851808,-741.8909152172826
242980,13831,242980,35939,242980,53820,-776.0792962588123,-310.26101313510736,-750.1889162891587
242980,13817,242980,35907,242980,53786,-784.304663274379,-313.37842332341387,-758.4885727353758
242980,13815,242980,35924,242980,53797,-792.5203173952111,-316.49676086129966,-766.7912687174855
242980,13816,242980,35974,242980,53794,-800.7268631904424,-319.6195793749079,-775.0985786125516
242980,13827,242980,35967,242980,53795,-808.9253043883562,-322.750325331675,-783.4121657188709
242980,13811,242980,35937,242980,53789,-817.1167173767055,-325.8916663402623,-791.7335273461938
242990,13792,242990,35915,242990,53766,-825.3019800326203,-329.04531513512256,-800.0638048039732
242990,13776,242990,35872,242990,53722,-833.4817602494522,-332.21250498855426,-808.403854544988
242990,13758,242990,35896,242990,53724,-841.6567196146054,-335.39470365313093,-816.754651259449
242990,13768,242990,35927,242990,53731,-849.8277197283373,-338.59400724231324,-825.117715285631
242990,13777,242990,35945,242990,53749,-857.9958105587391,-341.812843658908,-833.4951231347673
242990,13761,242990,35924,242990,53734,-866.1619481925909,-345.05327489922183,-841.889105131356
243000,13732,243000,35876,243000,53707,-874.3267313457845,-348.3166347950758,-850.3016672316171
243000,13719,243000,35870,243000,53680,-882.4904662368278,-351.6038643768408,-858.7346113420244
243000,13710,243000,35865,243000,53703,-890.653456597591,-354.9161744724129,-867.1898447962076
243000,13721,243000,35944,243000,53697,-898.8161828754362,-358.2553170878066,-875.6695074068598
243000,13711,243000,35917,243000,53701,-906.9792107448272,-361.62309316526205,-884.1757298514221
243000,13696,243000,35901,243000,53663,-915.1429726006968,-365.02058236047606,-892.7103430742934
243010,13664,243010,35839,243010,53649,-923.307709387951,-368.4479811761412,-901.2748907686994
243010,13658,243010,35835,243010,53629,-931.4736881084627,-371.9052497674526,-909.8709469054586
243010,13653,243010,35880,243010,53632,-939.6414966745231,-375.39287327355817,-918.5004630327528
243010,13661,243010,35892,243010,53670,-947.8121368274922,-378.91193830250256,-927.1658215006323
243010,13655,243010,35921,243010,53653,-955.9868523694468,-382.4634699136093,-935.8694367003975
243010,13631,243010,35837,243010,53604,-964.1668889804898,-386.0477454651882,-944.613266493609
243020,13619,243020,35822,243020,53585,-972.353438551301,-389.6643441952098,-953.398859087733
243020,13605,243020,35810,243020,53588,-980.5477963263563,-393.3129325263088,-962.2278745857891
243020,13612,243020,35878,243020,53589,-988.7515203545074,-396.99390478617335,-971.1024376164553
243020,13619,243020,35853,243020,53637,-996.9663847638153,-400.70819735673496,-980.0249648159729
243020,13610,243020,35894,243020,53618,-1005.1941025294304,-404.4565858701674,-988.9975318569959
243020,13577,243020,35822,243020,53550,-1013.4360605287313,-408.23915146906165,-998.021281837237
243031,13556,243031,35813,243031,53542,-1021.6933764619164,-412.0553228797261,-1007.0965448186075
243031,13550,243031,35800,243031,53527,-1029.9672492630955,-415.9044416800207,-1016.2235268210422
243031,13560,243031,35848,243031,53544,-1038.2592366723695,-419.78625175576593,-1025.4027931731744
243031,13557,243031,35869,243031,53551,-1046.5711988704757,-423.7007159677292,-1034.635210273025
243031,13568,243031,35840,243031,53542,-1054.904978958614,-427.6473158663846,-1043.921546090078
243031,13526,243031,35811,243031,53503,-1063.26207521756,-431.62459740406325,-1053.2621361539334
243041,13502,243041,35759,243041,53496,-1071.6436086496199,-435.630464548024,-1062.6569367808704
243041,13497,243041,35787,243041,53497,-1080.050662658548,-439.66295573234277,-1072.1058157748712
243041,13535,243041,35826,243041,53511,-1088.484563779212,-443.72073015021516,-1081.6086374106526
243041,13516,243041,35845,243041,53491,-1096.9466602285884,-447.8027195668956,-1091.1650142104445
243041,13489,243041,35787,243041,53456,-1105.4378653698798,-451.9073625860134,-1100.7740756255528
243041,13460,243041,35771,243041,53416,-1113.9585751902832,-456.0323685100732,-1110.4346583814474
243051,13440,243051,35747,243051,53438,-1122.509054880426,-460.1752314340893,-1120.1458416127389
243051,13459,243051,35768,243051,53418,-1131.0898776155304,-464.3338713381762,-1129.9073148218977
243051,13454,243051,35767,243051,53446,-1139.7020188788156,-468.50686799296545,-1139.7193054871987
243051,13430,243051,35789,243051,53434,-1148.3466407119836,-472.6932594101586,-1149.5822160870432
243051,13428,243051,35755,243051,53391,-1157.0249422753748,-476.89218618297735,-1159.49627814359
243051,13412,243051,35718,243051,53391,-1165.7382062014908,-481.1028026842707,-1169.4615511198285
243062,13409,243062,35727,243062,53358,-1174.4878666655582,-485.3246575224924,-1179.4782418795694
243062,13401,243062,35756,243062,53367,-1183.2755121130658,-489.55810413382545,-1189.5470148412412
243062,13403,243062,35769,243062,53394,-1192.102818551983,-493.8041607158981,-1199.6690398520752
243062,13382,243062,35779,243062,53398,-1200.9714315743076,-498.0638963954615,-1209.8456097944652
243062,13381,243062,35742,243062,53341,-1209.8828860990566,-502.3378758412546,-1220.0775747858777
243062,13348,243062,35709,243062,53301,-1218.8386366395398,-506.6261014406848,-1230.3652830236094
243072,13338,243072,35692,243072,53322,-1227.8402223306043,-510.92851778183916,-1240.709149671199
243072,13340,243072,35742,243072,53329,-1236.8894938141377,-515.2455886968299,-1251.1100928546305
243072,13355,243072,35766,243072,53332,-1245.9886550388192,-519.5782527291651,-1261.569334870479
243072,13345,243072,35736,243072,53322,-1255.139982302956,-523.9272468925903,-1272.0879024915077
243072,13309,243072,35686,243072,53276,-1264.3454956984533,-528.2926486578945,-1282.6663423833847
243072,13305,243072,35672,243072,53270,-1273.6069491788962,-532.6742371912312,-1293.304864093737
243082,13304,243082,35695,243082,53272,-1282.9260460972966,-537.0722205265231,-1304.0036920341345
243082,13306,243082,35732,243082,53303,-1292.304495650495,-541.487468593627,-1314.7631245650177
243082,13297,243082,35745,243082,53287,-1301.7438231559308,-545.9209809157553,-1325.5831038766603
243082,13270,243082,35707,243082,53273,-1311.2451789774418,-550.3731090486164,-1336.462662954387
243082,13243,243082,35688,243082,53226,-1320.809394970121,-554.8432562037426,-1347.3997413992429
243082,13247,243082,35649,243082,53195,-1330.4372782882997,-559.3302483252162,-1358.3915320352573
243093,13237,243093,35678,243093,53186,-1340.129849088665,-563.8329597502798,-1369.435131709849
243093,13251,243093,35716,243093,53229,-1349.8883015154697,-568.3505620865428,-1380.5279762764924
243093,13246,243093,35697,243093,53213,-1359.713726386372,-572.8821130197356,-1391.6676429637732
243093,13223,243093,35632,243093,53186,-1369.6067817258786,-577.4260800542795,-1402.8513096070633
243093,13196,243093,35622,243093,53167,-1379.5675802693568,-581.9806066826741,-1414.075536628239
243093,13196,243093,35650,243093,53171,-1389.5958768903592,-586.5442579475053,-1425.3364426882408
243103,13208,243103,35693,243103,53183,-1399.6912442944747,-591.1162477583434,-1436.6297884321218
243103,13199,243103,35690,243103,53198,-1409.8529334295604,-595.6958242138271,-1447.9506669189782
243103,13188,243103,35681,243103,53150,-1420.0795501692755,-600.2814382884693,-1459.2929971781205
243103,13169,243103,35649,243103,53109,-1430.3688660209102,-604.8703677914472,-1470.6493654345377
243103,13145,243103,35597,243103,53089,-1440.7178721856822,-609.4589828341109,-1482.011491450185
243103,13135,243103,35604,243103,53108,-1451.123000141976,-614.0434748040744,-1493.3708648799575
243114,13145,243114,35646,243114,53105,-1461.5803165934637,-618.6204782670807,-1504.7189265753623
243114,13137,243114,35666,243114,53113,-1472.0854783816526,-623.1869464193171,-1516.0467485628756
243114,13113,243114,35651,243114,53101,-1482.6335183203832,-627.739413765451,-1527.3445752215598
243114,13098,243114,35611,243114,53055,-1493.218769698822,-632.2734576376442,-1538.601561890468
243114,13094,243114,35586,243114,53039,-1503.8349943731391,-636.7838646019673,-1549.8059277616785
243114,13079,243114,35596,243114,53045,-1514.4755001152098,-641.2652367873,-1560.9453756761445
243124,13075,243124,35605,243124,53090,-1525.1331502800736,-645.7124089234726,-1572.0072085120378
243124,13096,243124,35668,243124,53089,-1535.8002599369647,-650.1202694920994,-1582.9777843653756
243124,13075,243124,35635,243124,53017,-1546.4683078662742,-654.4830387758523,-1593.8417784171656
243124,13037,243124,35579,243124,52998,-1557.1276528795984,-658.7936535918461,-1604.5821140373355
243124,13022,243124,35566,243124,52996,-1567.7676271038574,-663.0439833913608,-1615.1805899296958
243124,13033,243124,35590,243124,52980,-1578.3768871407478,-667.2255723714665,-1625.618426757239
243134,13033,243134,35578,243134,52983,-1588.9435215617823,-671.3300153960322,-1635.8764019397981
243134,13026,243134,35635,243134,53010,-1599.4547957048355,-675.3487372910156,-1645.9347128638183
243134,13003,243134,35579,243134,52987,-1609.896864024556,-679.272495534274,-1655.772601506692
243134,12981,243134,35542,243134,52966,-1620.2547337307087,-683.0911408826071,-1665.3679697997682
243134,12970,243134,35543,243134,52933,-1630.5124740910244,-686.7940369316707,-1674.6973850763443
243134,12978,243134,35610,243134,52975,-1640.6534330820984,-690.3705864589454,-1683.7363710856253
243145,12976,243145,35616,243145,52957,-1650.6602150074173,-693.8099643367586,-1692.4594530909012
243145,12967,243145,35586,243145,52957,-1660.5144358100972,-697.1002738984353,-1700.8398445144562
243145,12940,243145,35526,243145,52909,-1670.196521750975,-700.2281895649951,-1708.8492414088373
243145,12919,243145,35501,243145,52877,-1679.6857746562541,-703.1795738350369,-1716.4581000081746
243145,12913,243145,35507,243145,52892,-1688.9606598440987,-705.9405327770551,-1723.6362606575472
243145,12909,243145,35546,243145,52905,-1697.9990624071625,-708.498050390014,-1730.3533665935295
243155,12911,243155,35553,243155,52915,-1706.7783283852493,-710.8398278856541,-1736.5787163006735
243155,12906,243155,35563,243155,52902,-1715.275121896907,-712.9536602029598,-1742.2808135079567
243155,12890,243155,35546,243155,52834,-1723.4652507414278,-714.8269087040447,-1747.4271885322778
243155,12869,243155,35478,243155,52864,-1731.3236332421766,-716.4464590053522,-1751.9847914972202
243155,12873,243155,35519,243155,52845,-1738.8244435394724,-717.7992473246024,-1755.9205699181452
243155,12878,243155,35560,243155,52885,-1745.941227698897,-718.872744600128,-1759.2016448379238
243165,12876,243165,35566,243165,52863,-1752.646797191419,-719.6546641922005,-1761.7950683642578
243165,12854,243165,35540,243165,52840,-1758.913028094276,-720.1322477237785,-1763.667588651951
243165,12836,243165,35495,243165,52804,-1764.7108542594408,-720.2920623957989,-1764.7858463516786
243165,12816,243165,35483,243165,52791,-1770.0105444005933,-720.1205672025228,-1765.1170481171382
243165,12830,243165,35533,243165,52822,-1774.782069756886,-719.6048575501475,-1764.6296811165817
243165,12830,243165,35523,243165,52829,-1778.9952738977154,-718.7328581465099,-1763.2937737885609
243176,12834,243176,35532,243176,52855,-1782.6197606395126,-717.492992907292,-1761.0806451669832
243176,12811,243176,35523,243176,52807,-1785.6247216333431,-715.8739090289498,-1757.9625667007003
243176,12795,243176,35505,243176,52818,-1787.9789838781646,-713.8645065454139,-1753.9128069972094
243176,12786,243176,35493,243176,52801,-1789.651330769554,-711.4542271889161,-1748.9060785973888
243176,12777,243176,35523,243176,52843,-1790.6109135276265,-708.6334389882982,-1742.9189667053147
243176,12803,243176,35550,243176,52857,-1790.8275273500778,-705.393536482414,-1735.9299804622096
243186,12792,243186,35557,243186,52844,-1790.271631858931,-701.7265787715032,-1727.9193084657716
243186,12779,243186,35501,243186,52837,-1788.914260497977,-697.624914951484,-1718.8687325404446
243186,12756,243186,35483,243186,52822,-1786.7271577935717,-693.0814387065815,-1708.7619776445244
243186,12762,243186,35506,243186,52842,-1783.6832182639703,-688.0903994487735,-1697.5852920765644
243186,12770,243186,35543,243186,52880,-1779.756926349245,-682.6479566906223,-1685.3278456586927
243186,12795,243186,35571,243186,52885,-1774.9245068150708,-676.7519759483441,-1671.9817115818385
243196,12803,243196,35568,243196,52910,-1769.1637621655177,-670.4013961647088,-1657.5416245110089
243196,12800,243196,35534,243196,52897,-1762.4538184167968,-663.5958385748944,-1642.0048734022978
243196,12781,243196,35506,243196,52909,-1754.7750875534045,-656.3358901266496,-1625.371474905633
243196,12793,243196,35550,243196,52934,-1746.109564713578,-648.6238530190174,-1607.6445201772435
243196,12819,243196,35614,243196,52993,-1736.4411956238723,-640.464126560655,-1588.830347013968
243196,12827,243196,35649,243196,53023,-1725.7559748731587,-631.8626404622569,-1568.9382478119792
243207,12832,243207,35601,243207,53029,-1714.0418402981602,-622.8258676141904,-1547.979927656907
243207,12832,243207,35582,243207,53016,-1701.288677604925,-613.3605089710854,-1525.9692809088797
243207,12828,243207,35576,243207,53044,-1687.4885610815531,-603.4741336551573,-1502.9227307698866
243207,12860,243207,35627,243207,53094,-1672.6361092985865,-593.175990875652,-1478.8597104426751
243207,12880,243207,35641,243207,53125,-1656.7287030800173,-582.4772243966121,-1453.8027429836443
243207,12911,243207,35714,243207,53130,-1639.766418180176,-571.3904244893876,-1427.777200161916
243217,12915,243217,35687,243217,53200,-1621.7518204775615,-559.9288792568503,-1400.811142310815
243217,12930,243217,35655,243217,53190,-1602.6898827151504,-548.1061259713865,-1372.935250489206
243217,12945,243217,35688,243217,53208,-1582.588109719365,-535.9362350738394,-1344.182839921185
243217,12974,243217,35737,243217,53300,-1561.4567322936568,-523.4342982015244,-1314.5900245443863
243217,13014,243217,35744,243217,53364,-1539.3087651409762,-510.61633660636664,-1284.1955438670266
243217,13037,243217,35762,243217,53383,-1516.159851576559,-497.49882779628734,-1253.039971690323
243227,13038,243227,35732,243227,53382,-1492.0280767397185,-484.09849949527705,-1221.1650400530682
243227,13064,243227,35714,243227,53432,-1466.934030090119,-470.43267168408767,-1188.613670034526
243227,13103,243227,35781,243227,53506,-1440.9010538612233,-456.51991749340783,-1155.4302284401629
243227,13155,243227,35814,243227,53515,-1413.9553003854853,-442.38033407948757,-1121.6603775746757
243227,13183,243227,35848,243227,53583,-1386.1254477744046,-428.03506265449914,-1087.350688676759
243227,13221,243227,35869,243227,53613,-1357.4423058310651,-413.5055346201586,-1052.548365613993
243238,13245,243238,35853,243238,53622,-1327.9385581585482,-398.8129956007042,-1017.3010975651084
243238,13273,243238,35871,243238,53677,-1297.6486839859847,-383.9784847721963,-981.6571201052509
243238,13324,243238,35897,243238,53717,-1266.6089655585715,-369.0230805935673,-945.6653920760988
243238,13361,243238,35951,243238,53801,-1234.8574079537836,-353.9679427523125,-909.375506213247
243238,13417,243238,35976,243238,53852,-1202.4334750297937,-338.8338926286733,-872.8371740917794
243238,13440,243238,35959,243238,53877,-1169.3777374109607,-323.64084324752605,-836.0995347250155
243248,13466,243248,35919,243248,53900,-1135.7316396731085,-308.4077276590891,-799.2107607817779
243248,13500,243248,35932,243248,53918,-1101.5375230238683,-293.1531962783579,-762.2181915328174
243248,13550,243248,35992,243248,53977,-1066.8387624934799,-277.8964693740212,-725.1687298999266
243248,13612,243248,36032,243248,54057,-1031.679713700571,-262.6574779413888,-688.1089981597659
243248,13655,243248,36064,243248,54114,-996.1053524313443,-247.4562295971516,-651.084918886725
243248,13694,243248,36047,243248,54163,-960.1607998704269,-232.3120929883176,-614.14092199581
243258,13708,243258,36048,243258,54142,-923.8910457017909,-217.24360516348213,-577.3193835151977
243258,13767,243258,36076,243258,54213,-887.340972848819,-202.2687769951644,-540.6606832032753
243258,13816,243258,36122,243258,54238,-850.5554233552327,-187.40533547948354,-504.20356797967986
243258,13879,243258,36169,243258,54311,-813.5789902714293,-172.67044091865534,-467.9852511894866
243258,13922,243258,36174,243258,54345,-776.4555523037908,-158.08000388381168,-432.04115132311847
243258,13944,243258,36154,243258,54364,-739.227839172962,-143.64817614239735,-396.4045725398213
243269,13973,243269,36161,243269,54374,-701.9373075548724,-129.38745013646133,-361.10669415989514
243269,14011,243269,36163,243269,54428,-664.624334310478,-115.30918643959706,-326.1769348226986
243269,14064,243269,36218,243269,54517,-627.3284342381075,-101.42402844781293,-291.64318840929434
243269,14112,243269,36269,243269,54525,-590.088244019882,-87.7417829965296,-257.53149769382685
243269,14157,243269,36255,243269,54587,-552.9412832177429,-74.27080096111553,-223.86549872959768
243269,14179,243269,36216,243269,54569,-515.9237055771268,-61.01755773184982,-190.6661875993666
243279,14216,243279,36178,243279,54584,-479.0702498850451,-47.987141593011245,-157.9521827998185
243279,14257,243279,36283,243279,54637,-442.4143709919849,-35.18427540034844,-125.74032674353884
243279,14314,243279,36313,243279,54677,-405.98831106612647,-22.61364703242708,-94.04612792784587
243279,14369,243279,36342,243279,54733,-369.82291571242195,-10.279147761224124,-62.883693110110926
243279,14401,243279,36306,243279,54752,-333.9472485480035,1.81700617536427,-32.26537158862516
243279,14405,243279,36299,243279,54759,-298.38832702624563,13.674362294650109,-2.2015401558780923
243289,14446,243289,36245,243289,54786,-263.1712639073821,25.293518814997014,27.2992268111841
243289,14487,243289,36310,243289,54856,-228.3196293338499,36.67510363918973,56.229841266874246
243289,14542,243289,36378,243289,54910,-193.85559758758245,47.8192629512921,84.58479015576268
243289,14570,243289,36383,243289,54910,-159.79978061824545,58.72617748624043,112.36066345319159
243289,14603,243289,36374,243289,54925,-126.17101272463492,69.39695280554486,139.55648834523618
243289,14638,243289,36337,243289,54917,-92.98629213536788,79.83384742579278,166.17345884867768
243300,14665,243300,36349,243300,54968,-60.26083839820353,90.03970722263671,192.21433006643474
243300,14706,243300,36396,243300,54997,-28.00816181019013,100.01729410835213,217.68299714876866
243300,14759,243300,36412,243300,55013,3.7599487033942296,109.76918279767,242.5844491128662
243300,14787,243300,36449,243300,55059,35.033608749137784,119.29822152978988,266.92486062947955
243300,14788,243300,36403,243300,55046,65.80502306002359,128.60800823493554,290.71160913192193
243300,14813,243300,36400,243300,55057,96.06833793809687,137.70286398036797,313.9530956319911
243310,14831,243310,36412,243310,55096,125.81918406844989,146.58729144049238,336.65833461121065
243310,14878,243310,36445,243310,55134,155.05426000985653,155.2654970418696,358.8366608058541
243310,14916,243310,36473,243310,55171,183.77120340972283,163.74144209979016,380.4978581851883
243310,14955,243310,36498,243310,55199,211.9687520837167,172.01931757961182,401.6525428580014
243310,14972,243310,36442,243310,55167,239.64699671869994,180.10397689795474,422.31240496959754
243310,14988,243310,36465,243310,55197,266.80746823306094,188.00084498267057,442.4899874796306
243321,15015,243321,36466,243321,55233,293.4529788495929,195.71541069479161,462.1981916810066
243321,15062,243321,36542,243321,55259,319.58742123561774,203.25299657832733,481.4500757057881
243321,15076,243321,36533,243321,55281,345.21576037968816,210.61917812789528,500.25903262957104
243321,15098,243321,36538,243321,55280,370.3441209488526,217.8204415863358,518.6389571811853
243321,15108,243321,36483,243321,55283,394.97971498521383,224.86436976384135,536.6041314754116
243321,15114,243321,36468,243321,55287,419.13055106487104,231.75906223156204,554.1688273042116
243331,15169,243331,36528,243331,55332,442.8050784993411,238.51224903685767,571.3468673813504
243331,15187,243331,36541,243331,55382,466.01203953346294,245.13094967420886,588.1515397148175
243331,15218,243331,36550,243331,55411,488.76060212935636,251.62186122670016,604.5960366820955
243331,15235,243331,36550,243331,55397,511.06052414321925,257.9918177437489,620.6940439928792
243331,15236,243331,36512,243331,55394,532.9221442088665,264.247826849842,636.459884140354
243331,15262,243331,36523,243331,55409,554.3561686641028,270.396665151919,651.9081147409804
243341,15297,243341,36598,243341,55445,575.3734120448639,276.444461252668,667.0530690246574
243341,15317,243341,36575,243341,55469,595.9847397275828,282.3968712471959,681.9087731142888
243341,15343,243341,36590,243341,55420,616.2011941645096,288.25963806299114,696.4890514341962
243341,15339,243341,36569,243341,55496,636.0340635448681,294.0388160389267,710.8073644648525
243341,15348,243341,36513,243341,55467,655.494716468165,299.7404339016641,724.8765139937063
243341,15374,243341,36561,243341,55485,674.5942427482651,305.3697598714531,738.7085048271156
243352,15406,243352,36585,243352,55518,693.3431833115887,310.9307232113731,752.3144148272706
243352,15424,243352,36621,243352,55569,711.75154311745,316.4260748878827,765.7044044346526
243352,15457,243352,36624,243352,55563,729.8289693914012,321.858060560741,778.8881142393054
243352,15446,243352,36594,243352,55559,747.5848864104619,327.2289238169843,791.8750475547083
243352,15463,243352,36599,243352,55541,765.0284226127851,332.54086316164774,804.6744317565547
243352,15475,243352,36592,243352,55570,782.1681236637571,337.79560661598623,817.2946673673687
243362,15527,243362,36641,243362,55620,799.0117304657174,342.99409562118956,829.7429373112061
243362,15539,243362,36649,243362,55645,815.5662869502642,348.1366121104551,842.0254030806477
243362,15556,243362,36649,243362,55585,831.8384458670726,353.223213131177,854.1476395093975
243362,15537,243362,36620,243362,55631,847.834579744587,358.25397517260944,866.1145632274179
243362,15565,243362,36611,243362,55599,863.5605227738713,363.2287304741385,877.9298748623146
243362,15583,243362,36647,243362,55653,879.0212044779373,368.146558400044,889.59559766958
243372,15630,243372,36677,243372,55682,894.2205594940463,373.00562281802513,901.1120059222033
243372,15647,243372,36707,243372,55692,909.1618064079332,377.80361252678324,912.477945025139
243372,15644,243372,36675,243372,55695,923.8478182673998,382.5383901652025,923.6912236013757
243372,15661,243372,36663,243372,55701,938.2812305236469,387.20822434552144,934.7487011777105
243372,15658,243372,36665,243372,55710,952.4642519092408,391.8114492531432,945.6461221383368
243372,15682,243372,36690,243372,55785,966.398396736992,396.34602734730356,956.3780542517254
243383,15713,243383,36714,243383,55794,980.0843368820179,400.8095049621537,966.9382799926377
243383,15727,243383,36711,243383,55798,993.5219907816024,405.1993406401738,977.3204809618089
243383,15737,243383,36671,243383,55774,1006.7107381324856,409.5131448700655,987.5185700378709
243383,15730,243383,36676,243383,55741,1019.6494810200188,413.7484245452563,997.5263233895328
243383,15753,243383,36685,243383,55781,1032.3364644854094,417.9020325737042,1007.3365796854555
243383,15785,243383,36706,243383,55832,1044.7690933491067,421.96986913041167,1016.9407129942781
243393,15810,243393,36746,243393,55882,1056.9440347459297,425.94705929297515,1026.32895637614
243393,15817,243393,36773,243393,55885,1068.857553844193,429.82853029126716,1035.4913356247043
243393,15821,243393,36737,243393,55848,1080.5057550175397,433.60969508507844,1044.4183736290486
243393,15828,243393,36706,243393,55869,1091.8845565778622,437.2866595984194,1053.1010395097367
243393,15838,243393,36698,243393,55835,1102.9895084817858,440.8556886527514,1061.5301958048055
243393,15887,243393,36764,243393,55921,1113.8156980199906,444.31253582310194,1069.6961369574665
243403,15878,243403,36779,243403,55955,1124.3579176793614,447.6524650457882,1077.5887233160886
243403,15894,243403,36751,243403,55947,1134.6109273728673,450.8708710264681,1085.1981473904336
243403,15878,243403,36732,243403,55912,1144.5694813436696,453.96360006962584,1092.5155434407632
243403,15890,243403,36706,243403,55913,1154.2280753970263,456.92654852141413,1099.532772890544
243403,15920,243403,36778,243403,55941,1163.5806635551328,459.75506513181244,1106.241792622605
243403,15952,243403,36793,243403,55959,1172.6206660922157,462.4439366061979,1112.6343653261401
243414,15955,243414,36819,243414,55977,1181.3413258147757,464.9880900637627,1118.702263942303
243414,15959,243414,36746,243414,56012,1189.736068770231,467.3832759339232,1124.4376912056605
243414,15967,243414,36750,243414,55963,1197.7985923550918,469.6259806519729,1129.833651464187
243414,15984,243414,36769,243414,55955,1205.5227963905238,471.71276964161825,1134.8839229048588
243414,15987,243414,36832,243414,56020,1212.9027678410891,473.64000173242346,1139.582638511136
243414,16017,243414,36832,243414,56021,1219.932861877421,475.4043826055333,1143.9241923560787
243424,16015,243424,36827,243424,56044,1226.6078592412418,477.0038150258399,1147.9037324849323
243424,16015,243424,36772,243424,56024,1232.92311307887,478.4377344502094,1151.5176536912406
243424,16010,243424,36755,243424,55993,1238.8745154238554,479.70664068650717,1154.7636289355726
243424,16021,243424,36739,243424,55997,1244.4582875322435,480.8111696605048,1157.640161314214
243424,16035,243424,36802,243424,56047,1249.6708087243835,481.7513852555895,1160.1460877134818
243424,16073,243424,36831,243424,56066,1254.5086882574185,482.52686594945726,1162.2806534635986
243434,16066,243434,36839,243434,56063,1258.9691086811442,483.13752351134883,1164.044123629842
243434,16062,243434,36800,243434,56058,1263.050171633863,483.58439082555833,1165.4382914692637
243434,16074,243434,36768,243434,56031,1266.7509668974278,483.8696786315786,1166.466513702816
243434,16074,243434,36792,243434,56048,1270.0714801276633,483.99619828604443,1167.1334040884772
243434,16088,243434,36832,243434,56085,1273.0125720215835,483.9669377060882,1167.4446081501158
243434,16100,243434,36834,243434,56093,1275.5760694008238,483.7853368116022,1167.4070454470473
243445,16094,243445,36846,243445,56038,1277.764921641249,483.4559426215718,1167.0293561204003
243445,16085,243445,36758,243445,56024,1279.5832827559552,482.9847295164644,1166.3218310500056
243445,16081,243445,36763,243445,56011,1281.0363854747425,482.37864941982843,1165.295728209426
243445,16096,243445,36773,243445,56035,1282.130320519271,481.64473955406515,1163.9626123668854
243445,16096,243445,36797,243445,56073,1282.871951614442,480.7896435877316,1162.3342500160652
243445,16106,243445,36831,243445,56058,1283.2690065183594,479.8198818903479,1160.4230611909704
243455,16104,243455,36784,243455,56047,1283.3302183816706,478.74244165149327,1158.2426319728434
243455,16082,243455,36745,243455,56014,1283.0653795759229,477.5649763249663,1155.807769214081
243455,16078,243455,36751,243455,56019,1282.4851862891085,476.2952903773392,1153.134111207379
243455,16088,243455,36757,243455,56044,1281.6009484546719,474.940653478845,1150.2377532112416
243455,16100,243455,36837,243455,56038,1280.4244601369198,473.507714927261,1147.1352718379794
243455,16082,243455,36806,243455,56045,1278.9681109605565,472.0031759209279,1143.844038506247
243465,16086,243465,36745,243465,55981,1277.244983217762,470.43449496994225,1140.3823640621702
243465,16062,243465,36739,243465,55978,1275.2687602151814,468.80971555210516,1136.7691461673835
243465,16060,243465,36732,243465,55988,1273.0534899637705,467.13662624099885,1133.0232232639355
243465,16072,243465,36748,243465,56010,1270.6133413875677,465.4221617033415,1129.1630557943374
243465,16075,243465,36824,243465,55997,1267.962548903134,463.67248549156795,1125.2069465636566
243465,16085,243465,36782,243465,55989,1265.1155975314084,461.89370381419417,1121.1733665727186
243476,16050,243476,36748,243476,55942,1262.0874295214428,460.09255439422685,1117.0809445598468
243476,16034,243476,36738,243476,55929,1258.8933725087852,458.27630929507774,1112.9480144234406
243476,16050,243476,36731,243476,55959,1255.5487846816172,456.4521424378132,1108.7920234875064
243476,16042,243476,36735,243476,55991,1252.068796923434,454.6266617868069,1104.6294020688088
243476,16052,243476,36786,243476,55996,1248.468353812504,452.8058731088144,1100.4761143686526
243476,16036,243476,36795,243476,55968,1244.7623587149812,450.9956459228644,1096.3483660119748
243486,16021,243486,36710,243486,55910,1240.965703928405,449.20231514927025,1092.262759411517
243486,16003,243486,36710,243486,55885,1237.093088257602,447.4325865171332,1088.2356576351833
243486,16013,243486,36734,243486,55904,1233.158708565783,445.692792072659,1084.282217655979
243486,16024,243486,36755,243486,55919,1229.1761020799618,443.9885195777951,1080.4158614799003
243486,16014,243486,36765,243486,55933,1225.1582745843818,442.3249839154244,1076.6484518004697
243486,16002,243486,36723,243486,55904,1221.1178894330458,440.7075332034481,1072.9907447434157
243496,15987,243496,36675,243496,55900,1217.0672457834823,439.14161150137477,1069.4525870780017
243496,15968,243496,36697,243496,55888,1213.0180335023313,437.6320868706577,1066.0427583841356
243496,16005,243496,36732,243496,55916,1208.9810748160444,436.1826549441683,1062.7687796298492
243496,16002,243496,36762,243496,55925,1204.9663619613314,434.79603222473116,1059.6370217909353
243496,16000,243496,36730,243496,55923,1200.9834147710528,433.4746941225708,1056.653106174465
243496,15977,243496,36708,243496,55898,1197.0415632463423,432.22131577185786,1053.822242087193
243507,15966,243507,36664,243507,55864,1193.1498856517744,431.0384804435889,1051.1491495387686
243507,15957,243507,36669,243507,55879,1189.3169192093549,429.92791653109344,1048.6375971695854
243507,15958,243507,36720,243507,55916,1185.550383924854,428.8899106227495,1046.290059161722
243507,15970,243507,36742,243507,55913,1181.8570872438816,427.92346932404513,1044.1079402802397
243507,15962,243507,36746,243507,55894,1178.2430376230818,427.0271185137718,1042.0920856441576
243507,15941,243507,36710,243507,55881,1174.7135866864446,426.1995933079706,1040.2429599691332
243517,15939,243517,36699,243517,55874,1171.2733690695363,425.4398926055384,1038.5604092337328
243517,15934,243517,36675,243517,55873,1167.9260903736972,424.7468176547597,1037.0433406942727
243517,15957,243517,36722,243517,55899,1164.6744302141005,424.11849048842186,1035.689590412323
243517,15959,243517,36744,243517,55909,1161.5202180937595,423.55235820040014,1034.4961058270171
243517,15955,243517,36728,243517,55874,1158.4647788066175,423.04572359899464,1033.4592916627228
243517,15939,243517,36684,243517,55866,1155.5091680352948,422.5961547264307,1032.5750780992412
243527,15928,243527,36664,243527,55880,1152.6541321546852,422.20119454649006,1031.8386263254174
243527,15924,243527,36699,243527,55876,1149.8998832758382,421.8576764634124,1031.2441026627375
243527,15946,243527,36748,243527,55918,1147.2459323554162,421.56149976569304,1030.784790572609
243527,15942,243527,36742,243527,55931,1144.691178690751,421.3082111546256,1030.4535265696918
243527,15933,243527,36734,243527,55873,1142.2341586783832,421.0937995363852,1030.2432113369453
243527,15926,243527,36694,243527,55875,1139.8731644793063,420.91496555726894,1030.1468478436213
243538,15913,243538,36712,243538,55883,1137.6061456182626,420.76880732069554,1030.1570702693057
243538,15934,243538,36719,243538,55899,1135.4305595187257,420.65243641877606,1030.2658297676785
243538,15935,243538,36736,243538,55942,1133.3433875796384,420.5629655461518,1030.4646116992856
243538,15943,243538,36755,243538,55934,1131.3413694932692,420.4978516003494,1030.745032813319
243538,15914,243538,36700,243538,55892,1129.42123733898,420.45525437486504,1031.0993592645145
243538,15902,243538,36668,243538,55863,1127.57967433195,420.43392523257114,1031.5203892103978
243548,15894,243548,36665,243548,55878,1125.8129841681794,420.4324780909128,1032.000756905347
243548,15914,243548,36707,243548,55903,1124.1167685636206,420.44867011916506,1032.5323911170412
243548,15935,243548,36748,243548,55920,1122.48594297665,420.4794328797823,1033.1066077307307
243548,15927,243548,36738,243548,55905,1120.9151068463111,420.52161958319016,1033.7145757436883
243548,15915,243548,36710,243548,55896,1119.3989163811198,420.5727137018774,1034.34760850037
243548,15893,243548,36666,243548,55891,1117.9321160382256,420.63082311743915,1034.9970780792987
243559,15894,243559,36681,243559,55905,1116.5092531503155,420.69403071183496,1035.6541979828246
243559,15906,243559,36712,243559,55913,1115.124387525775,420.75981179438816,1036.3099799917686
243559,15924,243559,36723,243559,55942,1113.7710916643364,420.82509114413097,1036.9554605845924
243559,15904,243559,36697,243559,55904,1112.4427215438607,420.88670297500425,1037.582051501663
243559,15905,243559,36669,243559,55884,1111.1326303421883,420.9415537145237,1038.181630235696
243559,15891,243559,36657,243559,55872,1109.8341310304604,420.9862225908433,1038.7461379990234
243569,15900,243569,36697,243569,55905,1108.5403436419147,421.0164332068431,1039.267053751069
243569,15910,243569,36736,243569,55918,1107.2441419477623,421.0270478533682,1039.735301073831
243569,15917,243569,36738,243569,55928,1105.938302972675,421.0127364773558,1040.1416367413701
243569,15894,243569,36736,243569,55918,1104.6157401796,420.96878013184954,1040.4771145064074
243569,15898,243569,36679,243569,55896,1103.269567591024,420.8913796950996,1040.7332581050505
243569,15888,243569,36670,243569,55891,1101.892968766758,420.7772676364923,1040.9018668655867
243579,15888,243579,36704,243579,55931,1100.4790529964332,420.62302162759704,1040.9747395406516
243579,15920,243579,36712,243579,55929,1099.0208466597796,420.4248046008613,1040.9437497047663
243579,15927,243579,36756,243579,55942,1097.5115575894351,420.1787681441192,1040.801275004897
243579,15894,243579,36702,243579,55883,1095.9449993300516,419.88168020455703,1040.5404948306832
243579,15865,243579,36641,243579,55898,1094.3156776752664,419.53106082536027,1040.155192379269
243579,15876,243579,36664,243579,55885,1092.6183696898831,419.12448198765964,1039.6392657320503
243590,15879,243590,36724,243590,55916,1090.8476871613111,418.6588188695027,1038.986452053964
243590,15896,243590,36728,243590,55958,1088.9980435624261,418.13045434556193,1038.1905484351087
243590,15895,243590,36728,243590,55919,1087.0639356572185,417.53613934040897,1037.2460202929665
243590,15885,243590,36696,243590,55880,1085.0402505352934,416.87354787934265,1036.1483924381862
243590,15860,243590,36659,243590,55870,1082.9223513558,416.1411383811779,1034.8938988366776
243590,15864,243590,36689,243590,55898,1080.7058772056735,415.33757828077705,1033.4788161951383
243600,15894,243600,36738,243600,55927,1078.3865425668005,414.4614241463027,1031.8993011018636
243600,15885,243600,36716,243600,55914,1075.9602846125822,413.5115227909964,1030.1518522667345
243600,15863,243600,36710,243600,55891,1073.4235925256312,412.4876355879947,1028.2337969366633
243600,15841,243600,36667,243600,55880,1070.7735312492275,411.390547363339,1026.143301735877
243600,15842,243600,36648,243600,55845,1068.0073950262345,410.2215849954001,1023.87897884582
243600,15850,243600,36648,243600,55876,1065.1223813996626,408.98190794553057,1021.4394174527481
243610,15859,243610,36694,243610,55896,1062.1155812272848,407.67207256615427,1018.8230189466951
243610,15872,243610,36732,243610,55903,1058.9842605154024,406.2923052514901,1016.0283544787073
243610,15854,243610,36680,243610,55872,1055.7262317898314,404.84329215597074,1013.0546988675862
243610,15834,243610,36634,243610,55856,1052.3400459326294,403.3265687218368,1009.9021803263781
243610,15802,243610,36662,243610,55862,1048.8248062279513,401.744045558914,1006.5715136489714
243610,15844,243610,36652,243610,55878,1045.179772632837,400.0973870245087,1003.0637863543573
243621,15829,243621,36680,243621,55884,1041.404229853416,398.3879264627741,999.3806235836457
243621,15835,243621,36699,243621,55887,1037.4977386494934,396.61702293613126,995.5246021929102
243621,15816,243621,36673,243621,55833,1033.460393976179,394.7865598909316,991.499535548551
243621,15794,243621,36629,243621,55785,1029.2928228420133,392.8991667979746,987.3102181233314
243621,15782,243621,36612,243621,55781,1024.9959340210717,390.9578095543309,982.9615771556923
243621,15802,243621,36628,243621,55843,1020.5706219712373,388.96506728856707,978.4579253590612
243631,15792,243631,36685,243631,55844,1016.0177203929023,386.9228523492377,973.8030977049456
243631,15800,243631,36663,243631,55799,1011.3382175401371,384.8328870707772,969.0011766753163
243631,15767,243631,36633,243631,55809,1006.533453980856,382.6973463249363,964.056844586993
243631,15755,243631,36629,243631,55748,1001.6050761139525,380.51892916260226,958.9751240513009
243631,15764,243631,36606,243631,55764,996.5547939676046,378.3004505401946,953.7608767569321
243631,15768,243631,36663,243631,55779,991.3842629723117,376.044533851675,948.4184186147489
243641,15755,243641,36657,243641,55797,986.0952373834016,373.7537886828087,942.9516093067203
243641,15756,243641,36625,243641,55787,980.6897706636306,371.43129763640576,937.3643816922964
243641,15739,243641,36585,243641,55756,975.170292772457,369.08072205262926,931.66119084469
243641,15719,243641,36575,243641,55721,969.5395622682315,366.7057411793709,925.8469717682316
243641,15720,243641,36582,243641,55727,963.8005012378594,364.3093346556245,919.9266764803916
243641,15718,243641,36609,243641,55745,957.9560445055162,361.8934910256707,913.9048962294113
243652,15715,243652,36609,243652,55725,952.0091608746767,359.45945754237135,907.7859309337045
243652,15697,243652,36591,243652,55729,945.9629673811222,357.00817704196135,901.5740729647944
243652,15683,243652,36551,243652,55684,939.8207401571115,354.54040389217323,895.2737084813585
243652,15671,243652,36572,243652,55682,933.5857691867996,352.05636946325785,888.8891208200114
243652,15665,243652,36606,243652,55696,927.2611701737582,349.5555010036364,882.424200195341
243652,15693,243652,36618,243652,55716,920.8498436426448,347.0367281740274,875.8824724077517
243662,15654,243662,36605,243662,55699,914.3546742622827,344.49916881070055,869.2675476151323
243662,15648,243662,36579,243662,55663,907.7787233984373,341.94254837907437,862.5835235922107
243662,15629,243662,36540,243662,55639,901.1251395732623,339.36703339299936,855.834894089173
243662,15625,243662,36541,243662,55628,894.3969243426376,336.7726366587922,849.0260653641259
243662,15634,243662,36575,243662,55637,887.5968226428633,334.15870027306846,842.160938105857
243662,15623,243662,36586,243662,55644,880.7274245274913,331.52395421189124,835.2428662579848
243672,15619,243672,36577,243672,55648,873.7913749919016,328.8670473214495,828.274968331577
243672,15594,243672,36586,243672,55613,866.7914934723357,326.18702255494213,821.2605016996622
243672,15586,243672,36528,243672,55610,859.7307098383233,323.4834410296638,814.2029759710185
243672,15580,243672,36564,243672,55578,852.6119058280066,320.7561650505359,807.105966882355
243672,15591,243672,36570,243672,55609,845.4378601537926,318.00513402736647,799.972891652555
243672,15578,243672,36598,243672,55617,838.2114044388786,315.23057850729475,792.807077571141
243683,15571,243683,36558,243683,55572,830.935656324481,312.4335367315087,785.6121338239989
243683,15535,243683,36532,243683,55539,823.6140948993177,309.6160645641211,778.3920921819295
243683,15530,243683,36492,243683,55533,816.2503791843767,306.78082305717464,771.1509987077109
243683,15515,243683,36521,243683,55518,808.8480471715812,303.93035726443304,763.8923772848
243683,15525,243683,36520,243683,55569,801.4103401674308,301.06667940999984,756.6190727912217
243683,15524,243683,36555,243683,55553,793.940279819659,298.1914356057646,749.3336276049195
243693,15498,243693,36515,243693,55515,786.440892484565,295.30637880102864,742.0388554042347
243693,15484,243693,36486,243693,55491,778.915305606323,292.4135913832498,734.7379686304419
243693,15460,243693,36462,243693,55490,771.3665804169414,289.5151275046265,727.4341907095958
243693,15471,243693,36522,243693,55493,763.7974569168298,286.61246564582086,720.1304195693813
243693,15474,243693,36545,243693,55484,756.2102923319856,283.7065646494477,712.829247927129
243693,15458,243693,36512,243693,55467,748.6072658096926,280.79858995526837,705.5331338336792
243703,15460,243703,36475,243703,55449,740.990632732978,277.890419563003,698.2444380638995
243703,15416,243703,36442,243703,55424,733.3628079916982,274.9843164933858,690.9652533928216
243703,15404,243703,36437,243703,55423,725.7261911127342,272.08211374346087,683.697124841298
243703,15414,243703,36494,243703,55434,718.0828444737153,269.1846543735247,676.4408793840955
243703,15416,243703,36486,243703,55440,710.4343867667178,266.2919662914902,669.1967755340988
243703,15392,243703,36471,243703,55447,702.7822028280661,263.40388433710416,661.9649403903875
243714,15378,243714,36474,243714,55392,695.1276095552216,260.5204214755785,654.7457743854927
243714,15357,243714,36415,243714,55376,687.4717532280852,257.64167458582585,647.5399290950432
243714,15356,243714,36420,243714,55387,679.8153859200136,254.76738828866945,640.3479005907602
243714,15366,243714,36502,243714,55418,672.1587698763958,251.8965714392444,633.1698555477751
243714,15366,243714,36528,243714,55403,664.5018575641769,249.02793530367504,626.0060442367924
243714,15343,243714,36446,243714,55342,656.8446259545415,246.16098749967819,618.8572883881276
243724,15337,243724,36431,243724,55330,649.1872675462391,243.29646024501267,611.7248538242989
243724,15311,243724,36398,243724,55288,641.53014098518,240.43563580113357,604.6097685436343
243724,15296,243724,36409,243724,55314,633.8735824557548,237.57944131366358,597.512164999813
243724,15305,243724,36452,243724,55350,626.2177033005597,234.72806988600556,590.4311322390403
243724,15313,243724,36464,243724,55346,618.5623863454355,231.8813221359406,583.3652499035204
243724,15298,243724,36400,243724,55277,610.907567941079,229.0392513387673,576.3132779547828
243734,15272,243734,36417,243734,55300,603.2535163264663,226.20232897797416,569.2742392111167
243734,15240,243734,36396,243734,55273,595.600770372457,223.3710801045813,562.247052582459
243734,15244,243734,36405,243734,55284,587.9497811910976,220.54577739167232,555.2303484311117
243734,15259,243734,36411,243734,55287,580.3006593114795,217.72641243016122,548.2225814429331
243734,15249,243734,36419,243734,55302,572.6533269151447,214.91286735475308,541.2223459330542
243734,15222,243734,36393,243734,55260,565.0078464419043,212.10516334989674,534.2287823226089
243745,15196,243745,36357,243745,55216,557.3644722491792,209.303474383312,527.2416761515285
243745,15193,243745,36368,243745,55210,549.7233706773131,206.50775236275615,520.2610068043234
243745,15202,243745,36377,243745,55215,542.0843748028035,203.7173360760388,513.2863648653816
243745,15197,243745,36398,243745,55247,534.4470612392213,200.93098913503445,506.3168431961825
243745,15186,243745,36411,243745,55224,526.8110356578193,198.14735480005373,499.3514725746362
243745,15162,243745,36358,243745,55175,519.1761174056002,195.36543714097996,492.38965349037085
243755,15151,243755,36341,243755,55163,511.54228359028264,192.58461680908874,485.43102557363375
243755,15138,243755,36354,243755,55178,503.9094798903974,189.80417716531593,478.4749851395777
243755,15140,243755,36401,243755,55179,496.27748629386986,187.0230288498459,471.5205207085114
243755,15140,243755,36404,243755,55184,488.64595513898576,184.2401427918777,464.5665182972516
243755,15124,243755,36355,243755,55162,481.01459312746124,181.4552505185851,457.61216819045694
243755,15104,243755,36313,243755,55127,473.3832991086455,178.668939566968,450.65711704485363
243766,15090,243766,36310,243766,55078,465.7521018120076,175.88196591811874,443.7011629748797
243766,15092,243766,36335,243766,55099,458.12099668869246,173.0945140005873,436.7436110059152
243766,15085,243766,36349,243766,55148,450.48990244253116,170.30608623649158,429.7829223264149
243766,15097,243766,36378,243766,55109,442.85881819447343,167.51600391083178,422.8171228137836
243766,15060,243766,36338,243766,55119,435.2280679480956,164.72406201283326,415.8444770887562
243766,15037,243766,36307,243766,55085,427.59836724208515,161.93079368273885,408.86377044250196
243776,15034,243776,36276,243776,55075,419.97058447972995,159.1370690404221,401.8742229677341
243776,15040,243776,36286,243776,55092,412.3454943953602,156.34335824675424,394.8753374611275
243776,15023,243776,36329,243776,55076,404.7238150418183,153.54932660140338,387.86693408267047
243776,15020,243776,36339,243776,55078,397.1063866088414,150.75414617009892,380.84938797199607
243776,14993,243776,36308,243776,55036,389.4942491966633,147.95719003375427,373.823790547556
243776,14968,243776,36264,243776,55005,381.88853249196086,145.1583179051363,366.79178352938675
243786,14967,243786,36276,243786,54989,374.2901856408304,142.35747183176113,359.7550575531004
243786,14965,243786,36283,243786,55005,366.69975774654915,139.55415874947096,352.71485125939057
243786,14967,243786,36309,243786,55028,359.11743740112,136.74742295838655,345.67190614060326
243786,14959,243786,36332,243786,55012,351.54329051579305,133.93633281995506,338.6269317397332
243786,14947,243786,36289,243786,54986,343.9774981124133,131.1206133819785,331.5811096422799
243786,14908,243786,36246,243786,54948,336.4204159783984,128.30085224139458,324.5361404171649
243797,14922,243797,36258,243797,54951,328.8724015332083,125.47802973274827,317.4938536995202
243797,14938,243797,36317,243797,54955,321.33369323442014,122.65304934556673,310.45584681304877
243797,14907,243797,36298,243797,54974,313.8046278505723,119.82702520944719,303.42354244813635
243797,14890,243797,36238,243797,54933,306.28590417091345,117.00187127747358,296.3985661760198
243797,14872,243797,36219,243797,54902,298.77851065152663,114.18018637969561,289.38293174484636
243797,14855,243797,36202,243797,54866,291.2834404169114,111.36444115534391,282.378692090581
243807,14854,243807,36229,243807,54899,283.80145261816483,108.5562782957374,275.38735550609385
243807,14861,243807,36243,243807,54901,276.3330116548076,105.75641576317611,268.4096962776084
243807,14856,243807,36282,243807,54896,268.8784669659469,102.9651286474637,261.44611758632425
243807,14839,243807,36226,243807,54872,261.43833980298314,100.18294333666398,254.4970910685521
243807,14813,243807,36210,243807,54842,254.01344578613407,97.41093079743405,247.5632338651144
243807,14801,243807,36175,243807,54825,246.6047459641493,94.65030752774993,240.64501301958865
243817,14793,243817,36236,243817,54833,239.21308824400467,91.90184400629977,233.74236457064205
243817,14809,243817,36233,243817,54875,231.83910223948624,89.16582128183359,226.85465432537467
243817,14790,243817,36226,243817,54851,224.48336083479307,86.44255388938353,219.98117661018864
243817,14756,243817,36175,243817,54798,217.1465797561233,83.73275256397983,213.12170126992885
243817,14746,243817,36162,243817,54763,209.8295212128544,81.03723497370504,206.27634646178308
243817,14730,243817,36165,243817,54770,202.5326622922156,78.35627991221753,199.44486426705078
243828,14716,243828,36196,243828,54794,195.25591747213537,75.68926442256515,192.62615062820225
243828,14746,243828,36211,243828,54801,187.99855689494382,73.03490763961423,185.81845519179967
243828,14730,243828,36225,243828,54784,180.75941146703553,70.3919291129942,179.01998752876193
243828,14715,243828,36174,243828,54765,173.53724540075905,67.75963190311484,172.2293409939026
243828,14693,243828,36124,243828,54729,166.3309238632129,65.13787622219047,165.4454711891276
243828,14679,243828,36129,243828,54723,159.1392685074445,62.52634245590684,158.66734442151483
243838,14696,243838,36183,243838,54749,151.96087007197434,59.923822231530835,151.8936224806846
243838,14689,243838,36199,243838,54745,144.79414545004522,57.328373341541806,145.1227682718851
243838,14665,243838,36182,243838,54734,137.63759272248694,54.73814225789215,138.35349139287734
243838,14641,243838,36124,243838,54691,130.48988397646383,52.15188290647063,131.58502776561397
243838,14633,243838,36088,243838,54666,123.3496522686089,49.56857880620208,124.81693360936754
243838,14627,243838,36133,243838,54657,116.2152257362261,46.98656526269161,118.04855162642207
243848,14631,243848,36148,243848,54683,109.0845578149449,44.40311494401698,111.27862296461524
243848,14630,243848,36169,243848,54692,101.9553819442308,41.8148714006295,104.50542341080279
243848,14619,243848,36157,243848,54652,94.8254754677331,39.2186003980695,97.7272538574797
243848,14595,243848,36127,243848,54634,87.69284054004152,36.611631808683114,90.94268809196615
243848,14589,243848,36101,243848,54625,80.55567460988118,33.99175133697048,84.150355346472
243848,14577,243848,36150,243848,54618,73.41222565326063,31.356803222008693,77.3486360853924
243859,14589,243859,36176,243859,54643,66.26074065296234,28.704690028510242,70.53562724537596
243859,14602,243859,36129,243859,54627,59.09965713028396,26.033945655788102,63.70942554433054
243859,14549,243859,36115,243859,54571,51.92794873399771,23.344120708897663,56.86842130796049
243859,14524,243859,36090,243859,54580,44.74518780588596,20.635492558051396,50.011165744864684
243859,14525,243859,36081,243859,54570,37.55114281599424,17.90848258336996,43.135973615424064
243859,14524,243859,36094,243859,54550,30.345390299958353,15.163233912559406,36.24073488835211
243869,14521,243869,36125,243869,54577,23.12731569150162,12.399576297124952,29.322955674197033
243869,14505,243869,36119,243869,54555,15.896314853675221,9.617436808204786,22.379937430860082
243869,14476,243869,36059,243869,54546,8.651876574570679,6.817271370792639,15.409037849861534
243869,14473,243869,36035,243869,54519,1.3934347363191364,3.999873591732978,8.40776660875565
243869,14467,243869,36060,243869,54528,-5.879841862060971,1.1656559816855179,1.3736654756817188
243869,14471,243869,36093,243869,54550,-13.169079167611812,-1.6857303005077142,-5.695705388379679
243879,14471,243879,36109,243879,54551,-20.47550652645134,-4.554967691312754,-12.802399631805201
243879,14457,243879,36070,243879,54518,-27.800175839995063,-7.442326187929211,-19.947541769382383
243879,14438,243879,36034,243879,54444,-35.14377737555287,-10.347398390961928,-27.131218176905918
243879,14417,243879,36023,243879,54460,-42.50668172302153,-13.269548347929856,-34.35307317054264
243879,14415,243879,36048,243879,54471,-49.88914109816881,-16.208527806066172,-41.61300102954772
243879,14420,243879,36063,243879,54497,-57.291415233427415,-19.1646042074334,-48.91115484262093
243890,14412,243890,36081,243890,54483,-64.7136619792044,-22.138117462853415,-56.24732885043818
243890,14393,243890,36062,243890,54453,-72.15572010805624,-25.12886619865708,-63.62037199869292
243890,14372,243890,36010,243890,54387,-79.61704740743392,-28.13583142717249,-71.0281770997891
243890,14352,243890,35996,243890,54387,-87.09689704465814,-31.15753513860568,-78.46831445206533
243890,14356,243890,36027,243890,54426,-94.59457639954678,-34.192693861590726,-85.93869882193508
243890,14355,243890,36029,243890,54407,-102.10954756963702,-37.24044679377738,-93.43757954250714
243900,14359,243900,36048,243900,54392,-109.64126231829198,-40.29999664628093,-100.96305617247151
243900,14318,243900,36026,243900,54325,-117.18891160114379,-43.37010642899577,-108.51292117193168
243900,14305,243900,35962,243900,54332,-124.75141349085618,-46.44895004423273,-116.08511500704992
243900,14284,243900,35958,243900,54306,-132.327706314617,-49.534600051731786,-123.67836472817851
243900,14305,243900,35980,243900,54333,-139.91703538996342,-52.6257843447068,-131.29249611037812
243900,14298,243900,36016,243900,54351,-147.5189176967608,-55.72209826073794,-138.92824131201462
243910,14282,243910,35986,243910,54331,-155.13284927447444,-58.82352038961602,-146.58666955933302
243910,14263,243910,35961,243910,54320,-162.75810749520883,-61.9299505162644,-154.2686536835613
243910,14238,243910,35956,243910,54278,-170.39384048957925,-65.04130194309732,-161.97475294632613
243910,14236,243910,35937,243910,54270,-178.03932435447962,-68.1579053515033,-169.70549391948487
243910,14250,243910,35988,243910,54288,-185.69411699564353,-71.28073446471353,-177.46170334884562
243910,14221,243910,36005,243910,54285,-193.35794471164093,-74.41113173141161,-185.24449229193726
243921,14217,243921,35972,243921,54276,-201.0305178403264,-77.55013316645068,-193.0548935323352
243921,14188,243921,35926,243921,54224,-208.7115405903753,-80.69809859112081,-200.8936096031864
243921,14187,243921,35913,243921,54210,-216.40087864610166,-83.8551207940717,-208.76122149675916
243921,14179,243921,35922,243921,54241,-224.09870242476313,-87.02175421645438,-216.65861114762015
243921,14177,243921,35953,243921,54241,-231.80548659548936,-90.1993265205657,-224.5869804398833
243921,14182,243921,35985,243921,54260,-239.5218557414239,-93.38956184516115,-232.54731493741815
243931,14171,243931,35937,243931,54207,-247.2483328214994,-96.59384557632586,-240.5397739537674
243931,14133,243931,35900,243931,54173,-254.98515231755005,-99.81287936260622,-248.56355334508885
243931,14120,243931,35893,243931,54157,-262.7323667368671,-103.04710476984303,-256.6173404273086
243931,14127,243931,35932,243931,54178,-270.4901533761407,-106.29730260324368,-264.6998611867904
243931,14138,243931,35964,243931,54178,-278.2588983916437,-109.5645422041506,-272.80994306833736
243931,14124,243931,35937,243931,54171,-286.0389084200398,-112.84948272284174,-280.94612778920043
243941,14094,243941,35907,243941,54135,-293.8300958007933,-116.15180951953909,-289.10631789375475
243941,14069,243941,35874,243941,54100,-301.6320138096845,-119.47038041542316,-297.28783554000574
243941,14046,243941,35841,243941,54084,-309.4442358400314,-122.80392395471097,-305.48788549520543
243941,14068,243941,35893,243941,54089,-317.266746658124,-126.15174532973634,-313.70405815889035
243941,14069,243941,35914,243941,54088,-325.0999794555206,-129.51383693710005,-321.9344942685424
243941,14054,243941,35892,243941,54085,-332.9444825139019,-132.8903004977401,-330.1776911313624
243952,14028,243952,35883,243952,54050,-340.80062426735026,-136.28077893026096,-338.4322540068148
243952,14008,243952,35811,243952,54049,-348.6686484048412,-139.68451116765846,-346.6968679211951
243952,14004,243952,35834,243952,54042,-356.54895353589257,-143.10095731415447,-354.9704231833002
243952,14013,243952,35871,243952,54042,-364.4422655249932,-146.5303728818327,-363.2520254943495
243952,14008,243952,35923,243952,54055,-372.3495122563918,-149.9735691813495,-371.54078546077073
243952,13995,243952,35865,243952,54006,-380.27152830642046,-153.4309630733543,-379.8355231355996
243962,13974,243962,35836,243962,53987,-388.2088728218572,-156.90197042129216,-388.13471141991545
243962,13944,243962,35815,243962,53961,-396.1619143870877,-160.38533416549052,-396.4368243122593
243962,13951,243962,35838,243962,53959,-404.1311039413672,-163.8798062313939,-404.7408047131744
243962,13960,243962,35840,243962,53989,-412.1171342033863,-167.38440620165386,-413.0462410198029
243962,13956,243962,35858,243962,53982,-420.1207488178609,-170.89815965278922,-421.35306434302856
243962,13932,243962,35812,243962,53953,-428.14239143823,-174.4197189113567,-429.66102135705114
243973,13900,243973,35789,243973,53907,-436.18209947286823,-177.9473418397398,-437.9695015764138
243973,13893,243973,35763,243973,53908,-444.2397558147977,-181.4793804755597,-446.2779093048558
243973,13901,243973,35828,243973,53922,-452.31539297556844,-185.0148161470034,-454.5860885149407
243973,13902,243973,35858,243973,53927,-460.40919143183316,-188.55310853042238,-462.8942724892976
243973,13894,243973,35833,243973,53936,-468.5211843309619,-192.09331214248527,-471.20259466117136
243973,13865,243973,35759,243973,53887,-476.6509903285656,-195.63343167838246,-479.51059373226826
243983,13836,243983,35757,243983,53848,-484.7978518135983,-199.17079536497027,-487.8171663860004
243983,13831,243983,35748,243983,53847,-492.96096639564007,-202.70297081912372,-496.12105261247893
243983,13836,243983,35767,243983,53845,-501.1397919334223,-206.2283148423171,-504.4213558471346
243983,13830,243983,35786,243983,53857,-509.33404383588845,-209.7458981893156,-512.7176183425568
243983,13834,243983,35809,243983,53842,-517.5434453695104,-213.25499357185265,-521.0095226358562
243983,13809,243983,35734,243983,53808,-525.767459668512,-216.75451751222914,-529.2966117347794
243993,13778,243993,35725,243993,53788,-534.0052159551337,-220.24302712167287,-537.5783518344776
243993,13774,243993,35709,243993,53776,-542.2557230837504,-223.71935481203167,-545.8544869913151
243993,13783,243993,35790,243993,53790,-550.518125570376,-227.18308768790513,-554.1253154321926
243993,13791,243993,35747,243993,53817,-558.7916358500886,-230.63426227906,-562.3915576443744
243993,13760,243993,35739,243993,53774,-567.0751893411443,-234.07273806202937,-570.6538526698494
243993,13729,243993,35696,243993,53728,-575.3672675664593,-237.49809366553927,-578.9124431594935
244003,13711,244003,35683,244003,53722,-583.6661504322292,-240.9101287400763,-587.1674964146691
244003,13714,244003,35702,244003,53740,-591.9703386795727,-244.3094514073009,-595.419630359133
244003,13707,244003,35761,244003,53719,-600.2787478931784,-247.69757453252362,-603.6700049415699
244003,13708,244003,35755,244003,53728,-608.5906073348635,-251.07625974348258,-611.9200599002895
244003,13697,244003,35739,244003,53696,-616.9052437530627,-254.44660294228305,-620.1712914595973
244003,13687,244003,35667,244003,53678,-625.2219019790666,-257.80871527307403,-628.4252358869194
244013,13649,244013,35667,244013,53646,-633.5397156667336,-261.1622787880956,-636.6837023647804
244013,13653,244013,35656,244013,53680,-641.85788891624,-264.50743444869073,-644.9490871611854
244013,13661,244013,35744,244013,53709,-650.1758864412195,-267.8451585750631,-653.2243035876352
244013,13671,244013,35711,244013,53687,-658.4933024428676,-271.17674727935247,-661.5121394681732
244013,13634,244013,35662,244013,53647,-666.809477020792,-274.5030544222884,-669.8146187955047
244013,13594,244013,35656,244013,53627,-675.1233579755083,-277.8244625377126,-678.1329948467198
244023,13576,244023,35639,244023,53601,-683.4338893253041,-281.1415017042785,-686.468235061807
244023,13599,244023,35648,244023,53587,-691.7405521845355,-284.4553574546945,-694.8215362367557
244023,13596,244023,35671,244023,53632,-700.0434792539832,-287.76795807256104,-703.1945704875591
244023,13585,244023,35694,244023,53601,-708.3431267529481,-291.0816351674084,-711.5892696949948
244023,13557,244023,35637,244023,53570,-716.639985439675,-294.3985881750078,-720.0074236073017
244023,13547,244023,35632,244023,53557,-724.9346180802319,-297.7207254259154,-728.4506622332253
244034,13549,244034,35640,244034,53546,-733.2278513386901,-301.05000111365166,-736.920784021557
244034,13553,244034,35652,244034,53574,-741.5208023263768,-304.38865515205043,-745.419923847446
244034,13534,244034,35675,244034,53584,-749.8146790760013,-307.7389814711168,-753.9502713589118
244034,13532,244034,35649,244034,53568,-758.1105754955082,-311.1028472915737,-762.5134610452371
244034,13501,244034,35593,244034,53517,-766.4094267135685,-314.48147733400947,-771.1101419198292
244034,13480,244034,35592,244034,53480,-774.7121551415826,-317.875867173762,-779.7401841325002
244044,13497,244044,35612,244044,53502,-783.0199202043266,-321.28744726435747,-788.4033241676887
244044,13491,244044,35661,244044,53511,-791.334186367073,-324.71819215421743,-797.0995241406397
244044,13483,244044,35646,244044,53518,-799.6564981208012,-328.1699846218688,-805.828680931389
244044,13474,244044,35613,244044,53453,-807.9882249670071,-331.6439004762364,-814.5901485944469
244044,13435,244044,35574,244044,53427,-816.3305090859312,-335.14015060183846,-823.3827742603271
244044,13430,244044,35557,244044,53424,-824.6844621936943,-338.65870450127716,-832.2054880270505
244054,13432,244054,35588,244054,53424,-833.0514496556535,-342.1999861847249,-841.0578134539808
244054,13438,244054,35643,244054,53425,-841.4331420739614,-345.76495029122026,-849.9399020421226
244054,13433,244054,35637,244054,53446,-849.8312574072133,-349.3543380815207,-858.8522171890693
244054,13424,244054,35573,244054,53396,-858.2472263018057,-352.9678195577007,-867.795116537741
244054,13377,244054,35534,244054,53369,-866.6820537882779,-356.604003196882,-876.7687050757334
244054,13378,244054,35514,244054,53352,-875.1365209850889,-360.2613537851182,-885.7731795631319
244065,13375,244065,35561,244065,53385,-883.6115223834414,-363.9391097402524,-894.809245376687
244065,13368,244065,35576,244065,53384,-892.108176442958,-367.63740666830574,-903.8780330526582
244065,13372,244065,35586,244065,53370,-900.6276831627811,-371.3566516989799,-912.9805812922355
244065,13345,244065,35537,244065,53344,-909.1711390626325,-375.0968649982088,-922.1174368521197
244065,13320,244065,35512,244065,53299,-917.7395058405596,-378.85763401803007,-931.2887213968233
244065,13314,244065,35518,244065,53309,-926.3338196948866,-382.638631916348,-940.4945600646723
244075,13323,244075,35550,244075,53326,-934.9554206953878,-386.44002828313666,-949.7354042643476
244075,13306,244075,35558,244075,53337,-943.6059289696888,-390.2622862528005,-959.0118196706294
244075,13299,244075,35549,244075,53295,-952.28707087389,-394.10557265625624,-968.323937734194
244075,13289,244075,35503,244075,53262,-961.0005858030286,-397.96939843813516,-977.6712223315137
244075,13275,244075,35473,244075,53228,-969.7482237085653,-401.8528738444798,-987.052842970706
244075,13259,244075,35502,244075,53231,-978.5317867244273,-405.7553497151523,-996.468312561605
244085,13260,244085,35508,244085,53275,-987.3532047287142,-409.67676696013683,-1005.9177887296424
244085,13255,244085,35523,244085,53271,-996.214547646621,-413.6174025859496,-1015.4016804918741
244085,13240,244085,35493,244085,53237,-1005.1179238421685,-417.5774028539326,-1024.9199083761
244085,13218,244085,35470,244085,53206,-1014.06541226652,-421.55662366211124,-1034.4715768732322
244085,13214,244085,35452,244085,53166,-1023.0591497206245,-425.5549238559487,-1044.0553101727837
244085,13216,244085,35477,244085,53186,-1032.1014375781037,-429.57259172406845,-1053.669842419523
244096,13218,244096,35525,244096,53210,-1041.1946574349004,-433.610350182949,-1063.314259465359
244096,13196,244096,35504,244096,53171,-1050.3410300181686,-437.66873827176045,-1072.9876735959947
244096,13190,244096,35467,244096,53132,-1059.542450009563,-441.74744570058596,-1082.6888918355853
244096,13165,244096,35433,244096,53115,-1068.8005080198939,-445.84533505045675,-1092.4166505739531
244096,13150,244096,35413,244096,53108,-1078.1166450159294,-449.96111723308167,-1102.1701534721437
244096,13146,244096,35455,244096,53132,-1087.4923521284381,-454.0940205097606,-1111.9493258068205
244106,13158,244106,35469,244106,53135,-1096.9292478265752,-458.2438520614084,-1121.7545606464555
244106,13141,244106,35459,244106,53088,-1106.428906941761,-462.4104622531998,-1131.5862341152579
244106,13123,244106,35440,244106,53089,-1115.9926216032436,-466.5932308627642,-1141.4445118577391
244106,13097,244106,35412,244106,53051,-1125.6213854536486,-470.791036690399,-1151.329560024249
244106,13095,244106,35395,244106,53066,-1135.316107176188,-475.00263771929343,-1161.2418288833514
244106,13091,244106,35428,244106,53063,-1145.077796289633,-479.22709151916075,-1171.182129782072
244116,13092,244116,35437,244116,53076,-1154.9075289288246,-483.46377678369106,-1181.1514002074637
244116,13079,244116,35434,244116,53047,-1164.806246196816,-487.7119553218791,-1191.1502925171314
244116,13054,244116,35403,244116,53017,-1174.7745955240994,-491.97035212496917,-1201.1789485595386
244116,13027,244116,35345,244116,52973,-1184.8130052369897,-496.2372554189206,-1211.2372272973548
244116,13038,244116,35388,244116,52959,-1194.921945769559,-500.51111650584375,-1221.325304478985
244116,13041,244116,35416,244116,53017,-1205.1020476391325,-504.7909411444994,-1231.4441465239124
244127,13024,244127,35399,244127,53004,-1215.353902131364,-509.07594230405243,-1241.5952960203808
244127,13023,244127,35368,244127,52998,-1225.6777834763097,-513.3650047769133,-1251.780128681698
244127,12993,244127,35357,244127,52959,-1236.0735292756813,-517.6566861711817,-1261.9993385898183
244127,12981,244127,35335,244127,52939,-1246.5406014365071,-521.9496430155589,-1272.2529957207528
244127,12962,244127,35346,244127,52954,-1257.0782770243934,-526.2430408499702,-1282.5408661033125
244127,12983,244127,35386,244127,52938,-1267.685797037202,-530.5366387124953,-1292.8625332004663
244137,12967,244137,35403,244137,52919,-1278.3622626563886,-534.830333536242,-1303.2172638565398
244137,12962,244137,35368,244137,52899,-1289.1063417382097,-539.1233992215202,-1313.6039547616385
244137,12919,244137,35318,244137,52866,-1299.9161012775935,-543.4141550034961,-1324.0213294502573
244137,12916,244137,35301,244137,52843,-1310.7891500486157,-547.7004476485137,-1334.4683190851906
244137,12897,244137,35310,244137,52884,-1321.7229356577445,-551.9804638607546,-1344.9444044556117
244137,12908,244137,35336,244137,52886,-1332.714908717584,-556.2531241860926,-1355.449504360016
244147,12904,244147,35350,244147,52891,-1343.762420657584,-560.5178115739457,-1365.9833415875435
244147,12886,244147,35323,244147,52826,-1354.8624544182649,-564.7737968797476,-1376.544861243043
244147,12854,244147,35296,244147,52822,-1366.0114673908693,-569.0199522588314,-1387.1322417637393
244147,12851,244147,35279,244147,52817,-1377.2055187181957,-573.2550054432986,-1397.743318552391
244147,12848,244147,35323,244147,52862,-1388.4404746521634,-577.4779463834041,-1408.3757342443757
244147,12840,244147,35318,244147,52838,-1399.7120128219262,-581.6880014378748,-1419.0264837892032
244158,12832,244158,35337,244158,52846,-1411.015459949732,-585.8841346726119,-1429.6912308394799
244158,12792,244158,35274,244158,52765,-1422.3456958834931,-590.0646024637699,-1440.3639804063773
244158,12796,244158,35260,244158,52790,-1433.6972677822032,-594.2270552296486,-1451.0373264873272
244158,12790,244158,35259,244158,52784,-1445.0645668881234,-598.369117540479,-1461.7028660683025
244158,12789,244158,35307,244158,52793,-1456.4418009308115,-602.4887849218264,-1472.3512029782826
244158,12779,244158,35344,244158,52789,-1467.8227744874398,-606.5840586428976,-1482.971556034164
244168,12782,244168,35310,244168,52760,-1479.2006474816762,-610.6520148598653,-1493.5513785507214
244168,12746,244168,35248,244168,52727,-1490.5677570211806,-614.688216836731,-1504.076289079027
244168,12739,244168,35232,244168,52706,-1501.9156019595112,-618.687113885519,-1514.530390681291
