c_ts,c_val,d_ts,d_val,e_ts,e_val,c_val_filtered,d_val_filtered,e_val_filtered
35081.0,5884.0,35081.0,68189.0,35081.0,88894.0,-489.76174401684943,-173.67439413011232,-231.15653755080953
35081.0,5889.0,35081.0,68129.0,35081.0,88889.0,-479.86518878496753,-165.5298400753261,-223.49227716608934
35081.0,5921.0,35081.0,68193.0,35081.0,88944.0,-469.62715180582404,-157.34404432033278,-215.68074925372508
35081.0,5945.0,35081.0,68323.0,35081.0,88959.0,-459.06169213905514,-149.1390462932861,-207.73945469771388
35091.0,5973.0,35091.0,68351.0,35091.0,88982.0,-448.18303754530837,-140.93614264575803,-199.68543129341901
35091.0,5963.0,35091.0,68277.0,35091.0,88959.0,-437.005251735231,-132.75413621439657,-191.53479852429302
35091.0,5949.0,35091.0,68222.0,35091.0,88949.0,-425.542189032961,-124.60882546969577,-183.30275727755875
35091.0,5961.0,35091.0,68209.0,35091.0,88944.0,-413.80788372642246,-116.51418513558306,-175.00405207003982
35091.0,6008.0,35091.0,68268.0,35091.0,89004.0,-401.8170154505841,-108.48386132971234,-166.65346220971162
35091.0,6056.0,35091.0,68381.0,35091.0,89038.0,-389.58489159613646,-100.53151558463384,-158.26574869825842
35101.0,6063.0,35101.0,68354.0,35101.0,89058.0,-377.1268855539762,-92.66976029072038,-149.85498556484043
35101.0,6052.0,35101.0,68320.0,35101.0,89008.0,-364.457903013474,-84.90891554599887,-141.43392679487104
35101.0,6044.0,35101.0,68223.0,35101.0,89014.0,-351.5924141269274,-77.25706432589047,-133.01407622851147
35101.0,6065.0,35101.0,68229.0,35101.0,89018.0,-338.54495796313137,-69.72151491686313,-124.60632442448627
35101.0,6106.0,35101.0,68347.0,35101.0,89065.0,-325.33057034622084,-62.31030432693052,-116.22142964275375
35101.0,6137.0,35101.0,68464.0,35101.0,89088.0,-311.9647359289249,-55.03206678427517,-107.86991153459206
35112.0,6156.0,35112.0,68456.0,35112.0,89078.0,-298.4629672194467,-47.894093025485944,-99.56158587033332
35112.0,6153.0,35112.0,68326.0,35112.0,89072.0,-284.8404309940366,-40.90054109281411,-91.30530458251465
35112.0,6158.0,35112.0,68278.0,35112.0,89045.0,-271.11192717460267,-34.05276344701343,-83.10921245958957
35112.0,6170.0,35112.0,68314.0,35112.0,89084.0,-257.2921771791878,-27.35129087413239,-74.98130568470987
35112.0,6223.0,35112.0,68394.0,35112.0,89125.0,-243.3960812755709,-20.797287508723713,-66.92973947381785
35112.0,6249.0,35112.0,68457.0,35112.0,89171.0,-229.4385963765476,-14.39224247261734,-58.96246766463773
35122.0,6262.0,35122.0,68378.0,35122.0,89159.0,-215.43429045636975,-8.136701504679507,-51.0864406506721
35122.0,6252.0,35122.0,68361.0,35122.0,89121.0,-201.3970324882127,-2.0296979894745846,-43.30711220791164
35122.0,6255.0,35122.0,68300.0,35122.0,89097.0,-187.34013717738964,3.9304609456742696,-35.62878520544899
35122.0,6291.0,35122.0,68388.0,35122.0,89157.0,-173.27677785444843,9.744927487876623,-28.055445915203393
35122.0,6329.0,35122.0,68446.0,35122.0,89194.0,-159.22018342153274,15.413876677323373,-20.591119435642952
35122.0,6360.0,35122.0,68500.0,35122.0,89176.0,-145.18337405040108,20.937402276931266,-13.239438489741929
35132.0,6365.0,35132.0,68435.0,35132.0,89201.0,-131.17868816719403,26.31689702287946,-6.003137815950936
35132.0,6351.0,35132.0,68359.0,35132.0,89165.0,-117.21755968690553,31.555462189499394,1.1159957498894073
35132.0,6364.0,35132.0,68355.0,35132.0,89161.0,-103.31076163412467,36.65684049255546,8.116778301574925
35132.0,6404.0,35132.0,68441.0,35132.0,89204.0,-89.46883042993159,41.6240136179789,14.9981379800887
35132.0,6439.0,35132.0,68501.0,35132.0,89239.0,-75.70215848852035,46.45902455451579,21.75897403687094
35132.0,6466.0,35132.0,68508.0,35132.0,89268.0,-62.020633354907886,51.16413998916431,28.398649200400087
35143.0,6468.0,35143.0,68436.0,35143.0,89214.0,-48.43317719732249,55.74298668225393,34.91761754474709
35143.0,6445.0,35143.0,68374.0,35143.0,89188.0,-34.94761941030697,60.200400964904816,41.31739862798577
35143.0,6460.0,35143.0,68416.0,35143.0,89210.0,-21.571070005253546,64.54113290462732,47.59980682188262
35143.0,6512.0,35143.0,68454.0,35143.0,89248.0,-8.310429258405975,68.76876290994898,53.76626146875651
35143.0,6535.0,35143.0,68534.0,35143.0,89281.0,4.827555523593787,72.88585868045197,59.81786183178991
35143.0,6542.0,35143.0,68538.0,35143.0,89286.0,17.83667623028009,76.89513561231894,65.75600823342342
35153.0,6545.0,35153.0,68454.0,35153.0,89243.0,30.71154091106382,80.8005156169072,71.58286913713641
35153.0,6550.0,35153.0,68394.0,35153.0,89231.0,43.4474725238897,84.60693478517157,77.30117807693154
35153.0,6560.0,35153.0,68438.0,35153.0,89257.0,56.04020166364967,88.31896048693949,82.91354250306779
35153.0,6618.0,35153.0,68525.0,35153.0,89274.0,68.48566103348037,91.93976590215595,88.42197681230044
35153.0,6622.0,35153.0,68539.0,35153.0,89334.0,80.78013274355214,95.47158703328662,93.82806827559824
35153.0,6633.0,35153.0,68529.0,35153.0,89313.0,92.92060488749405,98.91695581775446,99.13359164046278
35163.0,6631.0,35163.0,68461.0,35163.0,89276.0,104.90490646610112,102.2792967049997,104.34096523734962
35163.0,6629.0,35163.0,68440.0,35163.0,89265.0,116.73148719301321,105.56235639737383,109.452979866936
35163.0,6648.0,35163.0,68476.0,35163.0,89309.0,128.39903451184205,108.7690859082326,114.47208978536787
35163.0,6701.0,35163.0,68568.0,35163.0,89362.0,139.9062435826504,111.90115263079966,119.40019256709056
35163.0,6718.0,35163.0,68623.0,35163.0,89376.0,151.2520236062486,114.95978860393618,124.23925191903811
35163.0,6716.0,35163.0,68551.0,35163.0,89357.0,162.4359624430964,117.94732125275536,128.992148170917
35174.0,6710.0,35174.0,68468.0,35174.0,89315.0,173.45851530070956,120.86777567287243,133.66292867151265
35174.0,6719.0,35174.0,68443.0,35174.0,89302.0,184.32074346512456,123.72577936733555,138.256235387966
35174.0,6748.0,35174.0,68551.0,35174.0,89346.0,195.02394507553595,126.5249714051559,142.77646003595947
35174.0,6766.0,35174.0,68627.0,35174.0,89367.0,205.5695421840586,129.26778375674536,147.22741584971027
35174.0,6783.0,35174.0,68622.0,35174.0,89379.0,215.9592382300399,131.956863846158,151.61268775362697
35174.0,6785.0,35174.0,68538.0,35174.0,89368.0,226.19520101599642,134.5964889015815,155.93610631323054
35184.0,6773.0,35184.0,68479.0,35184.0,89348.0,236.28004042853843,137.1924198163997,160.2018394177759
35184.0,6794.0,35184.0,68452.0,35184.0,89336.0,246.2165322693255,139.750344140471,164.41403074142835
35184.0,6822.0,35184.0,68601.0,35184.0,89404.0,256.0073350114735,142.27443593727867,168.57635316948864
35184.0,6867.0,35184.0,68622.0,35184.0,89431.0,265.65505961900715,144.7675136988633,172.69210643658096
35184.0,6857.0,35184.0,68626.0,35184.0,89436.0,275.16269436951575,147.23257559832956,176.76495801927229
35184.0,6856.0,35184.0,68549.0,35184.0,89380.0,284.5339373538062,149.67396955674513,180.79955006440372
35194.0,6848.0,35194.0,68500.0,35194.0,89357.0,293.77307633488067,152.09707890197575,184.80124369293753
35194.0,6861.0,35194.0,68495.0,35194.0,89372.0,302.8845575112879,154.50694441525775,188.77520695256976
35194.0,6898.0,35194.0,68595.0,35194.0,89401.0,311.8726538683876,156.9071056432278,192.7257022891112
35194.0,6913.0,35194.0,68638.0,35194.0,89446.0,320.74150415876375,159.29977436862697,196.65612585294463
35194.0,6930.0,35194.0,68648.0,35194.0,89441.0,329.495429286035,161.6871681093482,200.56962041837096
35194.0,6898.0,35194.0,68585.0,35194.0,89400.0,338.13913942916975,164.07267600438138,204.46959599907484
35205.0,6910.0,35205.0,68506.0,35205.0,89386.0,346.67753225949946,166.46075205541524,208.35956510605467
35205.0,6930.0,35205.0,68583.0,35205.0,89400.0,355.1152440009888,168.8557258456998,212.24244432025392
35205.0,6962.0,35205.0,68612.0,35205.0,89465.0,363.4564348273526,171.26092696747992,216.1201214413545
35205.0,6982.0,35205.0,68692.0,35205.0,89468.0,371.70500475209906,173.67914095655067,219.99379607740934
35205.0,6977.0,35205.0,68597.0,35205.0,89463.0,379.8649646531327,176.1137712955695,223.8647030346799
35205.0,6962.0,35205.0,68549.0,35205.0,89426.0,387.9405555387301,178.5692260275331,227.73442314431605
35215.0,6959.0,35215.0,68520.0,35215.0,89417.0,395.9359378406641,181.04991365858734,231.60449613991352
35215.0,6984.0,35215.0,68588.0,35215.0,89476.0,403.8546894025718,183.5588459108609,235.47581920790606
35215.0,7019.0,35215.0,68679.0,35215.0,89487.0,411.69956737367227,186.09732855707773,239.34856375286546
35215.0,7038.0,35215.0,68684.0,35215.0,89505.0,419.4727382932364,188.66609034666175,243.222705466126
35215.0,7036.0,35215.0,68630.0,35215.0,89492.0,427.1762111710784,191.26669847664766,247.09857271594888
35215.0,7028.0,35215.0,68510.0,35215.0,89436.0,434.8120343466161,193.90170028721036,250.97689113773401
35225.0,7046.0,35225.0,68532.0,35225.0,89454.0,442.38213463941486,196.57315114751913,254.85821311058243
35225.0,7047.0,35225.0,68654.0,35225.0,89497.0,449.8880597885154,199.28104018132882,258.7422380337353
35225.0,7074.0,35225.0,68688.0,35225.0,89521.0,457.3308629226333,202.02341691186655,262.627784309727
35225.0,7115.0,35225.0,68696.0,35225.0,89533.0,464.7112200828776,204.7979820523471,266.51339888025774
35225.0,7094.0,35225.0,68625.0,35225.0,89506.0,472.0297686230301,207.6033353136886,270.39791223839484
35225.0,7081.0,35225.0,68538.0,35225.0,89471.0,479.28730826774995,210.4387247504547,274.2804127935065
35236.0,7085.0,35236.0,68573.0,35236.0,89479.0,486.48451673105217,213.30256482420566,278.1596345580947
35236.0,7132.0,35236.0,68699.0,35236.0,89551.0,493.62151581167836,216.1912389879758,282.0333855450844
35236.0,7153.0,35236.0,68751.0,35236.0,89576.0,500.69788089869314,219.09968035638354,285.89877784030364
35236.0,7152.0,35236.0,68676.0,35236.0,89561.0,507.713073649285,222.0231558389674,289.75310561680885
35236.0,7146.0,35236.0,68639.0,35236.0,89525.0,514.6667554961402,224.95818362439883,293.5943917002266
35236.0,7128.0,35236.0,68610.0,35236.0,89512.0,521.5586480887943,227.9018171715,297.4210745782317
35246.0,7158.0,35246.0,68637.0,35246.0,89546.0,528.3881046051935,230.85039065634413,301.23130340037176
35246.0,7196.0,35246.0,68740.0,35246.0,89578.0,535.1538574042244,233.79901913843673,305.0226383707745
35246.0,7205.0,35246.0,68765.0,35246.0,89591.0,541.8542496501391,236.74237771323334,308.7924115867378
35246.0,7200.0,35246.0,68690.0,35246.0,89553.0,548.4876676307008,239.6760393592113,312.5382343767725
35246.0,7196.0,35246.0,68680.0,35246.0,89558.0,555.052673963924,242.59691658878194,316.258027917592
35246.0,7199.0,35246.0,68616.0,35246.0,89552.0,561.547776987937,245.50242860766986,319.9496035158771
35256.0,7222.0,35256.0,68718.0,35256.0,89584.0,567.971139942627,248.38938975958126,323.6103026040673
35256.0,7260.0,35256.0,68769.0,35256.0,89601.0,574.3205497440804,251.2538072723454,327.2370263915238
35256.0,7252.0,35256.0,68791.0,35256.0,89617.0,580.5937182679592,254.09191827695707,330.8266026418131
35256.0,7253.0,35256.0,68719.0,35256.0,89599.0,586.7885903951658,256.9014179344554,334.3761800454279
35256.0,7238.0,35256.0,68652.0,35256.0,89584.0,592.9032986725252,259.6815087267453,337.8832981610755
35256.0,7241.0,35256.0,68625.0,35256.0,89589.0,598.9357950140337,262.4315929002329,341.34557230673784
35267.0,7274.0,35267.0,68738.0,35267.0,89585.0,604.8834772332889,265.1498142374254,344.76028287667856
35267.0,7298.0,35267.0,68793.0,35267.0,89648.0,610.7431504642944,267.8329528121,348.12422736436463
35267.0,7306.0,35267.0,68805.0,35267.0,89625.0,616.5113640322718,270.4777982603074,351.43400112729006
35267.0,7292.0,35267.0,68734.0,35267.0,89617.0,622.1847474662972,273.08251827584223,354.6863953433168
35267.0,7292.0,35267.0,68650.0,35267.0,89570.0,627.7599936382818,275.64662201015096,357.87831931872546
35267.0,7296.0,35267.0,68674.0,35267.0,89602.0,633.2335518751069,278.1695649827591,361.0061905906137
35277.0,7311.0,35277.0,68776.0,35277.0,89629.0,638.6013387613898,280.64947082137616,364.06543040131584
35277.0,7351.0,35277.0,68780.0,35277.0,89663.0,643.8587095994662,283.0833257519782,367.0506090462845
35277.0,7344.0,35277.0,68778.0,35277.0,89685.0,649.0007351832257,285.4681642562497,369.956125891515
35277.0,7338.0,35277.0,68697.0,35277.0,89645.0,654.0225047631129,287.8017079609191,372.77687377910723
35277.0,7335.0,35277.0,68661.0,35277.0,89602.0,658.9191012113366,290.08174954958906,375.5082990950126
35277.0,7351.0,35277.0,68717.0,35277.0,89644.0,663.685325449816,292.30488282136616,378.1457767163927
35287.0,7372.0,35287.0,68802.0,35287.0,89684.0,668.3155386208917,294.46593284682086,380.6841094783316
35287.0,7395.0,35287.0,68823.0,35287.0,89731.0,672.8038103784621,296.55881487476034,383.11791120790747
35287.0,7392.0,35287.0,68810.0,35287.0,89687.0,677.144256107191,298.5779964733771,385.4425233877221
35287.0,7394.0,35287.0,68714.0,35287.0,89668.0,681.3312819638774,300.5191626772332,387.6544901848854
35287.0,7381.0,35287.0,68694.0,35287.0,89625.0,685.3595557964803,302.3784933879152,389.7511386795438
35287.0,7405.0,35287.0,68731.0,35287.0,89655.0,689.2237911438306,304.1512614765498,391.72969748558813
35298.0,7436.0,35298.0,68861.0,35298.0,89709.0,692.9186561446518,305.83126546571634,393.58678560726895
35298.0,7443.0,35298.0,68861.0,35298.0,89731.0,696.4390341854149,307.4118942924798,395.3187775563087
35298.0,7446.0,35298.0,68805.0,35298.0,89688.0,699.7804421820476,308.887774035215,396.92261580916755
35298.0,7417.0,35298.0,68726.0,35298.0,89645.0,702.9391978683586,310.25520783827324,398.3960548103078
35298.0,7424.0,35298.0,68714.0,35298.0,89664.0,705.9121783868143,311.51102469868,399.73703508580337
35298.0,7446.0,35298.0,68824.0,35298.0,89716.0,708.6964374355996,312.6512255143252,400.94303952990805
35308.0,7458.0,35308.0,68876.0,35308.0,89732.0,711.2890999878236,313.6710171495328,402.01126975584697
35308.0,7467.0,35308.0,68875.0,35308.0,89727.0,713.6875852744762,314.5662508375636,402.9393956984612
35308.0,7466.0,35308.0,68822.0,35308.0,89725.0,715.8898646854832,315.3347492984565,403.7261014458946
35308.0,7451.0,35308.0,68741.0,35308.0,89677.0,717.8945300390551,315.9762942980627,404.3710873854086
35308.0,7462.0,35308.0,68730.0,35308.0,89681.0,719.700641930122,316.4913556675459,404.8746035840839
35308.0,7469.0,35308.0,68831.0,35308.0,89707.0,721.3075302224976,316.8797497255255,405.23687666481425
35319.0,7478.0,35319.0,68863.0,35319.0,89765.0,722.7147551615479,317.1405870384879,405.4580494331711
35319.0,7510.0,35319.0,68861.0,35319.0,89726.0,723.9222716291838,317.2734670290742,405.5387830030039
35319.0,7481.0,35319.0,68794.0,35319.0,89713.0,724.9307075114435,317.27948058921584,405.4808029930375
35319.0,7464.0,35319.0,68714.0,35319.0,89682.0,725.7414667876817,317.16091980070905,405.2867502738632
35319.0,7473.0,35319.0,68759.0,35319.0,89710.0,726.3564387609863,316.91993555395294,404.9596053659047
35319.0,7499.0,35319.0,68842.0,35319.0,89704.0,726.7776574201616,316.55753532053484,404.502321854769
35329.0,7524.0,35329.0,68894.0,35329.0,89747.0,727.0073925205256,316.0741109644107,403.9179115790631
35329.0,7509.0,35329.0,68845.0,35329.0,89688.0,727.0485994643433,315.4709622932577,403.2097528154811
35329.0,7489.0,35329.0,68777.0,35329.0,89699.0,726.9052199519962,314.7511528289127,402.381657930952
35329.0,7472.0,35329.0,68731.0,35329.0,89661.0,726.5819953462968,313.9188599283773,401.43750206954496
35329.0,7482.0,35329.0,68772.0,35329.0,89703.0,726.0839788073794,312.977971984483,400.38074464381566
35329.0,7503.0,35329.0,68865.0,35329.0,89746.0,725.4162094819326,311.93140787412176,399.2143696768412
35339.0,7514.0,35339.0,68863.0,35339.0,89768.0,724.5838035763123,310.7818648115383,397.9415120128038
35339.0,7493.0,35339.0,68806.0,35339.0,89693.0,723.5922638272436,309.5330696685064,396.56628157764294
35339.0,7499.0,35339.0,68786.0,35339.0,89664.0,722.4476125784751,308.1901069429335,395.0938141973622
35339.0,7467.0,35339.0,68745.0,35339.0,89654.0,721.1562248383447,306.75867552009004,393.5293909920003
35339.0,7478.0,35339.0,68812.0,35339.0,89693.0,719.7244946915042,305.2442090250221,391.87754495485086
35339.0,7515.0,35339.0,68842.0,35339.0,89746.0,718.1585999700163,303.65173181224435,390.1420024921457
35350.0,7526.0,35350.0,68865.0,35350.0,89753.0,716.4646988927,301.98662041064625,388.32649013376687
35350.0,7491.0,35350.0,68789.0,35350.0,89697.0,714.6494147876058,300.25549314660185,386.43564941610464
35350.0,7479.0,35350.0,68727.0,35350.0,89665.0,712.7199813433147,298.4661632890941,384.4751471120228
35350.0,7469.0,35350.0,68673.0,35350.0,89663.0,710.6838660399319,296.62639039864916,382.4509341107388
35350.0,7504.0,35350.0,68799.0,35350.0,89720.0,708.548359245031,294.74241721436044,380.3685573718917
35350.0,7499.0,35350.0,68839.0,35350.0,89704.0,706.3205678839319,292.81880153481586,378.23323509249195
35360.0,7501.0,35360.0,68837.0,35360.0,89691.0,704.0077122640109,290.85974728703854,376.05035694728167
35360.0,7488.0,35360.0,68772.0,35360.0,89679.0,701.6173352442015,288.87039862444186,373.82566450328727
35360.0,7455.0,35360.0,68686.0,35360.0,89654.0,699.1572049533137,286.8567410150304,371.56498009048227
35360.0,7464.0,35360.0,68699.0,35360.0,89675.0,696.6349371233938,284.8242548621365,369.27381381060104
35360.0,7486.0,35360.0,68821.0,35360.0,89691.0,694.0576363015098,282.77674212521356,366.9571905083274
35360.0,7492.0,35360.0,68837.0,35360.0,89710.0,691.4319300849361,280.71672618512025,364.61989889938303
35370.0,7503.0,35370.0,68825.0,35370.0,89695.0,688.7643435334912,278.64702008384995,362.2669825795983
35370.0,7475.0,35370.0,68727.0,35370.0,89631.0,686.061633082755,276.5716902675282,359.90394658887357
35370.0,7456.0,35370.0,68712.0,35370.0,89647.0,683.3307822576387,274.49551517814973,357.5363312867592
35370.0,7449.0,35370.0,68734.0,35370.0,89650.0,680.5786306362743,272.4227055545557,355.1690439429458
35370.0,7482.0,35370.0,68826.0,35370.0,89700.0,677.8114859453115,270.3563211146517,352.8061865259739
35370.0,7488.0,35370.0,68839.0,35370.0,89693.0,675.035146073244,268.2990411953215,350.4515394064058
35381.0,7478.0,35381.0,68743.0,35381.0,89686.0,672.2552721102302,266.2543927381005,348.1092110978566
35381.0,7441.0,35381.0,68699.0,35381.0,89614.0,669.4775982003637,264.22688333337874,345.7838184601137
35381.0,7442.0,35381.0,68692.0,35381.0,89592.0,666.707668393447,262.22080850476493,343.47987545922945
35381.0,7453.0,35381.0,68733.0,35381.0,89645.0,663.9503897047503,260.23904446658395,341.2008335362833
35381.0,7477.0,35381.0,68780.0,35381.0,89689.0,661.2099030891857,258.2828907028167,338.94879137685837
35381.0,7468.0,35381.0,68827.0,35381.0,89709.0,658.4898672874103,256.3529481111684,336.72526657235073
35391.0,7464.0,35391.0,68735.0,35391.0,89649.0,655.7938012573161,254.45025150606727,334.53220949284434
35391.0,7443.0,35391.0,68672.0,35391.0,89621.0,653.1251572271467,252.57648067143668,332.3722211461587
35391.0,7437.0,35391.0,68673.0,35391.0,89603.0,650.4871060419497,250.73285935128362,330.24786567608214
35391.0,7446.0,35391.0,68761.0,35391.0,89654.0,647.882241112902,248.91897457689853,328.16089500299745
35391.0,7465.0,35391.0,68808.0,35391.0,89665.0,645.3124781190857,247.1329470682017,326.11216870902024
35391.0,7475.0,35391.0,68794.0,35391.0,89675.0,642.7792859675342,245.37277868113836,324.1022306621375
35401.0,7445.0,35401.0,68735.0,35401.0,89614.0,640.2840364569579,243.6374502294201,322.13182595057685
35401.0,7422.0,35401.0,68670.0,35401.0,89610.0,637.8280455905308,241.92674573345207,320.2017611090872
35401.0,7432.0,35401.0,68682.0,35401.0,89594.0,635.4121992363166,240.24006014218747,318.31224927400643
35401.0,7456.0,35401.0,68777.0,35401.0,89648.0,633.0366164082758,238.57543715568465,316.4624141448323
35401.0,7460.0,35401.0,68807.0,35401.0,89675.0,630.7007609562557,236.92994212517556,314.6504768919807
35401.0,7457.0,35401.0,68774.0,35401.0,89635.0,628.4038276207215,235.3009997497896,312.87445604508616
35412.0,7443.0,35412.0,68726.0,35412.0,89613.0,626.1449855802513,233.68722945867418,311.13257497361735
35412.0,7423.0,35412.0,68689.0,35412.0,89608.0,623.923301427864,232.0880581093886,309.42295811054873
35412.0,7435.0,35412.0,68712.0,35412.0,89623.0,621.7374468366557,230.50271918828292,307.7431259546396
35412.0,7452.0,35412.0,68767.0,35412.0,89654.0,619.5854985523451,228.92968682548022,306.0899000778745
35412.0,7474.0,35412.0,68826.0,35412.0,89663.0,617.4651059823422,227.3671639114662,304.4598092867684
35412.0,7442.0,35412.0,68776.0,35412.0,89640.0,615.3738969235507,225.81427830328556,302.84964288481444
35422.0,7437.0,35422.0,68671.0,35422.0,89645.0,613.3096661648564,224.27171424956532,301.2567039010332
35422.0,7411.0,35422.0,68622.0,35422.0,89625.0,611.2701345488279,222.74078541358952,299.6787036967371
35422.0,7444.0,35422.0,68725.0,35422.0,89637.0,609.252557838565,221.2217265892505,298.1135550492691
35422.0,7457.0,35422.0,68813.0,35422.0,89672.0,607.2536266367093,219.71319946589074,296.5593288949648
35422.0,7458.0,35422.0,68786.0,35422.0,89660.0,605.269780892511,218.2136316956236,295.0145447901734
35422.0,7444.0,35422.0,68766.0,35422.0,89628.0,603.2975889978279,216.72280067721772,293.4785280190494
35432.0,7433.0,35432.0,68668.0,35432.0,89592.0,601.3338232666706,215.2421058533139,291.9512768708712
35432.0,7430.0,35432.0,68651.0,35432.0,89583.0,599.3752561920437,213.77349714481088,290.43277535252855
35432.0,7439.0,35432.0,68721.0,35432.0,89611.0,597.4184366213021,212.3181118192381,288.9222936987941
35432.0,7479.0,35432.0,68798.0,35432.0,89649.0,595.4597171337986,210.87599587016393,287.418263565985
35432.0,7468.0,35432.0,68756.0,35432.0,89678.0,593.4956460588112,209.44719521698727,285.9188756642781
35432.0,7449.0,35432.0,68701.0,35432.0,89617.0,591.5234206893514,208.0328102319479,284.422897990978
35443.0,7419.0,35443.0,68648.0,35443.0,89570.0,589.5409100356187,206.63473661828493,282.9298404694808
35443.0,7409.0,35443.0,68669.0,35443.0,89593.0,587.5461824492662,205.2544649694469,281.4392292576083
35443.0,7445.0,35443.0,68735.0,35443.0,89634.0,585.5369874564435,203.89224830264436,279.94990748943053
35443.0,7472.0,35443.0,68755.0,35443.0,89649.0,583.5107301748297,202.54742879973554,278.46021040888274
35443.0,7440.0,35443.0,68751.0,35443.0,89629.0,581.4649525530205,201.21949269283812,276.96867292287726
35443.0,7431.0,35443.0,68662.0,35443.0,89561.0,579.3976880885,199.90871395290532,275.4743285939771
35453.0,7402.0,35453.0,68647.0,35453.0,89565.0,577.3072671431362,198.6156865863465,273.9761670417486
35453.0,7422.0,35453.0,68640.0,35453.0,89598.0,575.1918440983533,197.34015230175058,272.472314405867
35453.0,7431.0,35453.0,68691.0,35453.0,89631.0,573.0491240047008,196.08017182458394,270.9598637719651
35453.0,7451.0,35453.0,68787.0,35453.0,89653.0,570.876503301586,194.83238055635465,269.4355215668393
35453.0,7445.0,35453.0,68728.0,35453.0,89614.0,568.6714708767134,193.5932132853294,267.8964224209235
35453.0,7426.0,35453.0,68624.0,35453.0,89579.0,566.4319174176211,192.35981500969845,266.340384057565
35463.0,7393.0,35463.0,68626.0,35463.0,89556.0,564.1560637409742,191.12940149026954,264.7653898078601
35463.0,7429.0,35463.0,68697.0,35463.0,89601.0,561.8420709027541,189.89790744840195,263.1688391587621
35463.0,7436.0,35463.0,68762.0,35463.0,89645.0,559.4878239120534,188.6597903986936,261.5474021999848
35463.0,7439.0,35463.0,68778.0,35463.0,89661.0,557.0911724288057,187.4092917825326,259.8977411371725
35463.0,7419.0,35463.0,68709.0,35463.0,89615.0,554.6502723370618,186.14183003523902,258.21744328691693
35463.0,7413.0,35463.0,68663.0,35463.0,89574.0,552.1636275634512,184.85424879330657,256.5052529553825
35474.0,7398.0,35474.0,68647.0,35474.0,89572.0,549.6298585067361,183.5438718168135,254.7604424017233
35474.0,7430.0,35474.0,68685.0,35474.0,89610.0,547.0474703293416,182.20740290335297,252.98208284852143
35474.0,7440.0,35474.0,68784.0,35474.0,89644.0,544.4149166186352,180.84076572133108,251.1690210080693
35474.0,7435.0,35474.0,68758.0,35474.0,89608.0,541.7309827484576,179.44013056250165,249.32049437128785
35474.0,7417.0,35474.0,68690.0,35474.0,89572.0,538.9951186456858,178.00308389813472,247.43653533111762
35474.0,7401.0,35474.0,68639.0,35474.0,89559.0,536.2074073203934,176.52857889053675,245.5176218045533
35484.0,7376.0,35484.0,68659.0,35484.0,89555.0,533.3682096505379,175.01577014744518,243.56395886096473
35484.0,7409.0,35484.0,68742.0,35484.0,89610.0,530.4777444568628,173.46316555291386,241.57509155333372
35484.0,7428.0,35484.0,68764.0,35484.0,89644.0,527.535992412654,171.8690807590191,239.55024964420568
35484.0,7420.0,35484.0,68757.0,35484.0,89622.0,524.5430694879776,170.23291676072097,237.48924614874636
35484.0,7383.0,35484.0,68679.0,35484.0,89578.0,521.4996064933865,168.55597351197093,235.39312022298515
35484.0,7373.0,35484.0,68602.0,35484.0,89548.0,518.4066267621228,166.84097391749404,233.26390109148196
35494.0,7382.0,35494.0,68647.0,35494.0,89545.0,515.2650838470462,165.09062398126397,231.1037783255697
35494.0,7398.0,35494.0,68718.0,35494.0,89592.0,512.0756076286254,163.306593259561,228.9144717108677
35494.0,7415.0,35494.0,68761.0,35494.0,89612.0,508.83870165000116,161.48999620384674,226.6973490654952
35494.0,7387.0,35494.0,68682.0,35494.0,89584.0,505.55515285687306,159.64270650925405,224.45408350971235
35494.0,7369.0,35494.0,68620.0,35494.0,89527.0,502.22620647915505,157.76783687858136,222.1869961273987
35494.0,7358.0,35494.0,68627.0,35494.0,89540.0,498.8533137725656,155.86884178063278,219.89860636526225
35505.0,7353.0,35505.0,68651.0,35505.0,89562.0,495.43770959249633,153.9483763892198,217.5909729270593
35505.0,7369.0,35505.0,68736.0,35505.0,89588.0,491.98015771670225,152.00814606813532,215.265634572473
35505.0,7383.0,35505.0,68758.0,35505.0,89598.0,488.4810136331966,150.04992237970112,212.92416896679623
35505.0,7367.0,35505.0,68665.0,35505.0,89518.0,484.94052988878457,148.0768351150155,210.56870372365265
35505.0,7345.0,35505.0,68610.0,35505.0,89524.0,481.35906602147054,146.0935742673141,208.2017299709356
35505.0,7334.0,35505.0,68573.0,35505.0,89497.0,477.7369359344859,144.10515376566863,205.82533170085034
35515.0,7360.0,35515.0,68654.0,35515.0,89547.0,474.0741011423021,142.11546320105236,203.4405876997431
35515.0,7377.0,35515.0,68709.0,35515.0,89578.0,470.37017128589105,140.12701590208854,201.04767216115687
35515.0,7372.0,35515.0,68699.0,35515.0,89563.0,466.62481512538125,138.14201061302526,198.64655073643246
35515.0,7341.0,35515.0,68595.0,35515.0,89531.0,462.8381550127647,136.16335281660528,196.23759608700394
35515.0,7335.0,35515.0,68574.0,35515.0,89496.0,459.0107380826263,134.19432223017876,193.82150367592172
35515.0,7327.0,35515.0,68555.0,35515.0,89487.0,455.14319545908126,132.23719601188208,191.39861908993092
35525.0,7342.0,35525.0,68687.0,35525.0,89538.0,451.23598206313244,130.29230894308577,188.9683305355627
35525.0,7346.0,35525.0,68708.0,35525.0,89591.0,447.28940746732025,128.35861701939209,186.52920849499228
35525.0,7341.0,35525.0,68698.0,35525.0,89565.0,443.3038748085076,126.43531719069432,184.0799350555267
35525.0,7326.0,35525.0,68611.0,35525.0,89512.0,439.28007680360673,124.52293869772589,181.6201021576818
35525.0,7310.0,35525.0,68556.0,35525.0,89493.0,435.2189586217874,122.62290630271039,179.15003895398888
35525.0,7302.0,35525.0,68592.0,35525.0,89519.0,431.1214738973342,120.73613596928126,176.67004267782087
35536.0,7315.0,35536.0,68671.0,35536.0,89537.0,426.98833824835873,118.86215646032491,174.17999249564176
35536.0,7326.0,35536.0,68723.0,35536.0,89560.0,422.82001906927826,116.99973226236517,171.6796762016296
35536.0,7332.0,35536.0,68682.0,35536.0,89544.0,418.6170182355468,115.14840299054976,169.16941489268024
35536.0,7307.0,35536.0,68589.0,35536.0,89482.0,414.3802149727941,113.30936889466619,166.65036636639223
35536.0,7288.0,35536.0,68508.0,35536.0,89471.0,410.1109369789824,111.48471870904248,164.12411057932016
35536.0,7278.0,35536.0,68609.0,35536.0,89511.0,405.81067881956267,109.67568383062576,161.59188747128943
35546.0,7297.0,35546.0,68667.0,35546.0,89528.0,401.48076503925506,107.8818149951525,159.0543694503854
35546.0,7303.0,35546.0,68707.0,35546.0,89536.0,397.12231816441306,106.10197590056427,156.5121688474149
35546.0,7302.0,35546.0,68645.0,35546.0,89508.0,392.7365457171626,104.33595979056702,153.9664367707179
35546.0,7268.0,35546.0,68559.0,35546.0,89463.0,388.3250001447199,102.58503314420318,151.4189441962089
35546.0,7246.0,35546.0,68521.0,35546.0,89466.0,383.88946556489776,100.85091066149917,148.8715663281108
35546.0,7260.0,35546.0,68624.0,35546.0,89494.0,379.4315319880937,99.13425027196197,146.32569027154645
35557.0,7281.0,35557.0,68670.0,35557.0,89519.0,374.95234062754696,97.43435590249692,143.78219152641495
35557.0,7287.0,35557.0,68702.0,35557.0,89528.0,370.4528240405752,95.75044213521994,141.24201163560258
35557.0,7255.0,35557.0,68592.0,35557.0,89461.0,365.9341496442371,94.08304416407663,138.70671567148045
35557.0,7227.0,35557.0,68532.0,35557.0,89426.0,361.3978120708398,92.43403301369679,136.1783313425412
35557.0,7219.0,35557.0,68523.0,35557.0,89436.0,356.8452306385771,90.80518540921392,133.65847978897372
35557.0,7256.0,35557.0,68586.0,35557.0,89493.0,352.2773112735448,89.1967410407851,131.1477066570059
35567.0,7244.0,35567.0,68702.0,35567.0,89497.0,347.69447269644684,87.6073860404423,128.64573789505175
35567.0,7259.0,35567.0,68670.0,35567.0,89504.0,343.0970477987498,86.03575372971588,126.15231217108698
35567.0,7218.0,35567.0,68573.0,35567.0,89446.0,338.48560080498834,84.48192487766553,123.66773387908933
35567.0,7204.0,35567.0,68520.0,35567.0,89425.0,333.8608687894565,82.9472680514668,121.19267723344458
35567.0,7203.0,35567.0,68533.0,35567.0,89433.0,329.22338823845456,81.43288921124773,118.72747619268654
35567.0,7229.0,35567.0,68618.0,35567.0,89475.0,324.57321137830485,79.9384693642028,116.27164694741268
35577.0,7229.0,35577.0,68662.0,35577.0,89539.0,319.9100522358704,78.46262758084666,113.82425007892877
35577.0,7207.0,35577.0,68634.0,35577.0,89461.0,315.23366612564723,77.00430345161365,111.38486574229142
35577.0,7191.0,35577.0,68541.0,35577.0,89415.0,310.54399306470305,75.5636432507489,108.9540850394693
35577.0,7179.0,35577.0,68509.0,35577.0,89417.0,305.840935601378,74.14142249674813,106.53288012060929
35577.0,7185.0,35577.0,68549.0,35577.0,89434.0,301.1240483078895,72.73765249767223,104.12167665024802
35577.0,7208.0,35577.0,68627.0,35577.0,89469.0,296.3924607111843,71.35091496348491,101.7201384483561
35588.0,7215.0,35588.0,68643.0,35588.0,89480.0,291.64516926305595,69.97911477772143,99.3276845314557
35588.0,7199.0,35588.0,68603.0,35588.0,89450.0,286.88151421323585,68.62078481598294,96.9441658471946
35588.0,7170.0,35588.0,68520.0,35588.0,89412.0,282.1014245246059,67.27555054915175,94.5700784078266
35588.0,7142.0,35588.0,68488.0,35588.0,89381.0,277.30518597701416,65.94324449701992,92.2060699781614
35588.0,7152.0,35588.0,68563.0,35588.0,89433.0,272.4929186436861,64.6225488451094,89.85219361815712
35588.0,7176.0,35588.0,68643.0,35588.0,89444.0,267.66425144909596,63.31067188592715,87.50768719539758
35598.0,7182.0,35598.0,68639.0,35598.0,89476.0,262.8185175994056,62.00451973634398,85.17151159373606
35598.0,7165.0,35598.0,68592.0,35598.0,89435.0,257.95523816558295,60.70213096572391,82.84309920916627
35598.0,7145.0,35598.0,68480.0,35598.0,89384.0,253.07438588057704,59.40286857573872,80.52258219572195
35598.0,7119.0,35598.0,68514.0,35598.0,89400.0,248.1762166700961,58.10618928134872,78.21027584389964
35598.0,7142.0,35598.0,68595.0,35598.0,89424.0,243.26089354874586,56.810382440639245,75.90605051305857
35598.0,7149.0,35598.0,68642.0,35598.0,89446.0,238.32833190157635,55.5127802580127,73.60934898162742
35608.0,7135.0,35608.0,68647.0,35608.0,89436.0,233.37841387567534,54.21122884660005,71.31974196066528
35608.0,7115.0,35608.0,68536.0,35608.0,89422.0,228.41121165896618,52.90524779386743,69.0373924073819
35608.0,7113.0,35608.0,68500.0,35608.0,89367.0,223.42691406429515,51.59571262737495,66.76301580732928
35608.0,7092.0,35608.0,68500.0,35608.0,89403.0,218.42558593172072,50.283400182267854,64.4973809409239
35608.0,7104.0,35608.0,68589.0,35608.0,89421.0,213.406968785262,48.9678923814316,62.24091573090806
35608.0,7131.0,35608.0,68619.0,35608.0,89417.0,208.37048261485165,47.647890745543805,59.99388764980051
35619.0,7123.0,35619.0,68642.0,35619.0,89386.0,203.31556235323984,46.32256320773217,57.75678630761536
35619.0,7074.0,35619.0,68530.0,35619.0,89366.0,198.24203966866105,44.99263820067563,55.53028085564955
35619.0,7068.0,35619.0,68464.0,35619.0,89372.0,193.1500439194793,43.66011679751779,53.314776473658014
35619.0,7068.0,35619.0,68502.0,35619.0,89377.0,188.03951334153425,42.32675264079964,51.11004954261807
35619.0,7088.0,35619.0,68577.0,35619.0,89399.0,182.90991548505463,40.99290036727788,48.91525897823584
35619.0,7096.0,35619.0,68655.0,35619.0,89435.0,177.76044403347663,39.65803170725641,46.729343849623774
35629.0,7073.0,35629.0,68570.0,35629.0,89412.0,172.59043500486598,38.32233033933258,44.551665642807166
35629.0,7043.0,35629.0,68502.0,35629.0,89355.0,167.39954701901183,36.98754820551102,42.382409503027475
35629.0,7035.0,35629.0,68465.0,35629.0,89341.0,162.18749720427547,35.65618224364161,40.22222842379409
35629.0,7063.0,35629.0,68542.0,35629.0,89393.0,156.95368869120784,34.33002584202558,38.07150679004741
35629.0,7067.0,35629.0,68595.0,35629.0,89396.0,151.69722955976204,33.009778678971855,35.93018631011671
35629.0,7067.0,35629.0,68627.0,35629.0,89394.0,146.41735135085662,31.696089279357977,33.79826562925507
35639.0,7049.0,35639.0,68536.0,35639.0,89365.0,141.11380420730075,30.390872689276307,31.67623091743775
35639.0,7018.0,35639.0,68434.0,35639.0,89348.0,135.78691093804798,29.09739151923671,29.564968161461707
35639.0,7011.0,35639.0,68425.0,35639.0,89302.0,130.4372658439703,27.818723882179285,27.46524618769422
35639.0,7021.0,35639.0,68520.0,35639.0,89363.0,125.06535149638842,26.55602259486102,25.377098234137577
35639.0,7042.0,35639.0,68633.0,35639.0,89401.0,119.67146605065909,25.30844356643874,23.299713213285145
35639.0,7031.0,35639.0,68584.0,35639.0,89375.0,114.25605012016354,24.074884996200154,21.232099746728863
35650.0,6991.0,35650.0,68487.0,35650.0,89353.0,108.82001654677128,22.855566291519608,19.173768143734094
35650.0,6974.0,35650.0,68450.0,35650.0,89306.0,103.36462771180618,21.65172859097163,17.12464717044918
35650.0,6974.0,35650.0,68456.0,35650.0,89339.0,97.89100535228931,20.46404983414496,15.084444066581
35650.0,6991.0,35650.0,68538.0,35650.0,89353.0,92.39979293815077,19.29157343486051,13.052212780631407
35650.0,7009.0,35650.0,68612.0,35650.0,89376.0,86.8912923452059,18.13214621396068,11.02656351098409
35650.0,6999.0,35650.0,68552.0,35650.0,89375.0,81.3659432569608,16.98391230500576,9.006262639482884
35660.0,6969.0,35660.0,68472.0,35660.0,89330.0,75.8247202968422,15.84628661232452,6.990666572568898
35660.0,6945.0,35660.0,68440.0,35660.0,89313.0,70.26908360043876,14.719325183398013,4.979598946742215
35660.0,6933.0,35660.0,68484.0,35660.0,89309.0,64.70053541006507,13.60229390996841,2.9727703811566357
35660.0,6962.0,35660.0,68535.0,35660.0,89348.0,59.120211673486665,12.4930160905989,0.9693256407684316
35660.0,6968.0,35660.0,68563.0,35660.0,89375.0,53.52891334225035,11.388500766028983,-1.0319900144039025
35660.0,6944.0,35660.0,68550.0,35660.0,89337.0,47.92749840468673,10.286099069153153,-3.0322091909826554
35670.0,6917.0,35670.0,68486.0,35670.0,89300.0,42.31710238416974,9.184156577524078,-5.0318161992865384
35670.0,6904.0,35670.0,68436.0,35670.0,89273.0,36.69889585477438,8.081611295776696,-7.031191910102507
35670.0,6916.0,35670.0,68480.0,35670.0,89321.0,31.07368047011073,6.97689754539465,-9.031364157386122
35670.0,6931.0,35670.0,68576.0,35670.0,89370.0,25.441778803983652,5.867390272345176,-11.034150974328895
35670.0,6928.0,35670.0,68594.0,35670.0,89349.0,19.803323208103052,4.750264070676394,-13.04144366555289
35670.0,6910.0,35670.0,68532.0,35670.0,89319.0,14.158636065578435,3.623979771623169,-15.054435103830599
35681.0,6876.0,35681.0,68439.0,35681.0,89274.0,8.508312875536944,2.488725061702354,-17.07364113575187
35681.0,6875.0,35681.0,68422.0,35681.0,89285.0,2.8529211346211696,1.3452607479556775,-19.099603755216435
35681.0,6886.0,35681.0,68495.0,35681.0,89304.0,-2.8073612097298337,0.193382856188407,-21.133521177069497
35681.0,6901.0,35681.0,68567.0,35681.0,89356.0,-8.472760985570062,-0.9683784522439396,-23.177205768315332
35681.0,6907.0,35681.0,68577.0,35681.0,89359.0,-14.143530142163172,-2.1415479110511058,-25.232353610848975
35681.0,6878.0,35681.0,68527.0,35681.0,89298.0,-19.819497033383527,-3.326246914872115,-27.299761093263328
35691.0,6844.0,35691.0,68435.0,35691.0,89272.0,-25.49996350027459,-4.520884351075779,-29.379299996141754
35691.0,6839.0,35691.0,68418.0,35691.0,89272.0,-31.18407323282713,-5.7232676756408125,-31.470663188898698
35691.0,6852.0,35691.0,68511.0,35691.0,89309.0,-36.8712709745929,-6.932005041845912,-33.574016811035904
35691.0,6860.0,35691.0,68576.0,35691.0,89335.0,-42.56138511818813,-8.1466240896346,-35.689905282181144
35691.0,6860.0,35691.0,68520.0,35691.0,89336.0,-48.254323593008735,-9.36630423122449,-37.81856496392061
35691.0,6832.0,35691.0,68459.0,35691.0,89287.0,-53.94974732544108,-10.588896072555372,-39.959322385432245
35701.0,6805.0,35701.0,68412.0,35701.0,89259.0,-59.64706936002244,-11.811426046512963,-42.11067200523422
35701.0,6804.0,35701.0,68422.0,35701.0,89270.0,-65.3458079875785,-13.031469091002492,-44.27093639353109
35701.0,6824.0,35701.0,68497.0,35701.0,89299.0,-71.04591748802193,-14.24804368444012,-46.43877427022721
35701.0,6831.0,35701.0,68559.0,35701.0,89295.0,-76.74770795021436,-15.461211727495623,-48.61306694737334
35701.0,6812.0,35701.0,68514.0,35701.0,89281.0,-82.45145536002701,-16.670721269187425,-50.79251511011785
35701.0,6788.0,35701.0,68395.0,35701.0,89253.0,-88.15716740784035,-17.875181543881865,-52.97552071198686
35712.0,6769.0,35712.0,68370.0,35712.0,89234.0,-93.86475797640946,-19.072919805464323,-55.160515926750406
35712.0,6777.0,35712.0,68425.0,35712.0,89242.0,-99.57442389149969,-20.263706462160087,-57.34648219401305
35712.0,6800.0,35712.0,68530.0,35712.0,89286.0,-105.28680502855389,-21.44940578429396,-59.53320204572731
35712.0,6797.0,35712.0,68526.0,35712.0,89304.0,-111.00271730447253,-22.632860076364295,-61.720899714637994
35712.0,6775.0,35712.0,68483.0,35712.0,89273.0,-116.72272364638991,-23.816290300335197,-63.90951743059753
35712.0,6754.0,35712.0,68409.0,35712.0,89218.0,-122.44699623071847,-25.00083204754884,-66.09840653671137
35722.0,6738.0,35722.0,68383.0,35722.0,89214.0,-128.17557116474802,-26.187479996244775,-68.28684222173439
35722.0,6749.0,35722.0,68473.0,35722.0,89256.0,-133.90870216730787,-27.378321695493582,-70.47477298498876
35722.0,6765.0,35722.0,68511.0,35722.0,89270.0,-139.6469550492311,-28.5766845065624,-72.66292858373788
35722.0,6757.0,35722.0,68536.0,35722.0,89259.0,-145.39093977818254,-29.785995285896576,-74.85228241646854
35722.0,6744.0,35722.0,68457.0,35722.0,89224.0,-151.14095736432728,-31.008550754315138,-77.04362924133261
35722.0,6716.0,35722.0,68395.0,35722.0,89211.0,-156.89691368032027,-32.2454389922984,-79.23774972943687
35732.0,6694.0,35732.0,68386.0,35732.0,89213.0,-162.65858722964924,-33.49768889022215,-81.43591695817759
35732.0,6728.0,35732.0,68475.0,35732.0,89240.0,-168.4260059970146,-34.76745351589807,-83.6402085308249
35732.0,6725.0,35732.0,68532.0,35732.0,89268.0,-174.19950435987232,-36.05789372763624,-85.85330250930903
35732.0,6716.0,35732.0,68560.0,35732.0,89258.0,-179.97939328016423,-37.3717255393056,-88.07787244827671
35732.0,6694.0,35732.0,68417.0,35732.0,89216.0,-185.76568898859387,-38.7098356099612,-90.31610964205024
35732.0,6678.0,35732.0,68343.0,35732.0,89207.0,-191.5581935958171,-40.07155340046063,-92.56983998222304
35743.0,6667.0,35743.0,68388.0,35743.0,89195.0,-197.3567981147795,-41.45649901733876,-94.84107345848201
35743.0,6680.0,35743.0,68483.0,35743.0,89264.0,-203.1617407699431,-42.865970890815504,-97.13234876951074
35743.0,6690.0,35743.0,68526.0,35743.0,89263.0,-208.9735939410249,-44.30237573791902,-99.44639740454241
35743.0,6684.0,35743.0,68451.0,35743.0,89253.0,-214.7929635471654,-45.76760739779371,-101.7853659170919
35743.0,6645.0,35743.0,68394.0,35743.0,89196.0,-220.6202165586094,-47.26232938605415,-104.15040579813842
35743.0,6638.0,35743.0,68363.0,35743.0,89170.0,-226.45558065328612,-48.78681072849821,-106.54209229131578
35753.0,6638.0,35753.0,68415.0,35753.0,89183.0,-232.29950672782184,-50.342224263977585,-108.96129772261548
35753.0,6664.0,35753.0,68480.0,35753.0,89241.0,-238.15283284839427,-51.93102317497849,-111.40967947659632
35753.0,6677.0,35753.0,68522.0,35753.0,89255.0,-244.01648654574427,-53.5560031041386,-113.88926249207205
35753.0,6648.0,35753.0,68458.0,35753.0,89218.0,-249.8909399475454,-55.218881536015516,-116.4015553760901
35753.0,6610.0,35753.0,68381.0,35753.0,89182.0,-255.77595603499242,-56.91976644813724,-118.9471674160817
35753.0,6609.0,35753.0,68327.0,35753.0,89167.0,-261.67089516788826,-58.65812939165201,-121.52625833658743
35763.0,6624.0,35763.0,68412.0,35763.0,89203.0,-267.5751650010551,-60.43437231640979,-124.13920354525368
35763.0,6626.0,35763.0,68528.0,35763.0,89206.0,-273.48827550330816,-62.2502457251328,-126.78675239174692
35763.0,6632.0,35763.0,68495.0,35763.0,89240.0,-279.409515289845,-64.107468529209,-129.46959847780352
35763.0,6591.0,35763.0,68441.0,35763.0,89186.0,-285.33764391422164,-66.0060471130277,-132.1878213836133
35763.0,6572.0,35763.0,68324.0,35763.0,89156.0,-291.27094418036734,-67.94416752896618,-134.9407785771919
35763.0,6562.0,35763.0,68365.0,35763.0,89139.0,-297.20764261166767,-69.9196749915742,-137.72765999650147
35774.0,6576.0,35774.0,68431.0,35774.0,89190.0,-303.1463136251331,-71.9314590092657,-140.5481568937737
35774.0,6589.0,35774.0,68463.0,35774.0,89237.0,-309.08589915039465,-73.97933772808264,-143.4024132168155
35774.0,6577.0,35774.0,68467.0,35774.0,89212.0,-315.02537814517564,-76.06281793551068,-146.29017454385826
35774.0,6558.0,35774.0,68365.0,35774.0,89142.0,-320.9634523399409,-78.18018579370798,-149.210081675663
35774.0,6535.0,35774.0,68336.0,35774.0,89135.0,-326.89855990302044,-80.32887137981578,-152.15996897981057
35774.0,6524.0,35774.0,68327.0,35774.0,89117.0,-332.8291867152419,-82.5067632915397,-155.13781135586203
35784.0,6547.0,35784.0,68440.0,35784.0,89193.0,-338.7541676994947,-84.71314178406786,-158.1423140970295
35784.0,6545.0,35784.0,68455.0,35784.0,89188.0,-344.6726645781073,-86.94820245135415,-161.17261954282804
35784.0,6545.0,35784.0,68460.0,35784.0,89167.0,-350.5838403359122,-89.21160153269358,-164.22752114552998
35784.0,6502.0,35784.0,68359.0,35784.0,89124.0,-356.48660885665254,-91.50145766848698,-167.30509565870454
35784.0,6497.0,35784.0,68291.0,35784.0,89114.0,-362.379765345774,-93.81481186671482,-170.4031056184545
35784.0,6498.0,35784.0,68352.0,35784.0,89140.0,-368.26235389246744,-96.14912480407685,-173.519621727208
35794.0,6510.0,35794.0,68384.0,35794.0,89141.0,-374.13384722892977,-98.50326542542206,-176.6532135712676
35794.0,6509.0,35794.0,68456.0,35794.0,89152.0,-379.9939707502375,-100.87703369677976,-179.80266218761676
35794.0,6504.0,35794.0,68415.0,35794.0,89145.0,-385.84238128248296,-103.26982871589482,-182.9665729647042
35794.0,6459.0,35794.0,68290.0,35794.0,89073.0,-391.6785163136294,-105.67988892007142,-186.14327342795156
35794.0,6467.0,35794.0,68295.0,35794.0,89080.0,-397.50179178911753,-108.10505556468382,-189.33126511040064
35794.0,6466.0,35794.0,68335.0,35794.0,89098.0,-403.31193397726406,-110.54426622627352,-192.52992802504804
35805.0,6475.0,35805.0,68413.0,35805.0,89129.0,-409.1090528221199,-112.99801775531179,-195.73971281727125
35805.0,6477.0,35805.0,68424.0,35805.0,89135.0,-414.8934102488207,-115.46734944393828,-198.96163645842915
35805.0,6445.0,35805.0,68363.0,35805.0,89129.0,-420.6651586477858,-117.95250599245969,-202.19659751997483
35805.0,6430.0,35805.0,68292.0,35805.0,89063.0,-426.424342973012,-120.45263816836132,-205.44508573906148
35805.0,6421.0,35805.0,68274.0,35805.0,89088.0,-432.1712028786253,-122.96681637917226,-208.7075145310003
35805.0,6423.0,35805.0,68344.0,35805.0,89123.0,-437.9064875239317,-125.49527651399995,-211.9846725263331
35815.0,6438.0,35815.0,68447.0,35815.0,89128.0,-443.63151388401275,-128.0394693298727,-215.27755950869806
35815.0,6444.0,35815.0,68420.0,35815.0,89138.0,-449.3479219978959,-130.600628033386,-218.58671803567972
35815.0,6425.0,35815.0,68322.0,35815.0,89071.0,-455.05729508539014,-133.17831110096148,-221.91177913658476
35815.0,6408.0,35815.0,68259.0,35815.0,89074.0,-460.76096018571775,-135.77058178304236,-225.25165110345273
35815.0,6392.0,35815.0,68260.0,35815.0,89057.0,-466.46012105001796,-138.37562193399413,-228.60513687272157
35815.0,6411.0,35815.0,68376.0,35815.0,89068.0,-472.15610873234164,-140.99300744121564,-231.9714194580509
35826.0,6410.0,35826.0,68399.0,35826.0,89093.0,-477.850411879988,-143.62332381426592,-235.3501240534099
35826.0,6413.0,35826.0,68380.0,35826.0,89094.0,-483.5444239470547,-146.26663395205276,-238.74099528291987
35826.0,6372.0,35826.0,68282.0,35826.0,89032.0,-489.2392047737304,-148.9215141948713,-242.14353971697506
35826.0,6369.0,35826.0,68212.0,35826.0,89008.0,-494.9355640952184,-151.58570290699652,-245.55722256716007
35826.0,6360.0,35826.0,68269.0,35826.0,89051.0,-500.63439206979285,-154.25775249139969,-248.98215179179033
35826.0,6377.0,35826.0,68341.0,35826.0,89075.0,-506.3368725300139,-156.93800723416172,-252.41935514244733
35836.0,6375.0,35836.0,68402.0,35836.0,89089.0,-512.0443785803637,-159.62787289789037,-255.87023730909885
35836.0,6372.0,35836.0,68329.0,35836.0,89098.0,-517.7581800237938,-162.3281794522323,-259.33573925585335
35836.0,6343.0,35836.0,68262.0,35836.0,89021.0,-523.4792438743341,-165.03837123722917,-262.8158513489927
35836.0,6326.0,35836.0,68205.0,35836.0,88995.0,-529.2083343377006,-167.75731379064155,-266.30989916208205
35836.0,6337.0,35836.0,68254.0,35836.0,89042.0,-534.9463211623843,-170.4848390581431,-269.81737327666855
35836.0,6350.0,35836.0,68365.0,35836.0,89064.0,-540.6943239720867,-173.22240801211717,-273.33830540205093
35846.0,6346.0,35846.0,68372.0,35846.0,89063.0,-546.4534901807053,-175.9721014308043,-276.8727678715002
35846.0,6323.0,35846.0,68319.0,35846.0,89039.0,-552.2246735880077,-178.73494256410908,-280.4202149376968
35846.0,6307.0,35846.0,68258.0,35846.0,88986.0,-558.0083859874045,-181.51026774727563,-283.97940250470566
35846.0,6291.0,35846.0,68237.0,35846.0,88982.0,-563.8050561638562,-184.2965253964477,-287.54895916960584
35846.0,6315.0,35846.0,68282.0,35846.0,89031.0,-569.6153109208541,-187.09241059570104,-291.1280379214282
35846.0,6317.0,35846.0,68364.0,35846.0,89031.0,-575.4399583748183,-189.89709073060476,-294.7163240463975
35857.0,6302.0,35857.0,68318.0,35857.0,89054.0,-581.2796836172053,-192.70928138710894,-298.3134114099027
35857.0,6294.0,35857.0,68234.0,35857.0,88995.0,-587.1348108730239,-195.52637059075425,-301.9182250770075
35857.0,6264.0,35857.0,68166.0,35857.0,88968.0,-593.0053567702371,-198.34493922905307,-305.52905288423347
35857.0,6253.0,35857.0,68190.0,35857.0,88958.0,-598.8913200704806,-201.162388344563,-309.14419206899163
35857.0,6263.0,35857.0,68288.0,35857.0,89024.0,-604.793019653171,-203.97804430233708,-312.76253306182855
35857.0,6284.0,35857.0,68335.0,35857.0,89029.0,-610.7111731463759,-206.79259850666625,-316.3833519548352
35867.0,6270.0,35867.0,68307.0,35867.0,89003.0,-616.6465927486096,-209.60643619323372,-320.0055342935227
35867.0,6246.0,35867.0,68222.0,35867.0,88947.0,-622.5998422544345,-212.41852183351745,-323.62720160682187
35867.0,6212.0,35867.0,68133.0,35867.0,88916.0,-628.571288337239,-215.22692788667155,-327.2462466435778
35867.0,6205.0,35867.0,68210.0,35867.0,88965.0,-634.5615602376029,-218.03046254801023,-330.861243111099
35867.0,6253.0,35867.0,68284.0,35867.0,88979.0,-640.5719523877236,-220.82962174346574,-334.47178085303324
35867.0,6244.0,35867.0,68317.0,35867.0,88992.0,-646.6042700917965,-223.6257806883625,-338.07797354499223
35877.0,6235.0,35877.0,68272.0,35877.0,88978.0,-652.6602700021544,-226.41957614915088,-341.67975615971517
35877.0,6208.0,35877.0,68214.0,35877.0,88946.0,-658.7413287623783,-229.210132755894,-345.27657122594223
35877.0,6191.0,35877.0,68153.0,35877.0,88913.0,-664.848586659046,-231.99568582900253,-348.8676098328719
35877.0,6202.0,35877.0,68177.0,35877.0,88923.0,-670.9832869655793,-234.77492886969083,-352.4524131193388
35877.0,6212.0,35877.0,68270.0,35877.0,88964.0,-677.1469142912454,-237.54783307762858,-356.03127572254124
35877.0,6218.0,35877.0,68304.0,35877.0,88987.0,-683.340963926774,-240.31504647242343,-359.60495741190095
35888.0,6204.0,35888.0,68220.0,35888.0,88932.0,-689.5665485612682,-243.07648985956257,-363.17397610375315
35888.0,6184.0,35888.0,68162.0,35888.0,88929.0,-695.8241782643512,-245.83084145905275,-366.73830791487677
35888.0,6157.0,35888.0,68124.0,35888.0,88896.0,-702.1138796459852,-248.5765416039481,-370.2977573254406
35888.0,6177.0,35888.0,68207.0,35888.0,88959.0,-708.4355185885507,-251.3131498587506,-373.8524125959836
35888.0,6185.0,35888.0,68283.0,35888.0,88963.0,-714.788940018938,-254.04152264344253,-377.40254492434747
35888.0,6178.0,35888.0,68279.0,35888.0,88943.0,-721.1737324720131,-256.7625260329111,-380.9480059815273
35898.0,6166.0,35898.0,68182.0,35898.0,88921.0,-727.5889027975433,-259.47564972520183,-384.487824029523
35898.0,6139.0,35898.0,68119.0,35898.0,88878.0,-734.0328050597623,-262.1790885196629,-388.02043372898135
35898.0,6123.0,35898.0,68121.0,35898.0,88878.0,-740.5033742564892,-264.8712083490229,-391.54432717608603
35898.0,6131.0,35898.0,68237.0,35898.0,88919.0,-746.9984746801541,-267.55175770092114,-395.0585939754108
35898.0,6139.0,35898.0,68248.0,35898.0,88945.0,-753.5160513325918,-270.2214928656683,-398.5628120838776
35898.0,6142.0,35898.0,68258.0,35898.0,88920.0,-760.0539407782559,-272.8806764057887,-402.05636028740895
35908.0,6114.0,35908.0,68180.0,35908.0,88898.0,-766.6095681610925,-275.5279828145526,-405.5379011053358
35908.0,6104.0,35908.0,68108.0,35908.0,88871.0,-773.1798704430055,-278.16073620570063,-409.00550769835337
35908.0,6103.0,35908.0,68151.0,35908.0,88873.0,-779.7614722574541,-280.7761562811072,-412.45717983462305
35908.0,6104.0,35908.0,68238.0,35908.0,88919.0,-786.3508271093956,-283.37222640671195,-415.89117626059425
35908.0,6127.0,35908.0,68226.0,35908.0,88951.0,-792.9441054693258,-285.94713964198905,-419.3057021317955
35908.0,6085.0,35908.0,68199.0,35908.0,88886.0,-799.5369027320605,-288.4980998998042,-422.69814786454066
35919.0,6076.0,35919.0,68104.0,35919.0,88889.0,-806.1241051280481,-291.0209960922467,-426.06473145822764
35919.0,6049.0,35919.0,68097.0,35919.0,88864.0,-812.7001322925804,-293.5113439808877,-429.4008499581675
35919.0,6081.0,35919.0,68139.0,35919.0,88875.0,-819.2592875025459,-295.96556494620904,-432.70157353891625
35919.0,6077.0,35919.0,68224.0,35919.0,88920.0,-825.7957867311576,-298.3812944883429,-435.9617663047766
35919.0,6088.0,35919.0,68217.0,35919.0,88906.0,-832.3034120651369,-300.7563603514331,-439.1757044488245
35919.0,6084.0,35919.0,68209.0,35919.0,88869.0,-838.7750709724286,-303.08741186102054,-442.3365723987096
35929.0,6034.0,35929.0,68106.0,35929.0,88836.0,-845.2025611374072,-305.3694208603967,-445.43650698903963
35929.0,6033.0,35929.0,68077.0,35929.0,88809.0,-851.5767434676951,-307.59647326906935,-448.4672870181292
35929.0,6022.0,35929.0,68177.0,35929.0,88834.0,-857.8879899712907,-309.76305002747756,-451.4211281037647
35929.0,6065.0,35929.0,68217.0,35929.0,88882.0,-864.1264130093357,-311.8642595841122,-454.29095371972414
35929.0,6052.0,35929.0,68181.0,35929.0,88884.0,-870.2815908905873,-313.8947387819105,-457.0698876741645
35929.0,6014.0,35929.0,68141.0,35929.0,88866.0,-876.3421260671793,-315.84771378952695,-459.75044990855315
35939.0,5999.0,35939.0,68029.0,35939.0,88789.0,-882.2956251740261,-317.71538894335106,-462.324303784557
35939.0,5993.0,35939.0,68044.0,35939.0,88780.0,-888.1291255658189,-319.4904492010641,-464.7829153243638
35939.0,5990.0,35939.0,68161.0,35939.0,88860.0,-893.8294830572347,-321.1673913831203,-467.1184568415931
35939.0,6011.0,35939.0,68183.0,35939.0,88873.0,-899.3834460561827,-322.74227389666476,-469.3238219504211
35939.0,6012.0,35939.0,68154.0,35939.0,88841.0,-904.7774246092613,-324.2112210588168,-471.39176637211057
35939.0,5975.0,35939.0,68108.0,35939.0,88816.0,-909.99716930473,-325.56944886428573,-473.31435864928574
35950.0,5952.0,35950.0,68042.0,35950.0,88764.0,-915.0277773609776,-326.8116541993028,-475.08334205099874
35950.0,5951.0,35950.0,68078.0,35950.0,88810.0,-919.8541214756856,-327.933174705413,-476.6909363966047
35950.0,5970.0,35950.0,68145.0,35950.0,88835.0,-924.4612445541059,-328.9307477219703,-478.1302564055567
35950.0,5975.0,35950.0,68209.0,35950.0,88857.0,-928.8343241537933,-329.8019861112168,-479.3949258874604
35950.0,5965.0,35950.0,68175.0,35950.0,88837.0,-932.9583386710846,-330.5439191573089,-480.47832309773975
35950.0,5921.0,35950.0,68067.0,35950.0,88807.0,-936.8178951349535,-331.1520597539191,-481.373200176329
35960.0,5917.0,35960.0,68069.0,35960.0,88783.0,-940.3975145577227,-331.62100377211067,-482.07195413722036
35960.0,5931.0,35960.0,68082.0,35960.0,88794.0,-943.6821284442034,-331.94581904505606,-482.56725215428173
35960.0,5944.0,35960.0,68204.0,35960.0,88841.0,-946.6572607890286,-332.1225909934438,-482.8524002207761
35960.0,5960.0,35960.0,68164.0,35960.0,88833.0,-949.3087483163168,-332.1475442395301,-482.9210850757685
35960.0,5936.0,35960.0,68109.0,35960.0,88800.0,-951.6223131083265,-332.0158756482201,-482.76688626440375
35960.0,5917.0,35960.0,68055.0,35960.0,88785.0,-953.583394852344,-331.72177421611667,-482.38326683922065
35970.0,5897.0,35970.0,68020.0,35970.0,88784.0,-955.1774192323596,-331.25967248483164,-481.7640732665786
35970.0,5909.0,35970.0,68107.0,35970.0,88819.0,-956.3902783008316,-330.6255397089839,-480.9039517956149
35970.0,5938.0,35970.0,68180.0,35970.0,88850.0,-957.2085821265916,-329.8170128345921,-479.79822412501164
35970.0,5928.0,35970.0,68165.0,35970.0,88825.0,-957.6194737293276,-328.83218733000024,-478.44232979895327
35970.0,5918.0,35970.0,68085.0,35970.0,88833.0,-957.6103092681659,-327.6684015860428,-476.83139201008055
35970.0,5891.0,35970.0,68073.0,35970.0,88760.0,-957.1686572144052,-326.3223506104793,-474.96032789458934
35981.0,5890.0,35981.0,68049.0,35981.0,88764.0,-956.2826776279766,-324.7912093558066,-472.8245277588428
35981.0,5925.0,35981.0,68124.0,35981.0,88833.0,-954.9415176663819,-323.07353738132156,-470.4206177020624
35981.0,5930.0,35981.0,68179.0,35981.0,88860.0,-953.1353128902532,-321.1691554443928,-467.7464436736755
35981.0,5939.0,35981.0,68180.0,35981.0,88853.0,-950.8548250713418,-319.0780568042303,-464.8002244576784
35981.0,5901.0,35981.0,68101.0,35981.0,88807.0,-948.0911782313989,-316.7993893975073,-461.5798956373693
35981.0,5890.0,35981.0,68017.0,35981.0,88784.0,-944.8360574807257,-314.33171907660363,-458.08335290395365
35991.0,5897.0,35991.0,68065.0,35991.0,88809.0,-941.0822677304454,-311.6745213173294,-454.309254788869
35991.0,5921.0,35991.0,68159.0,35991.0,88827.0,-936.8241729196714,-308.8293350717032,-450.2575652750313
35991.0,5945.0,35991.0,68205.0,35991.0,88863.0,-932.0576719525268,-305.79924716694075,-445.9294356265964
35991.0,5939.0,35991.0,68158.0,35991.0,88826.0,-926.7798450908904,-302.58734265167175,-441.3267472095748
35991.0,5918.0,35991.0,68065.0,35991.0,88821.0,-920.9887161546574,-299.195950441876,-436.4519304772189
35991.0,5921.0,35991.0,68103.0,35991.0,88800.0,-914.6834341818799,-295.62742687751387,-431.3083211200545
36000.0,5930.0,36000.0,68093.0,36000.0,88833.0,-907.8646904512873,-291.8853903729252,-425.90071128868755
36000.0,5961.0,36000.0,68168.0,36000.0,88878.0,-900.5349499560789,-287.9751483204768,-420.235531158652
36000.0,5986.0,36000.0,68211.0,36000.0,88899.0,-892.6982969545788,-283.903121847706,-414.3203996206753
36000.0,5989.0,36000.0,68167.0,36000.0,88903.0,-884.3600260594628,-279.6758025224326,-408.16336161537293
36000.0,5968.0,36000.0,68128.0,36000.0,88867.0,-875.5263591943694,-275.2992061209354,-401.7724372021455
36000.0,5966.0,36000.0,68094.0,36000.0,88865.0,-866.2046059706938,-270.7794242971437,-395.15580994731965
36011.0,5989.0,36011.0,68177.0,36011.0,88875.0,-856.4036175245967,-266.1236121976809,-388.32239533420864
36011.0,6045.0,36011.0,68264.0,36011.0,88931.0,-846.1339952632217,-261.3401004493055,-381.2821716902867
36011.0,6056.0,36011.0,68249.0,36011.0,88943.0,-835.4077304357013,-256.4372144017116,-374.0458949037792
36011.0,6041.0,36011.0,68195.0,36011.0,88934.0,-824.2376344087005,-251.42199638328776,-366.6244940945487
36011.0,6022.0,36011.0,68093.0,36011.0,88898.0,-812.6372311349234,-246.30031409481654,-359.0288359589807
36011.0,6070.0,36011.0,68147.0,36011.0,88899.0,-800.6211741342536,-241.07833669743485,-351.2701569454896
36021.0,6088.0,36021.0,68230.0,36021.0,88948.0,-788.2055460267741,-235.76379786817108,-343.3606913780485
36021.0,6119.0,36021.0,68271.0,36021.0,88993.0,-775.4076596799896,-230.36568567354954,-335.31373626377655
36021.0,6150.0,36021.0,68265.0,36021.0,89018.0,-762.2455972238099,-224.89285279884817,-327.1429662054928
36021.0,6130.0,36021.0,68204.0,36021.0,88951.0,-748.7378142178503,-219.35308083103618,-318.8616860576558
36021.0,6133.0,36021.0,68159.0,36021.0,88956.0,-734.9030775422349,-213.75341185191542,-310.4828647783474
36021.0,6155.0,36021.0,68160.0,36021.0,88970.0,-720.760782958178,-208.10139293538836,-302.0198589777367
36031.0,6206.0,36031.0,68265.0,36031.0,89050.0,-706.331204484743,-202.40608586034574,-293.48684423433286
36031.0,6225.0,36031.0,68322.0,36031.0,89064.0,-691.6352702166466,-196.67775707262925,-284.89834257964026
36031.0,6240.0,36031.0,68282.0,36031.0,89061.0,-676.6940622507874,-190.92648640414754,-276.2683010322498
36031.0,6239.0,36031.0,68247.0,36031.0,89047.0,-661.5285055011891,-185.16119987378113,-267.60958079807045
36031.0,6253.0,36031.0,68230.0,36031.0,89034.0,-646.1594126896823,-179.38998228501617,-258.9341420349525
36031.0,6286.0,36031.0,68246.0,36031.0,89052.0,-630.6076682952192,-173.62099947975688,-250.25356354115675
36042.0,6314.0,36042.0,68350.0,36042.0,89103.0,-614.8942310372532,-167.8629128868526,-241.5793566423606
36042.0,6337.0,36042.0,68381.0,36042.0,89127.0,-599.0398732661552,-162.12417291113104,-232.9227045815486
36042.0,6343.0,36042.0,68316.0,36042.0,89099.0,-583.0648771672782,-156.41172515089775,-224.29387191014712
36042.0,6343.0,36042.0,68250.0,36042.0,89091.0,-566.9889481660297,-150.73060244655719,-215.70199182267277
36042.0,6358.0,36042.0,68243.0,36042.0,89064.0,-550.8314076107108,-145.0849833441083,-207.15551239924585
36042.0,6382.0,36042.0,68273.0,36042.0,89126.0,-534.6114698137171,-139.4796341114589,-198.66284814229425
36052.0,6438.0,36052.0,68389.0,36052.0,89177.0,-518.3482850967949,-133.9203620770825,-190.23250596488043
36052.0,6447.0,36052.0,68412.0,36052.0,89148.0,-502.06060250807263,-128.41303491409815,-181.8724931030403
36052.0,6454.0,36052.0,68297.0,36052.0,89135.0,-485.7663268170811,-122.96216742985135,-173.5897898579263
36052.0,6448.0,36052.0,68241.0,36052.0,89112.0,-469.48241237603077,-117.57086262289818,-165.3905911645673
36052.0,6460.0,36052.0,68257.0,36052.0,89117.0,-453.2251661197377,-112.24238208554813,-157.2810455792655
36052.0,6499.0,36052.0,68374.0,36052.0,89182.0,-437.0106191652824,-106.98151619673772,-149.26779734190882
36063.0,6547.0,36063.0,68401.0,36063.0,89229.0,-420.8545516152799,-101.79424429463444,-141.35778490350734
36063.0,6577.0,36063.0,68448.0,36063.0,89226.0,-404.7720324304774,-96.68615215355189,-133.55734832215956
36063.0,6564.0,36063.0,68363.0,36063.0,89195.0,-388.7768259896137,-91.66108187628483,-125.87147098675973
36063.0,6555.0,36063.0,68287.0,36063.0,89167.0,-372.8812274447462,-86.72111088921227,-118.30386984102066
36063.0,6561.0,36063.0,68311.0,36063.0,89183.0,-357.0964822511496,-81.86787610472791,-110.85774978667317
36063.0,6618.0,36063.0,68392.0,36063.0,89231.0,-341.4333138936134,-77.1038893041381,-103.53642479275533
36073.0,6646.0,36073.0,68480.0,36073.0,89255.0,-325.9019664883242,-72.43235422014925,-96.34322276879413
36073.0,6657.0,36073.0,68429.0,36073.0,89247.0,-310.5117639330751,-67.85568558635785,-89.2808946787315
36073.0,6642.0,36073.0,68344.0,36073.0,89216.0,-295.2707640573106,-63.374470458011515,-82.35126847089867
36073.0,6662.0,36073.0,68318.0,36073.0,89227.0,-280.18588590509813,-58.98809810593821,-75.55551807711174
36073.0,6680.0,36073.0,68330.0,36073.0,89247.0,-265.2632650168754,-54.69635622860993,-68.89465684078192
36073.0,6708.0,36073.0,68472.0,36073.0,89293.0,-250.5084195941585,-50.500293564677136,-62.369642144669655
36083.0,6730.0,36083.0,68501.0,36083.0,89317.0,-235.92613627606386,-46.4013856150313,-55.98090704510625
36083.0,6739.0,36083.0,68423.0,36083.0,89296.0,-221.52024938615284,-42.399823053185315,-49.727683154486925
36083.0,6730.0,36083.0,68362.0,36083.0,89254.0,-207.29355229201008,-38.49387162904651,-43.607764376033515
36083.0,6739.0,36083.0,68340.0,36083.0,89241.0,-193.24799860050757,-34.680963296992985,-37.61804947666289
36083.0,6762.0,36083.0,68437.0,36083.0,89278.0,-179.38505952744816,-30.959116179185514,-31.755408225601514
36083.0,6812.0,36083.0,68473.0,36083.0,89331.0,-165.70586096053165,-27.327117077190707,-26.01701515733714
36094.0,6819.0,36094.0,68494.0,36094.0,89348.0,-152.21090386335078,-23.783430165553767,-20.399823213259197
36094.0,6821.0,36094.0,68437.0,36094.0,89281.0,-138.8996593985609,-20.325080548309614,-14.899837087803405
36094.0,6815.0,36094.0,68331.0,36094.0,89259.0,-125.77049004314836,-16.947700659370724,-9.512178002594851
36094.0,6797.0,36094.0,68349.0,36094.0,89302.0,-112.82100801466248,-13.646911615985687,-4.231927893048351
36094.0,6829.0,36094.0,68435.0,36094.0,89308.0,-100.04864844502828,-10.419817326792185,0.9452748907797286
36094.0,6873.0,36094.0,68510.0,36094.0,89349.0,-87.45102834160389,-7.265016793090922,6.023398194627191
36104.0,6896.0,36104.0,68507.0,36104.0,89339.0,-75.02575142734815,-4.18113064835245,11.006530074867442
36104.0,6892.0,36104.0,68464.0,36104.0,89322.0,-62.76990582893586,-1.1653699004858424,15.899226014343014
36104.0,6877.0,36104.0,68367.0,36104.0,89308.0,-50.67985371147813,1.7865659808624343,20.70639778973191
36104.0,6874.0,36104.0,68362.0,36104.0,89299.0,-38.751553774944114,4.679202853553562,25.43281265197379
36104.0,6925.0,36104.0,68462.0,36104.0,89367.0,-26.981066620944034,7.515827626063896,30.082668122145662
36104.0,6951.0,36104.0,68522.0,36104.0,89382.0,-15.36466635379577,10.298393924935311,34.65975627758144
36114.0,6951.0,36114.0,68513.0,36114.0,89366.0,-3.8984715191390933,13.028876527509851,39.16812025337629
36114.0,6951.0,36114.0,68395.0,36114.0,89326.0,7.421876310022412,15.710398849156547,43.61240346465132
36114.0,6944.0,36114.0,68360.0,36114.0,89302.0,18.60111583452442,18.346698597779408,47.99738953579373
36114.0,6949.0,36114.0,68408.0,36114.0,89336.0,29.64398059823168,20.9404718333341,52.32714158402479
36114.0,6995.0,36114.0,68514.0,36114.0,89398.0,40.554860616046426,23.492493572091007,56.60460686210956
36114.0,7006.0,36114.0,68575.0,36114.0,89420.0,51.33781851911249,26.00257730818916,60.83215411271317
36125.0,7031.0,36125.0,68534.0,36125.0,89412.0,61.99693579365521,28.471509291254307,65.01256998465112
36125.0,7000.0,36125.0,68463.0,36125.0,89377.0,72.53659435744021,30.902188818860566,69.1496179197485
36125.0,7006.0,36125.0,68392.0,36125.0,89344.0,82.9613533582384,33.299041573822194,73.24775264751247
36125.0,7026.0,36125.0,68500.0,36125.0,89388.0,93.27552021915915,35.66651540405255,77.31135646273884
36125.0,7070.0,36125.0,68548.0,36125.0,89423.0,103.48291160072824,38.00845547521618,81.3443268739519
36125.0,7069.0,36125.0,68544.0,36125.0,89418.0,113.58707734735685,40.32900220129247,85.35040808701407
36135.0,7078.0,36135.0,68473.0,36135.0,89403.0,123.59166350168493,42.63365390943633,89.33369753374825
36135.0,7073.0,36135.0,68414.0,36135.0,89374.0,133.50050750489595,44.92905725975112,93.29864128184082
36135.0,7072.0,36135.0,68392.0,36135.0,89372.0,143.31743713479852,47.22161428896743,97.24950807657416
36135.0,7101.0,36135.0,68476.0,36135.0,89389.0,153.04598555278028,49.516101894940675,101.18978911887243
36135.0,7124.0,36135.0,68592.0,36135.0,89447.0,162.68929554347812,51.8156250562389,105.12202937821598
36135.0,7144.0,36135.0,68531.0,36135.0,89460.0,172.25034033086592,54.12308171936499,109.0483210342442
36145.0,7124.0,36145.0,68428.0,36145.0,89413.0,181.73222004793786,56.44243122496161,112.97101779034898
36145.0,7097.0,36145.0,68417.0,36145.0,89395.0,191.13809866594534,58.77813303076033,116.89284633450546
36145.0,7129.0,36145.0,68435.0,36145.0,89384.0,200.47068414927082,61.133510454361044,120.81625702165368
36145.0,7172.0,36145.0,68535.0,36145.0,89452.0,209.7317961212765,63.50993350505712,124.74276651919382
36145.0,7194.0,36145.0,68539.0,36145.0,89449.0,218.9225612924704,65.90748246223663,128.67299457328306
36145.0,7201.0,36145.0,68552.0,36145.0,89477.0,228.04400791355823,68.32626849879145,132.60726330701885
36156.0,7183.0,36156.0,68457.0,36156.0,89425.0,237.09744400469384,70.76716472516853,136.54607703401012
36156.0,7185.0,36156.0,68417.0,36156.0,89396.0,246.08434612469404,73.23127172272223,140.48996247913243
36156.0,7197.0,36156.0,68447.0,36156.0,89445.0,255.0059650605799,75.71853645386597,144.4387887923271
36156.0,7223.0,36156.0,68555.0,36156.0,89478.0,263.863053139808,78.22690672622016,148.3913808797355
36156.0,7254.0,36156.0,68596.0,36156.0,89485.0,272.655949905526,80.75305736296096,152.34592187153686
36156.0,7245.0,36156.0,68546.0,36156.0,89489.0,281.3849208996503,83.29401424176996,156.30062264353654
36166.0,7231.0,36166.0,68488.0,36166.0,89449.0,290.0503589656612,85.84798446855007,160.25399062034757
36166.0,7233.0,36166.0,68449.0,36166.0,89442.0,298.65256272017507,88.41367030750337,164.20452994737786
36166.0,7259.0,36166.0,68483.0,36166.0,89480.0,307.191320865713,90.9889148693575,168.15018878410115
36166.0,7285.0,36166.0,68608.0,36166.0,89517.0,315.66576577286105,93.57010430954199,172.08820743352197
36166.0,7308.0,36166.0,68606.0,36166.0,89516.0,324.07463395589787,96.15307336310482,176.01560617506146
36166.0,7287.0,36166.0,68569.0,36166.0,89499.0,332.41664205552206,98.73464615100193,179.9297523178414
36176.0,7300.0,36176.0,68490.0,36176.0,89484.0,340.6905898155088,101.31315090785571,183.8284237367247
36176.0,7294.0,36176.0,68474.0,36176.0,89482.0,348.89514355098777,103.88745339349927,187.7094114740708
36176.0,7306.0,36176.0,68534.0,36176.0,89523.0,357.0285551403356,106.45560388200002,191.5701330101279
36176.0,7343.0,36176.0,68574.0,36176.0,89540.0,365.08853515134354,109.01441319512398,195.40768732978484
36176.0,7342.0,36176.0,68651.0,36176.0,89534.0,373.07238741953927,111.5602897381703,199.21930127732026
36176.0,7354.0,36176.0,68580.0,36176.0,89545.0,380.97727563654803,114.09057671617356,203.0027079063682
36187.0,7339.0,36187.0,68486.0,36187.0,89501.0,388.80032050261366,116.60408636102713,206.75616549687817
36187.0,7343.0,36187.0,68501.0,36187.0,89467.0,396.53842028015504,119.10013104649346,210.47802422314066
36187.0,7380.0,36187.0,68575.0,36187.0,89547.0,404.1879951940224,121.57715426396314,214.16602874196843
36187.0,7393.0,36187.0,68658.0,36187.0,89550.0,411.7449917206278,124.03269581820163,217.81709946603638
36187.0,7405.0,36187.0,68638.0,36187.0,89583.0,419.20519342981686,126.46477426644987,221.42790627427962
36187.0,7404.0,36187.0,68512.0,36187.0,89512.0,426.56451471600724,128.87302924595508,224.99548395731296
36197.0,7396.0,36197.0,68473.0,36197.0,89504.0,433.8190387561639,131.25812417218688,228.51710632339444
36197.0,7396.0,36197.0,68500.0,36197.0,89537.0,440.9648038764915,133.61988490015037,231.9895789371892
36197.0,7419.0,36197.0,68580.0,36197.0,89579.0,447.9975124993731,135.95607056793358,235.40886732957887
36197.0,7472.0,36197.0,68644.0,36197.0,89610.0,454.91250481214684,138.26283302217973,238.77057481005136
36197.0,7459.0,36197.0,68614.0,36197.0,89585.0,461.70517538590843,140.5362112349555,242.0707883641204
36197.0,7442.0,36197.0,68555.0,36197.0,89543.0,468.37141803200745,142.77317541494625,245.30646102387635
36207.0,7429.0,36207.0,68491.0,36207.0,89529.0,474.90753847501105,144.97126371343384,248.47496454285135
36207.0,7442.0,36207.0,68553.0,36207.0,89552.0,481.30973414062385,147.12728922365275,251.57326376811687
36207.0,7473.0,36207.0,68682.0,36207.0,89588.0,487.57370782614964,149.23671812402125,254.59750812483077
36207.0,7487.0,36207.0,68668.0,36207.0,89629.0,493.6947371543397,151.29473295502348,257.54338232474066
36207.0,7488.0,36207.0,68635.0,36207.0,89595.0,499.66802186528514,153.2979247862477,260.4068622712553
36207.0,7479.0,36207.0,68554.0,36207.0,89561.0,505.4889023318874,155.24479711768532,263.1846072817775
36218.0,7484.0,36218.0,68524.0,36218.0,89545.0,511.1527713674043,157.13473354119682,265.87354758554693
36218.0,7517.0,36218.0,68578.0,36218.0,89588.0,516.6549000635626,158.966524051168,268.4701427830657
36218.0,7528.0,36218.0,68637.0,36218.0,89631.0,521.9905137484621,160.73777557492642,270.9701876429041
36218.0,7537.0,36218.0,68696.0,36218.0,89651.0,527.1551242897395,162.44570055533967,273.3694365312875
36218.0,7529.0,36218.0,68603.0,36218.0,89603.0,532.1448052206229,164.0884438144132,275.66442127711366
36218.0,7529.0,36218.0,68565.0,36218.0,89575.0,536.9562054381278,165.6655028432228,277.8526025236426
36228.0,7521.0,36228.0,68516.0,36228.0,89581.0,541.5863501715586,167.17673766955687,279.9317433742917
36228.0,7537.0,36228.0,68643.0,36228.0,89646.0,546.0323871842652,168.62108742080363,281.8993270492851
36228.0,7567.0,36228.0,68667.0,36228.0,89650.0,550.2914948476686,169.9965093612619,283.75276942988097
36228.0,7573.0,36228.0,68685.0,36228.0,89662.0,554.361103961423,171.30123353078093,285.49018979621917
36228.0,7559.0,36228.0,68564.0,36228.0,89593.0,558.2392391342588,172.53484156117662,287.1108918988421
36228.0,7544.0,36228.0,68528.0,36228.0,89591.0,561.9245730410424,173.6978441856785,288.61505151619207
36238.0,7556.0,36238.0,68585.0,36238.0,89604.0,565.4161248154339,174.79019255824332,290.00293836632085
36238.0,7580.0,36238.0,68660.0,36238.0,89653.0,568.712985108105,175.81047591792586,291.2745101939612
36238.0,7597.0,36238.0,68705.0,36238.0,89653.0,571.8144098547756,176.75674258829866,292.42976353526944
36238.0,7586.0,36238.0,68647.0,36238.0,89651.0,574.720169456706,177.62801546470612,293.4693817760772
36238.0,7582.0,36238.0,68612.0,36238.0,89602.0,577.4307587720488,178.42499234607698,294.39500255382853
36238.0,7569.0,36238.0,68518.0,36238.0,89585.0,579.9472797197643,179.14935842399115,295.2088252060614
36249.0,7573.0,36249.0,68583.0,36249.0,89614.0,582.2711361195344,179.8023301712423,295.91288808384775
36249.0,7599.0,36249.0,68689.0,36249.0,89644.0,584.4038078677889,180.38383302594028,296.50872801454796
36249.0,7606.0,36249.0,68738.0,36249.0,89673.0,586.3469189225867,180.89339755021274,296.9977719552019
36249.0,7611.0,36249.0,68620.0,36249.0,89644.0,588.1025403628626,181.33192409687837,297.38205604039854
36249.0,7573.0,36249.0,68571.0,36249.0,89594.0,589.6733783658334,181.70219917721323,297.66452522131624
36249.0,7566.0,36249.0,68555.0,36249.0,89598.0,591.0625495499285,182.0076332827701,297.84856534853185
36259.0,7586.0,36259.0,68616.0,36259.0,89628.0,592.2730913315005,182.25079453271007,297.9373018696205
36259.0,7632.0,36259.0,68682.0,36259.0,89680.0,593.307773841038,182.4331991746596,297.93352511780245
36259.0,7622.0,36259.0,68687.0,36259.0,89679.0,594.1695067424218,182.55636290668454,297.8403999410974
36259.0,7614.0,36259.0,68629.0,36259.0,89645.0,594.8618996933202,182.6229837286246,297.66226948823856
36259.0,7606.0,36259.0,68542.0,36259.0,89582.0,595.3894299453455,182.63701370080767,297.4047233180424
36259.0,7586.0,36259.0,68546.0,36259.0,89595.0,595.7572149423513,182.60243334171508,297.07380219789565
36269.0,7598.0,36269.0,68634.0,36269.0,89600.0,595.9706609535249,182.52194884950777,296.67507807573503
36269.0,7615.0,36269.0,68623.0,36269.0,89644.0,596.0352445932119,182.39691328151994,296.21337198133944
36269.0,7634.0,36269.0,68687.0,36269.0,89645.0,595.9566354990438,182.22829756727785,295.69316229833885
36269.0,7607.0,36269.0,68608.0,36269.0,89610.0,595.7410426158239,182.01764278021366,295.11913684472086
36269.0,7591.0,36269.0,68568.0,36269.0,89584.0,595.3953447539492,181.76721449627138,294.49625114199256
36269.0,7579.0,36269.0,68562.0,36269.0,89577.0,594.9267907081645,181.4792134803398,293.8291935594347
36280.0,7604.0,36280.0,68625.0,36280.0,89630.0,594.3425763231967,181.1548703350931,293.12185822215696
36280.0,7613.0,36280.0,68717.0,36280.0,89621.0,593.6497374234642,180.7945978037047,292.3774103901923
36280.0,7616.0,36280.0,68645.0,36280.0,89631.0,592.8554089696325,180.39923913511808,291.59879038105595
36280.0,7588.0,36280.0,68566.0,36280.0,89605.0,591.9670899922144,179.97095541196592,290.78907107504006
36280.0,7565.0,36280.0,68538.0,36280.0,89559.0,590.9925437305764,179.51254364895507,289.9513349917231
36280.0,7559.0,36280.0,68587.0,36280.0,89613.0,589.9393185715611,179.02597079996585,289.08818416829314
36290.0,7595.0,36290.0,68662.0,36290.0,89630.0,588.8142922624075,178.51181542339546,288.20148985910953
36290.0,7613.0,36290.0,68708.0,36290.0,89643.0,587.6237066376699,177.97019573025528,287.29281504934056
36290.0,7604.0,36290.0,68657.0,36290.0,89642.0,586.3736622825822,177.4023097420013,286.36409688019734
36290.0,7579.0,36290.0,68537.0,36290.0,89581.0,585.0705204529869,176.8110657043971,285.4179494343102
36290.0,7554.0,36290.0,68543.0,36290.0,89567.0,583.7207890949853,176.20004989134043,284.45729944819146
36290.0,7570.0,36290.0,68600.0,36290.0,89597.0,582.3306445391075,175.57193666313748,283.4846422394717
36301.0,7594.0,36301.0,68677.0,36301.0,89636.0,580.905618877417,174.92812761935082,282.50172927117114
36301.0,7598.0,36301.0,68686.0,36301.0,89633.0,579.4507786459628,174.2699152262612,281.5100373789153
36301.0,7578.0,36301.0,68594.0,36301.0,89613.0,577.9711234554209,173.5998028313851,280.51142462800556
36301.0,7561.0,36301.0,68544.0,36301.0,89564.0,576.4717025220224,172.92153203052715,279.5082421852471
36301.0,7550.0,36301.0,68518.0,36301.0,89555.0,574.9573315612563,172.23876266633187,278.5027645326623
36301.0,7569.0,36301.0,68653.0,36301.0,89603.0,573.4322215367113,171.55382802171866,277.4964843556696
36311.0,7595.0,36311.0,68656.0,36311.0,89636.0,571.8999137372844,170.8679533707279,276.4900552175569
36311.0,7595.0,36311.0,68637.0,36311.0,89652.0,570.3636384231435,170.1825958021425,275.4840357743193
36311.0,7584.0,36311.0,68574.0,36311.0,89588.0,568.8267812232084,169.5002660545932,274.47969482155133
36311.0,7553.0,36311.0,68501.0,36311.0,89562.0,567.2930220766411,168.82396413451087,273.4790332583857
36311.0,7541.0,36311.0,68524.0,36311.0,89572.0,565.7660211377323,168.1557487362891,272.4840472116631
36311.0,7577.0,36311.0,68634.0,36311.0,89604.0,564.2489712760575,167.49573758505343,271.4961065074796
36321.0,7582.0,36321.0,68671.0,36321.0,89629.0,562.7445229872474,166.84265978288124,270.5160798312879
36321.0,7584.0,36321.0,68646.0,36321.0,89611.0,561.2551483951927,166.19550481278415,269.54495154371307
36321.0,7553.0,36321.0,68562.0,36321.0,89557.0,559.7834646369988,165.5545622332498,268.5841833677737
36321.0,7542.0,36321.0,68519.0,36321.0,89535.0,558.3321401373385,164.92089891485622,267.6353149840808
36321.0,7537.0,36321.0,68530.0,36321.0,89570.0,556.9034868984797,164.29491128480686,266.69913942782875
36321.0,7568.0,36321.0,68664.0,36321.0,89617.0,555.4991434675474,163.67545820350765,265.77537403675024
36332.0,7579.0,36332.0,68686.0,36332.0,89640.0,554.1201763518161,163.06063084786587,264.8632579781428
36332.0,7561.0,36332.0,68633.0,36332.0,89612.0,552.7674865005719,162.44947763741354,263.96252388395436
36332.0,7542.0,36332.0,68548.0,36332.0,89566.0,551.4420391715917,161.8428021935057,263.0738410308832
36332.0,7535.0,36332.0,68523.0,36332.0,89550.0,550.144668234406,161.24225522362528,262.1983840143188
36332.0,7541.0,36332.0,68547.0,36332.0,89585.0,548.8757159404656,160.6487888347113,261.3370672298335
36332.0,7558.0,36332.0,68666.0,36332.0,89618.0,547.6348784772747,160.06201733305812,260.49030318720565
36342.0,7580.0,36342.0,68686.0,36342.0,89616.0,546.421403004963,159.48116243067136,259.65849914375315
36342.0,7570.0,36342.0,68597.0,36342.0,89584.0,545.2345228550344,158.90664790440212,258.8426586164765
36342.0,7530.0,36342.0,68531.0,36342.0,89539.0,544.0737484290676,158.34052439815653,258.04437540665765
36342.0,7522.0,36342.0,68483.0,36342.0,89526.0,542.9386535986937,157.78518401848254,257.2651351089431
36342.0,7549.0,36342.0,68589.0,36342.0,89591.0,541.8283782101578,157.2417286543079,256.5055615311379
36342.0,7568.0,36342.0,68644.0,36342.0,89613.0,540.7414781110812,156.70966557219555,255.76542961257462
36352.0,7573.0,36352.0,68637.0,36352.0,89601.0,539.6763048632879,156.18812655555786,255.04444077278535
36352.0,7546.0,36352.0,68549.0,36352.0,89543.0,538.6314578256338,155.67708471177852,254.34280347411112
36352.0,7521.0,36352.0,68526.0,36352.0,89524.0,537.6058168932337,155.1771928375067,253.66091677290257
36352.0,7527.0,36352.0,68510.0,36352.0,89534.0,536.5981357010801,154.68857320883149,252.9985069585657
36352.0,7542.0,36352.0,68645.0,36352.0,89592.0,535.6066405498354,154.20997741121272,252.35412794798592
36352.0,7567.0,36352.0,68658.0,36352.0,89609.0,534.6290499599688,153.73936854404536,251.72554149643108
36363.0,7564.0,36363.0,68646.0,36363.0,89583.0,533.6629825322456,153.27548668750603,251.1105745485831
36363.0,7534.0,36363.0,68553.0,36363.0,89569.0,532.7063403464603,152.818802993747,250.50760180906153
36363.0,7510.0,36363.0,68498.0,36363.0,89527.0,531.7572450154091,152.37090926363476,249.91531158923104
36363.0,7526.0,36363.0,68519.0,36363.0,89543.0,530.813568960893,151.93293594855024,249.33207675505724
36363.0,7552.0,36363.0,68638.0,36363.0,89604.0,529.8726083800562,151.50453858939818,248.7555561532791
36363.0,7549.0,36363.0,68666.0,36363.0,89612.0,528.9312581954556,151.08455963832802,248.18305476099636
36373.0,7557.0,36373.0,68601.0,36373.0,89563.0,527.9864320632196,150.67264724870756,247.6122985992844
36373.0,7520.0,36373.0,68531.0,36373.0,89557.0,527.0352904130641,150.26995304799885,247.0416733447115
36373.0,7509.0,36373.0,68476.0,36373.0,89521.0,526.0750762697098,149.8781520281093,246.46972029049073
36373.0,7526.0,36373.0,68584.0,36373.0,89544.0,525.1027026331133,149.49791578231648,245.89446242576463
36373.0,7558.0,36373.0,68630.0,36373.0,89612.0,524.1145711310274,149.1285328982567,245.31316780165747
36373.0,7557.0,36373.0,68624.0,36373.0,89602.0,523.106905365077,148.7690124264216,244.72288011575387
36383.0,7545.0,36383.0,68574.0,36383.0,89553.0,522.0762570554125,148.41927407343763,244.12120257346382
36383.0,7526.0,36383.0,68508.0,36383.0,89532.0,521.0196872668221,148.080146152748,243.5063596846009
36383.0,7512.0,36383.0,68477.0,36383.0,89528.0,519.9345317580974,147.75222391098498,242.8765067157047
36383.0,7536.0,36383.0,68560.0,36383.0,89575.0,518.8180439903585,147.43458590770496,242.22914694025525
36383.0,7550.0,36383.0,68631.0,36383.0,89592.0,517.6673084845148,147.12461505054273,241.56125577230597
36383.0,7550.0,36383.0,68644.0,36383.0,89602.0,516.4795338978599,146.8192400165049,240.86996210752477
36394.0,7529.0,36394.0,68557.0,36394.0,89564.0,515.2523879506557,146.5163525459493,240.15315961048736
36394.0,7511.0,36394.0,68521.0,36394.0,89541.0,513.983995854778,146.21494766681258,239.40953603409193
36394.0,7500.0,36394.0,68475.0,36394.0,89524.0,512.6725901773436,145.9139484642427,238.63803682787417
36394.0,7524.0,36394.0,68580.0,36394.0,89544.0,511.31612790299727,145.61094788258436,237.8372325854561
36394.0,7536.0,36394.0,68653.0,36394.0,89602.0,509.91223497698763,145.30219718756197,237.00516105930336
36394.0,7536.0,36394.0,68623.0,36394.0,89589.0,508.4585188697224,144.98398282590267,236.13986235124057
36404.0,7508.0,36404.0,68556.0,36404.0,89551.0,506.9528809200625,144.65390840661993,235.24006295729777
36404.0,7505.0,36404.0,68499.0,36404.0,89513.0,505.3934824759927,144.31069364281745,234.30517900013683
36404.0,7497.0,36404.0,68511.0,36404.0,89531.0,503.7784438250525,143.95284650633707,233.33463261897134
36404.0,7523.0,36404.0,68615.0,36404.0,89583.0,502.10562607900647,143.57769405616062,232.32734566769227
36404.0,7536.0,36404.0,68665.0,36404.0,89605.0,500.3727490394796,143.18189313586018,231.28207856991276
36404.0,7543.0,36404.0,68590.0,36404.0,89572.0,498.57781677939823,142.76294747173048,230.19828247252167
36414.0,7500.0,36414.0,68554.0,36414.0,89520.0,496.7195029295908,142.32002122535687,229.076493345997
36414.0,7496.0,36414.0,68488.0,36414.0,89498.0,494.7971031297727,141.85323958695864,227.91779247210786
36414.0,7490.0,36414.0,68510.0,36414.0,89533.0,492.81011944546873,141.36227783395483,226.72288982846544
36414.0,7516.0,36414.0,68659.0,36414.0,89584.0,490.7579523499153,140.84561903892632,225.49180172672075
36414.0,7526.0,36414.0,68656.0,36414.0,89588.0,488.6400119416281,140.30143766084302,224.22446064451952
36414.0,7522.0,36414.0,68566.0,36414.0,89534.0,486.45612496854443,139.72927124077285,222.9215448969552
36425.0,7479.0,36425.0,68493.0,36425.0,89507.0,484.20681269275684,139.1303836772779,221.584568900235
36425.0,7478.0,36425.0,68457.0,36425.0,89492.0,481.89310568506465,138.50631214070884,220.2151651975609
36425.0,7479.0,36425.0,68538.0,36425.0,89531.0,479.5160857627018,137.85714574155048,218.81433733539964
36425.0,7488.0,36425.0,68637.0,36425.0,89560.0,477.07662859001044,137.18119941488857,217.38237767862424
36425.0,7504.0,36425.0,68621.0,36425.0,89556.0,474.5755128539158,136.47635622266338,215.91944608575744
36425.0,7483.0,36425.0,68552.0,36425.0,89524.0,472.013711826183,135.74161294526283,214.42616588704482
36435.0,7462.0,36435.0,68498.0,36435.0,89511.0,469.3925414653038,134.97721409021494,212.90366039438914
36435.0,7451.0,36435.0,68499.0,36435.0,89511.0,466.7134545579913,134.1834816041394,211.35314324956227
36435.0,7475.0,36435.0,68572.0,36435.0,89518.0,463.977703467363,133.35975689115222,209.7755664819046
36435.0,7466.0,36435.0,68610.0,36435.0,89554.0,461.1862680910319,132.5045378249329,208.17163991578818
36435.0,7473.0,36435.0,68626.0,36435.0,89541.0,458.3400570835016,131.61663875865742,206.54221582476214
36435.0,7460.0,36435.0,68531.0,36435.0,89510.0,455.4401030357292,130.69621802744047,204.88867655952387
36445.0,7436.0,36445.0,68479.0,36445.0,89485.0,452.4875734922907,129.7445902836652,203.21284347395596
36445.0,7437.0,36445.0,68510.0,36445.0,89501.0,449.4835653921522,128.7629592504169,201.51646174519954
36445.0,7464.0,36445.0,68563.0,36445.0,89522.0,446.42889336256763,127.75144698901113,199.80085600528764
36445.0,7465.0,36445.0,68639.0,36445.0,89540.0,443.3242118150098,126.70948007741954,198.06713111762568
36445.0,7457.0,36445.0,68597.0,36445.0,89497.0,440.17040605505827,125.63715020907816,196.31663068595253
36445.0,7429.0,36445.0,68491.0,36445.0,89474.0,436.96881728132087,124.53611642587617,194.55102995086838
36456.0,7416.0,36456.0,68475.0,36456.0,89470.0,433.7210707376405,123.4089703340003,192.77187482413282
36456.0,7420.0,36456.0,68472.0,36456.0,89484.0,430.42869315740813,122.2576713691837,190.98005472542135
36456.0,7441.0,36456.0,68575.0,36456.0,89513.0,427.0929059795838,121.08263863601928,189.17572117652566
36456.0,7453.0,36456.0,68643.0,36456.0,89549.0,423.7148270149157,119.88338767768748,187.3587553332775
36456.0,7426.0,36456.0,68590.0,36456.0,89523.0,420.29589636121926,118.66021432074507,185.52953350308206
36456.0,7391.0,36456.0,68473.0,36456.0,89464.0,416.83803476336345,117.41522971971864,183.68936733800336
36466.0,7394.0,36466.0,68423.0,36466.0,89430.0,413.3433036652469,116.15147568868142,181.84006216478483
36466.0,7399.0,36466.0,68496.0,36466.0,89469.0,409.8134473518623,114.87100462387482,179.98293744536304
36466.0,7415.0,36466.0,68610.0,36466.0,89516.0,406.24979269102204,113.5740893118818,178.11836569773246
36466.0,7424.0,36466.0,68625.0,36466.0,89510.0,402.65354082138526,112.26047121185873,176.24629124522468
36466.0,7400.0,36466.0,68553.0,36466.0,89489.0,399.0261633717612,110.93126094580644,174.36702857167006
36466.0,7352.0,36466.0,68440.0,36466.0,89445.0,395.3694923531843,109.58943084351102,172.48146198335135
36476.0,7361.0,36476.0,68419.0,36476.0,89446.0,391.6852972553634,108.23838750131277,170.59055549666357
36476.0,7381.0,36476.0,68540.0,36476.0,89475.0,387.9747742712527,106.88017443718078,168.69477599365496
36476.0,7386.0,36476.0,68579.0,36476.0,89511.0,384.23852637829344,105.51526775302244,166.7940873264148
36476.0,7387.0,36476.0,68608.0,36476.0,89505.0,380.47696138307657,104.14407402054306,164.8885740414353
36476.0,7373.0,36476.0,68497.0,36476.0,89466.0,376.6906505449041,102.76840413146498,162.97906129542326
36476.0,7341.0,36476.0,68451.0,36476.0,89423.0,372.8803826525296,101.39144779509499,161.06706312671594
36487.0,7342.0,36487.0,68442.0,36487.0,89442.0,369.0468953197451,100.01640242553455,159.15409750558712
36487.0,7340.0,36487.0,68519.0,36487.0,89454.0,365.1905202502953,98.64521137986114,157.24108856349432
36487.0,7364.0,36487.0,68563.0,36487.0,89493.0,361.3110824344624,97.27862366152537,155.3284205737453
36487.0,7362.0,36487.0,68557.0,36487.0,89459.0,357.4081524280191,95.91736051243223,153.4164716372261
36487.0,7336.0,36487.0,68462.0,36487.0,89435.0,353.48139875052317,94.56306737123012,151.5059733950406
36487.0,7328.0,36487.0,68416.0,36487.0,89398.0,349.53067209544145,93.21794419297797,149.5977434394278
36497.0,7332.0,36497.0,68435.0,36497.0,89441.0,345.55581124123523,91.88335156672645,147.69205955532829
36497.0,7328.0,36497.0,68579.0,36497.0,89463.0,341.5565025569834,90.55896904643336,145.78841442688787
36497.0,7349.0,36497.0,68575.0,36497.0,89476.0,337.53236917045706,89.2436713174709,143.8859685245916
36497.0,7336.0,36497.0,68519.0,36497.0,89462.0,333.4832311181884,87.93724390692944,141.9842418000621
36497.0,7308.0,36497.0,68460.0,36497.0,89398.0,329.40932399487883,86.64101795139155,140.08336828732672
36497.0,7297.0,36497.0,68412.0,36497.0,89407.0,325.3112049263854,85.35692618718454,138.18365053873225
36507.0,7288.0,36507.0,68470.0,36507.0,89437.0,321.1893944271967,84.08610531369325,136.28490363435827
36507.0,7310.0,36507.0,68550.0,36507.0,89471.0,317.0441143475453,82.82840461783493,134.38640431673574
36507.0,7319.0,36507.0,68563.0,36507.0,89443.0,312.87538295335236,81.58330675596184,132.48749180218857
36507.0,7289.0,36507.0,68484.0,36507.0,89426.0,308.68335380107146,80.35126704419787,130.58805532117137
36507.0,7274.0,36507.0,68399.0,36507.0,89377.0,304.4684673505976,79.13387454978995,128.68836807178488
36507.0,7263.0,36507.0,68395.0,36507.0,89383.0,300.23121698401724,77.9325131965793,126.78841329835524
36518.0,7280.0,36518.0,68480.0,36518.0,89442.0,295.9718451154937,76.74690504364312,124.88733793850183
36518.0,7281.0,36518.0,68549.0,36518.0,89419.0,291.6903255510664,75.57508991904459,122.98360048444191
36518.0,7290.0,36518.0,68561.0,36518.0,89454.0,287.386636136259,74.41488391575037,121.07559654637267
36518.0,7262.0,36518.0,68490.0,36518.0,89424.0,283.0610626519258,73.26539817202995,119.16216718767262
36518.0,7247.0,36518.0,68383.0,36518.0,89385.0,278.7142546810777,72.12717103481575,117.2427108039004
36518.0,7231.0,36518.0,68398.0,36518.0,89370.0,274.346968676036,71.00075375869551,115.31678525252076
36528.0,7254.0,36528.0,68541.0,36528.0,89437.0,269.9597572410304,69.88531811595945,113.38355238284949
36528.0,7264.0,36528.0,68541.0,36528.0,89435.0,265.5529668516408,68.77903237726508,111.44183399568792
36528.0,7257.0,36528.0,68540.0,36528.0,89448.0,261.12708851265324,67.68074630257908,109.49081163692853
36528.0,7231.0,36528.0,68430.0,36528.0,89391.0,256.6830889739564,66.59099384943578,107.53058100661016
36528.0,7205.0,36528.0,68383.0,36528.0,89355.0,252.22235619084537,65.51133009937203,105.56197210248612
36528.0,7201.0,36528.0,68401.0,36528.0,89384.0,247.74629542288883,64.4426884304133,103.5858030636704
36539.0,7211.0,36539.0,68543.0,36539.0,89402.0,243.2559442448477,63.38439508715932,101.60235694336609
36539.0,7228.0,36539.0,68543.0,36539.0,89438.0,238.75194438672264,62.33497845499096,99.61162374357244
36539.0,7213.0,36539.0,68466.0,36539.0,89383.0,234.23485417801817,61.29383202407922,97.61393938384083
36539.0,7187.0,36539.0,68400.0,36539.0,89365.0,229.70542313574185,60.2616871230682,95.61022425372917
36539.0,7181.0,36539.0,68368.0,36539.0,89333.0,225.16451499744431,59.23940974488292,93.60151170659006
36539.0,7175.0,36539.0,68438.0,36539.0,89364.0,220.61281476223218,58.22650162534531,91.58824001781113
36549.0,7200.0,36549.0,68532.0,36549.0,89422.0,216.05068802835262,57.22082132391738,89.57005453118356
36549.0,7193.0,36549.0,68528.0,36549.0,89402.0,211.4783666437449,56.21983697676964,87.5463972282524
36549.0,7181.0,36549.0,68448.0,36549.0,89354.0,206.89628256662593,55.22211762422846,85.51721792355394
36549.0,7157.0,36549.0,68411.0,36549.0,89336.0,202.30519982031387,54.227506941736976,83.48291868490327
36549.0,7145.0,36549.0,68371.0,36549.0,89353.0,197.70601703063528,53.23597132238456,81.44369540035925
36549.0,7163.0,36549.0,68440.0,36549.0,89363.0,193.0994772954303,52.24635274546016,79.39912846758617
36559.0,7179.0,36559.0,68535.0,36559.0,89394.0,188.48615569721187,51.25621436570212,77.34837068123218
36559.0,7167.0,36559.0,68515.0,36559.0,89404.0,183.86681145211844,50.26305003848803,75.29072186317921
36559.0,7137.0,36559.0,68424.0,36559.0,89355.0,179.24272016494183,49.26561123832424,73.22618348774736
36559.0,7115.0,36559.0,68365.0,36559.0,89313.0,174.6155814173298,48.26375877528376,71.15545096224477
36559.0,7108.0,36559.0,68361.0,36559.0,89323.0,169.98707247669483,47.256944583711444,69.07922416299613
36559.0,7128.0,36559.0,68485.0,36559.0,89359.0,165.35847305341593,46.242979001222736,66.99755665302797
36570.0,7135.0,36570.0,68505.0,36570.0,89378.0,160.7306929431458,45.21840707661198,64.90994984032568
36570.0,7132.0,36570.0,68535.0,36570.0,89368.0,156.10463977523477,44.180127680532735,62.81600184407171
36570.0,7100.0,36570.0,68393.0,36570.0,89329.0,151.48153827848273,43.12663047013521,60.715872421891476
36570.0,7072.0,36570.0,68352.0,36570.0,89293.0,146.8628509266822,42.057583949018635,58.610082320718845
36570.0,7076.0,36570.0,68410.0,36570.0,89329.0,142.2498363499007,40.97222393931209,56.4988615608529
36570.0,7087.0,36570.0,68499.0,36570.0,89348.0,137.64317449404712,39.8684609729559,54.381789344914495
36580.0,7104.0,36580.0,68525.0,36580.0,89350.0,133.04302275829616,38.74378325052125,52.25810199750103
36580.0,7068.0,36580.0,68457.0,36580.0,89328.0,128.4493654732409,37.59684218313622,50.12719742030859
36580.0,7061.0,36580.0,68384.0,36580.0,89305.0,123.86218720751202,36.42795387937029,47.98874515649359
36580.0,7050.0,36580.0,68359.0,36580.0,89289.0,119.28129181228786,35.238069373540924,45.84233934621062
36580.0,7051.0,36580.0,68368.0,36580.0,89317.0,114.7060484995107,34.027253784488195,43.68705683114899
36580.0,7079.0,36580.0,68475.0,36580.0,89350.0,110.13536851738684,32.793991828724046,41.52141016358803
36590.0,7080.0,36590.0,68523.0,36590.0,89377.0,105.56801767414214,31.53595918676436,39.343918156414276
36590.0,7059.0,36590.0,68446.0,36590.0,89331.0,101.0030826045562,30.251626338878467,37.153911532307745
36590.0,7018.0,36590.0,68399.0,36590.0,89277.0,96.44013345232071,28.941057743377783,34.95178850856189
36590.0,7016.0,36590.0,68335.0,36590.0,89266.0,91.87887252761777,27.605123219549043,32.738368209717265
36590.0,7035.0,36590.0,68415.0,36590.0,89306.0,87.31866560297027,26.244096970431443,30.51399556042378
36590.0,7047.0,36590.0,68488.0,36590.0,89322.0,82.75849619093964,24.85719237199791,28.278320453881406
36601.0,7057.0,36601.0,68494.0,36601.0,89340.0,78.19738936771569,23.44357690315894,26.030838206673707
36601.0,7018.0,36601.0,68404.0,36601.0,89290.0,73.63488423593208,22.003697523747377,23.771517407618347
36601.0,6986.0,36601.0,68310.0,36601.0,89257.0,69.07108554902072,20.539242903214813,21.500845320212306
36601.0,6985.0,36601.0,68362.0,36601.0,89255.0,64.50620951322736,19.051647370760605,19.219215960522604
36601.0,6995.0,36601.0,68439.0,36601.0,89292.0,59.94008719685928,17.54086682237687,16.926308428473646
36601.0,6997.0,36601.0,68450.0,36601.0,89319.0,55.37207480750965,16.005770296208468,14.621137476733594
36611.0,7000.0,36611.0,68441.0,36611.0,89314.0,50.8013000120892,14.445434866869888,12.302717638007948
36611.0,6982.0,36611.0,68397.0,36611.0,89274.0,46.22692861639143,12.859905020860424,9.970654895302772
36611.0,6961.0,36611.0,68332.0,36611.0,89290.0,41.64822497086908,11.249900485183218,7.62517820374859
36611.0,6948.0,36611.0,68353.0,36611.0,89272.0,37.06434136771196,9.61580844656278,5.266851695788262
36611.0,6977.0,36611.0,68470.0,36611.0,89271.0,32.474052990236316,7.956988194741712,2.8963783773075704
36611.0,6975.0,36611.0,68478.0,36611.0,89326.0,27.87580068677096,6.27243646611754,0.5146248155485864
36621.0,6977.0,36621.0,68455.0,36621.0,89268.0,23.2680598188648,4.562327808066414,-1.8770846367182799
36621.0,6951.0,36621.0,68351.0,36621.0,89230.0,18.649664888169468,2.8287685102660873,-4.2767987370183675
36621.0,6923.0,36621.0,68312.0,36621.0,89194.0,14.01978642812685,1.0749626980501574,-6.68248836096069
36621.0,6932.0,36621.0,68347.0,36621.0,89239.0,9.377596622799558,-0.696399986762998,-9.092973695180575
36621.0,6943.0,36621.0,68412.0,36621.0,89278.0,4.721996044025786,-2.4840255130245623,-11.508250195227589
36621.0,6963.0,36621.0,68435.0,36621.0,89334.0,0.05175163633634838,-4.287477410004939,-13.928788364596471
36632.0,6926.0,36632.0,68434.0,36632.0,89245.0,-4.634087583869189,-6.105931934657903,-16.354402336679584
36632.0,6893.0,36632.0,68308.0,36632.0,89213.0,-9.336027294455107,-7.937497377252399,-18.783854940427602
36632.0,6892.0,36632.0,68305.0,36632.0,89180.0,-14.05448217843724,-9.779866551106139,-21.21563840731639
36632.0,6902.0,36632.0,68358.0,36632.0,89241.0,-18.790243019304512,-11.631656956560548,-23.649020081632898
36632.0,6917.0,36632.0,68452.0,36632.0,89257.0,-23.544538494252663,-13.49278125974216,-26.08426239094223
36632.0,6929.0,36632.0,68453.0,36632.0,89282.0,-28.31866128559517,-15.363251133791039,-28.521940197891723
36642.0,6892.0,36642.0,68410.0,36642.0,89235.0,-33.113502508690885,-17.241622635665763,-30.962118472626884
36642.0,6883.0,36642.0,68262.0,36642.0,89191.0,-37.929399165176676,-19.124694012641925,-33.40417143191044
36642.0,6858.0,36642.0,68285.0,36642.0,89181.0,-42.76639578277013,-21.00891132366391,-35.84740099529452
36642.0,6866.0,36642.0,68397.0,36642.0,89246.0,-47.62463083936791,-22.89202893866951,-38.2917563925659
36642.0,6902.0,36642.0,68397.0,36642.0,89247.0,-52.50446548630225,-24.7731389131456,-40.73778474189592
36642.0,6866.0,36642.0,68407.0,36642.0,89232.0,-57.40620278888963,-26.65133441613895,-43.185940096029185
36652.0,6860.0,36652.0,68332.0,36652.0,89199.0,-62.32975365136707,-28.5247577670781,-45.63615959366348
36652.0,6850.0,36652.0,68242.0,36652.0,89192.0,-67.27464809383218,-30.390972124995415,-48.08809323692873
36652.0,6834.0,36652.0,68265.0,36652.0,89190.0,-72.24025225080067,-32.2484039225218,-50.541590648550425
36652.0,6843.0,36652.0,68378.0,36652.0,89251.0,-77.22593409523972,-34.0975386697459,-52.99688222389926
36652.0,6849.0,36652.0,68429.0,36652.0,89219.0,-82.23107672317764,-35.940435355127676,-55.454203741961294
36652.0,6839.0,36652.0,68386.0,36652.0,89212.0,-87.25490077125698,-37.77895608176091,-57.91326512795516
36663.0,6807.0,36663.0,68319.0,36663.0,89171.0,-92.2963064576386,-39.6136010411488,-60.37319476575675
36663.0,6797.0,36663.0,68264.0,36663.0,89152.0,-97.3540165712651,-41.44397480087069,-62.833036271756896
36663.0,6794.0,36663.0,68297.0,36663.0,89174.0,-102.42692937857032,-43.27015535050218,-65.29238289287264
36663.0,6814.0,36663.0,68362.0,36663.0,89191.0,-107.51431114798345,-45.09352502003303,-67.75164767185737
36663.0,6830.0,36663.0,68445.0,36663.0,89236.0,-112.61559155395616,-46.91618901612813,-70.21171035593275
36663.0,6803.0,36663.0,68377.0,36663.0,89203.0,-117.72989757809535,-48.73942877973184,-72.67317983955328
36673.0,6754.0,36673.0,68246.0,36673.0,89166.0,-122.8558278142724,-50.56284955954652,-75.13591363943092
36673.0,6767.0,36673.0,68242.0,36673.0,89129.0,-127.99178695715057,-52.38540401733506,-77.59930031730298
36673.0,6771.0,36673.0,68317.0,36673.0,89166.0,-133.13645958622868,-54.207178824886654,-80.0630154617937
36673.0,6770.0,36673.0,68393.0,36673.0,89195.0,-138.28887891557713,-56.029813299033236,-82.52738509322592
36673.0,6778.0,36673.0,68429.0,36673.0,89199.0,-143.44816947757533,-57.85513115934644,-84.9929740174249
36673.0,6753.0,36673.0,68312.0,36673.0,89183.0,-148.6132916184602,-59.68349708446287,-87.4599151697987
36683.0,6729.0,36683.0,68260.0,36683.0,89120.0,-153.7830003293692,-61.513597946504305,-89.92771454799322
36683.0,6723.0,36683.0,68260.0,36683.0,89122.0,-158.95609737403447,-63.343772161527994,-92.39576648255914
36683.0,6739.0,36683.0,68329.0,36683.0,89171.0,-164.13172985990752,-65.1733086896156,-94.86403083096823
36683.0,6747.0,36683.0,68373.0,36683.0,89181.0,-169.3093669750479,-67.00239019220766,-97.33304036269229
36683.0,6746.0,36683.0,68378.0,36683.0,89187.0,-174.48844480258924,-68.83092726313313,-99.80323024279463
36683.0,6719.0,36683.0,68264.0,36683.0,89127.0,-179.66801922023018,-70.65758903587252,-102.27439504278138
36694.0,6693.0,36694.0,68235.0,36694.0,89105.0,-184.8467567746015,-72.48016143633797,-104.74587229069394
36694.0,6684.0,36694.0,68235.0,36694.0,89126.0,-190.02328784798812,-74.29697003793189,-107.217244123764
36694.0,6685.0,36694.0,68340.0,36694.0,89164.0,-195.1966186016905,-76.10786598031396,-109.68873745523578
36694.0,6713.0,36694.0,68369.0,36694.0,89152.0,-200.36624556422828,-77.91371659399093,-112.1608916144512
36694.0,6697.0,36694.0,68367.0,36694.0,89160.0,-205.53187980666388,-79.71489250452964,-114.63395891122207
36694.0,6682.0,36694.0,68260.0,36694.0,89125.0,-210.69308225988402,-81.51023256444046,-117.10761284967589
36704.0,6644.0,36704.0,68227.0,36704.0,89095.0,-215.84923314538122,-83.29748835093875,-119.58112183787887
36704.0,6662.0,36704.0,68222.0,36704.0,89108.0,-220.9998638683545,-85.07479292791231,-122.05385686170294
36704.0,6667.0,36704.0,68332.0,36704.0,89148.0,-226.14492236498364,-86.84168471304761,-124.52564340291565
36704.0,6680.0,36704.0,68367.0,36704.0,89163.0,-231.28463193485425,-88.59862607401686,-126.99646990521484
36704.0,6648.0,36704.0,68326.0,36704.0,89126.0,-236.41912772172032,-90.34551046101907,-129.4658179042744
36704.0,6639.0,36704.0,68259.0,36704.0,89079.0,-241.5483059397223,-92.08076085851701,-131.93243141079137
36714.0,6630.0,36714.0,68206.0,36714.0,89061.0,-246.67199512530345,-93.80190798052666,-134.3948878105253
36714.0,6636.0,36714.0,68261.0,36714.0,89100.0,-251.79016609914885,-95.50691971874028,-136.85241177202136
36714.0,6638.0,36714.0,68326.0,36714.0,89131.0,-256.90293375070314,-97.19483090749725,-139.30507819304165
36714.0,6645.0,36714.0,68337.0,36714.0,89140.0,-262.01035267203315,-98.8650299239228,-141.7532180279954
36714.0,6610.0,36714.0,68285.0,36714.0,89094.0,-267.1121847287261,-100.51608652530584,-144.1966907791013
36714.0,6591.0,36714.0,68197.0,36714.0,89053.0,-272.20791581928256,-102.14551934199929,-146.6348088505154
36725.0,6578.0,36725.0,68182.0,36725.0,89047.0,-277.29710885184693,-103.75088960406836,-149.06701293335772
36725.0,6600.0,36725.0,68270.0,36725.0,89104.0,-282.37977320620985,-105.33115264945675,-151.49356585375614
36725.0,6606.0,36725.0,68315.0,36725.0,89121.0,-287.45636618773244,-106.88679603927133,-153.9154635051106
36725.0,6617.0,36725.0,68320.0,36725.0,89085.0,-292.5274082616486,-108.41863884270427,-156.3337186837486
36725.0,6564.0,36725.0,68255.0,36725.0,89068.0,-297.5930864463438,-109.92663785859818,-158.7489406167341
36725.0,6562.0,36725.0,68148.0,36725.0,89050.0,-302.653270834964,-111.40997165300837,-161.16160275589334
36735.0,6550.0,36735.0,68174.0,36735.0,89070.0,-307.70790781441656,-112.86845705283866,-163.572521220297
36735.0,6552.0,36735.0,68265.0,36735.0,89096.0,-312.7573548854407,-114.30391591134853,-165.9829792525282
36735.0,6571.0,36735.0,68321.0,36735.0,89093.0,-317.80240614287584,-115.71995411456896,-168.3943701673237
36735.0,6573.0,36735.0,68312.0,36735.0,89104.0,-322.84402257207717,-117.12037538176614,-170.80766838513625
36735.0,6545.0,36735.0,68234.0,36735.0,89038.0,-327.8829614176375,-118.50789122970963,-173.2231696814365
36735.0,6525.0,36735.0,68174.0,36735.0,89005.0,-332.91967291529454,-119.88429467587764,-175.64084060840293
36745.0,6519.0,36745.0,68213.0,36745.0,89067.0,-337.95457162240166,-121.25172320538411,-178.06108886966797
36745.0,6532.0,36745.0,68316.0,36745.0,89058.0,-342.98833627667614,-122.61346279100269,-180.48510265886688
36745.0,6543.0,36745.0,68329.0,36745.0,89083.0,-348.0218860425206,-123.97320817913868,-182.9144311042088
36745.0,6515.0,36745.0,68287.0,36745.0,89062.0,-353.0560918125984,-125.33354835572649,-185.35040885183588
36745.0,6512.0,36745.0,68196.0,36745.0,89036.0,-358.0915949029103,-126.69537093680654,-187.79393269767468
36745.0,6479.0,36745.0,68168.0,36745.0,89001.0,-363.12893548831187,-128.0588026398165,-190.24572379339122
36756.0,6484.0,36756.0,68210.0,36756.0,89028.0,-368.168863264169,-129.4247204855874,-192.70690135559744
36756.0,6502.0,36756.0,68306.0,36756.0,89093.0,-373.21255508984507,-130.79533009173045,-195.17922026151888
36756.0,6513.0,36756.0,68274.0,36756.0,89092.0,-378.2614724591914,-132.17330509405173,-197.6644645423592
36756.0,6491.0,36756.0,68309.0,36756.0,89049.0,-383.31693768848834,-133.560477230209,-200.16351479609432
36756.0,6458.0,36756.0,68177.0,36756.0,88996.0,-388.3799023297398,-134.95729731371148,-202.67614382776532
36756.0,6456.0,36756.0,68150.0,36756.0,88990.0,-393.45117287715345,-136.3635486898331,-205.20176512334575
36766.0,6459.0,36766.0,68243.0,36766.0,89023.0,-398.53179017859634,-137.77971210754117,-207.74031657755495
36766.0,6478.0,36766.0,68286.0,36766.0,89064.0,-403.62311528306736,-139.20740148104792,-210.29240726484443
36766.0,6476.0,36766.0,68261.0,36766.0,89042.0,-408.7265387189857,-140.64837268746874,-212.8586928511075
36766.0,6433.0,36766.0,68189.0,36766.0,89049.0,-413.8431450529471,-142.10360088190595,-215.43919400448237
36766.0,6428.0,36766.0,68178.0,36766.0,88958.0,-418.9737475502046,-143.57360205984526,-218.03319930981007
36766.0,6410.0,36766.0,68156.0,36766.0,88961.0,-424.1192767132444,-145.05950504743316,-220.6399125610228
36776.0,6441.0,36776.0,68271.0,36776.0,89027.0,-429.2810875712173,-146.5637122798651,-223.25929399750828
36776.0,6429.0,36776.0,68347.0,36776.0,89031.0,-434.46089022607407,-148.08926496300074,-225.89210995373207
36776.0,6439.0,36776.0,68296.0,36776.0,89045.0,-439.6604169416265,-149.63808254229397,-228.53913628345998
36776.0,6408.0,36776.0,68177.0,36776.0,88980.0,-444.8811454722247,-151.20975405944696,-231.20049299617364
36776.0,6383.0,36776.0,68132.0,36776.0,88948.0,-450.1243234490977,-152.8023100891709,-233.87580422204036
36776.0,6394.0,36776.0,68135.0,36776.0,88982.0,-455.3912775880158,-154.4142305346125,-236.56496089254364
36787.0,6409.0,36787.0,68286.0,36787.0,89018.0,-460.68363733664023,-156.04567270458725,-239.26856332845642
36787.0,6413.0,36787.0,68309.0,36787.0,89014.0,-466.0031450765715,-157.69771559886584,-241.98751959306907
36787.0,6382.0,36787.0,68244.0,36787.0,89008.0,-471.35127341546206,-159.37048250680724,-244.72234599838578
36787.0,6370.0,36787.0,68185.0,36787.0,88966.0,-476.72911497222765,-161.06222228203572,-247.47289220879594
36787.0,6360.0,36787.0,68104.0,36787.0,88932.0,-482.1376194878495,-162.77019116530488,-250.23868520643668
36787.0,6359.0,36787.0,68163.0,36787.0,88969.0,-487.577870621044,-164.49232739379227,-253.019598680623
36797.0,6385.0,36797.0,68223.0,36797.0,88979.0,-493.05112717129236,-166.22818671581737,-255.81620026214767
36797.0,6379.0,36797.0,68283.0,36797.0,89005.0,-498.55854572296414,-167.97833545261537,-258.62943054759774
36797.0,6344.0,36797.0,68230.0,36797.0,88966.0,-504.10081537776,-169.74287097759168,-261.46002066583736
36797.0,6324.0,36797.0,68130.0,36797.0,88922.0,-509.6781477362557,-171.520660249798,-264.3083263068088
36797.0,6315.0,36797.0,68116.0,36797.0,88935.0,-515.2906787713432,-173.3101544615043,-267.17480079942317
36797.0,6336.0,36797.0,68175.0,36797.0,88984.0,-520.9388373667507,-175.1108448725959,-270.0604879668599
36808.0,6338.0,36808.0,68255.0,36808.0,89005.0,-526.6233121974542,-176.923649829504,-272.96675965882395
36808.0,6337.0,36808.0,68226.0,36808.0,88974.0,-532.3446938405642,-178.7498646653134,-275.8944962544785
36808.0,6305.0,36808.0,68179.0,36808.0,88926.0,-538.1031685101522,-180.59001011268992,-278.8436551750796
36808.0,6285.0,36808.0,68142.0,36808.0,88917.0,-543.8985669585003,-182.44381164183181,-281.81368271853887
36808.0,6279.0,36808.0,68117.0,36808.0,88912.0,-549.7307260402678,-184.3111316217904,-284.8042855457165
36808.0,6295.0,36808.0,68209.0,36808.0,88946.0,-555.5998027211297,-186.1928120914152,-287.8158595998331
36818.0,6306.0,36818.0,68238.0,36818.0,88970.0,-561.5062147158814,-188.09050734660934,-290.84929314307175
36818.0,6283.0,36818.0,68258.0,36818.0,88955.0,-567.4502846536669,-190.00550631918512,-293.9053442481628
36818.0,6270.0,36818.0,68122.0,36818.0,88935.0,-573.4319925042063,-191.93773667464913,-296.9841411500162
36818.0,6238.0,36818.0,68065.0,36818.0,88893.0,-579.4510932698996,-193.88625386820746,-300.0852425615524
36818.0,6241.0,36818.0,68107.0,36818.0,88897.0,-585.5074805449847,-195.85098445177002,-303.20817902437716
36818.0,6264.0,36818.0,68202.0,36818.0,88944.0,-591.6014438203526,-197.83388206431778,-306.35292080573
36828.0,6267.0,36828.0,68244.0,36828.0,88955.0,-597.7335119312609,-199.83823532249022,-309.51969964140255
36828.0,6248.0,36828.0,68207.0,36828.0,88917.0,-603.9040141827102,-201.8669593015444,-312.7083705096611
36828.0,6234.0,36828.0,68127.0,36828.0,88902.0,-610.1128185239207,-203.92162710266285,-315.9181188734685
36828.0,6224.0,36828.0,68130.0,36828.0,88907.0,-616.3594086625653,-206.00296186624678,-319.1477400551512
36828.0,6212.0,36828.0,68143.0,36828.0,88899.0,-622.6430896573993,-208.11190481445627,-322.39597269806234
36828.0,6231.0,36828.0,68207.0,36828.0,88937.0,-628.9631014197577,-210.24999851505532,-325.66151398736196
36839.0,6238.0,36839.0,68256.0,36839.0,88930.0,-635.318486343854,-212.4186805893565,-328.9427025051314
36839.0,6214.0,36839.0,68215.0,36839.0,88896.0,-641.7077475199527,-214.61801196535131,-332.23712577759756
36839.0,6179.0,36839.0,68100.0,36839.0,88860.0,-648.1286780238337,-216.84603161117468,-335.5416504060043
36839.0,6162.0,36839.0,68059.0,36839.0,88840.0,-654.5786527476789,-219.09967068496294,-338.8530347314452
36839.0,6190.0,36839.0,68127.0,36839.0,88878.0,-661.0550914264137,-221.37650368759054,-342.16862831816195
36839.0,6183.0,36839.0,68230.0,36839.0,88911.0,-667.5555607035984,-223.67542833747362,-345.48648850329096
36849.0,6185.0,36849.0,68248.0,36849.0,88901.0,-674.0774707977981,-225.99546070615318,-348.8047946988853
36849.0,6183.0,36849.0,68180.0,36849.0,88881.0,-680.6177311202341,-228.3339347691744,-352.12118989027
36849.0,6148.0,36849.0,68036.0,36849.0,88844.0,-687.1725875409558,-230.68607954373434,-355.4326828197767
36849.0,6125.0,36849.0,68040.0,36849.0,88849.0,-693.737748662923,-233.04657292291625,-358.73608260190247
36849.0,6147.0,36849.0,68146.0,36849.0,88867.0,-700.3087384891229,-235.41148170484956,-362.02844172088015
36849.0,6151.0,36849.0,68227.0,36849.0,88887.0,-706.8810506385988,-237.77841854784657,-365.3070380075813
36859.0,6144.0,36859.0,68211.0,36859.0,88865.0,-713.4498937890162,-240.14481479140724,-368.5689624739025
36859.0,6123.0,36859.0,68110.0,36859.0,88844.0,-720.0098846678553,-242.50632890395738,-371.8108311673947
36859.0,6089.0,36859.0,68037.0,36859.0,88809.0,-726.5550692088317,-244.85706022170712,-375.0289854118269
36859.0,6108.0,36859.0,68063.0,36859.0,88823.0,-733.0792376447422,-247.19120384937736,-378.22003078586715
36859.0,6123.0,36859.0,68130.0,36859.0,88879.0,-739.5761127943406,-249.5043660275887,-381.3811422416904
36859.0,6120.0,36859.0,68188.0,36859.0,88873.0,-746.0390980673752,-251.79330972243505,-384.5096720402119
36870.0,6097.0,36870.0,68173.0,36870.0,88857.0,-752.4608585951835,-254.0545656796034,-387.60240260710117
36870.0,6089.0,36870.0,68090.0,36870.0,88813.0,-758.8331788983164,-256.28334994718557,-390.6552518642519
36870.0,6052.0,36870.0,68032.0,36870.0,88797.0,-765.1471560184145,-258.47385853578567,-393.6636881565054
36870.0,6061.0,36870.0,68064.0,36870.0,88834.0,-771.3935523150402,-260.6206135500537,-396.6233590915386
36870.0,6076.0,36870.0,68171.0,36870.0,88882.0,-777.5630370337424,-262.71932496665625,-399.53017756421957
36870.0,6084.0,36870.0,68207.0,36870.0,88883.0,-783.6460417168252,-264.76613292468653,-402.37960202342754
36880.0,6062.0,36880.0,68143.0,36880.0,88852.0,-789.6323491596723,-266.75593897547463,-405.1657445445004
36880.0,6035.0,36880.0,68051.0,36880.0,88798.0,-795.5108816806867,-268.68167813241683,-407.8811608712291
36880.0,6017.0,36880.0,68018.0,36880.0,88768.0,-801.2699237885256,-270.5353373313859,-410.5175270153303
36880.0,6036.0,36880.0,68040.0,36880.0,88813.0,-806.8975185437278,-272.30968033038437,-413.0666056512068
36880.0,6041.0,36880.0,68165.0,36880.0,88837.0,-812.3815887252711,-273.99903400901115,-415.520610105655
36880.0,6037.0,36880.0,68197.0,36880.0,88855.0,-817.7096820017724,-275.59834299743954,-417.8716950278593
36890.0,6016.0,36890.0,68109.0,36890.0,88807.0,-822.8686804843226,-277.1014075477285,-420.1112317025256
36890.0,5977.0,36890.0,68014.0,36890.0,88759.0,-827.8448373113528,-278.5002941395927,-422.22971215645725
36890.0,5973.0,36890.0,68001.0,36890.0,88771.0,-832.6242014003639,-279.7866414930153,-424.21742804569476
36890.0,6003.0,36890.0,68087.0,36890.0,88800.0,-837.1930705850948,-280.95335051690057,-426.06517989686483
36890.0,6005.0,36890.0,68148.0,36890.0,88816.0,-841.5379878932187,-281.99483103252027,-427.7642844247446
36890.0,5997.0,36890.0,68144.0,36890.0,88808.0,-845.6453320003261,-282.9057346679779,-429.30604819085056
36901.0,5974.0,36901.0,68078.0,36901.0,88775.0,-849.5010203699958,-283.67967976021095,-430.6813898802808
36901.0,5960.0,36901.0,67987.0,36901.0,88752.0,-853.090602772539,-284.3093243391909,-431.8810121773203
36901.0,5960.0,36901.0,68009.0,36901.0,88750.0,-856.3995817162229,-284.78774692546625,-432.8959798477612
36901.0,5958.0,36901.0,68134.0,36901.0,88816.0,-859.413664792295,-285.1096459105017,-433.7181255398534
36901.0,5983.0,36901.0,68170.0,36901.0,88825.0,-862.118775359858,-285.27084601767245,-434.339741233879
36901.0,5970.0,36901.0,68109.0,36901.0,88776.0,-864.5008240561384,-285.2666118782744,-434.7528389276283
36911.0,5935.0,36911.0,67990.0,36911.0,88739.0,-866.545502648486,-285.09088770156416,-434.9489623151005
36911.0,5928.0,36911.0,67968.0,36911.0,88739.0,-868.2384568585403,-284.73750541186513,-434.91986136958553
36911.0,5933.0,36911.0,68026.0,36911.0,88760.0,-869.5657394566693,-284.2021208982437,-434.6582712050134
36911.0,5968.0,36911.0,68093.0,36911.0,88791.0,-870.5140320861962,-283.48297828762304,-434.1580790784021
36911.0,5952.0,36911.0,68161.0,36911.0,88805.0,-871.070411633352,-282.5799660877677,-433.41387369424973
36911.0,5942.0,36911.0,68147.0,36911.0,88790.0,-871.2220116775395,-281.4928840331976,-432.42033234880523
36921.0,5932.0,36921.0,68035.0,36921.0,88761.0,-870.9560003750612,-280.22033118625643,-431.17196214278107
36921.0,5901.0,36921.0,67981.0,36921.0,88721.0,-870.2598934053884,-278.7602453825719,-429.6634544727979
36921.0,5915.0,36921.0,68031.0,36921.0,88753.0,-869.122014184838,-277.1116205103357,-427.8904303651175
36921.0,5935.0,36921.0,68120.0,36921.0,88806.0,-867.5318346143027,-275.2755641395327,-425.84987458627506
36921.0,5945.0,36921.0,68163.0,36921.0,88811.0,-865.4799255561111,-273.2546047395673,-423.5397486909889
36921.0,5937.0,36921.0,68094.0,36921.0,88778.0,-862.95764487365,-271.0511712691633,-420.95826272829345
36932.0,5914.0,36932.0,68047.0,36932.0,88754.0,-859.9569984389493,-268.6669733233073,-418.103712302061
36932.0,5913.0,36932.0,68030.0,36932.0,88750.0,-856.4708808066275,-266.1038018597688,-414.97501865747006
36932.0,5923.0,36932.0,68105.0,36932.0,88779.0,-852.4934792713906,-263.36463942322746,-411.572344490899
36932.0,5949.0,36932.0,68162.0,36932.0,88799.0,-848.0204630986099,-260.45375224103367,-407.8972310129275
36932.0,5957.0,36932.0,68187.0,36932.0,88839.0,-843.0488144286016,-257.375594100978,-403.9521955446553
36932.0,5940.0,36932.0,68141.0,36932.0,88770.0,-837.5765438403866,-254.1335317180148,-399.7401983913953
36942.0,5932.0,36942.0,68023.0,36942.0,88757.0,-831.6026731554962,-250.7296441379488,-395.2646507892538
36942.0,5935.0,36942.0,68021.0,36942.0,88788.0,-825.1275563744682,-247.16603319180484,-390.53006906040093
36942.0,5957.0,36942.0,68126.0,36942.0,88836.0,-818.1532190256162,-243.44649747176348,-385.54250870988994
36942.0,5987.0,36942.0,68188.0,36942.0,88851.0,-810.6833880674161,-239.57675042367993,-380.3091691750239
36942.0,5987.0,36942.0,68165.0,36942.0,88848.0,-802.7231960869786,-235.5630711252524,-374.8376344887618
36942.0,5974.0,36942.0,68112.0,36942.0,88819.0,-794.2788976352961,-231.4111299945228,-369.1354943574553
36952.0,5970.0,36952.0,68038.0,36952.0,88787.0,-785.3579496601217,-227.1262682243223,-363.2106408738623
36952.0,6001.0,36952.0,68125.0,36952.0,88836.0,-775.9693485744413,-222.714765301935,-357.07196134213274
36952.0,6031.0,36952.0,68182.0,36952.0,88887.0,-766.1237582598471,-218.18453819205547,-350.7296619875013
36952.0,6058.0,36952.0,68240.0,36952.0,88908.0,-755.8331959835307,-213.54436130092154,-344.1947365675097
36952.0,6057.0,36952.0,68165.0,36952.0,88900.0,-745.1105248021097,-208.8024549093283,-337.47806929817466
36952.0,6049.0,36952.0,68119.0,36952.0,88862.0,-733.9691750232631,-203.96600006352554,-330.5900237315055
36963.0,6044.0,36963.0,68067.0,36963.0,88847.0,-722.4232966813279,-199.04210178069988,-323.5408248403127
36963.0,6078.0,36963.0,68192.0,36963.0,88887.0,-710.4881402170327,-194.03916823140221,-316.3413089897326
36963.0,6117.0,36963.0,68260.0,36963.0,88937.0,-698.1802014666869,-188.96708263553785,-309.0032360171616
36963.0,6133.0,36963.0,68279.0,36963.0,88961.0,-685.5169017839438,-183.83577904520078,-301.5387846308726
36963.0,6138.0,36963.0,68210.0,36963.0,88929.0,-672.5161063183679,-178.65366664080682,-293.9597629875412
36963.0,6130.0,36963.0,68133.0,36963.0,88899.0,-659.1959291542862,-173.42748275558918,-286.27739616339096
36973.0,6139.0,36973.0,68117.0,36973.0,88926.0,-645.5749299647928,-168.16366947207476,-278.5028560824283
36973.0,6181.0,36973.0,68202.0,36973.0,88956.0,-631.6724101754841,-162.86996218923764,-270.64780904297515
36973.0,6215.0,36973.0,68280.0,36973.0,89009.0,-617.5083891231649,-157.55567821900826,-262.7243005058
36973.0,6238.0,36973.0,68322.0,36973.0,89006.0,-603.1031644683424,-152.23043195608744,-254.74406783382577
36973.0,6240.0,36973.0,68228.0,36973.0,88979.0,-588.4768083422949,-146.90256139098912,-246.71793830624458
36973.0,6231.0,36973.0,68193.0,36973.0,88954.0,-573.6489952229125,-141.5788259547145,-238.65590700473524
36983.0,6249.0,36983.0,68177.0,36983.0,88972.0,-558.63923171919,-136.26554542040046,-230.56781124628293
36983.0,6290.0,36983.0,68288.0,36983.0,89020.0,-543.4671537099599,-130.9697852917975,-222.46388078859707
36983.0,6325.0,36983.0,68338.0,36983.0,89088.0,-528.1524591489548,-125.69920424128492,-214.35451589421888
36983.0,6319.0,36983.0,68332.0,36983.0,89038.0,-512.7145022069633,-120.46069288678152,-206.24942648851152
36983.0,6323.0,36983.0,68226.0,36983.0,89009.0,-497.1720358296313,-115.25934169544242,-198.1571115601015
36983.0,6341.0,36983.0,68182.0,36983.0,89016.0,-481.54334897746094,-110.09900869249263,-190.08530584402695
36994.0,6346.0,36994.0,68272.0,36994.0,89007.0,-465.846542949197,-104.98390397355826,-182.0418268671568
36994.0,6394.0,36994.0,68325.0,36994.0,89086.0,-450.09966084698385,-99.91933310957594,-174.03500451392185
36994.0,6422.0,36994.0,68382.0,36994.0,89118.0,-434.320536027863,-94.91080397936715,-166.0733528688027
36994.0,6443.0,36994.0,68303.0,36994.0,89094.0,-418.5263731229171,-89.9626139560003,-158.1647228667111
36994.0,6427.0,36994.0,68223.0,36994.0,89043.0,-402.73338281937663,-85.07751803989113,-150.31585222543464
36994.0,6431.0,36994.0,68253.0,36994.0,89082.0,-386.9568361419555,-80.25787444940192,-142.53283250358243
37003.0,6472.0,37003.0,68290.0,37003.0,89103.0,-371.2114284247357,-75.50698858030256,-134.82175845232808
37003.0,6488.0,37003.0,68390.0,37003.0,89133.0,-355.5114647578538,-70.82921840515098,-127.18874187587721
37003.0,6525.0,37003.0,68416.0,37003.0,89170.0,-339.8706681042618,-66.2287440655735,-119.63938086803574
37003.0,6523.0,37003.0,68334.0,37003.0,89119.0,-324.3018585390502,-61.708108500629606,-112.17820230228759
37003.0,6521.0,37003.0,68273.0,37003.0,89115.0,-308.8168188669068,-57.26796178077632,-104.80859749320393
37003.0,6524.0,37003.0,68247.0,37003.0,89101.0,-293.42650202694097,-52.90834500287647,-97.53338849420291
37013.0,6561.0,37013.0,68349.0,37013.0,89154.0,-278.14139978739763,-48.63019829643838,-90.35546434525034
37013.0,6605.0,37013.0,68404.0,37013.0,89177.0,-262.97163727038446,-44.43554882842574,-83.2778517244598
37013.0,6618.0,37013.0,68424.0,37013.0,89179.0,-247.92661690016837,-40.326267468927256,-76.30324014442405
37013.0,6611.0,37013.0,68316.0,37013.0,89171.0,-233.01457976385979,-36.30282887654187,-69.43353633317491
37013.0,6590.0,37013.0,68281.0,37013.0,89141.0,-218.24260417587027,-32.36450369655236,-62.669903051851264
37013.0,6610.0,37013.0,68280.0,37013.0,89150.0,-203.617109982118,-28.510820956298005,-56.01324585805898
37024.0,6660.0,37024.0,68374.0,37024.0,89209.0,-189.14436041402985,-24.742780855442675,-49.46467017429609
37024.0,6685.0,37024.0,68450.0,37024.0,89215.0,-174.83042296814574,-21.062587534051374,-43.025362223172806
37024.0,6691.0,37024.0,68436.0,37024.0,89200.0,-160.68069838602685,-17.472130468119246,-36.69605973760122
37024.0,6690.0,37024.0,68344.0,37024.0,89193.0,-146.69959025055044,-13.971730198279573,-30.476832853009114
37024.0,6691.0,37024.0,68337.0,37024.0,89175.0,-132.8905942969829,-10.560386856533455,-24.36740181458157
37024.0,6706.0,37024.0,68356.0,37024.0,89212.0,-119.25662718207445,-7.236997217791725,-18.36760901050451
37034.0,6740.0,37034.0,68460.0,37034.0,89251.0,-105.80026877328316,-4.000967870328793,-12.477549523775167
37034.0,6766.0,37034.0,68469.0,37034.0,89253.0,-92.52368917812498,-0.8514838547624493,-6.6971618812261795
37034.0,6765.0,37034.0,68433.0,37034.0,89257.0,-79.42834137629313,2.2137799778884926,-1.0256635052210754
37034.0,6763.0,37034.0,68335.0,37034.0,89222.0,-66.51478365266547,5.199047776559922,4.538632840829507
37034.0,6766.0,37034.0,68297.0,37034.0,89214.0,-53.78284832012673,8.109310311153308,9.997973856212468
37034.0,6786.0,37034.0,68392.0,37034.0,89236.0,-41.23197659862342,10.94864064086434,15.354570979205675
37045.0,6817.0,37045.0,68411.0,37045.0,89286.0,-28.86138978365011,13.719570587879872,20.61032473545805
37045.0,6844.0,37045.0,68509.0,37045.0,89300.0,-16.669928748932307,16.423989300011527,25.7672100981207
37045.0,6830.0,37045.0,68445.0,37045.0,89275.0,-4.655721680496185,19.064630879656477,30.827932219290062
37045.0,6820.0,37045.0,68372.0,37045.0,89244.0,7.1839050589652516,21.645847729678138,35.79610773651831
37045.0,6818.0,37045.0,68327.0,37045.0,89228.0,18.852062411410657,24.17288836677787,40.675722650092325
37045.0,6859.0,37045.0,68405.0,37045.0,89293.0,30.351800118100073,26.650391917683066,45.470417111729944
37055.0,6884.0,37055.0,68476.0,37055.0,89298.0,41.68597601651129,29.08180513548399,50.183361968193424
37055.0,6909.0,37055.0,68480.0,37055.0,89315.0,52.857596254944156,31.470310693803384,54.81776944370216
37055.0,6888.0,37055.0,68400.0,37055.0,89285.0,63.870237778908745,33.820011937397396,59.377365981920434
37055.0,6877.0,37055.0,68345.0,37055.0,89256.0,74.72808146544708,36.13586833244295,63.866313116879724
37055.0,6887.0,37055.0,68336.0,37055.0,89263.0,85.43548293886454,38.42235113011998,68.28861672916895
37055.0,6925.0,37055.0,68456.0,37055.0,89307.0,95.99652413365993,40.68222153231372,72.64756084481195
37065.0,6948.0,37065.0,68505.0,37065.0,89345.0,106.41500890210341,42.91680128220642,76.9457810638167
37065.0,6952.0,37065.0,68487.0,37065.0,89328.0,116.69483373162404,45.12752309825345,81.18592287255746
37065.0,6945.0,37065.0,68409.0,37065.0,89295.0,126.84027406533426,47.31709335314309,85.37112383256755
37065.0,6931.0,37065.0,68342.0,37065.0,89270.0,136.855876471452,49.48906485382841,89.50474279894877
37065.0,6947.0,37065.0,68384.0,37065.0,89310.0,146.74604152362224,51.64630533126271,93.58963558038107
37065.0,6979.0,37065.0,68478.0,37065.0,89344.0,156.51467366363107,53.78996634776465,97.62780261626347
37076.0,6998.0,37076.0,68529.0,37076.0,89386.0,166.16522372905905,55.92007772570966,101.62082749238641
37076.0,7017.0,37076.0,68490.0,37076.0,89323.0,175.701053192296,58.03714819813416,105.57063874922659
37076.0,6978.0,37076.0,68416.0,37076.0,89325.0,185.12571727943424,60.14308651088848,109.47973484672605
