c_ts,c_val,d_ts,d_val,e_ts,e_val,c_val_filtered,d_val_filtered,e_val_filtered
379748.0,13301.0,379748.0,9715.0,379748.0,25033.0,101.88778954755772,87.82683143397949,180.93339398449854
379748.0,13281.0,379748.0,9711.0,379748.0,25023.0,93.40477761946163,81.62816055456348,170.59524180311837
379758.0,13282.0,379758.0,9693.0,379758.0,25002.0,84.7139792304381,75.2761851855996,159.95877700423097
379758.0,13261.0,379758.0,9677.0,379758.0,24984.0,75.82914218698878,68.78123623952543,149.03914332512946
379758.0,13244.0,379758.0,9660.0,379758.0,24973.0,66.76416866884882,62.15363648250191,137.8519146360332
379758.0,13236.0,379758.0,9651.0,379758.0,24948.0,57.53296967878681,55.403411290394814,126.41291377826536
379758.0,13224.0,379758.0,9669.0,379758.0,24946.0,48.14930289657423,48.54009866690862,114.73806005441514
379758.0,13220.0,379758.0,9660.0,379758.0,24933.0,38.626696696402064,41.57282009705621,102.84328128472282
379768.0,13202.0,379768.0,9653.0,379768.0,24918.0,28.978447739481766,34.510530976338046,90.74452026833015
379768.0,13182.0,379768.0,9629.0,379768.0,24901.0,19.217588493150828,27.362162948878463,78.45775215914011
379768.0,13172.0,379768.0,9615.0,379768.0,24873.0,9.356749367673103,20.136512153998567,65.99890295696153
379768.0,13171.0,379768.0,9619.0,379768.0,24872.0,-0.5919979316352624,12.842002609389084,53.383676690137264
379768.0,13168.0,379768.0,9623.0,379768.0,24854.0,-10.617148277754637,5.486585506083628,40.627418267310986
379768.0,13144.0,379768.0,9618.0,379768.0,24845.0,-20.70764082673034,-1.9221125300710753,27.745096484860056
379779.0,13136.0,379779.0,9602.0,379779.0,24825.0,-30.852803229353498,-9.37656853399318,14.75133181368389
379779.0,13131.0,379779.0,9585.0,379779.0,24803.0,-41.04241127950954,-16.869304655648534,1.6603612211215477
379779.0,13115.0,379779.0,9584.0,379779.0,24778.0,-51.26672471008135,-24.39301043240596,-11.514111040129194
379779.0,13104.0,379779.0,9574.0,379779.0,24777.0,-61.51647720791311,-31.940672082699024,-24.75913059223268
379779.0,13109.0,379779.0,9571.0,379779.0,24776.0,-71.78286953409687,-39.50559572970377,-38.06258825647859
379779.0,13091.0,379779.0,9567.0,379779.0,24758.0,-82.05750129301052,-47.081357162595324,-51.41308468219006
379789.0,13074.0,379789.0,9543.0,379789.0,24737.0,-92.3322740171703,-54.66175525513968,-64.79974883439704
379789.0,13061.0,379789.0,9512.0,379789.0,24719.0,-102.59941762102201,-62.24091495858056,-78.21223129871441
379789.0,13046.0,379789.0,9529.0,379789.0,24699.0,-112.85163036872987,-69.81358661463173,-91.64085049746268
379789.0,13037.0,379789.0,9522.0,379789.0,24711.0,-123.08221320857172,-77.37535440960167,-105.07671204301664
379789.0,13047.0,379789.0,9528.0,379789.0,24694.0,-133.28510764333345,-84.9225274830329,-118.51163357524666
379789.0,13028.0,379789.0,9523.0,379789.0,24685.0,-143.45477461995807,-92.45186561478863,-131.93790977793628
379799.0,13005.0,379799.0,9497.0,379799.0,24656.0,-153.5860421316633,-99.96037638942104,-145.3481505715975
379799.0,13008.0,379799.0,9504.0,379799.0,24644.0,-163.67412003903837,-107.44529322742642,-158.73532023074824
379799.0,12997.0,379799.0,9493.0,379799.0,24630.0,-173.71467907019615,-114.9041412918192,-172.0928805293264
379799.0,12985.0,379799.0,9489.0,379799.0,24611.0,-183.70382214081195,-122.33472744004936,-185.4149005305528
379799.0,12987.0,379799.0,9494.0,379799.0,24610.0,-193.63800480009246,-129.7350502556444,-198.69609883099588
379799.0,12968.0,379799.0,9482.0,379799.0,24602.0,-203.5139595718585,-137.10316666018775,-211.93179821575995
379810.0,12961.0,379810.0,9453.0,379810.0,24576.0,-213.32863442699232,-144.43710219330373,-225.11780099410998
379810.0,12932.0,379810.0,9442.0,379810.0,24558.0,-223.07922442017832,-151.73498311238563,-238.25034504420427
379810.0,12938.0,379810.0,9462.0,379810.0,24560.0,-232.76330873313566,-158.99528716645278,-251.3261953462009
379810.0,12937.0,379810.0,9453.0,379810.0,24538.0,-242.37893334209593,-166.21685693043008,-264.34268696969906
379810.0,12922.0,379810.0,9433.0,379810.0,24545.0,-251.92450987125147,-173.39868384515063,-277.2976346267703
379810.0,12909.0,379810.0,9428.0,379810.0,24524.0,-261.3986723579411,-180.53981715361152,-290.1891797104229
379820.0,12895.0,379820.0,9427.0,379820.0,24509.0,-270.8002781657096,-187.6394503853087,-303.0156558426178
379820.0,12896.0,379820.0,9421.0,379820.0,24502.0,-280.128492379977,-194.6969526935884,-315.7755458499861
379820.0,12887.0,379820.0,9409.0,379820.0,24494.0,-289.3827978747262,-201.7118066226539,-328.467473560904
379820.0,12886.0,379820.0,9410.0,379820.0,24473.0,-298.5628946520322,-208.6835676781714,-341.09014345642754
379820.0,12883.0,379820.0,9406.0,379820.0,24465.0,-307.6685431143964,-215.61183560176477,-353.6422970291163
379820.0,12858.0,379820.0,9378.0,379820.0,24457.0,-316.6994241370253,-222.49621712858368,-366.1227162505056
379831.0,12848.0,379831.0,9380.0,379831.0,24433.0,-325.6551292790625,-229.3363915465946,-378.5302114556175
379831.0,12841.0,379831.0,9374.0,379831.0,24431.0,-334.5352932879961,-236.13225680988148,-390.86361797107213
379831.0,12837.0,379831.0,9387.0,379831.0,24410.0,-343.33969891883993,-242.8839437264637,-403.12182378862997
379831.0,12829.0,379831.0,9383.0,379831.0,24404.0,-352.0682549182162,-249.59161525324424,-415.30378582613514
379831.0,12811.0,379831.0,9366.0,379831.0,24392.0,-360.7209382489369,-256.2552046998514,-427.40852469545223
379831.0,12806.0,379831.0,9347.0,379831.0,24374.0,-369.29781186412026,-262.8743336623677,-439.435110156007
379841.0,12795.0,379841.0,9341.0,379841.0,24366.0,-377.7990998194329,-269.4484784976481,-451.3826676437732
379841.0,12789.0,379841.0,9324.0,379841.0,24359.0,-386.22523472615217,-275.97721940539594,-463.2503957895872
379841.0,12796.0,379841.0,9338.0,379841.0,24346.0,-394.576828969552,-282.4604021411362,-475.03753019874864
379841.0,12789.0,379841.0,9353.0,379841.0,24345.0,-402.8545332538419,-288.8980808315942,-486.74325352067046
379841.0,12772.0,379841.0,9318.0,379841.0,24319.0,-411.05884519230193,-295.29024189968567,-498.3666064771994
379841.0,12762.0,379841.0,9312.0,379841.0,24302.0,-419.1900419645508,-301.63663491927315,-509.9064868990033
379851.0,12745.0,379851.0,9300.0,379851.0,24292.0,-427.24828154868476,-307.9369188455383,-521.361783348547
379851.0,12745.0,379851.0,9299.0,379851.0,24287.0,-435.2337531205989,-314.190886854651,-532.731513848417
379851.0,12747.0,379851.0,9308.0,379851.0,24266.0,-443.14673697864777,-320.39852290953087,-544.0148523762115
379851.0,12742.0,379851.0,9300.0,379851.0,24272.0,-450.98750113460113,-326.5598698215898,-555.2110977994615
379851.0,12713.0,379851.0,9279.0,379851.0,24240.0,-458.75615801061315,-332.67486463748764,-566.3196439675279
379851.0,12703.0,379851.0,9273.0,379851.0,24239.0,-466.45271396299995,-338.74335384213373,-577.3399894359552
379862.0,12699.0,379862.0,9275.0,379862.0,24223.0,-474.0772994874224,-344.76524790680924,-588.2718050584928
379862.0,12697.0,379862.0,9263.0,379862.0,24222.0,-481.630327139779,-350.7405986497455,-599.1149724444764
379862.0,12692.0,379862.0,9270.0,379862.0,24211.0,-489.1124638398821,-356.6695609615171,-609.8695325827608
379862.0,12677.0,379862.0,9259.0,379862.0,24193.0,-496.52453896832793,-362.5523137723393,-620.5356093973389
379862.0,12674.0,379862.0,9251.0,379862.0,24183.0,-503.8675197783144,-368.3889888274138,-631.1134073979753
379862.0,12655.0,379862.0,9226.0,379862.0,24178.0,-511.1425662393043,-374.17970440457276,-641.6032733054358
379872.0,12659.0,379872.0,9221.0,379872.0,24154.0,-518.3511126650934,-379.92476872886334,-652.0057386736829
379872.0,12641.0,379872.0,9228.0,379872.0,24154.0,-525.4949275196172,-385.6249174898808,-662.3215596887171
379872.0,12663.0,379872.0,9249.0,379872.0,24152.0,-532.5760987378004,-391.2813162964682,-672.551744009604
379872.0,12643.0,379872.0,9230.0,379872.0,24138.0,-539.5968959365906,-396.8952592399868,-682.6974735618282
379872.0,12630.0,379872.0,9222.0,379872.0,24132.0,-546.5596065895216,-402.4678630423287,-692.7599799172484
379872.0,12603.0,379872.0,9194.0,379872.0,24103.0,-553.4665767971107,-408.00006233184945,-702.7405179327022
379882.0,12617.0,379882.0,9196.0,379882.0,24104.0,-560.320458602994,-413.49286958541245,-712.6404720125812
379882.0,12611.0,379882.0,9204.0,379882.0,24093.0,-567.1243662923409,-418.9476163844845,-722.4614856747287
379882.0,12616.0,379882.0,9206.0,379882.0,24084.0,-573.8817756413526,-424.3659351287803,-732.2054929521381
379882.0,12590.0,379882.0,9194.0,379882.0,24078.0,-580.5963380342826,-429.74954390029603,-741.8746799103639
379882.0,12589.0,379882.0,9185.0,379882.0,24061.0,-587.2718420650949,-435.10010358170996,-751.4714591919294
379882.0,12577.0,379882.0,9173.0,379882.0,24046.0,-593.9123245306884,-440.4192645514692,-760.9985040641542
379893.0,12582.0,379893.0,9188.0,379893.0,24052.0,-600.5221627245885,-445.7087733847715,-770.4588317747789
379893.0,12588.0,379893.0,9182.0,379893.0,24037.0,-607.1060224300265,-450.9704452305314,-779.855820777824
379893.0,12580.0,379893.0,9185.0,379893.0,24044.0,-613.6686594484747,-456.20597954824626,-789.1931070931475
379893.0,12584.0,379893.0,9170.0,379893.0,24024.0,-620.2146837965167,-461.4167830696714,-798.4744406416386
379893.0,12552.0,379893.0,9134.0,379893.0,24000.0,-626.7484280806221,-466.6039881381937,-807.7036309588669
379893.0,12541.0,379893.0,9144.0,379893.0,23997.0,-633.2740312070952,-471.768737210434,-816.8846772821831
379903.0,12546.0,379903.0,9142.0,379903.0,23998.0,-639.7956887171654,-476.9125027772147,-826.0219452751829
379903.0,12546.0,379903.0,9156.0,379903.0,24000.0,-646.3177964098124,-482.0371208935693,-835.1201433666223
379903.0,12531.0,379903.0,9138.0,379903.0,23983.0,-652.844873787238,-487.14457672051066,-844.1841208248427
379903.0,12525.0,379903.0,9122.0,379903.0,23968.0,-659.3814796712413,-492.2368556972207,-853.2187302640264
379903.0,12516.0,379903.0,9114.0,379903.0,23959.0,-665.9322513866887,-497.3160464629948,-862.2288778744711
379903.0,12517.0,379903.0,9115.0,379903.0,23950.0,-672.5019702264817,-502.3845639228655,-871.2196539638758
379913.0,12517.0,379913.0,9122.0,379913.0,23965.0,-679.0955417435121,-507.4452394232182,-880.1963655636617
379913.0,12506.0,379913.0,9127.0,379913.0,23954.0,-685.7178907154844,-512.5011889153258,-889.1643758220945
379913.0,12503.0,379913.0,9108.0,379913.0,23950.0,-692.3738657397757,-517.5555844872719,-898.1288370350028
379913.0,12486.0,379913.0,9100.0,379913.0,23913.0,-699.0682281778029,-522.6115558223178,-907.0945559427744
379913.0,12479.0,379913.0,9110.0,379913.0,23901.0,-705.8057273159721,-527.6722619570471,-916.0661530260411
379913.0,12473.0,379913.0,9090.0,379913.0,23907.0,-712.5912190902978,-532.7409430090809,-925.048380054581
379924.0,12475.0,379924.0,9099.0,379924.0,23918.0,-719.4297351287989,-537.8208971315701,-934.0462314688585
379924.0,12468.0,379924.0,9096.0,379924.0,23907.0,-726.3264392186804,-542.9154433013938,-943.0647057562843
379924.0,12475.0,379924.0,9092.0,379924.0,23882.0,-733.2865013917369,-548.0278374558873,-952.1085161732219
379924.0,12454.0,379924.0,9065.0,379924.0,23866.0,-740.3149562450876,-553.1612147256117,-961.1820865908314
379924.0,12442.0,379924.0,9080.0,379924.0,23862.0,-747.4166546121439,-558.3186831285077,-970.2897877914307
379924.0,12438.0,379924.0,9076.0,379924.0,23861.0,-754.5963691327186,-563.5034269634243,-979.4361186081065
379934.0,12440.0,379934.0,9063.0,379934.0,23866.0,-761.8589098804432,-568.7186599282863,-988.6256597488617
379934.0,12441.0,379934.0,9079.0,379934.0,23841.0,-769.2090778763229,-573.967529045962,-997.8628871800403
379934.0,12425.0,379934.0,9062.0,379934.0,23840.0,-776.6515028784268,-579.2530279827979,-1007.1520574130046
379934.0,12411.0,379934.0,9063.0,379934.0,23812.0,-784.1905595702999,-584.577899422434,-1016.4972616890736
379934.0,12414.0,379934.0,9037.0,379934.0,23804.0,-791.8304328289177,-589.9446296084786,-1025.9025963080353
379934.0,12401.0,379934.0,9050.0,379934.0,23811.0,-799.5751902700968,-595.3555713940547,-1035.372333614202
379944.0,12405.0,379944.0,9041.0,379944.0,23812.0,-807.4287587254623,-600.8130439379773,-1044.9109093477346
379944.0,12396.0,379944.0,9038.0,379944.0,23809.0,-815.3948389223552,-606.3193057609037,-1054.5226756307393
379944.0,12382.0,379944.0,9037.0,379944.0,23787.0,-823.4768209753474,-611.8764800111885,-1064.2116339610786
379944.0,12378.0,379944.0,9008.0,379944.0,23773.0,-831.6777693764292,-617.4865451958392,-1073.9813706847856
379944.0,12362.0,379944.0,9022.0,379944.0,23778.0,-840.0004793976271,-623.151435829358,-1083.8351624392394
379944.0,12369.0,379944.0,9030.0,379944.0,23783.0,-848.4475258810215,-628.8731173465135,-1093.7759903915035
379955.0,12363.0,379955.0,9028.0,379955.0,23765.0,-857.021223376208,-634.6534287973241,-1103.806341743156
379955.0,12361.0,379955.0,9012.0,379955.0,23746.0,-865.7234773049126,-640.4938146851448,-1113.9280270866543
379955.0,12334.0,379955.0,9015.0,379955.0,23740.0,-874.5556454781014,-646.3952130212931,-1124.1422179294473
379955.0,12321.0,379955.0,8990.0,379955.0,23726.0,-883.5185798966247,-652.3581076457783,-1134.4495909989055
379955.0,12313.0,379955.0,9010.0,379955.0,23717.0,-892.612838671493,-658.38261728937,-1144.8504214386103
379955.0,12325.0,379955.0,9000.0,379955.0,23711.0,-901.8388373299368,-664.4684938662419,-1155.344620824873
379965.0,12324.0,379965.0,8992.0,379965.0,23719.0,-911.1967371155807,-670.6149996374772,-1165.931697732641
379965.0,12318.0,379965.0,8979.0,379965.0,23684.0,-920.6861330051254,-676.8208332462,-1176.6106287117022
379965.0,12299.0,379965.0,8971.0,379965.0,23679.0,-930.3057903559937,-683.0842119052072,-1187.3798096816026
379965.0,12293.0,379965.0,8966.0,379965.0,23675.0,-940.0535819791716,-689.4030106160762,-1198.237162655681
379965.0,12279.0,379965.0,8970.0,379965.0,23674.0,-949.9265568713951,-695.7748330050954,-1209.1801813074649
379965.0,12281.0,379965.0,8970.0,379965.0,23675.0,-959.9209949668349,-702.1969490846718,-1220.2057778334174
379975.0,12283.0,379975.0,8968.0,379975.0,23652.0,-970.032346816705,-708.6661243026981,-1231.3100546408293
379975.0,12263.0,379975.0,8957.0,379975.0,23636.0,-980.2550583171892,-715.1784512741685,-1242.488203333885
379975.0,12244.0,379975.0,8935.0,379975.0,23624.0,-990.5824546731677,-721.7293138188888,-1253.7346060020463
379975.0,12238.0,379975.0,8936.0,379975.0,23618.0,-1001.0068213901249,-728.3135259294961,-1265.0429952806858
379975.0,12242.0,379975.0,8927.0,379975.0,23622.0,-1011.5195226352419,-734.9255142756081,-1276.4064871817097
379975.0,12232.0,379975.0,8948.0,379975.0,23611.0,-1022.110942701778,-741.5593481091478,-1287.8174423738988
379986.0,12215.0,379986.0,8944.0,379986.0,23602.0,-1032.7703237092805,-748.2085337782092,-1299.267265417029
379986.0,12219.0,379986.0,8913.0,379986.0,23573.0,-1043.4856779381225,-754.865735940301,-1310.7463162375193
379986.0,12204.0,379986.0,8902.0,379986.0,23576.0,-1054.2437447911748,-761.522757576282,-1322.2439948353444
379986.0,12193.0,379986.0,8895.0,379986.0,23575.0,-1065.0299219403792,-768.170819515997,-1333.7488315640348
379986.0,12180.0,379986.0,8914.0,379986.0,23570.0,-1075.8282419168006,-774.8007815401405,-1345.2483870251076
379986.0,12178.0,379986.0,8913.0,379986.0,23566.0,-1086.621404734305,-781.4030382092487,-1356.7290125409095
379996.0,12167.0,379996.0,8910.0,379996.0,23548.0,-1097.3907699239735,-787.9671929253487,-1368.1756476731862
379996.0,12150.0,379996.0,8874.0,379996.0,23529.0,-1108.1163085378917,-794.4818404052204,-1379.5717624873464
379996.0,12142.0,379996.0,8876.0,379996.0,23511.0,-1118.7766108389546,-800.9346744405801,-1390.8994774284529
379996.0,12138.0,379996.0,8873.0,379996.0,23514.0,-1129.3489381811341,-807.3127573917295,-1402.1397581317365
379996.0,12140.0,379996.0,8880.0,379996.0,23494.0,-1139.8091902537371,-813.6026219439723,-1413.2725137267216
379996.0,12133.0,379996.0,8884.0,379996.0,23502.0,-1150.1317358082897,-819.790120547379,-1424.2765668686907
380005.0,12123.0,380005.0,8868.0,380005.0,23484.0,-1160.2892027632693,-825.8601848734543,-1435.1295609049207
380005.0,12104.0,380005.0,8833.0,380005.0,23476.0,-1170.2523681535063,-831.7967547834673,-1445.8078655721006
380005.0,12107.0,380005.0,8840.0,380005.0,23466.0,-1179.9901791658976,-837.5830270502636,-1456.2865467067454
380005.0,12095.0,380005.0,8855.0,380005.0,23455.0,-1189.4697847829402,-843.2017511482594,-1466.5393926372199
380005.0,12083.0,380005.0,8847.0,380005.0,23459.0,-1198.6565082073182,-848.6351962407512,-1476.538921161396
380005.0,12070.0,380005.0,8840.0,380005.0,23442.0,-1207.5138521960985,-853.8649093207127,-1486.2563234348186
380016.0,12058.0,380016.0,8839.0,380016.0,23428.0,-1216.003597112409,-858.8715888741699,-1495.6614104161768
380016.0,12047.0,380016.0,8812.0,380016.0,23398.0,-1224.085942279823,-863.6351272805377,-1504.722712555466
380016.0,12027.0,380016.0,8783.0,380016.0,23396.0,-1231.7196655642,-868.1348407859621,-1513.4077660774542
380016.0,12016.0,380016.0,8805.0,380016.0,23391.0,-1238.8623328221834,-872.3498856717397,-1521.6834027151274
380016.0,12009.0,380016.0,8814.0,380016.0,23378.0,-1245.4705403319244,-876.2595192733642,-1529.5158759696646
380016.0,12004.0,380016.0,8793.0,380016.0,23372.0,-1251.5000984831408,-879.8429859355199,-1536.8708937719364
380026.0,11994.0,380026.0,8791.0,380026.0,23359.0,-1256.9061237233532,-883.0793665332737,-1543.7136881519825
380026.0,11979.0,380026.0,8783.0,380026.0,23353.0,-1261.6431251825131,-885.9476634084451,-1550.00912909385
380026.0,11973.0,380026.0,8784.0,380026.0,23357.0,-1265.6651703969787,-888.426965570206,-1555.7218229857149
380026.0,11979.0,380026.0,8785.0,380026.0,23347.0,-1268.9260729129514,-890.4965329389609,-1560.8161340633017
380026.0,11962.0,380026.0,8790.0,380026.0,23334.0,-1271.379493970704,-892.1357861415179,-1565.2561805817422
380026.0,11967.0,380026.0,8785.0,380026.0,23321.0,-1272.9790022583074,-893.3242369302145,-1569.0059505495958
380036.0,11946.0,380036.0,8767.0,380036.0,23325.0,-1273.6781984638787,-894.041473218927,-1572.0295341342448
380036.0,11919.0,380036.0,8748.0,380036.0,23305.0,-1273.4309850491072,-894.2673552227566,-1574.2913423569385
380036.0,11941.0,380036.0,8761.0,380036.0,23305.0,-1272.1919989285698,-893.9824010963057,-1575.7563031146783
380036.0,11920.0,380036.0,8772.0,380036.0,23295.0,-1269.9170041432144,-893.1680713010594,-1576.3900943620679
380036.0,11931.0,380036.0,8776.0,380036.0,23298.0,-1266.5631063517033,-891.8067459081944,-1576.1593751072655
380036.0,11933.0,380036.0,8773.0,380036.0,23298.0,-1262.088897821419,-889.8815573315371,-1575.0319525912068
380047.0,11911.0,380047.0,8753.0,380047.0,23289.0,-1256.4546192978225,-887.3763684512267,-1572.976902912757
380047.0,11914.0,380047.0,8756.0,380047.0,23292.0,-1249.6224392483323,-884.2760059522932,-1569.9647210135104
380047.0,11925.0,380047.0,8765.0,380047.0,23297.0,-1241.556851760017,-880.5665915456866,-1565.9675070881735
380047.0,11932.0,380047.0,8777.0,380047.0,23301.0,-1232.224965627593,-876.2357104975817,-1560.959103349786
380047.0,11949.0,380047.0,8785.0,380047.0,23313.0,-1221.5965947064014,-871.2723592237952,-1554.915151691198
380047.0,11930.0,380047.0,8800.0,380047.0,23296.0,-1209.6443145101107,-865.6667998429316,-1547.8131499854403
380057.0,11935.0,380057.0,8795.0,380057.0,23311.0,-1196.3436985147464,-859.4104313244156,-1539.6326191123212
380057.0,11946.0,380057.0,8787.0,380057.0,23316.0,-1181.673755286325,-852.4957908735796,-1530.3553551244831
380057.0,11986.0,380057.0,8804.0,380057.0,23333.0,-1165.6172818699247,-844.9167445170675,-1519.9656032878106
380057.0,11993.0,380057.0,8815.0,380057.0,23345.0,-1148.1608993605073,-836.6686930859757,-1508.4501019618508
380057.0,12010.0,380057.0,8827.0,380057.0,23373.0,-1129.294931080498,-827.7486076086055,-1495.7980413466282
380057.0,12033.0,380057.0,8831.0,380057.0,23377.0,-1109.0133868765975,-818.1549711591175,-1482.0009618058027
380068.0,12032.0,380068.0,8843.0,380068.0,23399.0,-1087.3140801533516,-807.8877770123843,-1467.052669013684
380068.0,12064.0,380068.0,8861.0,380068.0,23405.0,-1064.1988312861456,-796.9485730328444,-1450.9492451211593
380068.0,12087.0,380068.0,8865.0,380068.0,23415.0,-1039.6736906945935,-785.3404733694913,-1433.6891622070848
380068.0,12121.0,380068.0,8892.0,380068.0,23458.0,-1013.7490398501845,-773.0681374038177,-1415.2734313529782
380068.0,12153.0,380068.0,8903.0,380068.0,23491.0,-986.4395437080484,-760.1377219183335,-1395.7055870364272
380068.0,12159.0,380068.0,8902.0,380068.0,23496.0,-957.7640898111176,-746.5568306169997,-1374.9914460945463
380078.0,12199.0,380078.0,8930.0,380078.0,23516.0,-927.7458673897286,-732.3345599574304,-1353.1389467209024
380078.0,12229.0,380078.0,8952.0,380078.0,23533.0,-896.4125453651252,-717.481572238955,-1330.1582636041362
380078.0,12278.0,380078.0,8969.0,380078.0,23584.0,-863.7963380333695,-702.010025656559,-1306.0619803841062
380078.0,12321.0,380078.0,9005.0,380078.0,23606.0,-829.9338705086845,-685.9333893053016,-1280.865053982764
380078.0,12355.0,380078.0,9009.0,380078.0,23646.0,-794.8659339472223,-669.2662398790535,-1254.5845946818208
380078.0,12401.0,380078.0,9027.0,380078.0,23661.0,-758.6372690000758,-652.0241306941314,-1227.239669902393
380088.0,12447.0,380088.0,9041.0,380088.0,23707.0,-721.2964105762522,-634.2236195839146,-1198.851230291599
380088.0,12494.0,380088.0,9088.0,380088.0,23737.0,-682.8955074690756,-615.8823317111742,-1169.442068451289
380088.0,12537.0,380088.0,9100.0,380088.0,23786.0,-643.4900990827443,-597.0188442687167,-1139.0366922506532
380088.0,12603.0,380088.0,9138.0,380088.0,23804.0,-603.1388759010368,-577.6524228517214,-1107.6611342416722
380088.0,12650.0,380088.0,9149.0,380088.0,23854.0,-561.9033652348746,-557.8027849632558,-1075.342815779558
380088.0,12686.0,380088.0,9146.0,380088.0,23875.0,-519.8475747514133,-537.4900276413423,-1042.110497380796
380099.0,12746.0,380099.0,9184.0,380099.0,23930.0,-477.03775773674965,-516.7347893964613,-1007.9942496671382
380099.0,12795.0,380099.0,9209.0,380099.0,23969.0,-433.54227373388113,-495.55845759819215,-973.0253670580411
380099.0,12850.0,380099.0,9263.0,380099.0,23994.0,-389.4313865826557,-473.9831069618041,-937.236225256868
380099.0,12918.0,380099.0,9273.0,380099.0,24035.0,-344.77697133813376,-452.0311603449162,-900.6602251965585
380099.0,12967.0,380099.0,9284.0,380099.0,24096.0,-299.65214195768567,-429.7250868390433,-863.3318244149439
380099.0,13017.0,380099.0,9305.0,380099.0,24124.0,-254.13086421257242,-407.0874096311893,-825.2864503773233
380109.0,13068.0,380109.0,9335.0,380109.0,24178.0,-208.28768704566028,-384.1409116005157,-786.5603087916478
380109.0,13133.0,380109.0,9371.0,380109.0,24204.0,-162.19756569494382,-360.9087262634555,-747.1902678991313
380109.0,13188.0,380109.0,9398.0,380109.0,24271.0,-115.93562036513015,-337.4142161866573,-707.2138195872338
380109.0,13242.0,380109.0,9419.0,380109.0,24304.0,-69.5768057580591,-313.6807797762032,-666.6689947031846
380109.0,13293.0,380109.0,9444.0,380109.0,24359.0,-23.195606404463206,-289.7317496059537,-625.5942050407606
380109.0,13342.0,380109.0,9458.0,380109.0,24388.0,23.134171777068104,-265.5904219994108,-584.0281159976126
380119.0,13394.0,380119.0,9495.0,380119.0,24445.0,69.33953432094063,-241.28015437045502,-542.0096154369381
380119.0,13456.0,380119.0,9530.0,380119.0,24503.0,115.34842665421047,-216.8244000463738,-499.5777763104435
380119.0,13524.0,380119.0,9566.0,380119.0,24532.0,161.08997382918938,-192.24656446131883,-456.7717105920374
380119.0,13561.0,380119.0,9583.0,380119.0,24580.0,206.49485412057925,-167.5697568363738,-413.63044681744304
380119.0,13609.0,380119.0,9608.0,380119.0,24624.0,251.49561248215662,-142.81664098260376,-370.19296149908496
380119.0,13659.0,380119.0,9609.0,380119.0,24667.0,296.0267704011802,-118.00949982846339,-326.4982579128639
380130.0,13717.0,380130.0,9669.0,380130.0,24729.0,340.02487599752544,-93.17043198470856,-282.58537765937115
380130.0,13774.0,380130.0,9692.0,380130.0,24777.0,383.4286826728609,-68.32141248942355,-238.49330123187053
380130.0,13814.0,380130.0,9724.0,380130.0,24823.0,426.1794381298274,-43.48409761428945,-194.2607585824917
380130.0,13858.0,380130.0,9737.0,380130.0,24862.0,468.2211198012418,-18.67961586422109,-149.9260941273983
380130.0,13900.0,380130.0,9749.0,380130.0,24905.0,509.5005214554433,6.071414710619479,-105.52728409370093
380130.0,13947.0,380130.0,9782.0,380130.0,24947.0,549.9672656488633,30.74867191059036,-61.10205639052083
380140.0,13986.0,380140.0,9818.0,380140.0,25013.0,589.5738388677255,55.3319448198215,-16.687984272568883
380140.0,14030.0,380140.0,9867.0,380140.0,25069.0,628.2756509946664,79.80121064401214,27.677599211600864
380140.0,14068.0,380140.0,9882.0,380140.0,25104.0,666.031090287383,104.13695539654123,71.95785506636548
380140.0,14114.0,380140.0,9898.0,380140.0,25141.0,702.801581388484,128.3204496902714,116.11659862105716
380140.0,14139.0,380140.0,9898.0,380140.0,25191.0,738.5516477180354,152.3337030189782,160.11821767028027
380140.0,14171.0,380140.0,9932.0,380140.0,25224.0,773.2489086723074,176.15912547134417,203.92749941625766
380150.0,14214.0,380150.0,9982.0,380150.0,25298.0,806.8639864743388,199.7792475699647,247.50953939088663
380150.0,14246.0,380150.0,10001.0,380150.0,25337.0,839.3704451534957,223.1767983214902,290.8298205251235
380150.0,14273.0,380150.0,10047.0,380150.0,25372.0,870.744813203735,246.33503074239798,333.85439469552966
380150.0,14301.0,380150.0,10038.0,380150.0,25422.0,900.9665734063458,269.23798376790126,376.5499432384713
380150.0,14336.0,380150.0,10065.0,380150.0,25467.0,930.0180841554782,291.8704888340163,418.8837094421608
380150.0,14352.0,380150.0,10085.0,380150.0,25498.0,957.8845058102165,314.21794998516395,460.82345183362827
380161.0,14388.0,380161.0,10126.0,380161.0,25560.0,984.5537346740487,336.2661651346525,502.33741123394657
380161.0,14419.0,380161.0,10145.0,380161.0,25606.0,1010.016355206574,358.00137716171366,543.3943290596349
380161.0,14445.0,380161.0,10147.0,380161.0,25635.0,1034.2656837180848,379.41039341166504,583.9635684976113
380161.0,14460.0,380161.0,10172.0,380161.0,25684.0,1057.2978512394789,400.48051298872247,624.0151817216649
380161.0,14484.0,380161.0,10199.0,380161.0,25712.0,1079.1117942464648,421.19931286611757,663.5198391525296
380161.0,14507.0,380161.0,10216.0,380161.0,25768.0,1099.7091715812855,441.55453810008373,702.4487350664633
380171.0,14521.0,380171.0,10254.0,380171.0,25808.0,1119.0943047499416,461.5341410768833,740.773577766359
380171.0,14527.0,380171.0,10265.0,380171.0,25854.0,1137.2741071436121,481.12638924458895,778.466691563046
380171.0,14538.0,380171.0,10294.0,380171.0,25882.0,1154.2578988409482,500.31998101057206,815.5011404210561
380171.0,14543.0,380171.0,10300.0,380171.0,25920.0,1170.0571168931356,519.1040953092759,851.850746676263
380171.0,14562.0,380171.0,10323.0,380171.0,25966.0,1184.6850219840705,537.4683448535036,887.4900259406384
380171.0,14578.0,380171.0,10368.0,380171.0,26011.0,1198.156502289364,555.4027366328096,922.3941948745264
380181.0,14597.0,380181.0,10359.0,380181.0,26040.0,1210.4880287520136,572.897771540225,956.5393032504162
380181.0,14607.0,380181.0,10396.0,380181.0,26067.0,1221.6977187997259,589.9445721491425,989.9023292185323
380181.0,14600.0,380181.0,10403.0,380181.0,26116.0,1231.8053703616192,606.5348932427289,1022.4611414169265
380181.0,14621.0,380181.0,10407.0,380181.0,26146.0,1240.8323603684873,622.6610639554933,1054.1944703374343
380181.0,14603.0,380181.0,10431.0,380181.0,26169.0,1248.801453646218,638.3158597746872,1085.0819564530614
380181.0,14621.0,380181.0,10455.0,380181.0,26222.0,1255.7365882992835,653.4923653664662,1115.1041725920297
380192.0,14617.0,380192.0,10479.0,380192.0,26250.0,1261.6626611388056,668.1840105996719,1144.242671815909
380192.0,14621.0,380192.0,10488.0,380192.0,26287.0,1266.6053629798128,682.3847476146618,1172.4801484555787
380192.0,14618.0,380192.0,10502.0,380192.0,26306.0,1270.5910427707518,696.0891728511606,1199.8005894596477
380192.0,14613.0,380192.0,10508.0,380192.0,26331.0,1273.6465349705966,709.2925072129892,1226.1892891259054
380192.0,14623.0,380192.0,10526.0,380192.0,26358.0,1275.7989675399979,721.9904912119857,1251.6327500007146
380192.0,14627.0,380192.0,10558.0,380192.0,26393.0,1277.0756447981194,734.1793348862054,1276.1185918520773
380202.0,14632.0,380202.0,10553.0,380202.0,26422.0,1277.5040649831126,745.855813701037,1299.6355804643067
380202.0,14619.0,380202.0,10585.0,380202.0,26436.0,1277.1119825921435,757.0174073486494,1322.1737341627068
380202.0,14612.0,380202.0,10575.0,380202.0,26473.0,1275.9273587876269,767.662358105126,1343.7243829662025
380202.0,14612.0,380202.0,10582.0,380202.0,26479.0,1273.978178737913,777.7896184734864,1364.280168553587
380202.0,14609.0,380202.0,10595.0,380202.0,26513.0,1271.2922746285872,787.3986800785576,1383.835027827337
380202.0,14603.0,380202.0,10602.0,380202.0,26535.0,1267.8972404633762,796.4893971807878,1402.384190674502
380212.0,14606.0,380212.0,10625.0,380212.0,26546.0,1263.820397283694,805.0619363719463,1419.924226529335
380212.0,14588.0,380212.0,10617.0,380212.0,26567.0,1259.0887654190128,813.1168200819593,1436.4530731144378
380212.0,14584.0,380212.0,10630.0,380212.0,26576.0,1253.728996341555,820.6549364002806,1451.9699806940012
380212.0,14579.0,380212.0,10631.0,380212.0,26588.0,1247.767249088255,827.6774524628049,1466.475406315014
380212.0,14581.0,380212.0,10652.0,380212.0,26611.0,1241.2291115769322,834.1857244701021,1479.9709005651207
380212.0,14571.0,380212.0,10674.0,380212.0,26626.0,1234.1396327557616,840.1813500100061,1492.4590596925832
380223.0,14564.0,380223.0,10672.0,380223.0,26646.0,1226.5233878587906,845.6663849032618,1503.943589588972
380223.0,14551.0,380223.0,10666.0,380223.0,26646.0,1218.4044828675687,850.6435241730169,1514.4294006061732
380223.0,14534.0,380223.0,10683.0,380223.0,26665.0,1209.8064731010452,855.1160710091149,1523.9226298821045
380223.0,14530.0,380223.0,10666.0,380223.0,26660.0,1200.7522194413539,859.0877988755617,1532.4305829256664
380223.0,14513.0,380223.0,10675.0,380223.0,26683.0,1191.2637482195846,862.5628058204506,1539.9616489077098
380223.0,14528.0,380223.0,10697.0,380223.0,26695.0,1181.3621990214303,865.5453871791499,1546.5252744229497
380233.0,14520.0,380233.0,10715.0,380233.0,26694.0,1171.067938626918,868.040108675885,1552.1320379538638
380233.0,14504.0,380233.0,10699.0,380233.0,26702.0,1160.4007958786021,870.0520939517678,1556.793713430084
380233.0,14490.0,380233.0,10694.0,380233.0,26697.0,1149.3802023044373,871.5871843632847,1560.5232213590266
380233.0,14470.0,380233.0,10708.0,380233.0,26697.0,1138.025130596755,872.6518231547377,1563.334497506892
380233.0,14481.0,380233.0,10707.0,380233.0,26714.0,1126.3539719803464,873.2529289247675,1565.2423556188123
380233.0,14462.0,380233.0,10713.0,380233.0,26721.0,1114.3845420873392,873.3979281737131,1566.2624712264308
380243.0,14454.0,380243.0,10711.0,380243.0,26705.0,1102.1342086739635,873.0948374294185,1566.411488091198
380243.0,14447.0,380243.0,10699.0,380243.0,26711.0,1089.6199948954543,872.3522773371017,1565.707038336579
380243.0,14429.0,380243.0,10699.0,380243.0,26701.0,1076.8586312686489,871.1793739340337,1564.1676109752093
380243.0,14430.0,380243.0,10701.0,380243.0,26718.0,1063.8666063644584,869.5856034972953,1561.8124342096723
380243.0,14423.0,380243.0,10703.0,380243.0,26709.0,1050.6602602107987,867.5807162617425,1558.6614882884837
380243.0,14404.0,380243.0,10719.0,380243.0,26703.0,1037.2559401091407,865.174803463005,1554.735583539668
380254.0,14389.0,380254.0,10696.0,380254.0,26708.0,1023.6701090546126,862.3784527507053,1550.056381514912
380254.0,14371.0,380254.0,10680.0,380254.0,26691.0,1009.9193151634053,859.2027892741476,1544.6463666684292
380254.0,14348.0,380254.0,10667.0,380254.0,26684.0,996.0200681214549,855.6592321077237,1538.5287901336055
380254.0,14349.0,380254.0,10707.0,380254.0,26672.0,981.9887010464033,851.7591923163465,1531.7275363047715
380254.0,14336.0,380254.0,10700.0,380254.0,26675.0,967.8413265117246,847.5141312043199,1524.266968140167
380254.0,14338.0,380254.0,10702.0,380254.0,26659.0,953.5939590594916,842.9359500471523,1516.1718536272863
380264.0,14313.0,380264.0,10675.0,380264.0,26669.0,939.2627227310976,838.0372697631217,1507.4673746496283
380264.0,14288.0,380264.0,10663.0,380264.0,26650.0,924.8639609619181,832.8313532446086,1498.179189123825
380264.0,14281.0,380264.0,10666.0,380264.0,26625.0,910.4141511793421,827.331815649922,1488.3334585744046
380264.0,14268.0,380264.0,10669.0,380264.0,26639.0,895.9297672603988,821.5524318590461,1477.9567452036822
380264.0,14263.0,380264.0,10659.0,380264.0,26620.0,881.42727549935,815.5071721977341,1467.0759212969947
380264.0,14238.0,380264.0,10642.0,380264.0,26588.0,866.9232291498803,809.2102798040949,1455.718169031712
380274.0,14219.0,380274.0,10641.0,380274.0,26593.0,852.4342991118899,802.6762050284519,1443.9108694759025
380274.0,14203.0,380274.0,10637.0,380274.0,26576.0,837.9771693975955,795.9194814032572,1431.6814163274278
380274.0,14188.0,380274.0,10613.0,380274.0,26566.0,823.5683858826155,788.9546560458538,1419.0571579063128
380274.0,14182.0,380274.0,10638.0,380274.0,26561.0,809.2242751798722,781.7962436703513,1406.0654260426652
380274.0,14173.0,380274.0,10621.0,380274.0,26536.0,794.9609776240299,774.4587644506881,1392.7335599097064
380274.0,14157.0,380274.0,10613.0,380274.0,26528.0,780.7945634824607,766.9568935972634,1379.0888874921334
380285.0,14137.0,380285.0,10589.0,380285.0,26520.0,766.7411205652179,759.3055036158081,1365.1586678543579
380285.0,14119.0,380285.0,10588.0,380285.0,26498.0,752.8167196224671,751.5194975885715,1350.9700702275006
380285.0,14117.0,380285.0,10584.0,380285.0,26489.0,739.0373136733341,743.6136212044087,1336.5501728451702
380285.0,14096.0,380285.0,10588.0,380285.0,26474.0,725.4187022886241,735.6024392400295,1321.9259280339782
380285.0,14087.0,380285.0,10578.0,380285.0,26474.0,711.9765643593915,727.5004699451857,1307.1241614903104
380285.0,14069.0,380285.0,10566.0,380285.0,26436.0,698.7264677730182,719.3223250812749,1292.1716271331647
380295.0,14046.0,380295.0,10543.0,380295.0,26415.0,685.6838150153163,711.0827033641002,1277.0949547690475
380295.0,14035.0,380295.0,10533.0,380295.0,26414.0,672.8637161010599,702.7962024357727,1261.9204289939717
380295.0,14028.0,380295.0,10534.0,380295.0,26394.0,660.280851071376,694.4770824580658,1246.6738251303013
380295.0,14023.0,380295.0,10538.0,380295.0,26379.0,647.9494490646105,686.1391913243867,1231.380408607721
380295.0,14017.0,380295.0,10532.0,380295.0,26383.0,635.8834097940914,677.7961117416661,1216.0649816041855
380295.0,13993.0,380295.0,10510.0,380295.0,26342.0,624.0964536429474,669.4613475988939,1200.7519417263536
380306.0,13977.0,380306.0,10498.0,380306.0,26334.0,612.6021461222432,661.1483265727531,1185.465277049858
380306.0,13958.0,380306.0,10483.0,380306.0,26318.0,601.4137497027463,652.8702084152769,1170.2284299485077
380306.0,13969.0,380306.0,10501.0,380306.0,26310.0,590.5440523377383,644.6397069338936,1155.06418678797
380306.0,13960.0,380306.0,10470.0,380306.0,26314.0,580.0053806916801,636.46909118491,1139.9947343870285
380306.0,13937.0,380306.0,10469.0,380306.0,26276.0,569.8097693287671,628.3702460708332,1125.041825845119
380306.0,13917.0,380306.0,10456.0,380306.0,26260.0,559.9690061884442,620.3546158816345,1110.2268425271795
380316.0,13911.0,380316.0,10456.0,380316.0,26239.0,550.4944487249431,612.4331093209566,1095.5706240081472
380316.0,13908.0,380316.0,10447.0,380316.0,26234.0,541.3968309158099,604.6160870709247,1081.0932373032015
380316.0,13886.0,380316.0,10435.0,380316.0,26221.0,532.6862105287473,596.913389045231,1066.8138870839475
380316.0,13895.0,380316.0,10450.0,380316.0,26199.0,524.3719692808386,589.3343605209063,1052.7509358773787
380316.0,13878.0,380316.0,10450.0,380316.0,26188.0,516.462821042866,581.8879800389918,1038.9218899433818
380316.0,13864.0,380316.0,10409.0,380316.0,26175.0,508.9668318321292,574.5830644853706,1025.343321905195
380326.0,13869.0,380326.0,10406.0,380326.0,26161.0,501.8913865526405,567.4282454788265,1012.0308125397323
380326.0,13859.0,380326.0,10397.0,380326.0,26141.0,495.24315483819754,560.4316722600636,998.9989111926901
380326.0,13850.0,380326.0,10403.0,380326.0,26148.0,489.0281265891517,553.600790907912,986.2610880069439
380326.0,13829.0,380326.0,10393.0,380326.0,26138.0,483.2515955639741,546.9423594952784,973.8297766558965
380326.0,13826.0,380326.0,10384.0,380326.0,26109.0,477.91799774128987,540.4625410947781,961.7165091690277
380326.0,13823.0,380326.0,10375.0,380326.0,26104.0,473.03071356335874,534.1669145413941,949.9319360274956
380337.0,13802.0,380337.0,10361.0,380337.0,26085.0,468.591943200208,528.060382515512,938.4856886586806
380337.0,13818.0,380337.0,10369.0,380337.0,26093.0,464.60261830003026,522.1470536680548,927.3862762391177
380337.0,13821.0,380337.0,10390.0,380337.0,26081.0,461.0623906297777,516.4302645746486,916.6411358943224
380337.0,13819.0,380337.0,10366.0,380337.0,26062.0,457.96979471336465,510.91283649952527,906.2567591187118
380337.0,13802.0,380337.0,10349.0,380337.0,26047.0,455.32243067428146,505.597301751946,896.2387059684448
380337.0,13806.0,380337.0,10341.0,380337.0,26054.0,453.1169629326818,500.48580205568805,886.5914926509988
380347.0,13794.0,380347.0,10332.0,380347.0,26030.0,451.3489935216625,495.57979848684823,877.3185344665178
380347.0,13809.0,380347.0,10360.0,380347.0,26044.0,450.01297000487966,490.8799167077307,868.4221884772453
380347.0,13813.0,380347.0,10355.0,380347.0,26036.0,449.1022212293093,486.3860933957208,859.9038573432448
380347.0,13816.0,380347.0,10343.0,380347.0,26023.0,448.60912918667356,482.09789432734567,851.7641481753284
380347.0,13803.0,380347.0,10344.0,380347.0,26015.0,448.525299584407,478.0146924640624,844.0029669584976
380347.0,13809.0,380347.0,10325.0,380347.0,26001.0,448.84158161553614,474.13562712638924,836.6194675764664
380357.0,13814.0,380357.0,10323.0,380357.0,26007.0,449.54800195686863,470.4594636756523,829.6119566260963
380357.0,13807.0,380357.0,10330.0,380357.0,26008.0,450.6337529278383,466.98445087113294,822.9778957096596
380357.0,13821.0,380357.0,10335.0,380357.0,26010.0,452.08722299030666,463.7083115327616,816.7140579231186
380357.0,13818.0,380357.0,10337.0,380357.0,25985.0,453.8960355352,460.6284110875164,810.8167151738671
380357.0,13818.0,380357.0,10310.0,380357.0,25976.0,456.04710037810077,457.74191991325824,805.2816398927455
380357.0,13822.0,380357.0,10313.0,380357.0,25973.0,458.52662574677146,455.0457611209821,800.1039070947163
380368.0,13832.0,380368.0,10316.0,380368.0,25985.0,461.32010534948995,452.5364146972728,795.2777417958771
380368.0,13846.0,380368.0,10330.0,380368.0,25989.0,464.41239025027124,450.20986142791185,790.7966082475538
380368.0,13832.0,380368.0,10323.0,380368.0,25989.0,467.78783792397695,448.06175171273185,786.6534784376256
380368.0,13854.0,380368.0,10310.0,380368.0,25969.0,471.4304033905357,446.0875808388031,782.8410534110625
380368.0,13849.0,380368.0,10321.0,380368.0,25963.0,475.3236628140133,444.2826927636858,779.3517575234328
380368.0,13849.0,380368.0,10298.0,380368.0,25967.0,479.45083889079956,442.6421833837399,776.1775645505387
380378.0,13857.0,380378.0,10316.0,380378.0,25960.0,483.7947820123009,441.1608066482906,773.3098724379068
380378.0,13882.0,380378.0,10316.0,380378.0,25985.0,488.3379583374357,439.83294034320613,770.7395382549378
380378.0,13873.0,380378.0,10341.0,380378.0,25968.0,493.06258294136904,438.6527230174696,768.4570533939304
380378.0,13873.0,380378.0,10298.0,380378.0,25955.0,497.9507711118735,437.61429544993825,766.4526974100938
380378.0,13879.0,380378.0,10306.0,380378.0,25955.0,502.98451004292315,436.7118311439007,764.7164684367795
380378.0,13886.0,380378.0,10302.0,380378.0,25964.0,508.1455445944522,435.9392912796269,763.2379017945983
380388.0,13903.0,380388.0,10322.0,380388.0,25967.0,513.4153638831422,435.2902463228315,762.0060462728085
380388.0,13920.0,380388.0,10333.0,380388.0,25975.0,518.7753439345674,434.7579992364938,761.0096166346177
380388.0,13911.0,380388.0,10314.0,380388.0,25975.0,524.2069761630894,434.33586884237013,760.2371891331006
380388.0,13908.0,380388.0,10304.0,380388.0,25972.0,529.6919778838133,434.017305703915,759.6773493322468
380388.0,13900.0,380388.0,10310.0,380388.0,25959.0,535.2121437937965,433.79572134592087,759.3187197463154
380388.0,13914.0,380388.0,10302.0,380388.0,25960.0,540.7490624617037,433.6642637509159,759.1498373099229
380399.0,13944.0,380399.0,10326.0,380399.0,25980.0,546.283977689946,433.6157477900487,759.1590146125628
380399.0,13950.0,380399.0,10336.0,380399.0,25961.0,551.7979693850401,433.6427914033217,759.3343532371296
380399.0,13953.0,380399.0,10330.0,380399.0,25966.0,557.2722966905062,433.7381112137007,759.6638083942925
380399.0,13951.0,380399.0,10300.0,380399.0,25970.0,562.688590314225,433.89469853754787,760.1351494104792
380399.0,13959.0,380399.0,10306.0,380399.0,25972.0,568.0288278704993,434.10562913177245,760.735917644043
380399.0,13990.0,380399.0,10322.0,380399.0,25973.0,573.2753053195902,434.363733561682,761.4534651967377
380409.0,13983.0,380409.0,10329.0,380409.0,25990.0,578.4107953156079,434.66153923003674,762.2750303004896
380409.0,14002.0,380409.0,10336.0,380409.0,25989.0,583.4188039891629,434.9915025128839,763.1878720470706
380409.0,13991.0,380409.0,10322.0,380409.0,25979.0,588.2837263704727,435.34624184991435,764.1794203487786
380409.0,13985.0,380409.0,10320.0,380409.0,25968.0,592.9908281297899,435.7185716823258,765.2372573817801
380409.0,14003.0,380409.0,10315.0,380409.0,25976.0,597.5260905659994,436.1013536653894,766.3489046096811
380409.0,14003.0,380409.0,10338.0,380409.0,25996.0,601.8760893125913,436.4873556179283,767.5016647069167
380419.0,14005.0,380419.0,10343.0,380419.0,25996.0,606.0280084006628,436.8693187878756,768.6827231808581
380419.0,14012.0,380419.0,10347.0,380419.0,25992.0,609.9696727370616,437.24021747633617,769.8793765361405
380419.0,14009.0,380419.0,10334.0,380419.0,25989.0,613.6895346521127,437.5934785241108,771.0791222856062
380419.0,14015.0,380419.0,10315.0,380419.0,25989.0,617.1766452653455,437.9229504185181,772.269576813083
380419.0,14015.0,380419.0,10311.0,380419.0,25996.0,620.4206171131849,438.22260401939195,773.4383712463693
380419.0,14019.0,380419.0,10315.0,380419.0,26001.0,623.4115925579347,438.4861593828165,774.5731370450144
380430.0,14034.0,380430.0,10367.0,380430.0,26011.0,626.1402547400145,438.70697481747163,775.6615978914369
380430.0,14035.0,380430.0,10341.0,380430.0,26015.0,628.5979259122081,438.8783744398371,776.6917298320393
380430.0,14031.0,380430.0,10341.0,380430.0,26002.0,630.776704885402,438.9940764783995,777.6518989947705
380430.0,14026.0,380430.0,10338.0,380430.0,26006.0,632.6694981562391,439.04828541506225,778.5308619171299
380430.0,14030.0,380430.0,10342.0,380430.0,25994.0,634.2699186620351,439.03555744443696,779.3176288593072
380430.0,14041.0,380430.0,10355.0,380430.0,26011.0,635.5722001228663,438.950759184802,780.001315936302
380440.0,14032.0,380440.0,10338.0,380440.0,26018.0,636.5712283623501,438.7891542193668,780.5711240370525
380440.0,14044.0,380440.0,10347.0,380440.0,26004.0,637.2626189617856,438.54646180632596,781.016454999601
380440.0,14024.0,380440.0,10335.0,380440.0,26004.0,637.6427422486659,438.218808984355,781.3269711125776
380440.0,14024.0,380440.0,10322.0,380440.0,26010.0,637.7086471902808,437.80260454350895,781.4925072162451
380440.0,14026.0,380440.0,10323.0,380440.0,26020.0,637.4579025225411,437.29433094030446,781.5030239414482
380440.0,14034.0,380440.0,10345.0,380440.0,26016.0,636.8885029404759,436.69036557889655,781.3487137178025
380450.0,14037.0,380450.0,10338.0,380450.0,26024.0,635.9989456611834,435.98703596791336,781.0201485684415
380450.0,14022.0,380450.0,10333.0,380450.0,26020.0,634.7883701645662,435.1808137538445,780.5083809612479
380450.0,14024.0,380450.0,10317.0,380450.0,26017.0,633.2565891413781,434.26835228470725,779.8049959940276
380450.0,14016.0,380450.0,10321.0,380450.0,26015.0,631.404000555292,433.24631115255164,778.9021030579313
380450.0,14009.0,380450.0,10347.0,380450.0,26004.0,629.2314820094603,432.1112147162877,777.7922632017801
380450.0,14007.0,380450.0,10343.0,380450.0,26016.0,626.7402937123472,430.85958958200257,776.468392925572
380461.0,14016.0,380461.0,10339.0,380461.0,26003.0,623.9320203692719,429.48826984585696,774.9237114251792
380461.0,14007.0,380461.0,10334.0,380461.0,26006.0,620.8086248108953,427.99455855530516,773.1517335396555
380461.0,14001.0,380461.0,10329.0,380461.0,26009.0,617.3725485456326,426.3761867995835,771.1462640966135
380461.0,13993.0,380461.0,10324.0,380461.0,26006.0,613.6267235803405,424.6312040803432,768.9014262424106
380461.0,13995.0,380461.0,10317.0,380461.0,26007.0,609.5745116173551,422.7578607471622,766.4117360967497
380461.0,13987.0,380461.0,10340.0,380461.0,26009.0,605.2196777877342,420.7545372014355,763.6721793965609
380471.0,13978.0,380471.0,10311.0,380471.0,25985.0,600.5664028573143,418.6197907543837,760.6782518523219
380471.0,13979.0,380471.0,10327.0,380471.0,25999.0,595.6192730698752,416.3524250752301,757.425906712018
380471.0,13968.0,380471.0,10299.0,380471.0,26009.0,590.3832636793677,413.9514466852763,753.9115108616836
380471.0,13955.0,380471.0,10314.0,380471.0,25978.0,584.8637241152412,411.41594293867877,750.1319472032953
380471.0,13947.0,380471.0,10302.0,380471.0,25998.0,579.0662998589736,408.74498270745426,746.0847035503365
380471.0,13952.0,380471.0,10322.0,380471.0,25995.0,572.9968293076348,405.93762479572797,741.7678833791173
380481.0,13937.0,380481.0,10314.0,380481.0,25973.0,566.6613348392223,402.99306446703065,737.18028017327
380481.0,13924.0,380481.0,10311.0,380481.0,25957.0,560.0660593193589,399.91082502061874,732.3213697117495
380481.0,13914.0,380481.0,10290.0,380481.0,25970.0,553.2174061918599,396.6908224232335,727.1911049855827
380481.0,13918.0,380481.0,10281.0,380481.0,25960.0,546.1218294944542,393.33321194218337,721.7897808891356
380481.0,13909.0,380481.0,10306.0,380481.0,25964.0,538.7858314402635,389.83817058463126,716.1181123694605
380481.0,13909.0,380481.0,10301.0,380481.0,25951.0,531.2160794955125,386.2059087766479,710.1773681708386
380492.0,13889.0,380492.0,10293.0,380492.0,25934.0,523.4195253635081,382.43691127430355,703.9694103919117
380492.0,13867.0,380492.0,10271.0,380492.0,25941.0,515.4033981608959,378.5320652882891,697.4966195732786
380492.0,13865.0,380492.0,10270.0,380492.0,25921.0,507.17503310806967,374.492511882435,690.7618104858392
380492.0,13849.0,380492.0,10270.0,380492.0,25916.0,498.7416731113185,370.3194189408033,683.7681931806894
380492.0,13859.0,380492.0,10284.0,380492.0,25905.0,490.11040287214144,366.01393065474633,676.5193104007847
380492.0,13848.0,380492.0,10285.0,380492.0,25904.0,481.2882456428598,361.57736229687566,669.0189674376452
380502.0,13837.0,380502.0,10260.0,380502.0,25902.0,472.2823394228121,357.01146215385097,661.2712433589745
380502.0,13816.0,380502.0,10256.0,380502.0,25873.0,463.1000264181821,352.31846736923274,653.2805511010463
380502.0,13813.0,380502.0,10243.0,380502.0,25859.0,453.74878672402997,347.50092328127903,645.0515742745044
380502.0,13797.0,380502.0,10237.0,380502.0,25868.0,444.2361333635949,342.56146653079344,636.5890643484651
380502.0,13789.0,380502.0,10254.0,380502.0,25867.0,434.56956153168016,337.502723635747,627.8977732846315
380502.0,13787.0,380502.0,10242.0,380502.0,25855.0,424.7565477492259,332.3273957765543,618.982636816083
380513.0,13761.0,380513.0,10228.0,380513.0,25838.0,414.8045824936378,327.0384264945549,609.848961318446
380513.0,13761.0,380513.0,10208.0,380513.0,25815.0,404.7211773717537,321.6389931774095,600.5023975706282
380513.0,13743.0,380513.0,10220.0,380513.0,25810.0,394.51382432896423,316.132306044471,590.9487396803615
380513.0,13728.0,380513.0,10212.0,380513.0,25828.0,384.1899531938815,310.5214816592063,581.1937877880184
380513.0,13719.0,380513.0,10219.0,380513.0,25809.0,373.7568731475908,304.8096244290076,571.2434888721325
380513.0,13723.0,380513.0,10210.0,380513.0,25789.0,363.2217363250318,299.00000468426987,561.1041955900787
380523.0,13700.0,380523.0,10189.0,380523.0,25767.0,352.5916163995379,293.09617133494385,550.7826928526288
380523.0,13674.0,380523.0,10177.0,380523.0,25747.0,341.87357846855576,287.1018755486492,540.2859534720997
380523.0,13665.0,380523.0,10189.0,380523.0,25742.0,331.074551802704,281.02087414040807,529.6208392005196
380523.0,13661.0,380523.0,10191.0,380523.0,25740.0,320.2011246266872,274.85688980079385,518.7939412086128
380523.0,13656.0,380523.0,10174.0,380523.0,25728.0,309.2595075995435,268.61379482147913,507.81162454042715
380523.0,13646.0,380523.0,10146.0,380523.0,25708.0,298.2556738729574,262.2957126131722,496.6801427610629
380533.0,13626.0,380533.0,10140.0,380533.0,25700.0,287.19550350623575,255.90681427925165,485.4056505707775
380533.0,13608.0,380533.0,10135.0,380533.0,25673.0,276.08479442695875,249.45099022219898,473.99410810754495
380533.0,13601.0,380533.0,10118.0,380533.0,25674.0,264.92914986194893,242.931647589967,462.4511536370469
380533.0,13599.0,380533.0,10141.0,380533.0,25668.0,253.73389989811955,236.35166176909019,450.7820435964477
380533.0,13585.0,380533.0,10130.0,380533.0,25673.0,242.50417031701534,229.71349193122114,438.9917731336917
380533.0,13561.0,380533.0,10133.0,380533.0,25641.0,231.24498924601693,223.01944232238873,427.08531827851874
380544.0,13551.0,380544.0,10110.0,380544.0,25612.0,219.96125944026437,216.27187290955453,415.0677223281489
380544.0,13542.0,380544.0,10101.0,380544.0,25622.0,208.6576385273371,209.47320550262134,402.94391497707335
380544.0,13540.0,380544.0,10091.0,380544.0,25597.0,197.3385071639825,202.62577181815277,390.71853925013403
380544.0,13534.0,380544.0,10091.0,380544.0,25598.0,186.0080917334085,195.73166327902265,378.3959742821476
380544.0,13506.0,380544.0,10104.0,380544.0,25588.0,174.67063215584932,188.79273829966291,365.98044653291487
380544.0,13501.0,380544.0,10084.0,380544.0,25554.0,163.33042872567853,181.81081127108712,353.476117985938
380554.0,13471.0,380554.0,10049.0,380554.0,25552.0,151.99173950174645,174.7877823593373,340.8870540506231
380554.0,13459.0,380554.0,10062.0,380554.0,25545.0,140.65860501055147,167.72546925705558,328.2171155507923
380554.0,13466.0,380554.0,10065.0,380554.0,25529.0,129.33469523778922,160.62538569505813,315.46996691711365
380554.0,13453.0,380554.0,10060.0,380554.0,25515.0,118.02333257788939,153.48881878051878,302.64916807471457
380554.0,13426.0,380554.0,10047.0,380554.0,25502.0,106.7276501446978,146.3170634498381,289.75820217108276
380554.0,13407.0,380554.0,10022.0,380554.0,25473.0,95.45059998755801,139.1114881719712,276.8004228345517
380564.0,13408.0,380564.0,10018.0,380564.0,25462.0,84.19477265725277,131.87336507456502,263.778920847006
380564.0,13400.0,380564.0,10030.0,380564.0,25473.0,72.96230324930423,124.60367693767404,250.69640118660539
380564.0,13389.0,380564.0,10024.0,380564.0,25453.0,61.75497716609425,117.30316004853302,237.5552686609725
380564.0,13388.0,380564.0,10022.0,380564.0,25453.0,50.574399935302836,109.97255050309144,224.35788561066101
380564.0,13366.0,380564.0,10010.0,380564.0,25427.0,39.42213590652841,102.61279715070003,211.10677898916128
380564.0,13352.0,380564.0,9985.0,380564.0,25411.0,28.299771246789533,95.22510354031004,197.80469554983858
380575.0,13351.0,380575.0,9972.0,380575.0,25393.0,17.208887013813182,87.81076443129717,184.45451921863867
380575.0,13324.0,380575.0,9984.0,380575.0,25388.0,6.151031295548364,80.37092027597288,171.05915174550353
380575.0,13323.0,380575.0,9983.0,380575.0,25376.0,-4.872287377664293,72.90650890435364,157.62149010304427
380575.0,13314.0,380575.0,9984.0,380575.0,25350.0,-15.859607662548456,65.41849127320671,144.14448232100847
380575.0,13303.0,380575.0,9963.0,380575.0,25339.0,-26.80946139148648,57.90811851694207,130.63111797433066
380575.0,13284.0,380575.0,9950.0,380575.0,25329.0,-37.720292374923474,50.377007536488804,117.08434310648374
380585.0,13259.0,380585.0,9929.0,380585.0,25318.0,-48.590489729258024,42.826988655175796,103.50703709990637
380585.0,13261.0,380585.0,9940.0,380585.0,25315.0,-59.418545902117444,35.25987706697157,89.90210401024069
380585.0,13263.0,380585.0,9938.0,380585.0,25283.0,-70.20313910156085,27.677400744782915,76.27259731704623
380585.0,13249.0,380585.0,9915.0,380585.0,25275.0,-80.94298637878649,20.081321175336655,62.621750496929735
380585.0,13223.0,380585.0,9915.0,380585.0,25261.0,-91.63664549895066,12.473516157990275,48.952901173063765
380585.0,13209.0,380585.0,9897.0,380585.0,25234.0,-102.28253075357122,4.855917350235359,35.26941396554719
380595.0,13187.0,380595.0,9892.0,380595.0,25226.0,-112.87912455110734,-2.7695882224527395,21.574599907482707
380595.0,13194.0,380595.0,9902.0,380595.0,25223.0,-123.42518044321275,-10.40119561822479,7.871642433161924
380595.0,13183.0,380595.0,9879.0,380595.0,25210.0,-133.91975371601302,-18.037105838665184,-5.836342679061431
380595.0,13178.0,380595.0,9883.0,380595.0,25184.0,-144.36205554246385,-25.67541103610239,-19.546166134036866
380595.0,13161.0,380595.0,9863.0,380595.0,25175.0,-154.75128453365983,-33.31406255325675,-33.2545371005358
380595.0,13149.0,380595.0,9853.0,380595.0,25150.0,-165.08656119051977,-40.95092186012869,-46.95815857228092
380606.0,13134.0,380606.0,9842.0,380606.0,25153.0,-175.36696326264655,-48.58387219545443,-60.653814678090725
380606.0,13132.0,380606.0,9852.0,380606.0,25135.0,-185.5915851450693,-56.21091408199942,-74.33835696080484
380606.0,13110.0,380606.0,9846.0,380606.0,25124.0,-195.7595545630221,-63.83010312603477,-88.00860187612795
380606.0,13107.0,380606.0,9842.0,380606.0,25101.0,-205.87003086178208,-71.43934635891083,-101.66125699430643
380606.0,13083.0,380606.0,9802.0,380606.0,25096.0,-215.92223754956024,-79.03628182064801,-115.29293672469214
380606.0,13081.0,380606.0,9813.0,380606.0,25074.0,-225.91552709992925,-86.61840942515971,-128.90019886818254
380616.0,13081.0,380616.0,9803.0,380616.0,25065.0,-235.84940721173746,-94.18330521668656,-142.47955758957892
380616.0,13082.0,380616.0,9799.0,380616.0,25059.0,-245.7234152230801,-101.7286620871098,-156.02747090213802
380616.0,13054.0,380616.0,9793.0,380616.0,25034.0,-255.53688522223433,-109.25220155603932,-169.54028659218898
380616.0,13035.0,380616.0,9776.0,380616.0,25026.0,-265.28886084065084,-116.75161858858587,-183.01420134399768
380616.0,13010.0,380616.0,9750.0,380616.0,24990.0,-274.978289342518,-124.22465261840335,-196.44532020754502
380616.0,13012.0,380616.0,9745.0,380616.0,24989.0,-284.6043351458309,-131.66932734974694,-209.82981451230012
380626.0,13013.0,380626.0,9769.0,380626.0,24974.0,-294.16653758373957,-139.0841651349374,-223.1640670513292
380626.0,13012.0,380626.0,9739.0,380626.0,24960.0,-303.6646854407678,-146.4681169561781,-236.44469740567558
380626.0,13002.0,380626.0,9752.0,380626.0,24948.0,-313.0985337537818,-153.82033960398792,-249.66852014648032
380626.0,12986.0,380626.0,9740.0,380626.0,24932.0,-322.4675854998353,-161.1400548418901,-262.83252709614965
380626.0,12974.0,380626.0,9733.0,380626.0,24917.0,-331.77104341831705,-168.42645821020557,-275.93389780387474
380626.0,12959.0,380626.0,9722.0,380626.0,24899.0,-341.00788746606906,-175.67866130846954,-288.97004036096905
380637.0,12953.0,380637.0,9725.0,380637.0,24898.0,-350.17697877189585,-182.89569389409303,-301.938640390345
380637.0,12958.0,380637.0,9710.0,380637.0,24882.0,-359.2770869162273,-190.07648892777587,-314.83764139706886
380637.0,12926.0,380637.0,9706.0,380637.0,24879.0,-368.3068122437876,-197.21984452864154,-327.6651383462788
380637.0,12913.0,380637.0,9680.0,380637.0,24844.0,-377.2645712210003,-204.3244559671188,-340.41928370274684
380637.0,12893.0,380637.0,9679.0,380637.0,24845.0,-386.1487865461661,-211.38906023415262,-353.09831123219374
380637.0,12888.0,380637.0,9673.0,380637.0,24828.0,-394.95815254679314,-218.412604186178,-365.7006209645325
380647.0,12890.0,380647.0,9672.0,380647.0,24814.0,-403.691773543723,-225.39429667089945,-378.2248019333456
380647.0,12889.0,380647.0,9673.0,380647.0,24812.0,-412.3490902297484,-232.33352038515483,-390.6696008421534
380647.0,12883.0,380647.0,9656.0,380647.0,24800.0,-420.9296507597803,-239.22969456093,-403.0338528977069
380647.0,12853.0,380647.0,9643.0,380647.0,24765.0,-429.43292287667293,-246.08222206856607,-415.31640925918384
380647.0,12837.0,380647.0,9641.0,380647.0,24754.0,-437.85834541651707,-252.89057559921298,-427.5162230428564
380647.0,12838.0,380647.0,9637.0,380647.0,24750.0,-446.2055726676408,-259.65439342980574,-439.6325655903879
380657.0,12847.0,380657.0,9654.0,380657.0,24741.0,-454.4746019740588,-266.3734208685037,-451.6651140014503
380657.0,12834.0,380657.0,9631.0,380657.0,24718.0,-462.665612580741,-273.0472913244769,-463.6138775777923
380657.0,12820.0,380657.0,9611.0,380657.0,24723.0,-470.77872416787693,-279.6753655761472,-475.4791392567945
380657.0,12805.0,380657.0,9609.0,380657.0,24711.0,-478.8139361329821,-286.2568316249926,-487.26140394463823
380657.0,12801.0,380657.0,9581.0,380657.0,24694.0,-486.77122940759637,-292.79095790004635,-498.96128089145725
380657.0,12794.0,380657.0,9598.0,380657.0,24687.0,-494.65065272405604,-299.2773055620622,-510.57939723609707
380668.0,12783.0,380668.0,9607.0,380668.0,24682.0,-502.45232048112064,-305.7157582706383,-522.1163710380358
380668.0,12777.0,380668.0,9587.0,380668.0,24666.0,-510.17638494468724,-312.1063046717969,-533.5727466429457
380668.0,12765.0,380668.0,9571.0,380668.0,24662.0,-517.8230333757701,-318.4488346733017,-544.94890248555
380668.0,12767.0,380668.0,9561.0,380668.0,24638.0,-525.3924857993205,-324.74321866614935,-556.2450021472935
380668.0,12749.0,380668.0,9557.0,380668.0,24624.0,-532.8849630551102,-330.9895300611977,-567.461029135419
380668.0,12738.0,380668.0,9569.0,380668.0,24617.0,-540.3006736958254,-337.1881419912163,-578.5968972868634
380678.0,12739.0,380678.0,9558.0,380678.0,24622.0,-547.6398642496273,-343.33961318105503,-589.6524991877936
380678.0,12724.0,380678.0,9566.0,380678.0,24588.0,-554.9028559416902,-349.44446821044517,-600.6276136902775
380678.0,12720.0,380678.0,9541.0,380678.0,24565.0,-562.0900294185047,-355.5030300059336,-611.5218870476299
380678.0,12700.0,380678.0,9533.0,380678.0,24561.0,-569.2018384156272,-361.5154097823512,-622.3350515996444
380678.0,12700.0,380678.0,9509.0,380678.0,24555.0,-576.2388867619735,-367.481686804937,-633.0671553647983
380678.0,12696.0,380678.0,9532.0,380678.0,24561.0,-583.2019918066329,-373.40214642698265,-643.7185455377987
380688.0,12700.0,380688.0,9526.0,380688.0,24540.0,-590.092131041385,-379.27732141204183,-654.2896605350375
380688.0,12671.0,380688.0,9520.0,380688.0,24529.0,-596.9103123699749,-385.1077940351082,-664.7808552148722
380688.0,12660.0,380688.0,9505.0,380688.0,24512.0,-603.6575723912072,-390.89402203219663,-675.1923948532269
380688.0,12657.0,380688.0,9484.0,380688.0,24509.0,-610.3351593294764,-396.6363907546379,-685.5245450134732
380688.0,12659.0,380688.0,9501.0,380688.0,24491.0,-616.9446759476222,-402.3354065189186,-695.777627787269
380688.0,12656.0,380688.0,9476.0,380688.0,24487.0,-623.4880184819135,-407.99181460219893,-705.9520322581443
380699.0,12656.0,380699.0,9513.0,380699.0,24493.0,-629.9671904751336,-413.6065386582718,-716.0481751335572
380699.0,12638.0,380699.0,9472.0,380699.0,24452.0,-636.3841351346899,-419.1804921254036,-726.0664014183692
380699.0,12625.0,380699.0,9464.0,380699.0,24442.0,-642.7406994833907,-424.7144659951259,-736.0070011836924
380699.0,12625.0,380699.0,9462.0,380699.0,24431.0,-649.0387383377164,-430.20926897834806,-745.870441584533
380699.0,12610.0,380699.0,9469.0,380699.0,24433.0,-655.2802244899564,-435.6659075539254,-755.6575672247704
380699.0,12605.0,380699.0,9468.0,380699.0,24420.0,-661.4673002762006,-441.08552862513466,-765.3695846974972
380709.0,12603.0,380709.0,9454.0,380709.0,24412.0,-667.6023109417591,-446.46922998678895,-775.0079486518439
380709.0,12601.0,380709.0,9452.0,380709.0,24391.0,-673.6877893807837,-451.8179652255384,-784.5743152959878
380709.0,12586.0,380709.0,9426.0,380709.0,24392.0,-679.7263820580858,-457.1326057559395,-794.0705936489626
380709.0,12567.0,380709.0,9435.0,380709.0,24376.0,-685.7208455514586,-462.4141032985426,-803.4990034233454
380709.0,12574.0,380709.0,9435.0,380709.0,24384.0,-691.6741763658692,-467.6636090879207,-812.8620524600715
380709.0,12579.0,380709.0,9434.0,380709.0,24364.0,-697.589689773155,-472.8824141915503,-822.1624336470459
380719.0,12560.0,380719.0,9429.0,380719.0,24366.0,-703.470907945514,-478.0717817345711,-831.4029080274663
380719.0,12565.0,380719.0,9401.0,380719.0,24352.0,-709.3214171517998,-483.2328733633075,-840.5862246080515
380719.0,12559.0,380719.0,9389.0,380719.0,24342.0,-715.1448092579928,-488.3669054977008,-849.715074758637
380719.0,12550.0,380719.0,9409.0,380719.0,24322.0,-720.9446264704188,-493.4754260541109,-858.792109449611
380719.0,12549.0,380719.0,9403.0,380719.0,24334.0,-726.7243031371723,-498.56038578004666,-867.8200111479359
380719.0,12546.0,380719.0,9406.0,380719.0,24331.0,-732.4871247328861,-503.6239312978271,-876.8014604151942
380730.0,12529.0,380730.0,9403.0,380730.0,24323.0,-738.2361816573783,-508.668162643291,-885.7389202234547
380730.0,12533.0,380730.0,9401.0,380730.0,24291.0,-743.9743602421653,-513.6949746340612,-894.6344544447784
380730.0,12504.0,380730.0,9375.0,380730.0,24276.0,-749.7044012221866,-518.7059921219158,-903.4898253084875
380730.0,12502.0,380730.0,9389.0,380730.0,24276.0,-755.4290336749199,-523.7026375208778,-912.3067867886523
380730.0,12512.0,380730.0,9389.0,380730.0,24268.0,-761.1511256502546,-528.6861990180034,-921.0872723309876
380730.0,12498.0,380730.0,9381.0,380730.0,24262.0,-766.8736834345835,-533.6577355012726,-929.8333736530856
380740.0,12495.0,380740.0,9357.0,380740.0,24240.0,-772.5997256660598,-538.6179739908832,-938.5472785257559
380740.0,12482.0,380740.0,9345.0,380740.0,24249.0,-778.3322285064726,-543.567442387183,-947.2312868697927
380740.0,12466.0,380740.0,9339.0,380740.0,24225.0,-784.074194390751,-548.506780847208,-955.887838317456
380740.0,12467.0,380740.0,9341.0,380740.0,24215.0,-789.828791641777,-553.4369889245849,-964.5195289054261
380740.0,12478.0,380740.0,9354.0,380740.0,24231.0,-795.5994312881479,-558.3594485769046,-973.1291451543
380740.0,12469.0,380740.0,9348.0,380740.0,24207.0,-801.3896413468843,-563.2757270564414,-981.7196041487562
380751.0,12451.0,380751.0,9317.0,380751.0,24188.0,-807.2028679811208,-568.1873741564942,-990.2938460765663
380751.0,12451.0,380751.0,9322.0,380751.0,24190.0,-813.0424401963514,-573.0959748248765,-998.8548916249765
380751.0,12444.0,380751.0,9315.0,380751.0,24181.0,-818.9116534440669,-578.0033700753982,-1007.4059629553744
380751.0,12426.0,380751.0,9330.0,380751.0,24163.0,-824.8138263182516,-582.9117344933941,-1015.950498167545
380751.0,12431.0,380751.0,9341.0,380751.0,24183.0,-830.752356546516,-587.8233888532925,-1024.49211581488
380751.0,12432.0,380751.0,9315.0,380751.0,24169.0,-836.7307518841915,-592.7404772990274,-1033.0344969825585
380761.0,12421.0,380761.0,9300.0,380761.0,24140.0,-842.7525406880098,-597.66481662135,-1041.5812070762481
380761.0,12406.0,380761.0,9312.0,380761.0,24125.0,-848.8211713382656,-602.5980389882715,-1050.1357344543858
380761.0,12408.0,380761.0,9284.0,380761.0,24121.0,-854.940040033454,-607.5417710582452,-1058.7017741217273
380761.0,12401.0,380761.0,9293.0,380761.0,24125.0,-861.1125517322442,-612.497719904295,-1067.283426504889
380761.0,12396.0,380761.0,9293.0,380761.0,24124.0,-867.3420987816914,-617.4677223596995,-1075.8851250081375
380761.0,12388.0,380761.0,9304.0,380761.0,24117.0,-873.632007715296,-622.453664639737,-1084.5114014996127
380771.0,12383.0,380771.0,9272.0,380771.0,24096.0,-879.9855168476577,-627.457290395547,-1093.1667020787943
380771.0,12372.0,380771.0,9267.0,380771.0,24095.0,-886.4057784880431,-632.4801662955414,-1101.8553723816342
380771.0,12363.0,380771.0,9280.0,380771.0,24087.0,-892.8958876925424,-637.5238435297073,-1110.581723238281
380771.0,12354.0,380771.0,9270.0,380771.0,24089.0,-899.4589475715096,-642.5899176998224,-1119.3500146469844
380771.0,12367.0,380771.0,9268.0,380771.0,24086.0,-906.0981062932061,-647.6799081207942,-1128.1643194759138
380771.0,12349.0,380771.0,9276.0,380771.0,24067.0,-912.8164725929473,-652.7951305225961,-1137.028353777963
380782.0,12335.0,380782.0,9243.0,380782.0,24047.0,-919.6170007543752,-657.936623817521,-1145.9454314396019
380782.0,12326.0,380782.0,9233.0,380782.0,24036.0,-926.5025291217024,-663.1052219586293,-1154.9186219699588
380782.0,12330.0,380782.0,9244.0,380782.0,24047.0,-933.4759072886175,-668.3017971633994,-1163.9509413305218
380782.0,12329.0,380782.0,9246.0,380782.0,24043.0,-940.5399953341479,-673.5273830589887,-1173.0453247650032
380782.0,12326.0,380782.0,9241.0,380782.0,24031.0,-947.6974985870104,-678.7830259416778,-1182.2043977228907
380782.0,12309.0,380782.0,9220.0,380782.0,24017.0,-954.9507896066033,-684.0696170829357,-1191.430299773156
380792.0,12301.0,380792.0,9222.0,380792.0,24009.0,-962.3018609792755,-689.3879225876788,-1200.7246848729058
380792.0,12301.0,380792.0,9221.0,380792.0,23995.0,-969.7523825459136,-694.7387014959035,-1210.0888028085553
380792.0,12298.0,380792.0,9212.0,380792.0,23998.0,-977.3037051468123,-700.122727944416,-1219.5235524757313
380792.0,12289.0,380792.0,9227.0,380792.0,23983.0,-984.9567561899094,-705.5407112930523,-1229.029460412225
380792.0,12276.0,380792.0,9227.0,380792.0,23968.0,-992.7119423515865,-710.9931263341502,-1238.6066331249024
380792.0,12275.0,380792.0,9201.0,380792.0,23972.0,-1000.5691383060912,-716.4799960632416,-1248.254762119525
380802.0,12258.0,380802.0,9189.0,380802.0,23950.0,-1008.5277108780987,-722.0008597252478,-1257.973137109174
380802.0,12258.0,380802.0,9187.0,380802.0,23957.0,-1016.5865341005979,-727.5549949421551,-1267.7606147953804
380802.0,12267.0,380802.0,9206.0,380802.0,23944.0,-1024.7439506768324,-733.1415863308401,-1277.6155533645835
380802.0,12254.0,380802.0,9195.0,380802.0,23953.0,-1032.9976009588954,-738.7596018348743,-1287.5356823829427
380802.0,12241.0,380802.0,9205.0,380802.0,23933.0,-1041.3442125895754,-744.4075042922593,-1297.5179121926126
380802.0,12230.0,380802.0,9176.0,380802.0,23916.0,-1049.7795431389259,-750.0830451690309,-1307.5582063324134
380813.0,12221.0,380813.0,9168.0,380813.0,23917.0,-1058.298459652537,-755.7832761001246,-1317.651606128218
380813.0,12231.0,380813.0,9175.0,380813.0,23903.0,-1066.8949812088304,-761.504723670157,-1327.7922922325893
380813.0,12216.0,380813.0,9184.0,380813.0,23887.0,-1075.562175370566,-767.2434563505493,-1337.9735861355973
380813.0,12213.0,380813.0,9185.0,380813.0,23891.0,-1084.291979555131,-772.9948777606738,-1348.1879565939169
380813.0,12189.0,380813.0,9155.0,380813.0,23877.0,-1093.0751114704367,-778.7534588725025,-1358.4270089336235
380813.0,12197.0,380813.0,9151.0,380813.0,23875.0,-1101.9011012577507,-784.5127189383793,-1368.6813987833723
380823.0,12178.0,380823.0,9134.0,380823.0,23856.0,-1110.7583262424132,-790.2654593685854,-1378.940743364379
380823.0,12182.0,380823.0,9153.0,380823.0,23859.0,-1119.633973753254,-796.003981611997,-1389.1935852810777
380823.0,12186.0,380823.0,9161.0,380823.0,23840.0,-1128.513928339606,-801.7200464248493,-1399.4273686749684
380823.0,12165.0,380823.0,9146.0,380823.0,23832.0,-1137.3825838018552,-807.404584895768,-1409.6284179942454
380823.0,12147.0,380823.0,9106.0,380823.0,23829.0,-1146.222720130418,-813.0475156463257,-1419.7819420464791
380823.0,12151.0,380823.0,9114.0,380823.0,23816.0,-1155.0155693055112,-818.6379639641372,-1429.8720192552062
380833.0,12145.0,380833.0,9101.0,380833.0,23804.0,-1163.740890403763,-824.1646484413634,-1439.8815585280697
380833.0,12138.0,380833.0,9138.0,380833.0,23793.0,-1172.376888673527,-829.6160044153406,-1449.7923111290802
380833.0,12114.0,380833.0,9122.0,380833.0,23787.0,-1180.9001168464758,-834.9799292230523,-1459.5849260128302
380833.0,12104.0,380833.0,9119.0,380833.0,23800.0,-1189.28553747755,-840.2433985630444,-1469.23892981144
380833.0,12107.0,380833.0,9082.0,380833.0,23759.0,-1197.5066843356285,-845.3923307712006,-1478.7325956737577
380833.0,12090.0,380833.0,9098.0,380833.0,23764.0,-1205.535733423701,-850.411792524069,-1488.0428878016692
380844.0,12086.0,380844.0,9095.0,380844.0,23752.0,-1213.3434784120186,-855.2862327477183,-1497.1455653589023
380844.0,12089.0,380844.0,9079.0,380844.0,23733.0,-1220.8993024509537,-859.9995064142895,-1506.0152845992945
380844.0,12084.0,380844.0,9096.0,380844.0,23737.0,-1228.1710946920498,-864.5348121745615,-1514.6256615463274
380844.0,12070.0,380844.0,9070.0,380844.0,23725.0,-1235.1251084612145,-868.874659700689,-1522.9493183031923
380844.0,12048.0,380844.0,9065.0,380844.0,23705.0,-1241.725932115673,-873.0008915673172,-1530.9578956323862
380844.0,12046.0,380844.0,9051.0,380844.0,23708.0,-1247.9366546244971,-876.8948411843731,-1538.622115661699
380854.0,12033.0,380854.0,9071.0,380854.0,23703.0,-1253.7190894032174,-880.5375282045902,-1545.9118652769214
380854.0,12030.0,380854.0,9076.0,380854.0,23701.0,-1259.0339199806447,-883.9096430905732,-1552.7961675820973
380854.0,12024.0,380854.0,9056.0,380854.0,23699.0,-1263.8407727776594,-886.9913295501568,-1559.2430687095236
380854.0,12011.0,380854.0,9054.0,380854.0,23670.0,-1268.0982708844144,-889.76206699956,-1565.2195745470794
380854.0,11999.0,380854.0,9034.0,380854.0,23652.0,-1271.7641369227229,-892.2008095233534,-1570.6917901947854
380854.0,11997.0,380854.0,9035.0,380854.0,23645.0,-1274.7953746617056,-894.2862524752804,-1575.625285475613
380864.0,11977.0,380864.0,9040.0,380864.0,23642.0,-1277.1484761107608,-895.9970553812389,-1579.9854649829404
380864.0,12003.0,380864.0,9025.0,380864.0,23654.0,-1278.779586670748,-897.3119388576151,-1583.7377252117144
380864.0,11978.0,380864.0,9025.0,380864.0,23647.0,-1279.6445589178347,-898.2097432524095,-1586.847387746719
380864.0,11972.0,380864.0,9023.0,380864.0,23623.0,-1279.6989713139737,-898.6695508811847,-1589.2796039030197
380864.0,11950.0,380864.0,9008.0,380864.0,23607.0,-1278.8983338546943,-898.6708361129921,-1590.9995031170351
380864.0,11936.0,380864.0,9017.0,380864.0,23611.0,-1277.1985225609774,-898.1936298138919,-1591.9725882358007
380875.0,11943.0,380875.0,9020.0,380875.0,23611.0,-1274.556278302786,-897.2186603582688,-1592.1650793167119
380875.0,11945.0,380875.0,9024.0,380875.0,23606.0,-1270.929569002165,-895.7273747130453,-1591.5440512216344
380875.0,11935.0,380875.0,9024.0,380875.0,23609.0,-1266.2777599445744,-893.7018806910485,-1590.0774915641646
380875.0,11928.0,380875.0,9009.0,380875.0,23606.0,-1260.5617817585999,-891.1249566803108,-1587.7343853052002
380875.0,11940.0,380875.0,8997.0,380875.0,23587.0,-1253.7444127255226,-887.9802468016937,-1584.484859408652
380875.0,11942.0,380875.0,9005.0,380875.0,23600.0,-1245.7905329936737,-884.252621810646,-1580.3004391491418
380885.0,11946.0,380885.0,9031.0,380885.0,23617.0,-1236.667260829271,-879.928453302299,-1575.1542935860693
380885.0,11955.0,380885.0,9031.0,380885.0,23618.0,-1226.344061078877,-874.9955770724887,-1569.0212647015542
380885.0,11953.0,380885.0,9025.0,380885.0,23610.0,-1214.7928916620635,-869.4431120185719,-1561.8778004660699
380885.0,11947.0,380885.0,9033.0,380885.0,23611.0,-1201.988429551763,-863.2614486489801,-1553.7020719155457
380885.0,11966.0,380885.0,9027.0,380885.0,23613.0,-1187.908407499231,-856.4424196944053,-1544.4742790448822
380885.0,11986.0,380885.0,9040.0,380885.0,23631.0,-1172.5339145846835,-848.9794973019759,-1534.1769458700467
380895.0,12000.0,380895.0,9081.0,380895.0,23657.0,-1155.8494933392822,-840.8678693413393,-1522.7950373243398
380895.0,12000.0,380895.0,9063.0,380895.0,23667.0,-1137.843149397142,-832.1042837272,-1510.3158580754555
380895.0,12030.0,380895.0,9105.0,380895.0,23677.0,-1118.5064704736453,-822.6868045974296,-1496.7288875498334
380895.0,12032.0,380895.0,9080.0,380895.0,23683.0,-1097.8348186265762,-812.6146909191775,-1482.025755968571
380895.0,12061.0,380895.0,9092.0,380895.0,23696.0,-1075.8274989282168,-801.8884562728108,-1466.2003880404873
380895.0,12075.0,380895.0,9114.0,380895.0,23714.0,-1052.4879087397967,-790.5100774553373,-1449.2491972025666
380906.0,12119.0,380906.0,9136.0,380906.0,23747.0,-1027.8236291545586,-778.4831151077886,-1431.1711929858338
380906.0,12136.0,380906.0,9140.0,380906.0,23777.0,-1001.8463917121525,-765.8126066628276,-1411.9679004319853
380906.0,12173.0,380906.0,9157.0,380906.0,23787.0,-974.571968704719,-752.5049439855393,-1391.6431442066344
380906.0,12194.0,380906.0,9161.0,380906.0,23823.0,-946.0200919254653,-738.5678913691489,-1370.2028835399783
380906.0,12235.0,380906.0,9179.0,380906.0,23838.0,-916.2144175599492,-724.0106890360006,-1347.6551525096445
380906.0,12265.0,380906.0,9220.0,380906.0,23863.0,-885.1824799142524,-708.844106300167,-1324.0100386874678
380916.0,12311.0,380916.0,9238.0,380916.0,23892.0,-852.9555886895125,-693.0802842166366,-1299.2796938150323
380916.0,12332.0,380916.0,9258.0,380916.0,23932.0,-819.568691169756,-676.7324139136091,-1273.4783215369075
380916.0,12375.0,380916.0,9258.0,380916.0,23955.0,-785.0602853267986,-659.8145234173425,-1246.6220588222611
380916.0,12416.0,380916.0,9284.0,380916.0,23983.0,-749.4723928265214,-642.3415081314837,-1218.7288335841552
380916.0,12444.0,380916.0,9314.0,380916.0,24006.0,-712.8505137857167,-624.3292345224446,-1189.8183355837411
380916.0,12499.0,380916.0,9330.0,380916.0,24058.0,-675.24356393912,-605.7944999879443,-1159.9120575370384
380926.0,12542.0,380926.0,9354.0,380926.0,24090.0,-636.7037805981151,-586.7548888670208,-1129.033229719245
380926.0,12607.0,380926.0,9385.0,380926.0,24121.0,-597.2864946293613,-567.2286515405148,-1097.2066291537585
380926.0,12638.0,380926.0,9384.0,380926.0,24165.0,-557.0497768799652,-547.2346161704162,-1064.4584204809275
380926.0,12689.0,380926.0,9423.0,380926.0,24180.0,-516.0541232027065,-526.7921729598193,-1030.8160965079564
380926.0,12743.0,380926.0,9449.0,380926.0,24239.0,-474.36225715001103,-505.9212918709418,-996.308485209632
380926.0,12800.0,380926.0,9466.0,380926.0,24264.0,-432.0389148122713,-484.642437582119,-960.9657474076371
380937.0,12839.0,380937.0,9491.0,380937.0,24319.0,-389.1505348916599,-462.97645388894597,-924.8192913367587
380937.0,12896.0,380937.0,9517.0,380937.0,24358.0,-345.76497738557157,-440.9445281896707,-887.901619307424
380937.0,12944.0,380937.0,9521.0,380937.0,24387.0,-301.9513213448739,-418.5682070456311,-850.2461722271453
380937.0,12992.0,380937.0,9552.0,380937.0,24429.0,-257.7796727263203,-395.86948843574265,-811.8872741347957
380937.0,13059.0,380937.0,9593.0,380937.0,24469.0,-213.32094772179062,-372.8709292917306,-772.8601898265406
380937.0,13102.0,380937.0,9614.0,380937.0,24528.0,-168.64659893786575,-349.5955712979377,-733.201138630747
380947.0,13165.0,380947.0,9663.0,380947.0,24573.0,-123.8282922479284,-326.06668624713734,-692.947143786037
380947.0,13212.0,380947.0,9662.0,380947.0,24607.0,-78.93759878619517,-302.307512222238,-652.135797194954
380947.0,13252.0,380947.0,9683.0,380947.0,24647.0,-34.04574833245226,-278.3411599610809,-610.8051407233477
380947.0,13309.0,380947.0,9706.0,380947.0,24678.0,10.776511685215837,-254.1907655511015,-568.9937437728561
380947.0,13359.0,380947.0,9749.0,380947.0,24755.0,55.459006494685354,-229.87967418742693,-526.740822086628
380947.0,13423.0,380947.0,9769.0,380947.0,24802.0,99.93231552034126,-205.43141341850674,-484.08614356917917
380957.0,13485.0,380957.0,9813.0,380957.0,24847.0,144.1281061211888,-180.86950571326167,-441.0696975858202
380957.0,13520.0,380957.0,9833.0,380957.0,24882.0,187.979550943783,-156.21725315225916,-397.73142393834394
380957.0,13560.0,380957.0,9836.0,380957.0,24919.0,231.4216206352089,-131.4976088327254,-354.1112046149192
380957.0,13608.0,380957.0,9866.0,380957.0,24966.0,274.3911286101194,-106.73327791473343,-310.2490279726866
380957.0,13670.0,380957.0,9911.0,380957.0,25020.0,316.8267202093149,-81.94692411463569,-266.18512775413603
380957.0,13717.0,380957.0,9943.0,380957.0,25085.0,358.66904305011985,-57.161140921968354,-221.95993373844885
380968.0,13762.0,380968.0,9960.0,380968.0,25131.0,399.86105401168027,-32.398192874288156,-177.61380843574943
380968.0,13811.0,380968.0,9980.0,380968.0,25167.0,440.34828466693045,-7.6798539993969825,-133.1867526708162
380968.0,13848.0,380968.0,9996.0,380968.0,25206.0,480.0790184394971,16.972513613614524,-88.71831754542177
380968.0,13879.0,380968.0,10041.0,380968.0,25256.0,519.0043832744698,41.53779764916021,-44.24772552729348
380968.0,13930.0,380968.0,10081.0,380968.0,25320.0,557.0783432871731,65.9951454899068,0.18604144323421679
380968.0,13973.0,380968.0,10091.0,380968.0,25343.0,594.2577002568592,90.32420155807279,44.544321670513455
380978.0,14009.0,380978.0,10108.0,380978.0,25399.0,630.5022137165699,114.50528538200228,88.78885454389797
380978.0,14031.0,380978.0,10124.0,380978.0,25430.0,665.7747175943491,138.5192823688867,132.8817180507516
380978.0,14070.0,380978.0,10142.0,380978.0,25483.0,700.0410788860354,162.34736732434908,176.7852092032167
380978.0,14106.0,380978.0,10186.0,380978.0,25533.0,733.2700764686733,185.97078597654559,220.46178194162928
380978.0,14148.0,380978.0,10221.0,380978.0,25582.0,765.4333792518448,209.37086511205473,263.87409635834615
380978.0,14173.0,380978.0,10233.0,380978.0,25632.0,796.5056449194058,232.529239791666,306.985160225512
380989.0,14197.0,380989.0,10261.0,380989.0,25683.0,826.4645964985737,255.42803921608083,349.7584972570364
380989.0,14226.0,380989.0,10286.0,380989.0,25703.0,855.2909723472205,278.04990434302215,392.1582684283883
380989.0,14243.0,380989.0,10291.0,380989.0,25754.0,882.9683907596393,300.3779390224289,434.1492342116028
380989.0,14279.0,380989.0,10333.0,380989.0,25796.0,909.4832107687821,322.3956296186436,475.69659531882394
380989.0,14300.0,380989.0,10357.0,380989.0,25853.0,934.8244463453168,344.0868024770267,516.7659316636057
380989.0,14324.0,380989.0,10386.0,380989.0,25882.0,958.9837465827313,365.43573714826425,557.3232993606018
380999.0,14350.0,380999.0,10396.0,380999.0,25936.0,981.9553896121038,386.4273326864196,597.3353391518631
380999.0,14358.0,380999.0,10418.0,380999.0,25968.0,1003.7362480230772,407.0471453968495,636.7693224855991
380999.0,14387.0,380999.0,10432.0,380999.0,26008.0,1024.325707767351,427.2812924542428,675.593160616655
380999.0,14398.0,380999.0,10460.0,380999.0,26058.0,1043.7255629116723,447.1163331667203,713.7753960071993
380999.0,14415.0,380999.0,10490.0,380999.0,26103.0,1061.9399287633635,466.5392416678327,751.2852539728694
380999.0,14422.0,380999.0,10511.0,380999.0,26141.0,1078.9751368887105,485.5375200439813,788.0928021427014
381008.0,14431.0,381008.0,10522.0,381008.0,26180.0,1094.839561303536,504.09935315863527,824.1691134996274
381008.0,14452.0,381008.0,10539.0,381008.0,26197.0,1109.543414087719,522.2136436822453,859.486310527343
381008.0,14470.0,381008.0,10559.0,381008.0,26251.0,1123.0986255102987,539.8699256890407,894.0174752153466
381008.0,14464.0,381008.0,10575.0,381008.0,26297.0,1135.5188306005991,557.0582826538894,927.7365937987433
381008.0,14484.0,381008.0,10593.0,381008.0,26311.0,1146.8193160759686,573.7693167375462,960.6186706749918
381008.0,14485.0,381008.0,10618.0,381008.0,26353.0,1157.0168846910237,589.9941514712682,992.6398241388467
381019.0,14483.0,381019.0,10629.0,381019.0,26386.0,1166.1297113958408,605.7244762427747,1023.7772392787015
381019.0,14483.0,381019.0,10634.0,381019.0,26402.0,1174.1771462430481,620.952574185548,1054.0091063069253
381019.0,14476.0,381019.0,10661.0,381019.0,26451.0,1181.1794169164332,635.6712527947852,1083.3145693531671
381019.0,14511.0,381019.0,10674.0,381019.0,26492.0,1187.157355731989,649.873768590289,1111.6737329780033
381019.0,14518.0,381019.0,10696.0,381019.0,26530.0,1192.1323690237664,663.5538634379604,1139.067872793533
381019.0,14513.0,381019.0,10701.0,381019.0,26539.0,1196.1266462197284,676.7058520391433,1165.4797294144778
381029.0,14505.0,381029.0,10705.0,381029.0,26563.0,1199.1632841214039,689.3246272272686,1190.893594932771
381029.0,14506.0,381029.0,10713.0,381029.0,26595.0,1201.2661496074818,701.4055205235793,1215.295176288253
381029.0,14510.0,381029.0,10741.0,381029.0,26614.0,1202.459662151679,712.9441213309742,1238.671470800556
381029.0,14512.0,381029.0,10767.0,381029.0,26652.0,1202.7686876401795,723.9362775299401,1261.0107676590135
381029.0,14497.0,381029.0,10769.0,381029.0,26664.0,1202.2185143703396,734.3783221433371,1282.3027211561468
381029.0,14504.0,381029.0,10767.0,381029.0,26688.0,1200.8347829352522,744.2672610981149,1302.538413075452
381039.0,14490.0,381039.0,10768.0,381039.0,26707.0,1198.6433631077634,753.6006854287687,1321.7103479081622
381039.0,14483.0,381039.0,10791.0,381039.0,26725.0,1195.6702274907768,762.3765233743934,1339.8124135714706
381039.0,14480.0,381039.0,10803.0,381039.0,26752.0,1191.941304910977,770.5929218432088,1356.8398706106914
381039.0,14477.0,381039.0,10822.0,381039.0,26760.0,1187.4823511700076,778.2483544536553,1372.789382229854
381039.0,14477.0,381039.0,10827.0,381039.0,26779.0,1182.31891321863,785.3418266955255,1387.659038762734
381039.0,14450.0,381039.0,10829.0,381039.0,26799.0,1176.4763333063813,791.8730204106209,1401.4483483641884
381050.0,14453.0,381050.0,10839.0,381050.0,26802.0,1169.9796627645633,797.8423128664456,1414.1582344619499
381050.0,14442.0,381050.0,10851.0,381050.0,26818.0,1162.8535088899234,803.2507473358096,1425.7910197516878
381050.0,14449.0,381050.0,10859.0,381050.0,26829.0,1155.1219780423146,808.1000745711783,1436.350364330381
381050.0,14433.0,381050.0,10878.0,381050.0,26851.0,1146.8087566602062,812.3928853784316,1445.8412428931488
381050.0,14445.0,381050.0,10865.0,381050.0,26871.0,1137.937248465936,816.1327694746797,1454.2700519457785
381050.0,14415.0,381050.0,10859.0,381050.0,26858.0,1128.5307104296803,819.3243528153257,1461.6447881864012
381060.0,14407.0,381060.0,10851.0,381060.0,26873.0,1118.6123017383463,821.9730979243714,1467.9751055981417
381060.0,14393.0,381060.0,10884.0,381060.0,26858.0,1108.2049863299128,824.085037074389,1473.2721781430096
381060.0,14395.0,381060.0,10882.0,381060.0,26880.0,1097.3314197872492,825.6667518194508,1477.548497267198
381060.0,14370.0,381060.0,10875.0,381060.0,26881.0,1086.0139473446059,826.7255723797016,1480.8177556403245
381060.0,14363.0,381060.0,10875.0,381060.0,26878.0,1074.2746252555446,827.2696708467722,1483.094849108624
381060.0,14358.0,381060.0,10873.0,381060.0,26860.0,1062.1351959940043,827.3079629773376,1484.3958325018962
381070.0,14321.0,381070.0,10878.0,381070.0,26884.0,1049.6170610976499,826.8499984230882,1484.737727630604
381070.0,14339.0,381070.0,10871.0,381070.0,26888.0,1036.7412347616826,825.9059220836855,1484.1384055668693
381070.0,14325.0,381070.0,10864.0,381070.0,26897.0,1023.5283543929572,824.4864374697577,1482.616728843682
381070.0,14312.0,381070.0,10890.0,381070.0,26877.0,1009.9988587487369,822.6027596074236,1480.1927728848236
381070.0,14285.0,381070.0,10840.0,381070.0,26878.0,996.1731488332473,820.2666138036877,1476.887869043534
381070.0,14269.0,381070.0,10859.0,381070.0,26859.0,982.0715325658014,817.4901503940648,1472.724454436184
381081.0,14269.0,381081.0,10849.0,381081.0,26857.0,967.7140739842076,814.285718431885,1467.7258533548488
381081.0,14254.0,381081.0,10876.0,381081.0,26854.0,953.1205729841199,810.6657832730646,1461.9160907236587
381081.0,14250.0,381081.0,10855.0,381081.0,26855.0,938.3107093490261,806.64311312876,1455.3198198210807
381081.0,14226.0,381081.0,10853.0,381081.0,26856.0,923.304212816525,802.2309832413649,1447.9623938493432
381081.0,14199.0,381081.0,10830.0,381081.0,26830.0,908.1209168826266,797.4431625187765,1439.8699834162994
381081.0,14185.0,381081.0,10825.0,381081.0,26815.0,892.7806370178654,792.2936963644504,1431.0695529284246
381091.0,14178.0,381091.0,10830.0,381091.0,26808.0,877.3029981253866,786.7966694190856,1421.5886464813134
381091.0,14167.0,381091.0,10834.0,381091.0,26811.0,861.7074089259164,780.966146087087,1411.455196892765
381091.0,14164.0,381091.0,10842.0,381091.0,26806.0,846.0132089434607,774.8163470811502,1400.6975532910603
381091.0,14117.0,381091.0,10829.0,381091.0,26768.0,830.2398296127161,768.3619320108322,1389.3446069569065
381091.0,14125.0,381091.0,10782.0,381091.0,26762.0,814.4067928178612,761.6181143510572,1377.4257352300715
381091.0,14100.0,381091.0,10773.0,381091.0,26752.0,798.5336130163673,754.6003634469449,1364.9705706427947
381101.0,14087.0,381101.0,10797.0,381101.0,26738.0,782.6397864748858,747.3239156754735,1352.0088533683033
381101.0,14075.0,381101.0,10798.0,381101.0,26729.0,766.7448366304242,739.8036588851097,1338.5704226927392
381101.0,14057.0,381101.0,10797.0,381101.0,26719.0,750.8683461394471,732.0544746183127,1324.685247387898
381101.0,14036.0,381101.0,10779.0,381101.0,26694.0,735.0299770062869,724.0916025339524,1310.3834535455794
381101.0,14015.0,381101.0,10743.0,381101.0,26681.0,719.2494255406006,715.9306946552972,1295.6952902168896
381101.0,13993.0,381101.0,10767.0,381101.0,26658.0,703.5462912712943,707.5875832344211,1280.651005574891
381112.0,13999.0,381112.0,10736.0,381112.0,26658.0,687.9399563193208,699.0780693336129,1265.280723691155
381112.0,13978.0,381112.0,10746.0,381112.0,26647.0,672.4496162562249,690.4179036299855,1249.6144423723495
381112.0,13967.0,381112.0,10737.0,381112.0,26618.0,657.0944415835372,681.6228476289548,1233.6821389405138
381112.0,13943.0,381112.0,10708.0,381112.0,26606.0,641.8936870758121,672.7087196621071,1217.5138069229884
381112.0,13935.0,381112.0,10707.0,381112.0,26577.0,626.8666836064231,663.6913300448997,1201.1393437574454
381112.0,13893.0,381112.0,10680.0,381112.0,26562.0,612.0327543307503,654.5862805990919,1184.5883755630182
381122.0,13892.0,381122.0,10711.0,381122.0,26549.0,597.4110424600483,645.4088142124733,1167.8901009850604
381122.0,13879.0,381122.0,10675.0,381122.0,26535.0,583.0203309513151,636.1738717824308,1151.0732219637127
381122.0,13863.0,381122.0,10682.0,381122.0,26516.0,568.8790072977608,626.8962467693217,1134.1659645301938
381122.0,13835.0,381122.0,10659.0,381122.0,26490.0,555.0050898404058,617.5906324797436,1117.19608144569
381122.0,13822.0,381122.0,10649.0,381122.0,26462.0,541.4161288242973,608.2715514817709,1100.1907325607576
381122.0,13820.0,381122.0,10641.0,381122.0,26464.0,528.1290483997008,598.9532435785842,1083.176284497013
381132.0,13798.0,381132.0,10655.0,381132.0,26457.0,515.160107088335,589.6496171049512,1066.1782453118253
381132.0,13805.0,381132.0,10632.0,381132.0,26438.0,502.5249761672444,580.3743723665209,1049.2214365028467
381132.0,13786.0,381132.0,10614.0,381132.0,26429.0,490.2388666365107,571.1411449920392,1032.330217367114
381132.0,13758.0,381132.0,10589.0,381132.0,26400.0,478.3166293841863,561.9634076950949,1015.5285909168496
381132.0,13739.0,381132.0,10590.0,381132.0,26371.0,466.7726681815322,552.8541725033637,998.8401521115758
381132.0,13749.0,381132.0,10591.0,381132.0,26362.0,455.6207115740949,543.8257824136797,982.2878877490012
381143.0,13729.0,381143.0,10601.0,381143.0,26366.0,444.87373057154895,534.8899883543193,965.8940195061673
381143.0,13725.0,381143.0,10596.0,381143.0,26338.0,434.5440401432604,526.0582624847998,949.6800856885258
381143.0,13698.0,381143.0,10555.0,381143.0,26317.0,424.64335946657206,517.3420762714529,933.6670929989526
381143.0,13690.0,381143.0,10537.0,381143.0,26288.0,415.18272124780924,508.7528211940176,917.8754603796967
381143.0,13674.0,381143.0,10539.0,381143.0,26287.0,406.1722944962095,500.3014121871968,902.3248007932804
381143.0,13656.0,381143.0,10537.0,381143.0,26277.0,397.6212013441846,491.99799843237554,887.0337993188308
381153.0,13675.0,381153.0,10549.0,381153.0,26252.0,389.5373882983958,483.8520219714613,872.0202699026452
381153.0,13663.0,381153.0,10529.0,381153.0,26254.0,381.9276690027203,475.8724801302532,857.3012383792758
381153.0,13662.0,381153.0,10512.0,381153.0,26215.0,374.7979402784615,468.06810812281645,842.8929540472028
381153.0,13643.0,381153.0,10488.0,381153.0,26203.0,368.1533546809869,460.4472832195085,828.8108029393788
381153.0,13627.0,381153.0,10496.0,381153.0,26197.0,361.99829557719505,453.01773721652626,815.0691323822535
381153.0,13637.0,381153.0,10511.0,381153.0,26189.0,356.33622135912,445.78641085119125,801.6811603862737
381163.0,13621.0,381163.0,10504.0,381163.0,26190.0,351.1695648345079,438.75965228518754,788.65908475558
381163.0,13614.0,381163.0,10488.0,381163.0,26163.0,346.4997281575955,431.9435428912975,776.0142761358597
381163.0,13607.0,381163.0,10472.0,381163.0,26151.0,342.3270356090459,425.34399800822786,763.7573684211918
381163.0,13617.0,381163.0,10451.0,381163.0,26124.0,338.6506563221433,418.9665777062187,751.8981571070228
381163.0,13605.0,381163.0,10452.0,381163.0,26115.0,335.4686244387404,412.81617736575777,740.4453740520652
381163.0,13603.0,381163.0,10466.0,381163.0,26119.0,332.77791017579045,406.8968366910959,729.4065042789155
381174.0,13608.0,381174.0,10457.0,381174.0,26112.0,330.5744406792939,401.21182687534736,718.7878003582788
381174.0,13604.0,381174.0,10448.0,381174.0,26104.0,328.85312135534764,395.76387007805397,708.594465801873
381174.0,13600.0,381174.0,10447.0,381174.0,26087.0,327.60789018853416,390.5552381424088,698.830806911431
381174.0,13593.0,381174.0,10430.0,381174.0,26075.0,326.8317181918272,385.58771629611965,689.5002335138248
381174.0,13589.0,381174.0,10417.0,381174.0,26067.0,326.5165177333766,380.8624884262776,680.6051549874179
381174.0,13612.0,381174.0,10443.0,381174.0,26075.0,326.65306015365553,376.3799964880735,672.1469131294989
381184.0,13603.0,381184.0,10445.0,381184.0,26059.0,327.23104459485376,372.13999459460695,664.125852972425
381184.0,13602.0,381184.0,10424.0,381184.0,26062.0,328.23925560467,368.1418281276625,656.5414606735087
381184.0,13610.0,381184.0,10406.0,381184.0,26051.0,329.6656256878436,364.3845574162085,649.3924591845746
381184.0,13618.0,381184.0,10407.0,381184.0,26044.0,331.49724971198657,360.8667418443274,642.6768536206755
381184.0,13620.0,381184.0,10426.0,381184.0,26034.0,333.7204830982614,357.5862082145186,636.3919243440556
381184.0,13619.0,381184.0,10416.0,381184.0,26033.0,336.32106147759305,354.5401069717517,630.5341738984157
381194.0,13618.0,381194.0,10412.0,381194.0,26027.0,339.28412892417794,351.72511672163847,625.0992906162662
381194.0,13638.0,381194.0,10411.0,381194.0,26018.0,342.5942116535698,349.1375279785949,620.0821452019835
381194.0,13627.0,381194.0,10401.0,381194.0,26013.0,346.23525099339486,346.77320017846887,615.4767637656048
381194.0,13639.0,381194.0,10409.0,381194.0,26021.0,350.1906698182931,344.6275013558889,611.276287591427
381194.0,13650.0,381194.0,10420.0,381194.0,26015.0,354.44340618487865,342.6953196636213,607.4730109011508
381194.0,13652.0,381194.0,10419.0,381194.0,26029.0,358.9759814843895,340.9712197365064,604.0585170691268
381205.0,13653.0,381205.0,10411.0,381205.0,26022.0,363.77059556864685,339.44964490079684,601.023864966962
381205.0,13659.0,381205.0,10404.0,381205.0,26016.0,368.80914418033296,338.12497314916254,598.3597508290197
381205.0,13662.0,381205.0,10408.0,381205.0,26008.0,374.0731754523811,336.9914209885987,596.0565406919195
381205.0,13666.0,381205.0,10392.0,381205.0,26003.0,379.54385082101095,336.0429208137246,594.1041635891967
381205.0,13681.0,381205.0,10413.0,381205.0,26007.0,385.2019311866002,335.2730327050979,592.4919771172454
381205.0,13687.0,381205.0,10426.0,381205.0,26012.0,391.0278253583245,334.6749819163963,591.2087190270258
381215.0,13700.0,381215.0,10398.0,381215.0,25998.0,397.0017094985737,334.2418526131471,590.2425472094264
381215.0,13702.0,381215.0,10395.0,381215.0,26013.0,403.10365748751923,333.9666567837336,589.5810652281122
381215.0,13704.0,381215.0,10401.0,381215.0,26008.0,409.31371201696595,333.84213081433364,589.2113277105362
381215.0,13722.0,381215.0,10403.0,381215.0,26012.0,415.6118889617087,333.86054732248965,589.1198927793205
381215.0,13724.0,381215.0,10414.0,381215.0,26032.0,421.97820066904524,334.01373676218213,589.2929239646393
381215.0,13734.0,381215.0,10419.0,381215.0,26012.0,428.39273523873726,334.2932401250442,589.7163379824885
381226.0,13743.0,381226.0,10427.0,381226.0,26012.0,434.8357317271601,334.69051002710006,590.3758875192943
381226.0,13746.0,381226.0,10402.0,381226.0,26011.0,441.2876337047186,335.197057241901,591.2570580539953
381226.0,13749.0,381226.0,10411.0,381226.0,26015.0,447.7291137095928,335.8044012943733,592.3449107197671
381226.0,13760.0,381226.0,10410.0,381226.0,26030.0,454.1410489924505,336.50388407752695,593.624049762369
381226.0,13775.0,381226.0,10431.0,381226.0,26043.0,460.5045200068082,337.2865956842425,595.0787616229782
381226.0,13780.0,381226.0,10412.0,381226.0,26036.0,466.8009071400714,338.1434815406666,596.693263405411
381236.0,13781.0,381236.0,10423.0,381236.0,26036.0,473.01201344176366,339.0654388752155,598.4518730265441
381236.0,13779.0,381236.0,10418.0,381236.0,26033.0,479.1200783605036,340.0432935338587,600.3389882292294
381236.0,13801.0,381236.0,10416.0,381236.0,26039.0,485.1076972433883,341.06773636027924,602.3389741256183
381236.0,13810.0,381236.0,10442.0,381236.0,26055.0,490.95782323502834,342.1293064571792,604.4361196488486
381236.0,13824.0,381236.0,10453.0,381236.0,26068.0,496.65393713408383,343.21853698056714,606.6147646034806
381236.0,13821.0,381236.0,10447.0,381236.0,26061.0,502.18025826176506,344.32627591217516,608.8595472270421
381246.0,13835.0,381246.0,10427.0,381246.0,26045.0,507.52186128438166,345.4438906969832,611.1555319432887
381246.0,13827.0,381246.0,10431.0,381246.0,26054.0,512.6646994976048,346.5631364541959,613.4880660230123
381246.0,13821.0,381246.0,10419.0,381246.0,26065.0,517.5955391013232,347.6758479147856,615.8425639593581
381246.0,13841.0,381246.0,10451.0,381246.0,26069.0,522.3018049195852,348.7737346274967,618.2044831152745
381246.0,13844.0,381246.0,10455.0,381246.0,26073.0,526.7714897729013,349.84844766727196,620.5594506396756
381246.0,13850.0,381246.0,10452.0,381246.0,26074.0,530.9932270715015,350.89185942495254,622.8933660572047
381257.0,13855.0,381257.0,10453.0,381257.0,26082.0,534.956401546091,351.8962794955111,625.1924415428792
381257.0,13853.0,381257.0,10452.0,381257.0,26068.0,538.6511972956088,352.8544774063502,627.4432046200659
381257.0,13860.0,381257.0,10449.0,381257.0,26074.0,542.0685936118924,353.75962171304377,629.6324252757909
381257.0,13858.0,381257.0,10452.0,381257.0,26084.0,545.2003372293996,354.60521057349615,631.746998284333
381257.0,13862.0,381257.0,10470.0,381257.0,26088.0,548.0389135516385,355.385050685264,633.7739268739168
381257.0,13869.0,381257.0,10457.0,381257.0,26095.0,550.5775312862604,356.09334955420127,635.7004324434771
381267.0,13861.0,381267.0,10435.0,381267.0,26090.0,552.8101288255447,356.72476749073337,637.5140673005106
381267.0,13866.0,381267.0,10439.0,381267.0,26095.0,554.7313621162718,357.2742089355298,639.2027498816142
381267.0,13855.0,381267.0,10456.0,381267.0,26105.0,556.3365296922664,357.73652328066356,640.7547613064066
381267.0,13871.0,381267.0,10461.0,381267.0,26121.0,557.6214755161175,358.10646950279755,642.1588291234423
381267.0,13873.0,381267.0,10464.0,381267.0,26107.0,558.5825729910133,358.3789326322561,643.4043208846574
381267.0,13871.0,381267.0,10453.0,381267.0,26101.0,559.2168226549029,358.54911092798693,644.4813495850223
381277.0,13851.0,381277.0,10451.0,381277.0,26103.0,559.5219078458475,358.6125160708426,645.3806597668997
381277.0,13852.0,381277.0,10452.0,381277.0,26103.0,559.4960505840143,358.56484521661736,646.0934463864877
381277.0,13860.0,381277.0,10464.0,381277.0,26108.0,559.1377830968829,358.40189504592536,646.6112747099152
381277.0,13866.0,381277.0,10466.0,381277.0,26108.0,558.4458839624475,358.1196292538896,646.9260934282161
381277.0,13870.0,381277.0,10468.0,381277.0,26107.0,557.4195234385289,357.7143449732062,647.03027245559
381277.0,13859.0,381277.0,10459.0,381277.0,26108.0,556.0584480222635,357.18279457419106,646.9166191235182
381288.0,13841.0,381288.0,10449.0,381288.0,26106.0,554.3630140335748,356.52216177308907,646.5783689674378
381288.0,13885.0,381288.0,10441.0,381288.0,26097.0,552.3340985600348,355.72988405785736,646.0091513365303
381288.0,13851.0,381288.0,10452.0,381288.0,26118.0,549.9731548797859,354.8034328276743,645.2029442095886
381288.0,13843.0,381288.0,10458.0,381288.0,26117.0,547.2823657859526,353.74023548814324,644.1541297249039
381288.0,13854.0,381288.0,10468.0,381288.0,26111.0,544.2645972764524,352.5378144608091,642.8576708527432
381288.0,13841.0,381288.0,10450.0,381288.0,26110.0,540.9232780067523,351.19400355092614,641.3092272534168
381298.0,13837.0,381298.0,10450.0,381298.0,26097.0,537.2623966642777,349.7070252123762,639.5051173890623
381298.0,13818.0,381298.0,10466.0,381298.0,26102.0,533.2864673973082,348.07543282435404,637.4422039283044
381298.0,13814.0,381298.0,10469.0,381298.0,26102.0,529.0003680533744,346.29816088116945,635.1178077946001
381298.0,13837.0,381298.0,10466.0,381298.0,26096.0,524.4092069065442,344.37474587427016,632.5297096458239
381298.0,13819.0,381298.0,10447.0,381298.0,26091.0,519.518414014683,342.3054790988123,629.6761741104389
381298.0,13804.0,381298.0,10436.0,381298.0,26085.0,514.3339356153209,340.09130521487793,626.5559118532873
381308.0,13800.0,381308.0,10434.0,381308.0,26091.0,508.86223591803565,337.73353940721074,623.1680199989577
381308.0,13789.0,381308.0,10423.0,381308.0,26063.0,503.11014252510864,335.23359941491753,619.5119434502441
381308.0,13782.0,381308.0,10434.0,381308.0,26082.0,497.0847275230548,332.5928556000597,615.5874045123205
381308.0,13777.0,381308.0,10429.0,381308.0,26073.0,490.793244260401,329.81261115208827,611.3943473837804
381308.0,13764.0,381308.0,10417.0,381308.0,26056.0,484.2430872021003,326.89415571864043,606.93296835115
381308.0,13749.0,381308.0,10409.0,381308.0,26068.0,477.4417341497435,323.83874064004544,602.2037203812789
381319.0,13740.0,381319.0,10416.0,381319.0,26043.0,470.3966199940027,320.64745145999586,597.2072576992304
381319.0,13743.0,381319.0,10429.0,381319.0,26057.0,463.1150065152066,317.32117801869487,591.9443992590519
381319.0,13740.0,381319.0,10426.0,381319.0,26053.0,455.6039856025944,313.8608055378846,586.4161495341582
381319.0,13742.0,381319.0,10424.0,381319.0,26029.0,447.8706419627001,310.2674850047682,580.6237745734353
381319.0,13722.0,381319.0,10401.0,381319.0,26033.0,439.922255683431,306.54275818885066,574.568803769097
381319.0,13700.0,381319.0,10378.0,381319.0,26016.0,431.7663663326487,302.6884117809029,568.2529147942854
381329.0,13696.0,381329.0,10401.0,381329.0,26032.0,423.41062549849676,298.70614964753406,561.6778655793496
381329.0,13697.0,381329.0,10395.0,381329.0,26022.0,414.86261966035903,294.59741503425823,554.8455805265462
381329.0,13670.0,381329.0,10396.0,381329.0,26003.0,406.1298412287242,290.3635124168531,547.7583038822827
381329.0,13677.0,381329.0,10379.0,381329.0,26002.0,397.21971036831127,286.0057739637541,540.4186340179469
381329.0,13655.0,381329.0,10370.0,381329.0,25987.0,388.1395562920654,281.5255439078269,532.8294304479377
381329.0,13646.0,381329.0,10377.0,381329.0,25976.0,378.89659218628884,276.9240435174205,524.993716944653
381339.0,13644.0,381339.0,10368.0,381339.0,25980.0,369.49788150347104,272.2023028041134,516.914613035299
381339.0,13631.0,381339.0,10373.0,381339.0,25970.0,359.9503358610651,267.36121761406923,508.59533830155135
381339.0,13626.0,381339.0,10379.0,381339.0,25966.0,350.26077669396034,262.40167742674623,500.0393096146024
381339.0,13607.0,381339.0,10365.0,381339.0,25959.0,340.43598757966333,257.32473751966194,491.2502482243821
381339.0,13597.0,381339.0,10347.0,381339.0,25939.0,330.48269832422847,252.1317180908278,482.2322338520953
381339.0,13585.0,381339.0,10346.0,381339.0,25929.0,320.407514752562,246.82410280768096,472.98966518715145
381350.0,13586.0,381350.0,10348.0,381350.0,25916.0,310.2168749315492,241.40337637485268,463.5271327244411
381350.0,13580.0,381350.0,10366.0,381350.0,25926.0,299.9171206528695,235.87105605991053,453.84933129124533
381350.0,13560.0,381350.0,10346.0,381350.0,25905.0,289.5146475362443,230.2289454582313,443.9611213928951
381350.0,13553.0,381350.0,10326.0,381350.0,25891.0,279.01598783579107,224.47933724168027,433.86763601149084
381350.0,13532.0,381350.0,10311.0,381350.0,25865.0,268.4277731217443,218.62490376957936,423.57423032467705
381350.0,13507.0,381350.0,10301.0,381350.0,25867.0,257.756609002961,212.6683665540099,413.08627822251685
381360.0,13511.0,381360.0,10330.0,381360.0,25855.0,247.008885958892,206.61227233603734,402.40902186659656
381360.0,13499.0,381360.0,10317.0,381360.0,25861.0,236.19065963165548,200.4591043646963,391.5476076801144
381360.0,13492.0,381360.0,10299.0,381360.0,25842.0,225.30770560273157,194.2115709434095,380.50725597878727
381360.0,13486.0,381360.0,10296.0,381360.0,25815.0,214.36565131652554,187.8727028426079,369.2933799121631
381360.0,13452.0,381360.0,10271.0,381360.0,25812.0,203.37005139417528,181.445708894454,357.9115078339916
381360.0,13458.0,381360.0,10284.0,381360.0,25803.0,192.32633936890255,174.93379001835052,346.367130345897
381370.0,13446.0,381370.0,10288.0,381370.0,25796.0,181.23974672741514,168.34008965997336,334.6656843228108
381370.0,13435.0,381370.0,10275.0,381370.0,25785.0,170.11534085736395,161.66785339209787,322.8126555253643
381370.0,13415.0,381370.0,10270.0,381370.0,25777.0,158.95810280335627,154.92062353212938,310.81368426649396
381370.0,13403.0,381370.0,10231.0,381370.0,25755.0,147.77289693271484,148.1022298688607,298.67462740387043
381370.0,13387.0,381370.0,10233.0,381370.0,25747.0,136.5643606789356,141.21653186017218,286.40154813857333
381370.0,13397.0,381370.0,10247.0,381370.0,25723.0,125.33684169728298,134.26713681068316,274.0006374741099
381381.0,13363.0,381381.0,10235.0,381381.0,25714.0,114.09445513361578,127.25740353321316,261.47810356321645
381381.0,13365.0,381381.0,10233.0,381381.0,25711.0,102.84115765268325,120.19066661650157,248.84008945099663
381381.0,13349.0,381381.0,10223.0,381381.0,25699.0,91.5807449979581,113.07039179486407,236.09270602982434
381381.0,13335.0,381381.0,10200.0,381381.0,25683.0,80.3168417577375,105.900177311498,223.24214964700707
381381.0,13326.0,381381.0,10179.0,381381.0,25653.0,69.0529014248857,98.68358699498833,210.2947321466175
381381.0,13304.0,381381.0,10190.0,381381.0,25648.0,57.79217210825129,91.42386350176236,197.2567421921022
381391.0,13305.0,381391.0,10212.0,381391.0,25643.0,46.537643970937324,84.12382719063015,184.13429146499908
381391.0,13308.0,381391.0,10198.0,381391.0,25634.0,35.29207340200509,76.7861709888976,170.93333778623747
381391.0,13281.0,381391.0,10169.0,381391.0,25606.0,24.058146556025804,69.41383140651396,157.65981412812312
381391.0,13266.0,381391.0,10156.0,381391.0,25590.0,12.838608126890335,62.00998836427749,144.31963261570843
381391.0,13255.0,381391.0,10143.0,381391.0,25577.0,1.636193367425392,54.57774433130356,130.91853094186877
381391.0,13236.0,381391.0,10139.0,381391.0,25565.0,-9.546517337691228,47.119822653764345,117.46193099431991
381401.0,13231.0,381401.0,10155.0,381401.0,25550.0,-20.707195965477865,39.63847925257738,103.9548965259321
381401.0,13238.0,381401.0,10135.0,381401.0,25517.0,-31.843767930924344,32.1356458142148,90.40209255172886
381401.0,13205.0,381401.0,10131.0,381401.0,25518.0,-42.95428444533297,24.61313035850236,76.80764714357667
381401.0,13194.0,381401.0,10120.0,381401.0,25506.0,-54.036832172755794,17.072676792296363,63.17502272590207
381401.0,13181.0,381401.0,10138.0,381401.0,25509.0,-65.08963000636737,9.515970406457427,49.50707482252301
381401.0,13178.0,381401.0,10117.0,381401.0,25499.0,-76.11115517945876,1.9447713905519777,35.806288018949544
381412.0,13175.0,381412.0,10097.0,381412.0,25481.0,-87.10011663655445,-5.638937021262279,22.075037261847797
381412.0,13163.0,381412.0,10093.0,381412.0,25482.0,-98.0552979783181,-13.233012489617352,8.315761079457957
381412.0,13138.0,381412.0,10071.0,381412.0,25458.0,-108.97542382919335,-20.83536894901448,-5.468933123821216
381412.0,13121.0,381412.0,10079.0,381412.0,25436.0,-119.85920549766729,-28.444153266755734,-19.276221665102867
381412.0,13117.0,381412.0,10073.0,381412.0,25440.0,-130.70552752248915,-36.05779420577676,-33.10311361259346
381412.0,13118.0,381412.0,10065.0,381412.0,25410.0,-141.5135464682661,-43.67491768185107,-46.94649718047822
381422.0,13109.0,381422.0,10070.0,381422.0,25382.0,-152.2825745147773,-51.29421538900124,-60.80317549459164
381422.0,13097.0,381422.0,10048.0,381422.0,25383.0,-163.01186929453343,-58.91433969539065,-74.67002539757152
381422.0,13078.0,381422.0,10030.0,381422.0,25369.0,-173.700518211815,-66.53389568571896,-88.54414988172005
381422.0,13061.0,381422.0,10024.0,381422.0,25349.0,-184.3474840544469,-74.15160324955792,-102.42286437973837
381422.0,13053.0,381422.0,10031.0,381422.0,25345.0,-194.9517471717151,-81.76647950642848,-116.30364248119145
381422.0,13053.0,381422.0,10021.0,381422.0,25333.0,-205.51239854620792,-89.37782709596343,-130.18408390148807
381432.0,13045.0,381432.0,10018.0,381432.0,25316.0,-216.0285745141838,-96.98508300741145,-144.06184205503075
381432.0,13023.0,381432.0,9993.0,381432.0,25302.0,-226.4993120925257,-104.58773236992477,-157.9345659555554
381432.0,13009.0,381432.0,9998.0,381432.0,25285.0,-236.92351719745932,-112.18536614999215,-171.7999172359032
381432.0,12982.0,381432.0,9987.0,381432.0,25265.0,-247.30011459572597,-119.77777349409212,-185.65563808273373
381432.0,12993.0,381432.0,9997.0,381432.0,25265.0,-257.6282602257879,-127.36492100028852,-199.4996256434514
381432.0,12987.0,381432.0,9993.0,381432.0,25254.0,-267.90740343462744,-134.94678654896956,-213.32992191475637
381443.0,12972.0,381443.0,9971.0,381443.0,25241.0,-278.1371344010356,-142.5231569788341,-227.14458478221934
381443.0,12958.0,381443.0,9957.0,381443.0,25213.0,-288.317029257532,-150.0935879372542,-240.94158396344085
381443.0,12943.0,381443.0,9957.0,381443.0,25200.0,-298.44666089710233,-157.6575603178835,-254.71886155895345
381443.0,12935.0,381443.0,9940.0,381443.0,25183.0,-308.5257006042784,-165.2146349766948,-268.4745006160516
381443.0,12930.0,381443.0,9944.0,381443.0,25181.0,-318.5539810087149,-172.76450455785897,-282.2068398772751
381443.0,12930.0,381443.0,9954.0,381443.0,25169.0,-328.531447520548,-180.30694042140868,-295.91444573486706
381453.0,12914.0,381453.0,9924.0,381453.0,25164.0,-338.4580124226444,-187.8416265909679,-309.59597180506375
381453.0,12901.0,381453.0,9918.0,381453.0,25131.0,-348.3334350726602,-195.36806084344568,-323.2500275971006
381453.0,12882.0,381453.0,9905.0,381453.0,25129.0,-358.15733952635526,-202.88567068514124,-336.87517774898936
381453.0,12870.0,381453.0,9911.0,381453.0,25103.0,-367.92935137921324,-210.39396816868174,-350.47004354715364
381453.0,12873.0,381453.0,9906.0,381453.0,25102.0,-377.649230393336,-217.89254524610976,-364.0333853566166
381453.0,12874.0,381453.0,9908.0,381453.0,25096.0,-387.3168451210098,-225.38092181846497,-377.56409113198436
381464.0,12853.0,381464.0,9891.0,381464.0,25081.0,-396.9319834648612,-232.85836994559145,-391.0610528401851
381464.0,12832.0,381464.0,9863.0,381464.0,25053.0,-406.4942319106674,-240.3238801804585,-404.5230502354334
381464.0,12820.0,381464.0,9863.0,381464.0,25033.0,-416.0030914118354,-247.77635707353784,-417.9488241613375
381464.0,12817.0,381464.0,9864.0,381464.0,25041.0,-425.4581862569222,-255.2148597218934,-431.33727061656475
381464.0,12814.0,381464.0,9853.0,381464.0,25044.0,-434.85933725727705,-262.63864657607235,-444.68744599888976
381464.0,12803.0,381464.0,9860.0,381464.0,25018.0,-444.20647093671346,-270.0470650107104,-457.9982945242547
381474.0,12795.0,381474.0,9851.0,381474.0,24989.0,-453.4994982976292,-277.4394091327249,-471.2684358180918
381474.0,12780.0,381474.0,9826.0,381474.0,24973.0,-462.7382643557803,-284.8148166822359,-484.49628794402486
381474.0,12768.0,381474.0,9832.0,381474.0,24973.0,-471.9225785686924,-292.172306238018,-497.68033568827605
381474.0,12771.0,381474.0,9840.0,381474.0,24968.0,-481.0522695010968,-299.510847500655,-510.8192061921229
381474.0,12768.0,381474.0,9823.0,381474.0,24956.0,-490.12714636065743,-306.8292521972188,-523.9115074623528
381474.0,12759.0,381474.0,9809.0,381474.0,24937.0,-499.14683098604144,-314.12601920913505,-536.955644323203
381484.0,12727.0,381484.0,9787.0,381484.0,24903.0,-508.1106323136488,-321.39939704766186,-549.9498162554963
381484.0,12712.0,381484.0,9777.0,381484.0,24911.0,-517.0176657102003,-328.64764956071815,-562.8922052732108
381484.0,12710.0,381484.0,9792.0,381484.0,24898.0,-525.8671504119484,-335.8692982706998,-575.7811211704385
381484.0,12707.0,381484.0,9776.0,381484.0,24893.0,-534.6585977310056,-343.06313902728846,-588.6149281367447
381484.0,12696.0,381484.0,9773.0,381484.0,24872.0,-543.3917767261557,-350.2280998070054,-601.3918863648797
381484.0,12703.0,381484.0,9774.0,381484.0,24852.0,-552.0665828266018,-357.36313600204085,-614.1101110802032
381495.0,12683.0,381495.0,9755.0,381495.0,24826.0,-560.6828964399317,-364.4671774026318,-626.7677097635252
381495.0,12674.0,381495.0,9743.0,381495.0,24834.0,-569.2404882161184,-371.539132980706,-639.363002515556
381495.0,12668.0,381495.0,9746.0,381495.0,24812.0,-577.7390296627489,-378.57799398536326,-651.8946273013245
381495.0,12668.0,381495.0,9746.0,381495.0,24815.0,-586.1781180544284,-385.5828917028308,-664.3614734669682
381495.0,12651.0,381495.0,9750.0,381495.0,24811.0,-594.5572185112105,-392.5529743263611,-676.76253059667
381495.0,12634.0,381495.0,9734.0,381495.0,24800.0,-602.8756264711964,-399.48719403475513,-689.0966810835035
381505.0,12629.0,381505.0,9708.0,381505.0,24777.0,-611.1325598574797,-406.38422287226933,-701.3625194253889
381505.0,12598.0,381505.0,9696.0,381505.0,24763.0,-619.3273344178389,-413.2426391263268,-713.5583439951885
381505.0,12600.0,381505.0,9692.0,381505.0,24740.0,-627.4595736930395,-420.06126079887713,-725.6823132391281
381505.0,12626.0,381505.0,9708.0,381505.0,24730.0,-635.5293241176175,-426.8393267057571,-737.7326530319631
381505.0,12600.0,381505.0,9694.0,381505.0,24735.0,-643.5368688479664,-433.5763876293322,-749.7077918024365
381505.0,12589.0,381505.0,9689.0,381505.0,24704.0,-651.4824285257204,-440.27208766215983,-761.6063465867746
381515.0,12575.0,381515.0,9681.0,381515.0,24700.0,-659.3661193119389,-446.9260664636689,-773.4270794629786
381515.0,12563.0,381515.0,9675.0,381515.0,24680.0,-667.1881236662148,-453.53797637356695,-785.1689600025832
381515.0,12565.0,381515.0,9673.0,381515.0,24676.0,-674.9488391166329,-460.10750106762646,-796.8312609287564
381515.0,12570.0,381515.0,9668.0,381515.0,24680.0,-682.6488795446455,-466.6343312470285,-808.4135595222244
381515.0,12553.0,381515.0,9672.0,381515.0,24664.0,-690.2889188554459,-473.1180892787022,-819.9155982563943
381515.0,12539.0,381515.0,9650.0,381515.0,24645.0,-697.8695551042949,-479.5582351787632,-831.3371220553377
381526.0,12529.0,381526.0,9647.0,381526.0,24633.0,-705.391358981058,-485.95405311585546,-842.6778743218658
381526.0,12522.0,381526.0,9609.0,381526.0,24615.0,-712.8550216391081,-492.30480547291177,-853.9377335334734
381526.0,12524.0,381526.0,9644.0,381526.0,24610.0,-720.2614338822228,-498.60998568364266,-865.1168548270139
381526.0,12516.0,381526.0,9634.0,381526.0,24615.0,-727.6116400238644,-504.8693966651058,-876.2157113439639
381526.0,12507.0,381526.0,9632.0,381526.0,24602.0,-734.9067351984588,-511.0829374882228,-887.2349705747877
381526.0,12494.0,381526.0,9594.0,381526.0,24583.0,-742.1478234689952,-517.2504261374376,-898.1753169954616
381536.0,12494.0,381536.0,9585.0,381536.0,24568.0,-749.3360589586298,-523.3717760885656,-909.0374294215746
381536.0,12482.0,381536.0,9603.0,381536.0,24564.0,-756.472684975952,-529.4473486233501,-919.8221049659235
381536.0,12487.0,381536.0,9605.0,381536.0,24559.0,-763.5590144338445,-535.4780437593347,-930.5303353027105
381536.0,12471.0,381536.0,9605.0,381536.0,24539.0,-770.5963656895095,-541.4650366928807,-941.1632704553151
381536.0,12463.0,381536.0,9593.0,381536.0,24530.0,-777.5860185241984,-547.4094734057953,-951.7221995955338
381536.0,12443.0,381536.0,9572.0,381536.0,24512.0,-784.5292731940185,-553.3123824141122,-962.208631791764
381546.0,12434.0,381546.0,9570.0,381546.0,24513.0,-791.4276246531241,-559.1748167905042,-972.624403812001
381546.0,12453.0,381546.0,9577.0,381546.0,24512.0,-798.2829163176242,-564.9980361979191,-982.9716914875141
381546.0,12440.0,381546.0,9563.0,381546.0,24497.0,-805.0972810689118,-570.7835265282715,-993.2528881532496
381546.0,12433.0,381546.0,9582.0,381546.0,24487.0,-811.8729261027062,-576.5328793670079,-1003.4704775918797
381546.0,12412.0,381546.0,9567.0,381546.0,24478.0,-818.6120388068831,-582.2476182578415,-1013.6270147357138
381546.0,12401.0,381546.0,9543.0,381546.0,24462.0,-825.3169168082794,-587.9290708814735,-1023.7251715507543
381557.0,12406.0,381557.0,9539.0,381557.0,24465.0,-831.9901723627007,-593.578463164444,-1033.7677792155291
381557.0,12404.0,381557.0,9543.0,381557.0,24460.0,-838.6348025701983,-599.1971543264295,-1043.7578017510423
381557.0,12396.0,381557.0,9532.0,381557.0,24448.0,-845.2540828332292,-604.7867375999987,-1053.6982147045183
381557.0,12388.0,381557.0,9541.0,381557.0,24424.0,-851.8514453597589,-610.3489822937195,-1063.5919243828334
381557.0,12378.0,381557.0,9530.0,381557.0,24424.0,-858.430459983044,-615.8857325000595,-1073.4418489648478
381557.0,12363.0,381557.0,9495.0,381557.0,24404.0,-864.9949050460974,-621.3988797682048,-1083.2510662848244
381567.0,12359.0,381567.0,9511.0,381567.0,24410.0,-871.5488938320589,-626.8905392004422,-1093.022892603848
381567.0,12366.0,381567.0,9510.0,381567.0,24401.0,-878.0969673741138,-632.3632609416075,-1102.7608558432505
381567.0,12373.0,381567.0,9521.0,381567.0,24395.0,-884.6440098281813,-637.8199714112628,-1112.4685834119143
381567.0,12358.0,381567.0,9511.0,381567.0,24372.0,-891.1949963820742,-643.2637028853196,-1122.149713796493
381567.0,12340.0,381567.0,9502.0,381567.0,24372.0,-897.7548143685386,-648.6973804900023,-1131.8079329853656
381567.0,12339.0,381567.0,9487.0,381567.0,24365.0,-904.3283193209958,-654.1238061497776,-1141.4470526375385
381577.0,12329.0,381577.0,9491.0,381577.0,24351.0,-910.9204861780256,-659.5457867792262,-1151.071012502472
381577.0,12332.0,381577.0,9491.0,381577.0,24345.0,-917.5364692968093,-664.9662244934688,-1160.6838575614738
381577.0,12334.0,381577.0,9494.0,381577.0,24359.0,-924.1815367112196,-670.3880493470072,-1170.2897059542838
381577.0,12327.0,381577.0,9482.0,381577.0,24324.0,-930.8609108484716,-675.8140653383637,-1179.8926286373235
381577.0,12311.0,381577.0,9472.0,381577.0,24314.0,-937.5796248168841,-681.2468714849747,-1189.4965823026298
381577.0,12305.0,381577.0,9471.0,381577.0,24305.0,-944.3425215917293,-686.6889145431524,-1199.1055553004426
381588.0,12304.0,381588.0,9442.0,381588.0,24303.0,-951.1543453440813,-692.1426166249214,-1208.7237443027943
381588.0,12307.0,381588.0,9473.0,381588.0,24306.0,-958.0197527399617,-697.6105128724805,-1218.3555490883132
381588.0,12311.0,381588.0,9464.0,381588.0,24293.0,-964.9431651318855,-703.0952473323302,-1228.0054156688432
381588.0,12281.0,381588.0,9452.0,381588.0,24281.0,-971.9285707746918,-708.5993783786284,-1237.6776874916327
381588.0,12277.0,381588.0,9449.0,381588.0,24276.0,-978.9794934622033,-714.1252465666477,-1247.3765738561447
381588.0,12257.0,381588.0,9434.0,381588.0,24269.0,-986.0991780488323,-719.6750323292869,-1257.1061726715586
381598.0,12261.0,381598.0,9442.0,381598.0,24260.0,-993.2908126295845,-725.250859757338,-1266.870452304861
381598.0,12265.0,381598.0,9438.0,381598.0,24255.0,-1000.5576071603341,-730.8548168745324,-1276.6732065536928
381598.0,12248.0,381598.0,9441.0,381598.0,24254.0,-1007.9026980582987,-736.4888579355367,-1286.5179947591405
381598.0,12248.0,381598.0,9426.0,381598.0,24233.0,-1015.3290243870196,-742.154668629265,-1296.4080608659174
381598.0,12221.0,381598.0,9414.0,381598.0,24226.0,-1022.8393252802316,-747.8536357858293,-1306.3463082172455
381598.0,12221.0,381598.0,9414.0,381598.0,24208.0,-1030.436262556841,-753.5869539124402,-1316.3353846202112
381608.0,12231.0,381608.0,9424.0,381608.0,24216.0,-1038.122534871738,-759.3557086392008,-1326.3777865199136
381608.0,12221.0,381608.0,9431.0,381608.0,24213.0,-1045.9008052283061,-765.1607508541333,-1336.4758344648967
381608.0,12230.0,381608.0,9399.0,381608.0,24196.0,-1053.7734640269243,-771.0024485136182,-1346.6315096651874
381608.0,12200.0,381608.0,9379.0,381608.0,24187.0,-1061.7424218422348,-776.880660134289,-1356.8463316801385
381608.0,12201.0,381608.0,9378.0,381608.0,24169.0,-1069.8090633955267,-782.795049353351,-1367.1213945488207
381608.0,12196.0,381608.0,9397.0,381608.0,24173.0,-1077.9743201629194,-788.7453803375682,-1377.457468222852
381619.0,12189.0,381619.0,9402.0,381619.0,24169.0,-1086.2386936054718,-794.7314297803242,-1387.8550094393245
381619.0,12183.0,381619.0,9389.0,381619.0,24151.0,-1094.6021905398256,-800.7526267993507,-1398.3140536768801
381619.0,12181.0,381619.0,9384.0,381619.0,24147.0,-1103.0642495580164,-806.8077910857064,-1408.834127817095
381619.0,12168.0,381619.0,9369.0,381619.0,24133.0,-1111.6236706390591,-812.8951170568478,-1419.414258388355
381619.0,12167.0,381619.0,9357.0,381619.0,24135.0,-1120.2785540419973,-819.0123089379653,-1430.0529863640427
381619.0,12153.0,381619.0,9366.0,381619.0,24139.0,-1129.0262647092127,-825.1567413579087,-1440.748283313329
381629.0,12158.0,381629.0,9371.0,381629.0,24112.0,-1137.8633959330807,-831.3254856585924,-1451.4973709765525
381629.0,12156.0,381629.0,9361.0,381629.0,24116.0,-1146.7856736837152,-837.5151392672326,-1462.2965940871313
381629.0,12139.0,381629.0,9354.0,381629.0,24115.0,-1155.7877956375935,-843.7216423855983,-1473.141378910786
381629.0,12126.0,381629.0,9342.0,381629.0,24076.0,-1164.8633386115362,-849.9402521000385,-1484.0261784588856
381629.0,12117.0,381629.0,9328.0,381629.0,24096.0,-1174.0048236171533,-856.1656538066132,-1494.9444773775494
381629.0,12127.0,381629.0,9339.0,381629.0,24092.0,-1183.2037950587019,-862.3921048699742,-1505.888806098564
381639.0,12115.0,381639.0,9347.0,381639.0,24068.0,-1192.4507382518939,-868.613440694078,-1516.850590423473
381639.0,12120.0,381639.0,9337.0,381639.0,24061.0,-1201.7348679168572,-874.8228644655467,-1527.820018917538
381639.0,12109.0,381639.0,9327.0,381639.0,24052.0,-1211.043915448829,-881.0127211186126,-1538.7860943358846
381639.0,12094.0,381639.0,9310.0,381639.0,24039.0,-1220.3639861475451,-887.1744783520246,-1549.7367135724767
381639.0,12084.0,381639.0,9316.0,381639.0,24029.0,-1229.6795394198402,-893.2988704239037,-1560.6587016084877
381639.0,12080.0,381639.0,9305.0,381639.0,24039.0,-1238.9734600249963,-899.3760127458055,-1571.5378119923137
381650.0,12087.0,381650.0,9298.0,381650.0,24018.0,-1248.2270630145372,-905.3954248385644,-1582.3586295180812
381650.0,12063.0,381650.0,9287.0,381650.0,24013.0,-1257.419968160576,-911.3460651775594,-1593.104434251368
381650.0,12048.0,381650.0,9303.0,381650.0,24000.0,-1266.5300164928685,-917.2163883837649,-1603.757162990181
381650.0,12030.0,381650.0,9283.0,381650.0,23984.0,-1275.5333975716317,-922.9943097651341,-1614.2974606068226
381650.0,12038.0,381650.0,9288.0,381650.0,23985.0,-1284.4048708349726,-928.6671099609351,-1624.7047550707034
381650.0,12035.0,381650.0,9289.0,381650.0,23989.0,-1293.1178288236933,-934.2213751948614,-1634.957261662027
381660.0,12036.0,381660.0,9287.0,381660.0,23979.0,-1301.6441363156277,-939.6429128375303,-1645.0318300210856
381660.0,12013.0,381660.0,9290.0,381660.0,23953.0,-1309.9539202702495,-944.9166042625345,-1654.9037743749018
381660.0,12008.0,381660.0,9280.0,381660.0,23956.0,-1318.0155118426217,-950.0262662863988,-1664.5468920853996
381660.0,11993.0,381660.0,9260.0,381660.0,23938.0,-1325.7955515513802,-954.9546147733013,-1673.9335984629524
381660.0,11996.0,381660.0,9243.0,381660.0,23927.0,-1333.2591149394634,-959.6834321130475,-1683.0350309589153
381660.0,11996.0,381660.0,9277.0,381660.0,23929.0,-1340.3697323102167,-964.1938298478667,-1691.8211317213331
381670.0,11998.0,381670.0,9255.0,381670.0,23918.0,-1347.08926521685,-968.4662893109089,-1700.2606871839525
381670.0,11974.0,381670.0,9230.0,381670.0,23901.0,-1353.3777420709475,-972.4805456443726,-1708.3213236351341
381670.0,11949.0,381670.0,9240.0,381670.0,23891.0,-1359.1933827838002,-976.2156942622711,-1715.9695872681896
381670.0,11934.0,381670.0,9219.0,381670.0,23878.0,-1364.492931106689,-979.6504718417655,-1723.1711380894571
381670.0,11946.0,381670.0,9228.0,381670.0,23883.0,-1369.232085550028,-982.7634494324766,-1729.8909353156023
381670.0,11944.0,381670.0,9235.0,381670.0,23879.0,-1373.365696361361,-985.5330958696718,-1736.09330203899
381681.0,11926.0,381681.0,9230.0,381681.0,23866.0,-1376.8477198723779,-987.9377081351196,-1741.7418885052268
381681.0,11908.0,381681.0,9213.0,381681.0,23847.0,-1379.6312534437332,-989.9553186421283,-1746.7997071705026
381681.0,11904.0,381681.0,9212.0,381681.0,23848.0,-1381.6688164152297,-991.5637804938779,-1751.2293398736929
381681.0,11891.0,381681.0,9206.0,381681.0,23853.0,-1382.9127166763674,-992.7409929727405,-1754.9931584418846
