c_ts,c_val,d_ts,d_val,e_ts,e_val,c_val_filtered,d_val_filtered,e_val_filtered
138081.0,71355.0,138081.0,110366.0,138081.0,47500.0,-335.80923205497464,-80.03974055651304,-273.39996598603364
138081.0,71348.0,138081.0,110385.0,138081.0,47525.0,-338.5705390657445,-77.6624040130704,-270.70927603239625
138081.0,71372.0,138081.0,110366.0,138081.0,47552.0,-341.24623319365537,-75.25564958674008,-267.7796872627228
138081.0,71363.0,138081.0,110411.0,138081.0,47526.0,-343.82400476175167,-72.82413569098283,-264.6052461297951
138092.0,71361.0,138092.0,110375.0,138092.0,47524.0,-346.2907232522207,-70.37183806094234,-261.17897380993156
138092.0,71359.0,138092.0,110393.0,138092.0,47527.0,-348.63236162621627,-67.90196881343553,-257.49307267915196
138092.0,71329.0,138092.0,110389.0,138092.0,47527.0,-350.8341004032287,-65.41704595401359,-253.5392401208241
138092.0,71328.0,138092.0,110405.0,138092.0,47529.0,-352.88061397440134,-62.91897156652507,-249.30886325598254
138092.0,71336.0,138092.0,110414.0,138092.0,47528.0,-354.75643439132944,-60.408956705278165,-244.79315961846618
138092.0,71338.0,138092.0,110429.0,138092.0,47543.0,-356.4461340846654,-57.887317213277214,-239.98330857125563
138102.0,71330.0,138102.0,110393.0,138102.0,47532.0,-357.9342956300629,-55.35329220799306,-234.87054136505856
138102.0,71322.0,138102.0,110377.0,138102.0,47506.0,-359.205509880111,-52.80517866355549,-229.44630749628885
138102.0,71325.0,138102.0,110407.0,138102.0,47517.0,-360.24451021655557,-50.24079627728298,-223.70268965854962
138102.0,71307.0,138102.0,110407.0,138102.0,47518.0,-361.03636044606225,-47.657799002406115,-217.63290970703378
138102.0,71328.0,138102.0,110428.0,138102.0,47565.0,-361.5666280227717,-45.053570230662764,-211.2315575681148
138102.0,71328.0,138102.0,110437.0,138102.0,47557.0,-361.8214580821287,-42.424924309073404,-204.49442188581855
138112.0,71328.0,138112.0,110387.0,138112.0,47550.0,-361.7875001807037,-39.76792005896148,-197.4182220891522
138112.0,71309.0,138112.0,110386.0,138112.0,47563.0,-361.45186425283157,-37.07808995867728,-190.00061842802117
138112.0,71310.0,138112.0,110393.0,138112.0,47559.0,-360.8022903721439,-34.35102844907432,-182.2404454417592
138112.0,71316.0,138112.0,110385.0,138112.0,47583.0,-359.82742952207775,-31.58285380788385,-174.1378977541128
138112.0,71321.0,138112.0,110382.0,138112.0,47568.0,-358.51700708742845,-28.770408139537253,-165.69462168215088
138112.0,71322.0,138112.0,110411.0,138112.0,47605.0,-356.8618289561432,-25.91137166385444,-156.91378550283918
138123.0,71323.0,138123.0,110401.0,138123.0,47604.0,-354.8537621026542,-23.00424283533563,-147.80009796509347
138123.0,71332.0,138123.0,110411.0,138123.0,47623.0,-352.4857567314475,-20.04819650927223,-138.35973244482483
138123.0,71329.0,138123.0,110404.0,138123.0,47631.0,-349.7518738148533,-17.043020552508068,-128.6002415851201
138123.0,71336.0,138123.0,110447.0,138123.0,47641.0,-346.64731218057926,-13.989098545658123,-118.53052697968474
138123.0,71365.0,138123.0,110442.0,138123.0,47654.0,-343.1684029591264,-10.88720990595705,-108.16084543994529
138123.0,71353.0,138123.0,110425.0,138123.0,47690.0,-339.31248047854666,-7.738234439304975,-97.50277870230988
138133.0,71350.0,138133.0,110414.0,138133.0,47670.0,-335.07775519484437,-4.543155923030767,-86.56910957806738
138133.0,71344.0,138133.0,110419.0,138133.0,47681.0,-330.4634315889166,-1.3034193301776327,-75.37379035171071
138133.0,71384.0,138133.0,110409.0,138133.0,47715.0,-325.46994763834783,1.9786882069081315,-63.932110268356325
138133.0,71384.0,138133.0,110480.0,138133.0,47743.0,-320.098981735637,5.299916065191695,-52.26072774279311
138133.0,71416.0,138133.0,110465.0,138133.0,47753.0,-314.35317846810204,8.65636861864543,-40.37737858803541
138133.0,71385.0,138133.0,110477.0,138133.0,47763.0,-308.23587450183396,12.044075440598263,-28.300561258394907
138143.0,71397.0,138143.0,110435.0,138143.0,47772.0,-301.75110173432967,15.459250749609168,-16.04945149884901
138143.0,71429.0,138143.0,110465.0,138143.0,47795.0,-294.9038008228956,18.8980560424189,-3.643960805304232
138143.0,71410.0,138143.0,110465.0,138143.0,47814.0,-287.6999110424116,22.35627280561262,8.895256203515146
138143.0,71444.0,138143.0,110472.0,138143.0,47828.0,-280.14631404753413,25.829237560913924,21.546908884482036
138143.0,71462.0,138143.0,110482.0,138143.0,47883.0,-272.25076288704804,29.311948315086852,34.28927864183032
138143.0,71455.0,138143.0,110485.0,138143.0,47874.0,-264.02173128782965,32.79916852661327,47.1005610397811
138154.0,71464.0,138154.0,110475.0,138154.0,47888.0,-255.46831247482467,36.285480180491604,59.9591827831091
138154.0,71487.0,138154.0,110478.0,138154.0,47913.0,-246.6002967691358,39.76521126384418,72.84386963780833
138154.0,71513.0,138154.0,110508.0,138154.0,47920.0,-237.42818077467228,43.23231472020653,85.73360967395695
138154.0,71523.0,138154.0,110527.0,138154.0,47956.0,-227.9629459375529,46.68048238722595,98.60771894042801
138154.0,71511.0,138154.0,110533.0,138154.0,47962.0,-218.21583886588718,50.10355077578545,111.44599811040166
138154.0,71524.0,138154.0,110521.0,138154.0,47956.0,-208.19843030317244,53.49587712050911,124.22885124993138
138164.0,71546.0,138164.0,110485.0,138164.0,47978.0,-197.92285322607563,56.8523297234309,136.93719939649787
138164.0,71550.0,138164.0,110501.0,138164.0,47990.0,-187.40192017835506,60.16784420584504,149.55227255732308
138164.0,71591.0,138164.0,110542.0,138164.0,48024.0,-176.64905266130262,63.43698903308072,162.05554990315056
138164.0,71615.0,138164.0,110541.0,138164.0,48060.0,-165.67804847304387,66.65405045712541,174.42896614309592
138164.0,71596.0,138164.0,110562.0,138164.0,48042.0,-154.50275941709842,69.81349944038513,186.6552713516806
138164.0,71602.0,138164.0,110543.0,138164.0,48048.0,-143.13701689458995,72.91035504982122,198.7181886572049
138174.0,71601.0,138174.0,110535.0,138174.0,48079.0,-131.5949607557402,75.94022593529823,210.6022266668195
138174.0,71634.0,138174.0,110543.0,138174.0,48086.0,-119.89144109182041,78.8990826693306,222.29250940318667
138174.0,71639.0,138174.0,110563.0,138174.0,48113.0,-108.04217680274695,81.78304036636169,233.77484686625752
138174.0,71687.0,138174.0,110569.0,138174.0,48101.0,-96.06365224182463,84.58841479690048,245.03585445131864
138174.0,71712.0,138174.0,110562.0,138174.0,48154.0,-83.97279594898362,87.31193879508587,256.0629941891167
138174.0,71690.0,138174.0,110567.0,138174.0,48135.0,-71.78658057766143,89.95085980470051,266.8446434755083
138185.0,71718.0,138185.0,110570.0,138185.0,48149.0,-59.52189357163326,92.50288628938353,277.37016943684296
138185.0,71746.0,138185.0,110580.0,138185.0,48155.0,-47.19567601859467,94.96614701732884,287.62983526942855
138185.0,71759.0,138185.0,110569.0,138185.0,48182.0,-34.824914269801695,97.33921388862657,297.6146421098532
138185.0,71763.0,138185.0,110605.0,138185.0,48203.0,-22.426463537936968,99.62114586822722,307.3163617425365
138185.0,71793.0,138185.0,110577.0,138185.0,48189.0,-10.016974100151401,101.81158442619824,316.72771591572337
138185.0,71778.0,138185.0,110552.0,138185.0,48200.0,2.3870703222759175,103.9107548080353,325.8424131418219
138195.0,71809.0,138195.0,110572.0,138195.0,48217.0,14.769255165935135,105.91914649234542,334.65497846051244
138195.0,71838.0,138195.0,110589.0,138195.0,48215.0,27.11315199985978,107.8371682951263,343.16061112252953
138195.0,71854.0,138195.0,110586.0,138195.0,48249.0,39.40244063617513,109.66518285146753,351.35517560815777
138195.0,71884.0,138195.0,110554.0,138195.0,48264.0,51.621212624394275,111.40365738007279,359.2353241141087
138195.0,71895.0,138195.0,110579.0,138195.0,48230.0,63.754270474664224,113.0530219287846,366.79867171812316
138195.0,71889.0,138195.0,110601.0,138195.0,48252.0,75.78730170038216,114.6134657908448,374.043720773103
138205.0,71904.0,138205.0,110581.0,138205.0,48254.0,87.706816868146,116.08504444355009,380.96953258734686
138205.0,71944.0,138205.0,110589.0,138205.0,48284.0,99.49997961485423,117.46787237051939,387.5755491633896
138205.0,71959.0,138205.0,110616.0,138205.0,48310.0,111.1546710799089,118.76216498992494,393.8617552585489
138205.0,71953.0,138205.0,110595.0,138205.0,48292.0,122.6597527426805,119.96833407897654,399.82902091183416
138205.0,71971.0,138205.0,110583.0,138205.0,48297.0,134.00515367057284,121.0870881176906,405.47928242791886
138205.0,71958.0,138205.0,110586.0,138205.0,48282.0,145.18168742530406,122.11926636108791,410.815369536999
138216.0,71982.0,138216.0,110615.0,138216.0,48300.0,156.18076894956562,123.06560899058508,415.8406628292695
138216.0,72007.0,138216.0,110603.0,138216.0,48318.0,166.99421387192007,123.92681544575134,420.5588829113992
138216.0,72029.0,138216.0,110620.0,138216.0,48339.0,177.61429252818658,124.70378770316509,424.97418117157326
138216.0,72050.0,138216.0,110604.0,138216.0,48316.0,188.0340126575412,125.39778730027527,429.09140251572865
138216.0,72045.0,138216.0,110609.0,138216.0,48316.0,198.24739424789823,126.01044333762934,432.916151624074
138216.0,72050.0,138216.0,110579.0,138216.0,48318.0,208.24952628988467,126.54361344308148,436.454549243824
138226.0,72067.0,138226.0,110613.0,138226.0,48343.0,218.03640563419407,126.99914014556538,439.71298999261717
138226.0,72081.0,138226.0,110620.0,138226.0,48357.0,227.6047827472683,127.3787515180635,442.69819491685496
138226.0,72087.0,138226.0,110617.0,138226.0,48345.0,236.95214806418664,127.68426185732247,445.41747360281715
138226.0,72104.0,138226.0,110625.0,138226.0,48331.0,246.07676393200245,127.9178355684009,447.87883742494535
138226.0,72088.0,138226.0,110611.0,138226.0,48334.0,254.97762889964974,128.08208753648304,450.0907815605825
138226.0,72112.0,138226.0,110598.0,138226.0,48343.0,263.6543258440513,128.18000777237188,452.06196824286246
138237.0,72128.0,138237.0,110622.0,138237.0,48351.0,272.1068571786409,128.21477298380012,453.801102396328
138237.0,72139.0,138237.0,110650.0,138237.0,48354.0,280.33565334325874,128.18972424964522,455.3170034255794
138237.0,72155.0,138237.0,110612.0,138237.0,48351.0,288.34171815062336,128.10865842591534,456.61870288424984
138237.0,72132.0,138237.0,110596.0,138237.0,48350.0,296.12669848651126,127.97598188457235,457.7154483399976
138237.0,72148.0,138237.0,110569.0,138237.0,48346.0,303.6927285780798,127.79632779094246,458.616609096823
138237.0,72141.0,138237.0,110604.0,138237.0,48351.0,311.04210746883075,127.57395248117541,459.3315482366496
138247.0,72178.0,138247.0,110608.0,138247.0,48347.0,318.1770545066961,127.31248350782883,459.8695234148403
138247.0,72193.0,138247.0,110612.0,138247.0,48372.0,325.09974109983386,127.01512647671768,460.2396687257565
138247.0,72192.0,138247.0,110596.0,138247.0,48362.0,331.8125460533266,126.68493593213199,460.45110388502405
138247.0,72163.0,138247.0,110607.0,138247.0,48339.0,338.3181741952782,126.32485472190464,460.513036868054
138247.0,72189.0,138247.0,110606.0,138247.0,48337.0,344.6193832288077,125.93764316559196,460.4346006746565
138247.0,72219.0,138247.0,110600.0,138247.0,48356.0,350.7186566873295,125.52586792273183,460.22452511084964
138257.0,72235.0,138257.0,110621.0,138257.0,48358.0,356.61829645738453,125.09193833024716,459.8910278019924
138257.0,72254.0,138257.0,110631.0,138257.0,48362.0,362.3208518175152,124.638236670688,459.44197475003153
138257.0,72233.0,138257.0,110607.0,138257.0,48353.0,367.8294720782734,124.16735443387464,458.8850410149172
138257.0,72229.0,138257.0,110610.0,138257.0,48342.0,373.14790751299665,123.6821835517222,458.2276952013321
138257.0,72221.0,138257.0,110606.0,138257.0,48341.0,378.28015645597293,123.18576538379182,457.4770155987214
138257.0,72239.0,138257.0,110587.0,138257.0,48328.0,383.2300276066136,122.68108354309865,456.63944094539875
138268.0,72270.0,138268.0,110604.0,138268.0,48352.0,388.0009533537892,122.17087332086882,455.72058106221806
138268.0,72279.0,138268.0,110576.0,138268.0,48382.0,392.5961875662689,121.65744761673957,454.72527333201833
138268.0,72251.0,138268.0,110607.0,138268.0,48361.0,397.0191165609085,121.14257976312263,453.6579597202997
138268.0,72271.0,138268.0,110605.0,138268.0,48341.0,401.2732642328888,120.62751197688827,452.52300371899844
138268.0,72260.0,138268.0,110572.0,138268.0,48358.0,405.3620276671156,120.1130590255902,451.32459696466435
138268.0,72306.0,138268.0,110587.0,138268.0,48357.0,409.28852155522577,119.59954398513858,450.0665427580165
138278.0,72300.0,138278.0,110602.0,138278.0,48350.0,413.0557215405355,119.0865984427604,448.7522381222134
138278.0,72291.0,138278.0,110611.0,138278.0,48350.0,416.66672425601155,118.57321568983934,447.3847065476395
138278.0,72291.0,138278.0,110589.0,138278.0,48331.0,420.12477385632974,118.0580184652442,445.96650727480807
138278.0,72284.0,138278.0,110592.0,138278.0,48352.0,423.4330104228678,117.5393507027464,444.49957363613726
138278.0,72296.0,138278.0,110601.0,138278.0,48345.0,426.59418501090147,117.01515892339064,442.9851341784671
138278.0,72320.0,138278.0,110625.0,138278.0,48346.0,429.61053956641445,116.4829931916176,441.4237711457752
138288.0,72344.0,138288.0,110634.0,138288.0,48358.0,432.48398114408235,115.9403118593948,439.8155130731183
138288.0,72334.0,138288.0,110622.0,138288.0,48371.0,435.21647749913507,115.38490399190182,438.15997159084316
138288.0,72338.0,138288.0,110602.0,138288.0,48364.0,437.8103461469458,114.81507742610628,436.4565892184918
138288.0,72320.0,138288.0,110600.0,138288.0,48353.0,440.2682283816333,114.22947289543579,434.7048362616376
138288.0,72338.0,138288.0,110627.0,138288.0,48380.0,442.59285746127887,113.6267855735343,432.90424147592506
138288.0,72367.0,138288.0,110603.0,138288.0,48364.0,444.78692241038016,113.0057300201519,431.054436625036
138299.0,72347.0,138299.0,110625.0,138299.0,48377.0,446.85321353647225,112.36516762426749,429.15530196722113
138299.0,72360.0,138299.0,110651.0,138299.0,48362.0,448.79482291734564,111.70426706715052,427.2070689973192
138299.0,72337.0,138299.0,110585.0,138299.0,48349.0,450.615110377807,111.02271605312114,425.2102833094134
138299.0,72342.0,138299.0,110584.0,138299.0,48344.0,452.31746521298146,110.32063827835302,423.16560936028134
138299.0,72365.0,138299.0,110615.0,138299.0,48361.0,453.90506592524594,109.59811041669934,421.07360258941264
138299.0,72358.0,138299.0,110651.0,138299.0,48339.0,455.380844287963,108.85500158876283,418.93463910608097
138309.0,72354.0,138309.0,110617.0,138309.0,48364.0,456.7475888764935,108.0914408934833,416.7489624533087
138309.0,72366.0,138309.0,110612.0,138309.0,48348.0,458.0079471507587,107.30822898729267,414.51675029816596
138309.0,72362.0,138309.0,110617.0,138309.0,48327.0,459.16435837923257,106.50676062798449,412.2381403289417
138309.0,72350.0,138309.0,110594.0,138309.0,48326.0,460.21900231715483,105.6887677848328,409.91306155185583
138309.0,72382.0,138309.0,110624.0,138309.0,48360.0,461.173717016317,104.85615849805562,407.54100252666404
138309.0,72353.0,138309.0,110585.0,138309.0,48375.0,462.0299585521054,104.01094536318126,405.12114557270473
138319.0,72394.0,138319.0,110589.0,138319.0,48365.0,462.78884915533206,103.15514013355553,402.6528750547901
138319.0,72370.0,138319.0,110583.0,138319.0,48340.0,463.45126310945693,102.29051116921211,400.136147770766
138319.0,72372.0,138319.0,110575.0,138319.0,48343.0,464.0178876419478,101.4183271165523,397.5714138043045
138319.0,72378.0,138319.0,110583.0,138319.0,48329.0,464.48915962012313,100.53920414075401,394.95930842990754
138319.0,72384.0,138319.0,110599.0,138319.0,48348.0,464.86516909826537,99.65308095681216,392.3004429004084
138319.0,72416.0,138319.0,110601.0,138319.0,48347.0,465.14574624037186,98.75938842188927,389.5954134987416
138330.0,72406.0,138330.0,110580.0,138330.0,48326.0,465.3307619714067,97.85728214765417,386.84492967249093
138330.0,72376.0,138330.0,110633.0,138330.0,48335.0,465.42037522945486,96.94576613248277,384.04983255189245
138330.0,72391.0,138330.0,110605.0,138330.0,48321.0,465.41491314633276,96.02387540634409,381.2109734722309
138330.0,72391.0,138330.0,110601.0,138330.0,48333.0,465.3145581928126,95.0909359311859,378.32912246697526
138330.0,72407.0,138330.0,110620.0,138330.0,48331.0,465.1192490483335,94.14663465482228,375.4049836060343
138330.0,72424.0,138330.0,110624.0,138330.0,48357.0,464.82885792667327,93.19103127982865,372.4393454861989
138340.0,72413.0,138340.0,110579.0,138340.0,48317.0,464.44348650897393,92.22465948807255,369.4333203032523
138340.0,72401.0,138340.0,110589.0,138340.0,48310.0,463.9636477581093,91.24839584810236,366.3883962528663
138340.0,72413.0,138340.0,110580.0,138340.0,48312.0,463.39019195036565,90.26306603508995,363.306173706301
138340.0,72401.0,138340.0,110578.0,138340.0,48334.0,462.7241448768644,89.26915260765962,360.1881392653107
138340.0,72429.0,138340.0,110613.0,138340.0,48326.0,461.96666258506616,88.26675002639877,357.03578525073755
138340.0,72421.0,138340.0,110601.0,138340.0,48326.0,461.1191410786637,87.25576689919302,353.850886370574
138350.0,72420.0,138350.0,110585.0,138350.0,48311.0,460.1833918951067,86.2362074796093,350.6356279352435
138350.0,72398.0,138350.0,110599.0,138350.0,48293.0,459.1616730477562,85.20822481400904,347.39250258874836
138350.0,72407.0,138350.0,110575.0,138350.0,48310.0,458.05649027908834,84.17198601014923,344.1240766717002
138350.0,72426.0,138350.0,110674.0,138350.0,48345.0,456.8704012818752,83.12771591517475,340.83293576583037
138350.0,72436.0,138350.0,110592.0,138350.0,48328.0,455.6061061289257,82.07614382768591,337.5220420634961
138350.0,72413.0,138350.0,110578.0,138350.0,48289.0,454.2667307381139,81.0188695643946,334.19512301633256
138361.0,72397.0,138361.0,110616.0,138361.0,48299.0,452.85589449305894,79.95810649922458,330.85656702159633
138361.0,72405.0,138361.0,110582.0,138361.0,48297.0,451.37743240050764,78.89630947696946,327.5110405395535
138361.0,72392.0,138361.0,110560.0,138361.0,48271.0,449.8350711809833,77.83605989687919,324.1632717204785
138361.0,72445.0,138361.0,110606.0,138361.0,48307.0,448.23235261091725,76.77986993046784,320.81797206181136
138361.0,72414.0,138361.0,110600.0,138361.0,48276.0,446.5728768509982,75.73010006820923,317.479835232181
138361.0,72412.0,138361.0,110558.0,138361.0,48290.0,444.86060660844953,74.68915990660663,314.15361898067295
138371.0,72403.0,138371.0,110579.0,138371.0,48269.0,443.0998657221918,73.65948819347801,310.84416022377053
138371.0,72394.0,138371.0,110582.0,138371.0,48287.0,441.2950887067106,72.6432857455035,307.5563150605846
138371.0,72418.0,138371.0,110592.0,138371.0,48265.0,439.4506186035928,71.64248482883208,304.2949368878441
138371.0,72431.0,138371.0,110595.0,138371.0,48259.0,437.5707533473819,70.65897921608781,301.06484388849714
138371.0,72424.0,138371.0,110596.0,138371.0,48275.0,435.66005062361637,69.69485986671016,297.8707190735024
138371.0,72387.0,138371.0,110574.0,138371.0,48251.0,433.72354502181787,68.75252260132399,294.7170560492617
138381.0,72387.0,138381.0,110574.0,138381.0,48256.0,431.7665333035588,67.83456675236745,291.60815440704135
138381.0,72392.0,138381.0,110562.0,138381.0,48243.0,429.7941219014135,66.94353733113249,288.54803709545433
138381.0,72373.0,138381.0,110566.0,138381.0,48255.0,427.8109331314238,66.08167859875728,285.54034427757625
138381.0,72409.0,138381.0,110597.0,138381.0,48263.0,425.82102864576274,65.2508568114421,282.58835532150454
138381.0,72404.0,138381.0,110589.0,138381.0,48261.0,423.82801962226637,64.45276337199607,279.69517320886183
138381.0,72383.0,138381.0,110554.0,138381.0,48254.0,421.83529677536166,63.689179764107124,276.8639336396202
138392.0,72387.0,138392.0,110560.0,138392.0,48244.0,419.8460805601178,62.961883279898906,274.0978626669744
138392.0,72389.0,138392.0,110585.0,138392.0,48246.0,417.86325503237475,62.27233311990901,271.40018275916424
138392.0,72406.0,138392.0,110565.0,138392.0,48232.0,415.8893070322344,61.62161845453232,268.7739845598007
138392.0,72394.0,138392.0,110587.0,138392.0,48243.0,413.9264738079731,61.01063399729463,266.22212900240896
138392.0,72400.0,138392.0,110553.0,138392.0,48238.0,411.97690876919825,60.44017140163008,263.74721408311643
138392.0,72382.0,138392.0,110571.0,138392.0,48228.0,410.0427094691497,59.910845502265175,261.3515981041695
138402.0,72389.0,138402.0,110544.0,138402.0,48209.0,408.1258158414591,59.42291811175054,259.037337643971
138402.0,72399.0,138402.0,110559.0,138402.0,48217.0,406.22791218872953,58.97610435018476,256.8059653007628
138402.0,72392.0,138402.0,110572.0,138402.0,48245.0,404.3504644033379,58.56947483040878,254.6583418960413
138402.0,72402.0,138402.0,110609.0,138402.0,48238.0,402.49484379628177,58.20163988991338,252.59484212385817
138402.0,72388.0,138402.0,110582.0,138402.0,48227.0,400.66240796743506,57.871221967472614,250.6156894576095
138402.0,72388.0,138402.0,110551.0,138402.0,48222.0,398.85449010295065,57.57716082873833,248.72105984004108
138412.0,72371.0,138412.0,110558.0,138412.0,48208.0,397.0722784426188,57.318475271406946,246.91092176758394
138412.0,72387.0,138412.0,110569.0,138412.0,48203.0,395.3166344447192,57.09382133005755,245.1847888275882
138412.0,72391.0,138412.0,110591.0,138412.0,48232.0,393.5880115094782,56.90140353809758,243.54154254168566
138412.0,72401.0,138412.0,110562.0,138412.0,48232.0,391.886579466686,56.73921905461883,241.979517785112
138412.0,72411.0,138412.0,110586.0,138412.0,48233.0,390.21248398123066,56.60523806400032,240.49682046066917
138412.0,72385.0,138412.0,110544.0,138412.0,48224.0,388.56607492322587,56.497356590770885,239.09157189610275
138423.0,72359.0,138423.0,110534.0,138423.0,48217.0,386.94786692085484,56.41313191378728,237.76192014928986
138423.0,72387.0,138423.0,110593.0,138423.0,48229.0,385.35818351617183,56.349440288332886,236.50593160838815
138423.0,72391.0,138423.0,110600.0,138423.0,48211.0,383.79689774858093,56.30254881986559,235.3215187732153
138423.0,72404.0,138423.0,110571.0,138423.0,48222.0,382.2635787857145,56.26865622979293,234.20640832843245
138423.0,72378.0,138423.0,110588.0,138423.0,48220.0,380.75777747490173,56.2442267079677,233.1581091016676
138423.0,72388.0,138423.0,110584.0,138423.0,48224.0,379.27909262863534,56.22593483625739,232.17393259645831
138433.0,72396.0,138433.0,110590.0,138433.0,48222.0,377.82707472096774,56.210622391817495,231.2510641558211
138433.0,72389.0,138433.0,110584.0,138433.0,48226.0,376.4012219960716,56.1953561810647,230.38662210688145
138433.0,72388.0,138433.0,110607.0,138433.0,48228.0,375.0010548368729,56.177491891547504,229.5777090232251
138433.0,72398.0,138433.0,110589.0,138433.0,48238.0,373.62613484475196,56.154782505814126,228.82149769469532
138433.0,72366.0,138433.0,110593.0,138433.0,48214.0,372.27603471585275,56.125474697458344,228.11532356417874
138433.0,72385.0,138433.0,110566.0,138433.0,48212.0,370.9502225019852,56.08823340739521,227.45663801426454
138443.0,72388.0,138443.0,110590.0,138443.0,48208.0,369.6479169351087,56.0419128722179,226.84278211570347
138443.0,72401.0,138443.0,110567.0,138443.0,48234.0,368.3681344183798,55.985364378842156,226.27081162538917
138443.0,72391.0,138443.0,110602.0,138443.0,48246.0,367.10990342324305,55.91739411323192,225.73762021366556
138443.0,72395.0,138443.0,110579.0,138443.0,48219.0,365.87241561890454,55.836852927499166,225.2402618520711
138443.0,72384.0,138443.0,110593.0,138443.0,48205.0,364.65502876655694,55.74275890091232,224.77605152567048
138443.0,72380.0,138443.0,110583.0,138443.0,48206.0,363.4571659261567,55.63434142624205,224.34227437190066
138454.0,72376.0,138454.0,110584.0,138454.0,48217.0,362.27815551889614,55.511010899633135,223.9358493898623
138454.0,72398.0,138454.0,110601.0,138454.0,48202.0,361.1171154752499,55.37234105873716,223.55322910742757
138454.0,72394.0,138454.0,110577.0,138454.0,48220.0,359.9730211269639,55.21811255687183,223.19042400278485
138454.0,72396.0,138454.0,110585.0,138454.0,48231.0,358.84490425408876,55.04832469587583,222.84307489345895
138454.0,72384.0,138454.0,110605.0,138454.0,48232.0,357.73196677990984,54.863144969083734,222.50665841533632
138454.0,72371.0,138454.0,110575.0,138454.0,48214.0,356.63349379182614,54.662944144881685,222.17670228267437
138464.0,72402.0,138464.0,110582.0,138464.0,48220.0,355.5486731712442,54.44832379487753,221.84878381639538
138464.0,72392.0,138464.0,110592.0,138464.0,48243.0,354.47657482066757,54.22000471288776,221.51843128311376
138464.0,72397.0,138464.0,110592.0,138464.0,48239.0,353.4163259407701,53.97878869584485,221.18122567302606
138464.0,72387.0,138464.0,110592.0,138464.0,48243.0,352.3672334689419,53.72567461202618,220.83306258480573
138464.0,72378.0,138464.0,110575.0,138464.0,48219.0,351.3287262111785,53.46191826295174,220.47028091836734
138464.0,72362.0,138464.0,110558.0,138464.0,48216.0,350.3001470458802,53.18888018083131,220.0895208936731
138474.0,72378.0,138474.0,110576.0,138474.0,48236.0,349.28047414524804,52.90771798637415,219.68746936392085
138474.0,72396.0,138474.0,110588.0,138474.0,48230.0,348.2681978939586,52.61921265748134,219.2607839486859
138474.0,72395.0,138474.0,110589.0,138474.0,48239.0,347.26150936485,52.32391485455629,218.80623049717016
138474.0,72385.0,138474.0,110572.0,138474.0,48211.0,346.25858588411836,52.02237652506062,218.32078102370713
138474.0,72381.0,138474.0,110576.0,138474.0,48217.0,345.25766613627513,51.71516825716846,217.80150020292137
138474.0,72390.0,138474.0,110589.0,138474.0,48218.0,344.2569411743809,51.40276533636916,217.24531766086602
138485.0,72395.0,138485.0,110593.0,138485.0,48240.0,343.2545042374326,51.08557568766693,216.64894721785163
138485.0,72412.0,138485.0,110568.0,138485.0,48233.0,342.24848085633,50.76407933215181,216.0090584149041
138485.0,72385.0,138485.0,110579.0,138485.0,48226.0,341.23723609796707,50.43881221307557,215.3224980562316
138485.0,72371.0,138485.0,110558.0,138485.0,48234.0,340.21939187533144,50.11017009171522,214.58635140563487
138485.0,72399.0,138485.0,110563.0,138485.0,48219.0,339.19358961692245,49.77819034725282,213.7978876583162
138485.0,72367.0,138485.0,110589.0,138485.0,48239.0,338.1582978511395,49.44243106980426,212.95451525185598
138495.0,72382.0,138495.0,110600.0,138495.0,48232.0,337.11175581855065,49.10211946180034,212.05380983914148
138495.0,72384.0,138495.0,110643.0,138495.0,48241.0,336.0519094787675,48.75664443647659,211.0936271478969
138495.0,72402.0,138495.0,110576.0,138495.0,48242.0,334.9764452016462,48.40612630116241,210.072240090979
138495.0,72379.0,138495.0,110567.0,138495.0,48235.0,333.8829718004978,48.051523207410746,208.98844353002843
138495.0,72406.0,138495.0,110516.0,138495.0,48236.0,332.7691567025575,47.694015327528916,207.84159031879835
138495.0,72379.0,138495.0,110580.0,138495.0,48222.0,331.6327637152114,47.33416052005009,206.6315343788806
138506.0,72389.0,138506.0,110601.0,138506.0,48244.0,330.4716369829282,46.971630940813625,205.35854356336313
138506.0,72387.0,138506.0,110573.0,138506.0,48215.0,329.28362715929796,46.605676291883626,204.02326933265175
138506.0,72392.0,138506.0,110584.0,138506.0,48217.0,328.06654890741925,46.23559327294444,202.62670037959361
138506.0,72385.0,138506.0,110570.0,138506.0,48207.0,326.81821634267584,45.86074996601043,201.1699868550657
138506.0,72386.0,138506.0,110564.0,138506.0,48211.0,325.53646137324193,45.480414090503196,199.65423432496056
138506.0,72386.0,138506.0,110587.0,138506.0,48212.0,324.2191026284277,45.093617878060975,198.08040908278315
138516.0,72394.0,138516.0,110602.0,138516.0,48208.0,322.8639378979445,44.699215417658344,196.4493466873013
138516.0,72402.0,138516.0,110606.0,138516.0,48214.0,321.4688309810759,44.29621952030668,194.76179488686452
138516.0,72388.0,138516.0,110589.0,138516.0,48204.0,320.0318606357137,43.88416112456754,193.0184504271336
138516.0,72363.0,138516.0,110560.0,138516.0,48210.0,318.55133336962933,43.463115096894825,191.2199755502729
138516.0,72380.0,138516.0,110581.0,138516.0,48198.0,317.02554276038103,43.03337018053037,189.36698606653852
138516.0,72393.0,138516.0,110592.0,138516.0,48198.0,315.452550584689,42.59514581246985,187.4600049047553
138526.0,72405.0,138526.0,110589.0,138526.0,48212.0,313.8303115842938,42.14866745400935,185.49942159510493
138526.0,72398.0,138526.0,110550.0,138526.0,48215.0,312.1570225286705,41.69431508370004,183.48557706516272
138526.0,72368.0,138526.0,110558.0,138526.0,48189.0,310.4313131548677,41.23242593657609,181.41893325974556
138526.0,72383.0,138526.0,110568.0,138526.0,48181.0,308.6520969043279,40.76291135243317,179.30005032213057
138526.0,72359.0,138526.0,110584.0,138526.0,48192.0,306.8182737551061,40.28515318010937,177.12933691771062
138526.0,72392.0,138526.0,110613.0,138526.0,48194.0,304.9285563634418,39.79830723515647,174.9068995008275
138537.0,72396.0,138537.0,110568.0,138537.0,48206.0,302.98154502237344,39.301746697172305,172.6326584799891
138537.0,72387.0,138537.0,110586.0,138537.0,48198.0,300.9760110018571,38.7952447730311,170.30658759184806
138537.0,72377.0,138537.0,110563.0,138537.0,48184.0,298.91110499173584,38.27880355293357,167.92886803981648
138537.0,72356.0,138537.0,110574.0,138537.0,48190.0,296.7862599803162,37.7524123873328,165.49985620893287
138537.0,72376.0,138537.0,110545.0,138537.0,48169.0,294.60091406622854,37.21586328194077,163.01994589868303
138537.0,72392.0,138537.0,110596.0,138537.0,48192.0,292.35439118291737,36.66861319484707,160.48945660333663
138547.0,72379.0,138547.0,110594.0,138547.0,48198.0,290.04609962784195,36.10989359152043,157.9086672262389
138547.0,72374.0,138547.0,110574.0,138547.0,48188.0,287.67577521317105,35.53907132004548,155.27803771341567
138547.0,72367.0,138547.0,110567.0,138547.0,48158.0,285.24348573363113,34.95581358749025,152.59835753459112
138547.0,72360.0,138547.0,110573.0,138547.0,48175.0,282.74947568295784,34.359899205411914,149.8705862433432
138547.0,72375.0,138547.0,110596.0,138547.0,48159.0,280.19403942229167,33.751074788278146,147.0956026282521
138547.0,72362.0,138547.0,110594.0,138547.0,48184.0,277.5775179072743,33.129225065811276,144.27414776860493
138557.0,72363.0,138557.0,110586.0,138557.0,48162.0,274.90036229924397,32.4946670868663,141.40694577615733
138557.0,72350.0,138557.0,110601.0,138557.0,48162.0,272.16312278774353,31.848303207766023,138.49481601465342
138557.0,72348.0,138557.0,110552.0,138557.0,48158.0,269.3663363003332,31.191590354797967,135.53865130085813
138557.0,72359.0,138557.0,110568.0,138557.0,48147.0,266.5104183147817,30.52630327083243,132.53932074678195
138557.0,72335.0,138557.0,110562.0,138557.0,48149.0,263.59563970463523,29.854176697707786,129.49757816229527
138557.0,72364.0,138557.0,110570.0,138557.0,48156.0,260.6221481296181,29.176715832474613,126.41401444043504
138568.0,72361.0,138568.0,110583.0,138568.0,48149.0,257.5900582445345,28.49525999909463,123.28911663494443
138568.0,72322.0,138568.0,110536.0,138568.0,48140.0,254.49959857661307,27.811089020708863,120.12336287896167
138568.0,72323.0,138568.0,110555.0,138568.0,48131.0,251.3510196032391,27.1253071414921,116.9171993243026
138568.0,72353.0,138568.0,110559.0,138568.0,48154.0,248.14429742537146,26.438571241018607,113.67095574858752
138568.0,72337.0,138568.0,110544.0,138568.0,48142.0,244.87911062559203,25.75098507758819,110.38490623329693
138568.0,72348.0,138568.0,110596.0,138568.0,48142.0,241.5551044766726,25.062206086290367,107.05945668605614
138578.0,72337.0,138578.0,110592.0,138578.0,48142.0,238.172088356773,24.371762702421876,103.69526491837362
138578.0,72324.0,138578.0,110538.0,138578.0,48116.0,234.73006721659553,23.679446627755354,100.29323659823345
138578.0,72322.0,138578.0,110560.0,138578.0,48126.0,231.2291394817786,22.985278170001095,96.85441122093161
138578.0,72305.0,138578.0,110559.0,138578.0,48128.0,227.66930793557364,22.289115491844925,93.37983318288371
138578.0,72335.0,138578.0,110567.0,138578.0,48115.0,224.0503391682101,21.59050071990424,89.87055565576034
138578.0,72354.0,138578.0,110580.0,138578.0,48131.0,220.37188610588427,20.88882386875013,86.32772460915783
138588.0,72324.0,138588.0,110556.0,138588.0,48104.0,216.63389588410524,20.183529367778256,82.75263771213787
138588.0,72291.0,138588.0,110550.0,138588.0,48099.0,212.83683356920477,19.47414664738527,79.14671533917934
138588.0,72291.0,138588.0,110547.0,138588.0,48087.0,208.98136150514839,18.7600820665805,75.51131887891938
138588.0,72309.0,138588.0,110545.0,138588.0,48102.0,205.0678688962666,18.04036647591426,71.84754581789639
138588.0,72318.0,138588.0,110576.0,138588.0,48114.0,201.09640812862492,17.31358509328672,68.15624440160514
138588.0,72319.0,138588.0,110596.0,138588.0,48109.0,197.0670236512289,16.57812531309986,64.43828628549625
138599.0,72295.0,138599.0,110566.0,138599.0,48095.0,192.9800706906977,15.83264939970914,60.694852274526625
138599.0,72296.0,138599.0,110585.0,138599.0,48080.0,188.83625059174705,15.076397487311617,56.92746803527319
138599.0,72290.0,138599.0,110562.0,138599.0,48076.0,184.6364497884218,14.309173194010668,53.13780188244556
138599.0,72303.0,138599.0,110562.0,138599.0,48053.0,180.3816474896191,13.53120412616802,49.32739458306497
138599.0,72284.0,138599.0,110558.0,138599.0,48095.0,176.07298109280876,12.742966324525526,45.49747492845319
138599.0,72295.0,138599.0,110570.0,138599.0,48060.0,171.71183977417272,11.945047523952653,41.649002684825746
138609.0,72271.0,138609.0,110517.0,138609.0,48056.0,167.29988300651885,11.138061355673543,37.782809363254046
138609.0,72258.0,138609.0,110542.0,138609.0,48058.0,162.83894348350836,10.322402008706064,33.89955547918896
138609.0,72243.0,138609.0,110562.0,138609.0,48045.0,158.33076987487814,9.497952661696175,29.999591293137314
138609.0,72261.0,138609.0,110577.0,138609.0,48068.0,153.77673280150478,8.664196938809056,26.082937547716483
138609.0,72262.0,138609.0,110566.0,138609.0,48060.0,149.1777590818889,7.820676727819958,22.14942463885575
138609.0,72256.0,138609.0,110553.0,138609.0,48065.0,144.53452253649726,6.967292466730029,18.198935576664326
138619.0,72236.0,138619.0,110554.0,138619.0,48036.0,139.84760799670045,6.104249609879346,14.231570602440058
138619.0,72247.0,138619.0,110550.0,138619.0,48029.0,135.11747040622353,5.2318637658111555,10.247561446561974
138619.0,72251.0,138619.0,110541.0,138619.0,48041.0,130.34437112793134,4.3504167547750825,6.2470323615348775
138619.0,72244.0,138619.0,110554.0,138619.0,48042.0,125.52848571622195,3.460065601520384,2.2299114803963107
138619.0,72263.0,138619.0,110571.0,138619.0,48044.0,120.67011433679033,2.560865166313434,-1.803904294958386
138619.0,72235.0,138619.0,110569.0,138619.0,48033.0,115.7698814955383,1.6530015461769096,-5.85433729521219
138630.0,72229.0,138630.0,110516.0,138630.0,48022.0,110.82881375811019,0.7369853012218925,-9.92106020470078
138630.0,72212.0,138630.0,110533.0,138630.0,48000.0,105.84819222765617,-0.1865800071201562,-14.003620899962868
138630.0,72217.0,138630.0,110550.0,138630.0,48020.0,100.82930117047118,-1.117427324296301,-18.10167399686145
138630.0,72229.0,138630.0,110557.0,138630.0,48013.0,95.77331964182474,-2.055676914819756,-22.215086392836042
138630.0,72223.0,138630.0,110581.0,138630.0,47998.0,90.68145725551585,-3.001470036262049,-26.34385610435959
138630.0,72194.0,138630.0,110530.0,138630.0,47997.0,85.55513977922044,-3.954596289243426,-30.488077132789158
138640.0,72185.0,138640.0,110511.0,138640.0,47996.0,80.39593286139728,-4.9145375991838165,-34.64802119043355
138640.0,72179.0,138640.0,110552.0,138640.0,47999.0,75.2052240796558,-5.8809247889562215,-38.82416022205524
138640.0,72206.0,138640.0,110545.0,138640.0,47997.0,69.98401741147171,-6.853789522661671,-43.0170690030738
138640.0,72212.0,138640.0,110508.0,138640.0,48026.0,64.73310518865463,-7.833429495372215,-47.227228039537806
138640.0,72192.0,138640.0,110567.0,138640.0,48002.0,59.45348393403276,-8.820354346023208,-51.454710566448625
138640.0,72164.0,138640.0,110540.0,138640.0,47981.0,54.146562759890855,-9.815259668652729,-55.69894791114302
138650.0,72171.0,138650.0,110528.0,138650.0,47980.0,48.81395989705288,-10.81884090174745,-59.95883225863446
138650.0,72175.0,138650.0,110538.0,138650.0,47973.0,43.45722729196763,-11.831768845679562,-64.23299898882351
138650.0,72160.0,138650.0,110583.0,138650.0,47978.0,38.07782094366553,-12.854735719664276,-68.51997292039437
138650.0,72167.0,138650.0,110590.0,138650.0,47973.0,32.677193482717996,-13.88807997604701,-72.81814207848646
138650.0,72152.0,138650.0,110541.0,138650.0,47973.0,27.256836926890458,-14.931198297772639,-77.12566426842142
138650.0,72146.0,138650.0,110526.0,138650.0,47937.0,21.81827354024722,-15.982475334548866,-81.44044209892661
138661.0,72115.0,138661.0,110480.0,138661.0,47939.0,16.362942128998213,-17.039917379479704,-85.76030817585809
138661.0,72149.0,138661.0,110505.0,138661.0,47942.0,10.891989843485533,-18.102010411250717,-90.08331732405532
138661.0,72131.0,138661.0,110547.0,138661.0,47935.0,5.406210261528145,-19.16818329902567,-94.40787068065907
138661.0,72135.0,138661.0,110556.0,138661.0,47924.0,-0.09378931292155812,-20.23852004085002,-98.7326818412339
138661.0,72136.0,138661.0,110516.0,138661.0,47943.0,-5.607403855219445,-21.313119728104553,-103.0567510559307
138661.0,72110.0,138661.0,110515.0,138661.0,47929.0,-11.133947328689942,-22.391893488593396,-107.37929085612666
138671.0,72117.0,138671.0,110514.0,138671.0,47925.0,-16.67268428581059,-23.474873285643852,-111.69958695671994
138671.0,72118.0,138671.0,110521.0,138671.0,47938.0,-22.222913650218004,-24.562494266429567,-116.01690981471552
138671.0,72110.0,138671.0,110559.0,138671.0,47908.0,-27.78394280827871,-25.655532932615472,-120.33046068055546
138671.0,72081.0,138671.0,110526.0,138671.0,47889.0,-33.35503703029218,-26.754761832047507,-124.63942299794661
138671.0,72097.0,138671.0,110524.0,138671.0,47913.0,-38.935538522656714,-27.860674900099312,-128.943202150569
138671.0,72086.0,138671.0,110526.0,138671.0,47898.0,-44.52501549881151,-28.973548535741998,-133.24157633249388
138681.0,72086.0,138681.0,110525.0,138681.0,47891.0,-50.123249038074334,-30.093611740833587,-137.534622972561
138681.0,72083.0,138681.0,110527.0,138681.0,47904.0,-55.730142744433806,-31.221078419423122,-141.82264332999125
138681.0,72095.0,138681.0,110543.0,138681.0,47922.0,-61.34561997384037,-32.35606813796373,-146.1060468111852
138681.0,72083.0,138681.0,110533.0,138681.0,47899.0,-66.96944994969908,-33.49844569619742,-150.38504929471856
138681.0,72065.0,138681.0,110553.0,138681.0,47880.0,-72.60109991139137,-34.64762200593488,-154.65945663396042
138681.0,72053.0,138681.0,110514.0,138681.0,47875.0,-78.23979948837285,-35.80242758914497,-158.9288045115037
138692.0,72056.0,138692.0,110509.0,138692.0,47876.0,-83.88476267817674,-36.96121251843236,-163.19264620973746
138692.0,72062.0,138692.0,110536.0,138692.0,47871.0,-89.53530639370524,-38.12213236219698,-167.45068475372904
138692.0,72056.0,138692.0,110502.0,138692.0,47884.0,-95.19075025418448,-39.283302462581474,-171.70272313229026
138692.0,72046.0,138692.0,110535.0,138692.0,47882.0,-100.85025144724483,-40.44276596334049,-175.94849534382666
138692.0,72033.0,138692.0,110493.0,138692.0,47860.0,-106.51276896373304,-41.5984840911827,-180.18747743910194
138692.0,72017.0,138692.0,110452.0,138692.0,47828.0,-112.17719770976578,-42.74854707742216,-184.41892951336393
138702.0,72016.0,138702.0,110498.0,138702.0,47870.0,-117.84258955710249,-43.891692801976134,-188.64219699723532
138702.0,72024.0,138702.0,110558.0,138702.0,47857.0,-123.50830351741337,-45.027552410640126,-192.85683819469006
138702.0,72022.0,138702.0,110520.0,138702.0,47839.0,-129.17395150619558,-46.15606844834561,-197.062430358107
138702.0,72011.0,138702.0,110526.0,138702.0,47852.0,-134.8392186441593,-47.27674120969873,-201.25844287050597
138702.0,71998.0,138702.0,110497.0,138702.0,47820.0,-140.50377869730545,-48.38849054194286,-205.4443070690612
138702.0,72002.0,138702.0,110474.0,138702.0,47809.0,-146.16736335646323,-49.49001979162519,-209.61958356603907
138712.0,71994.0,138712.0,110523.0,138712.0,47813.0,-151.8298356135386,-50.58025289934024,-213.784235178875
138712.0,71992.0,138712.0,110521.0,138712.0,47839.0,-157.4911761773078,-51.65841362886961,-217.93878084985084
138712.0,72004.0,138712.0,110495.0,138712.0,47813.0,-163.1514051960085,-52.72371458544917,-222.08411604266814
138712.0,71972.0,138712.0,110503.0,138712.0,47825.0,-168.8104696459867,-53.77519638238378,-226.22124649535556
138712.0,71983.0,138712.0,110499.0,138712.0,47805.0,-174.4682056695044,-54.81187483317137,-230.3512024350224
138712.0,71985.0,138712.0,110501.0,138712.0,47819.0,-180.1243799130982,-55.832858240039386,-234.47505834758573
138723.0,71951.0,138723.0,110473.0,138723.0,47802.0,-185.77868238005266,-56.83739635813444,-238.59392672950025
138723.0,71971.0,138723.0,110517.0,138723.0,47832.0,-191.43075175422672,-57.824982486709544,-242.70887721921036
138723.0,71959.0,138723.0,110497.0,138723.0,47798.0,-197.08025142016947,-58.79534276610002,-246.82077095650254
138723.0,71952.0,138723.0,110491.0,138723.0,47762.0,-202.72684846162673,-59.74827222337227,-250.93022869895265
138723.0,71923.0,138723.0,110467.0,138723.0,47776.0,-208.37022112084384,-60.683649465848944,-255.03797349028622
138723.0,71927.0,138723.0,110469.0,138723.0,47783.0,-214.01026674615866,-61.60174740413747,-259.1452301347476
138733.0,71928.0,138733.0,110486.0,138733.0,47778.0,-219.64734024538825,-62.50353847166268,-263.2537443289837
138733.0,71943.0,138733.0,110528.0,138733.0,47785.0,-225.28225591765982,-63.390630061124426,-267.3655590246559
138733.0,71902.0,138733.0,110500.0,138733.0,47778.0,-230.91610324640095,-64.26478360219001,-271.48282319369235
138733.0,71922.0,138733.0,110515.0,138733.0,47770.0,-236.55018018729902,-65.12743614292512,-275.60768150334127
138733.0,71927.0,138733.0,110455.0,138733.0,47762.0,-242.18603582418467,-65.9796432930531,-279.74226911876906
138733.0,71901.0,138733.0,110486.0,138733.0,47778.0,-247.82538153094106,-66.82243943565825,-283.88875894895205
138744.0,71915.0,138744.0,110508.0,138744.0,47770.0,-253.46997380142767,-67.65718411936828,-288.04929937075696
138744.0,71926.0,138744.0,110502.0,138744.0,47759.0,-259.1215536911467,-68.48545342431628,-292.2258626001837
138744.0,71907.0,138744.0,110470.0,138744.0,47772.0,-264.78166675421477,-69.30873529434659,-296.42016554095534
138744.0,71890.0,138744.0,110469.0,138744.0,47753.0,-270.45149698840737,-70.12850149748083,-300.63364281228536
138744.0,71891.0,138744.0,110487.0,138744.0,47737.0,-276.1319555631104,-70.94655093275433,-304.86745368818185
138744.0,71895.0,138744.0,110482.0,138744.0,47758.0,-281.8238421589853,-71.76513651849926,-309.1225896852379
138754.0,71873.0,138754.0,110511.0,138754.0,47750.0,-287.5278603287801,-72.58678048745776,-313.3999147933524
138754.0,71878.0,138754.0,110527.0,138754.0,47744.0,-293.2446022058226,-73.41390348879419,-317.7000270140076
138754.0,71869.0,138754.0,110487.0,138754.0,47728.0,-298.9745976536169,-74.24840705736308,-322.0231698600043
138754.0,71831.0,138754.0,110478.0,138754.0,47722.0,-304.71841164814646,-75.09157566841019,-326.36933950637786
138754.0,71853.0,138754.0,110475.0,138754.0,47706.0,-310.4768586820245,-75.94443188346506,-330.7384944935403
138754.0,71865.0,138754.0,110499.0,138754.0,47718.0,-316.25116215537594,-76.80809122968748,-335.1307445347307
138764.0,71871.0,138764.0,110535.0,138764.0,47733.0,-322.0427410045621,-77.6836634652232,-339.54636664899243
138764.0,71847.0,138764.0,110473.0,138764.0,47715.0,-327.8527995965194,-78.57181554710915,-343.9855838587444
138764.0,71823.0,138764.0,110492.0,138764.0,47706.0,-333.6821923736645,-79.47258719427745,-348.448349291621
138764.0,71822.0,138764.0,110466.0,138764.0,47694.0,-339.5316745177005,-80.3856796114085,-352.9343825758954
138764.0,71820.0,138764.0,110445.0,138764.0,47666.0,-345.4022229047123,-81.31088345619673,-357.4434140097589
138764.0,71848.0,138764.0,110481.0,138764.0,47706.0,-351.29508531712554,-82.24843963586622,-361.97545032979644
138775.0,71825.0,138775.0,110505.0,138775.0,47704.0,-357.21151538391825,-83.19910223142728,-366.53077471833086
138775.0,71809.0,138775.0,110523.0,138775.0,47698.0,-363.1525028413422,-84.16366879172854,-371.1096041493518
138775.0,71817.0,138775.0,110451.0,138775.0,47668.0,-369.11877632624635,-85.14241510048575,-375.71181892962267
138775.0,71781.0,138775.0,110449.0,138775.0,47676.0,-375.11096736793377,-86.13517102792046,-380.33705989391507
138775.0,71810.0,138775.0,110471.0,138775.0,47687.0,-381.129753420331,-87.14194639029277,-384.98492005742
138775.0,71821.0,138775.0,110516.0,138775.0,47683.0,-387.1758362302329,-88.16320626484652,-389.6548826578637
138785.0,71791.0,138785.0,110509.0,138785.0,47661.0,-393.249666478104,-89.1993889914837,-394.34612095334563
138785.0,71788.0,138785.0,110461.0,138785.0,47667.0,-399.351226325486,-90.25031241502225,-399.0574673996686
138785.0,71761.0,138785.0,110481.0,138785.0,47662.0,-405.48015317701845,-91.315170589157,-403.7875117609272
138785.0,71760.0,138785.0,110462.0,138785.0,47653.0,-411.6360447848191,-92.39293071963942,-408.53463189141416
138785.0,71796.0,138785.0,110470.0,138785.0,47661.0,-417.81863405294257,-93.4826021804008,-413.29696532921747
138785.0,71776.0,138785.0,110489.0,138785.0,47678.0,-424.027600827299,-94.58327037514589,-418.0723055659516
138795.0,71777.0,138795.0,110511.0,138795.0,47660.0,-430.2621825804895,-95.69388535798558,-422.8578441305353
138795.0,71755.0,138795.0,110459.0,138795.0,47634.0,-436.52098874999353,-96.81290238383214,-427.6499730760818
138795.0,71733.0,138795.0,110446.0,138795.0,47648.0,-442.8021239911658,-97.93826214088978,-432.44438878535124
138795.0,71733.0,138795.0,110440.0,138795.0,47633.0,-449.1034888485208,-99.06789284946396,-437.2362928164444
138795.0,71741.0,138795.0,110488.0,138795.0,47639.0,-455.42302922460283,-100.2001656244936,-442.0204349389478
138795.0,71757.0,138795.0,110472.0,138795.0,47636.0,-461.75868377224106,-101.33379116549038,-446.7910491081739
138806.0,71735.0,138806.0,110479.0,138806.0,47629.0,-468.1080677289616,-102.46739662458349,-451.54176956869077
138806.0,71744.0,138806.0,110451.0,138806.0,47605.0,-474.46819479849705,-103.59931291240906,-456.2656122709832
138806.0,71733.0,138806.0,110462.0,138806.0,47603.0,-480.8353687026778,-104.72769593509446,-460.9551290645927
138806.0,71716.0,138806.0,110508.0,138806.0,47601.0,-487.20516355534653,-105.85062969079837,-465.6026418015597
138806.0,71719.0,138806.0,110479.0,138806.0,47634.0,-493.5724810367045,-106.96586118268326,-470.20028541179465
138806.0,71734.0,138806.0,110470.0,138806.0,47613.0,-499.93159344525975,-108.0704323203052,-474.7397347290456
138816.0,71686.0,138816.0,110448.0,138816.0,47626.0,-506.2760635124836,-109.16072493254923,-479.211831863498
138816.0,71687.0,138816.0,110447.0,138816.0,47605.0,-512.5987799649927,-110.23286232362469,-483.6063815254879
138816.0,71685.0,138816.0,110473.0,138816.0,47581.0,-518.8922304651497,-111.28303441048654,-487.9121834068718
138816.0,71668.0,138816.0,110466.0,138816.0,47580.0,-525.148720743836,-112.30748145646906,-492.11729183122065
138816.0,71690.0,138816.0,110438.0,138816.0,47591.0,-531.3604045773371,-113.30231663506163,-496.2093107800231
138816.0,71669.0,138816.0,110466.0,138816.0,47581.0,-537.5191936643085,-114.26354574342749,-500.1754514771387
138826.0,71669.0,138826.0,110449.0,138826.0,47566.0,-543.6166286069558,-115.18719312490853,-504.00244804639476
138826.0,71665.0,138826.0,110447.0,138826.0,47554.0,-549.6438266124619,-116.06931941528548,-507.67662307139545
138826.0,71626.0,138826.0,110435.0,138826.0,47563.0,-555.5915486878964,-116.90607492402361,-511.1840974150625
138826.0,71625.0,138826.0,110446.0,138826.0,47536.0,-561.4504412559118,-117.69385758357164,-514.5109545104904
138826.0,71667.0,138826.0,110476.0,138826.0,47565.0,-567.2113007095397,-118.42933881511728,-517.6433190961551
138826.0,71646.0,138826.0,110460.0,138826.0,47545.0,-572.8649503932693,-119.10920160204188,-520.567348821123
138837.0,71625.0,138837.0,110460.0,138837.0,47542.0,-578.4018719707973,-119.72982360920483,-523.2691634543393
138837.0,71622.0,138837.0,110447.0,138837.0,47540.0,-583.8121439537499,-120.28721711063343,-525.7348558304009
138837.0,71610.0,138837.0,110450.0,138837.0,47540.0,-589.0856796066695,-120.77718334636612,-527.9505748626802
138837.0,71620.0,138837.0,110470.0,138837.0,47559.0,-594.2124063505943,-121.19542644812694,-529.9025110816754
138837.0,71629.0,138837.0,110461.0,138837.0,47556.0,-599.1822372355615,-121.53746921958074,-531.5767143179182
138837.0,71625.0,138837.0,110432.0,138837.0,47540.0,-603.9848509986826,-121.79853685483263,-532.9588755200739
138847.0,71600.0,138847.0,110428.0,138847.0,47532.0,-608.6094773377268,-121.97373658227556,-534.0343160080442
138847.0,71590.0,138847.0,110433.0,138847.0,47531.0,-613.0449487962029,-122.05846255560861,-534.7882048613583
138847.0,71597.0,138847.0,110427.0,138847.0,47539.0,-617.2799649680161,-122.04866997236846,-535.2057640941196
138847.0,71617.0,138847.0,110476.0,138847.0,47532.0,-621.3032132079253,-121.94085869172343,-535.2723184102372
138847.0,71612.0,138847.0,110496.0,138847.0,47557.0,-625.1031559837525,-121.73168351134417,-534.9732304905253
138847.0,71589.0,138847.0,110441.0,138847.0,47523.0,-628.667738203669,-121.41735716625402,-534.2938032361446
138857.0,71574.0,138857.0,110451.0,138857.0,47518.0,-631.9843953530407,-120.99346137353017,-533.2193275293351
138857.0,71584.0,138857.0,110399.0,138857.0,47513.0,-635.0403486656954,-120.45539472700406,-531.7353953851778
138857.0,71570.0,138857.0,110446.0,138857.0,47510.0,-637.822853820713,-119.79900224448396,-529.8282826658434
138857.0,71567.0,138857.0,110442.0,138857.0,47508.0,-640.3192983421828,-119.02088887510887,-527.4852115895771
138857.0,71567.0,138857.0,110471.0,138857.0,47529.0,-642.5172857251347,-118.1182511526651,-524.6944894265957
138857.0,71565.0,138857.0,110439.0,138857.0,47508.0,-644.4047188367535,-117.08851244952885,-521.4455318881802
138868.0,71555.0,138868.0,110439.0,138868.0,47507.0,-645.9698485903026,-115.9292030952817,-517.7289091984621
138868.0,71551.0,138868.0,110423.0,138868.0,47499.0,-647.201363159905,-114.63819472507338,-513.5365811343456
138868.0,71566.0,138868.0,110431.0,138868.0,47538.0,-648.0885079964451,-113.21405823190422,-508.8621594382834
138868.0,71565.0,138868.0,110430.0,138868.0,47537.0,-648.6210913023007,-111.65630861213857,-503.7008943042963
138868.0,71562.0,138868.0,110451.0,138868.0,47522.0,-648.7893712660477,-109.96545579877275,-498.04947418660095
138868.0,71542.0,138868.0,110431.0,138868.0,47529.0,-648.584033829696,-108.1429120895321,-491.9060296623087
138878.0,71551.0,138878.0,110422.0,138878.0,47554.0,-647.9963766560295,-106.19097066736407,-485.2703374072994
138878.0,71544.0,138878.0,110470.0,138878.0,47571.0,-647.0185579346128,-104.11292194974202,-478.1438378148554
138878.0,71574.0,138878.0,110484.0,138878.0,47553.0,-645.6437018631502,-101.91293532958471,-470.5294359076955
138878.0,71564.0,138878.0,110471.0,138878.0,47585.0,-643.8657922499522,-99.59557668545736,-462.4314072683982
138878.0,71573.0,138878.0,110487.0,138878.0,47592.0,-641.6794860027411,-97.1654188912276,-453.8554190133914
138878.0,71582.0,138878.0,110477.0,138878.0,47602.0,-639.0800045498623,-94.6269617191836,-444.80845520620903
138888.0,71558.0,138888.0,110452.0,138888.0,47577.0,-636.0631236057461,-91.98473147308687,-435.29877402017416
138888.0,71554.0,138888.0,110495.0,138888.0,47604.0,-632.6253302408093,-89.2435035398129,-425.3361230792848
138888.0,71586.0,138888.0,110472.0,138888.0,47634.0,-628.7641210817927,-86.40844533894096,-414.9319941456303
138888.0,71600.0,138888.0,110502.0,138888.0,47654.0,-624.4780835555662,-83.48503785394482,-404.0995343530167
138888.0,71587.0,138888.0,110531.0,138888.0,47658.0,-619.7666590704177,-80.47885450319922,-392.853198610939
138888.0,71594.0,138888.0,110491.0,138888.0,47655.0,-614.6299848299195,-77.39524372192074,-381.2085515461211
138899.0,71595.0,138899.0,110483.0,138899.0,47678.0,-609.069000480318,-74.2392247060189,-369.1823561276635
138899.0,71597.0,138899.0,110487.0,138899.0,47682.0,-603.0856273327735,-71.01584101456298,-356.7927380047007
138899.0,71608.0,138899.0,110505.0,138899.0,47712.0,-596.6829007282928,-67.7305630739069,-344.05923680563444
138899.0,71639.0,138899.0,110522.0,138899.0,47756.0,-589.864998816502,-64.38931645989703,-331.00266488600624
138899.0,71640.0,138899.0,110520.0,138899.0,47739.0,-582.6370786062034,-60.99822684676329,-317.6447728937794
138899.0,71642.0,138899.0,110493.0,138899.0,47753.0,-575.0050486713658,-57.56344570144334,-304.00801491954894
138909.0,71653.0,138909.0,110504.0,138909.0,47773.0,-566.9755130980577,-54.091313537795536,-290.11563513772444
138909.0,71671.0,138909.0,110540.0,138909.0,47815.0,-558.5558318414112,-50.58862577927285,-275.9917595113948
138909.0,71682.0,138909.0,110553.0,138909.0,47829.0,-549.7540949066323,-47.06252342616187,-261.66117408473997
138909.0,71708.0,138909.0,110568.0,138909.0,47854.0,-540.5789757124653,-43.520006284921244,-247.148936814274
138909.0,71696.0,138909.0,110572.0,138909.0,47841.0,-531.0395625382264,-39.96745304041636,-232.48013379242636
138909.0,71710.0,138909.0,110530.0,138909.0,47851.0,-521.1453175295269,-36.41043531693942,-217.67995106951838
138919.0,71704.0,138919.0,110546.0,138919.0,47886.0,-510.9062317741218,-32.853950994387475,-202.77394388499374
138919.0,71727.0,138919.0,110560.0,138919.0,47932.0,-500.33305673966186,-29.30283577448821,-187.78809167528135
138919.0,71763.0,138919.0,110563.0,138919.0,47964.0,-489.43739520890955,-25.761903565844605,-172.74838304211892
138919.0,71765.0,138919.0,110571.0,138919.0,47964.0,-478.2315238685311,-22.235813505458275,-157.68019899857936
138919.0,71776.0,138919.0,110561.0,138919.0,47962.0,-466.72813133497425,-18.728964994373385,-142.6079914909491
138919.0,71781.0,138919.0,110553.0,138919.0,47982.0,-454.940254541237,-15.245566304512444,-127.55541422789297
138930.0,71782.0,138930.0,110590.0,138930.0,47991.0,-442.88142116865197,-11.789795665091063,-112.54560956110143
138930.0,71831.0,138930.0,110586.0,138930.0,48016.0,-430.56580544662415,-8.36579160783802,-97.6013653037115
138930.0,71848.0,138930.0,110599.0,138930.0,48042.0,-418.00814796309714,-4.977413748359638,-82.74509823576906
138930.0,71856.0,138930.0,110603.0,138930.0,48068.0,-405.223422837141,-1.628012670313872,-67.99867772388026
138930.0,71859.0,138930.0,110583.0,138930.0,48059.0,-392.2266039053628,1.6796455027076789,-53.38319801107846
138930.0,71861.0,138930.0,110573.0,138930.0,48075.0,-379.03275204720126,4.943227101339865,-38.91893929186031
138940.0,71870.0,138940.0,110587.0,138940.0,48097.0,-365.6573017395669,8.16047989528311,-24.625533078762118
138940.0,71913.0,138940.0,110607.0,138940.0,48139.0,-352.11629945527164,11.328998847523238,-10.522013478313994
138940.0,71929.0,138940.0,110613.0,138940.0,48137.0,-338.42636067491475,14.446337393853078,3.3734142281990103
138940.0,71924.0,138940.0,110616.0,138940.0,48148.0,-324.60442594021754,17.51028826123578,17.043623208268343
138940.0,71962.0,138940.0,110587.0,138940.0,48155.0,-310.66764325319895,20.5190040368767,30.47255826838176
138940.0,71961.0,138940.0,110607.0,138940.0,48178.0,-296.6333904395564,23.470821969284593,43.64507839957511
138950.0,71983.0,138950.0,110615.0,138950.0,48211.0,-282.5192729993419,26.364021742805825,56.54692442542162
138950.0,72017.0,138950.0,110630.0,138950.0,48214.0,-268.343082714894,29.1968319810802,69.16490331094994
138950.0,72040.0,138950.0,110577.0,138950.0,48211.0,-254.12263347379638,31.96754387672199,81.48706900874893
138950.0,72060.0,138950.0,110612.0,138950.0,48264.0,-239.87544135266137,34.674341427222984,93.50272622905013
138950.0,72039.0,138950.0,110596.0,138950.0,48246.0,-225.6185033754889,37.3149495215512,105.20245786839527
138950.0,72072.0,138950.0,110633.0,138950.0,48247.0,-211.36840103655823,39.88651075312448,116.57819668064954
138961.0,72087.0,138961.0,110647.0,138961.0,48277.0,-197.14154792467252,42.385802339403,127.62309865113815
138961.0,72116.0,138961.0,110646.0,138961.0,48285.0,-182.95423687696317,44.809647530133404,138.33138630528526
138961.0,72143.0,138961.0,110660.0,138961.0,48297.0,-168.82244160744446,47.15528482933982,148.69839490309238
138961.0,72159.0,138961.0,110611.0,138961.0,48306.0,-154.7615220383742,49.42047252057327,158.7206618342696
138961.0,72129.0,138961.0,110630.0,138961.0,48287.0,-140.78605745157807,51.60323751654043,168.3958752075407
138961.0,72177.0,138961.0,110629.0,138961.0,48299.0,-126.91001338183943,53.70146288601639,177.72262103717082
138971.0,72206.0,138971.0,110683.0,138971.0,48339.0,-113.14696452837902,55.71277350896382,186.70009302657502
138971.0,72215.0,138971.0,110683.0,138971.0,48326.0,-99.50995634454543,57.63494051432646,195.3280766509675
138971.0,72225.0,138971.0,110652.0,138971.0,48335.0,-86.0112153321428,59.46643220979328,203.6070942388193
138971.0,72222.0,138971.0,110614.0,138971.0,48335.0,-72.66211236181584,61.2064518395226,211.53836702855062
138971.0,72240.0,138971.0,110654.0,138971.0,48350.0,-59.47337255184854,62.85437722344449,219.12364072987776
138971.0,72269.0,138971.0,110651.0,138971.0,48362.0,-46.45527836923122,64.40930251485729,226.36509918562302
138981.0,72290.0,138981.0,110701.0,138981.0,48393.0,-33.6176429936595,65.8701698160944,233.26545714607772
138981.0,72333.0,138981.0,110691.0,138981.0,48410.0,-20.969521231513454,67.23630652327051,239.82825636950622
138981.0,72301.0,138981.0,110686.0,138981.0,48381.0,-8.518853964281618,68.50794344752367,246.05820306044137
138981.0,72314.0,138981.0,110656.0,138981.0,48369.0,3.7276020331415225,69.68633934168864,251.9611559521216
138981.0,72317.0,138981.0,110655.0,138981.0,48358.0,15.763945833936873,70.77344706441663,257.5436313171373
138981.0,72338.0,138981.0,110651.0,138981.0,48413.0,27.584749916261956,71.77142692566508,262.8122658931177
138992.0,72364.0,138992.0,110687.0,138992.0,48392.0,39.184931336664704,72.68237951999743,267.77372725804116
138992.0,72351.0,138992.0,110659.0,138992.0,48419.0,50.55982003584376,73.50842345178472,272.4349601390592
138992.0,72393.0,138992.0,110657.0,138992.0,48411.0,61.70521600029423,74.25183051722787,276.8033738136337
138992.0,72384.0,138992.0,110675.0,138992.0,48374.0,72.61739900478716,74.91495519111665,280.88679836121565
138992.0,72404.0,138992.0,110681.0,138992.0,48415.0,83.2931538077006,75.50018297744047,284.69318321898857
138992.0,72417.0,138992.0,110665.0,138992.0,48408.0,93.72977044678174,76.0100634919231,288.2303008752263
139001.0,72424.0,139001.0,110648.0,139001.0,48436.0,103.92503390664189,76.44733476039222,291.50578328853015
139001.0,72446.0,139001.0,110660.0,139001.0,48436.0,113.8772497926488,76.81467675410201,294.5273835250659
139001.0,72458.0,139001.0,110674.0,139001.0,48433.0,123.58530810755644,77.11449156144688,297.30320737682183
139001.0,72438.0,139001.0,110643.0,139001.0,48419.0,133.04872852227084,77.34891046020496,299.8417528104955
139001.0,72466.0,139001.0,110679.0,139001.0,48418.0,142.26753944746406,77.51983151262068,302.1517023446772
139001.0,72470.0,139001.0,110671.0,139001.0,48438.0,151.2420658015281,77.62894106937776,304.24165628878615
139011.0,72512.0,139011.0,110699.0,139011.0,48448.0,159.9729108210742,77.67790732470954,306.12008583866606
139011.0,72491.0,139011.0,110684.0,139011.0,48439.0,168.46115821346064,77.66869729635545,307.7955118229363
139011.0,72498.0,139011.0,110650.0,139011.0,48429.0,176.70849309786735,77.60372575798748,309.27660931566606
139011.0,72495.0,139011.0,110646.0,139011.0,48439.0,184.71703123437862,77.48559321380942,310.5720820130677
139011.0,72505.0,139011.0,110677.0,139011.0,48432.0,192.48900826794687,77.31663342512708,311.690484182272
139011.0,72520.0,139011.0,110682.0,139011.0,48441.0,200.02656974649472,77.09881681198269,312.64013965754793
139022.0,72543.0,139022.0,110673.0,139022.0,48445.0,207.33175898244542,76.83404608253707,313.42913939599026
139022.0,72559.0,139022.0,110701.0,139022.0,48427.0,214.4067087615913,76.52444332874845,314.06535661245147
139022.0,72537.0,139022.0,110664.0,139022.0,48431.0,221.25387088721578,76.17249698102975,314.5563679285366
139022.0,72567.0,139022.0,110635.0,139022.0,48435.0,227.8760406438371,75.78098355594744,314.9092823063522
139022.0,72579.0,139022.0,110669.0,139022.0,48442.0,234.27627121601859,75.35256495555345,315.13065965821517
139022.0,72581.0,139022.0,110699.0,139022.0,48462.0,240.45793903225564,74.88953478229291,315.2266180656175
139032.0,72591.0,139032.0,110674.0,139032.0,48462.0,246.42487696333183,74.39412035152637,315.20309094338415
139032.0,72593.0,139032.0,110683.0,139032.0,48439.0,252.18140122668137,73.86888701294808,315.0660619325424
139032.0,72566.0,139032.0,110639.0,139032.0,48435.0,257.73220151766856,73.31673877677005,314.82152436375446
139032.0,72572.0,139032.0,110632.0,139032.0,48443.0,263.08201733040164,72.7405252800676,314.4752075961637
139032.0,72583.0,139032.0,110661.0,139032.0,48454.0,268.23519746062834,72.14254237149218,314.0324140724198
139032.0,72624.0,139032.0,110681.0,139032.0,48449.0,273.195516930355,71.52439572931672,313.4981045191003
139043.0,72596.0,139043.0,110731.0,139043.0,48481.0,277.9663726202186,70.8874824276923,312.87710362669804
139043.0,72615.0,139043.0,110666.0,139043.0,48426.0,282.5509932184207,70.23374029044949,312.1742864100247
139043.0,72615.0,139043.0,110644.0,139043.0,48438.0,286.9524124348849,69.56591822858448,311.39452450683314
139043.0,72630.0,139043.0,110644.0,139043.0,48436.0,291.1733976297497,68.88706798641982,310.54235987840997
139043.0,72641.0,139043.0,110644.0,139043.0,48449.0,295.21650779847494,68.19986635029413,309.62178216934524
139043.0,72646.0,139043.0,110673.0,139043.0,48459.0,299.0842363026911,67.50637889050451,308.636320048221
139053.0,72638.0,139053.0,110656.0,139053.0,48476.0,302.77911886464454,66.80823075062399,307.5893290242819
139053.0,72656.0,139053.0,110685.0,139053.0,48428.0,306.30371972394727,66.10689502484973,306.48426313259876
139053.0,72648.0,139053.0,110658.0,139053.0,48444.0,309.66056670626807,65.40391653336772,305.3246430093056
139053.0,72675.0,139053.0,110636.0,139053.0,48436.0,312.8521504733461,64.70093737937762,304.113756672286
139053.0,72660.0,139053.0,110663.0,139053.0,48446.0,315.8809959689894,63.99946150305564,302.85446930756524
139053.0,72672.0,139053.0,110673.0,139053.0,48437.0,318.74972098451747,63.300681975253,301.5492370722113
139063.0,72678.0,139063.0,110647.0,139063.0,48453.0,321.4610271219694,62.605619900953066,300.2001730432979
139063.0,72663.0,139063.0,110650.0,139063.0,48431.0,324.0176635455619,61.91523086180071,298.8091065451975
139063.0,72684.0,139063.0,110641.0,139063.0,48437.0,326.42235938818914,61.230246137063006,297.3775791224655
139063.0,72685.0,139063.0,110679.0,139063.0,48435.0,328.67776317631063,60.55103806445058,295.9067548384658
139063.0,72689.0,139063.0,110649.0,139063.0,48444.0,330.78648632456674,59.87774426843142,294.39737234503474
139063.0,72695.0,139063.0,110675.0,139063.0,48442.0,332.75118585608766,59.210486822740734,292.84981761061465
139074.0,72679.0,139074.0,110658.0,139074.0,48434.0,334.5745709126369,58.54948801523485,291.264222168144
139074.0,72678.0,139074.0,110637.0,139074.0,48441.0,336.2592742817892,57.89505437842365,289.64048365982364
139074.0,72700.0,139074.0,110637.0,139074.0,48435.0,337.8076515910782,57.24736421926327,287.9782430772618
139074.0,72704.0,139074.0,110657.0,139074.0,48456.0,339.22174283797784,56.60618208833624,286.2769239334085
139074.0,72713.0,139074.0,110676.0,139074.0,48460.0,340.50345891544384,55.97086850102982,284.5359082544869
139074.0,72696.0,139074.0,110673.0,139074.0,48450.0,341.65475831529903,55.34074158156695,282.7548008388478
139084.0,72687.0,139084.0,110641.0,139084.0,48422.0,342.67759538556953,54.71539399951104,280.93353085950605
139084.0,72707.0,139084.0,110636.0,139084.0,48442.0,343.57368460158386,54.09459487715992,279.07215320966543
139084.0,72703.0,139084.0,110655.0,139084.0,48435.0,344.34435196830213,53.47792643756986,277.17061874938
139084.0,72734.0,139084.0,110657.0,139084.0,48443.0,344.99063135058435,52.864628952199475,275.22876641838127
139084.0,72727.0,139084.0,110702.0,139084.0,48462.0,345.51353081029106,52.253846256631526,273.24648460031807
139084.0,72734.0,139084.0,110651.0,139084.0,48444.0,345.9143130885701,51.645067460715936,271.22394865091945
139094.0,72715.0,139094.0,110664.0,139094.0,48428.0,346.19461413414916,51.038354061745245,269.16176459859474
139094.0,72722.0,139094.0,110651.0,139094.0,48422.0,346.3563409484903,50.43418045919846,267.06082068674476
139094.0,72732.0,139094.0,110650.0,139094.0,48436.0,346.4015105934056,49.833175236773336,264.9220086365875
139094.0,72736.0,139094.0,110671.0,139094.0,48443.0,346.3322387439742,49.23601211677452,262.7461566122504
139094.0,72750.0,139094.0,110634.0,139094.0,48458.0,346.15089795951104,48.643426283020304,260.53425076104224
139094.0,72756.0,139094.0,110658.0,139094.0,48428.0,345.8603484642651,48.05619617826527,258.2877287619731
139105.0,72728.0,139105.0,110628.0,139105.0,48412.0,345.4641179121099,47.47500778031913,256.0085195298251
139105.0,72715.0,139105.0,110644.0,139105.0,48427.0,344.9663114802523,46.90029037677915,253.6987642687898
139105.0,72744.0,139105.0,110647.0,139105.0,48428.0,344.3712744407552,46.33211893309049,251.36058308431765
139105.0,72714.0,139105.0,110661.0,139105.0,48440.0,343.6833693254815,45.77027815532554,248.9961501689208
139105.0,72742.0,139105.0,110673.0,139105.0,48428.0,342.9069586149948,45.21451657616092,246.60791964311284
139105.0,72731.0,139105.0,110657.0,139105.0,48420.0,342.04643496195047,44.66484900761063,244.19874901436958
139115.0,72730.0,139115.0,110667.0,139115.0,48406.0,341.1062704756333,44.121723206532934,241.77181291614218
139115.0,72712.0,139115.0,110631.0,139115.0,48402.0,340.09099183540917,43.58596980187161,239.3303657231966
139115.0,72734.0,139115.0,110634.0,139115.0,48430.0,339.0050244248271,43.05854356432791,236.87756138545367
139115.0,72722.0,139115.0,110666.0,139115.0,48409.0,337.8525895001034,42.54023408187308,234.41651453474984
139115.0,72738.0,139115.0,110663.0,139115.0,48437.0,336.63775341333314,42.031693891448725,231.95052181307742
139115.0,72724.0,139115.0,110646.0,139115.0,48407.0,335.3645214969663,41.53372940118794,229.48324701838726
139125.0,72728.0,139125.0,110641.0,139125.0,48391.0,334.0368732679153,41.04739114880167,227.01872829881268
139125.0,72721.0,139125.0,110650.0,139125.0,48389.0,332.6587165609005,40.573794562795804,224.5611202571228
139125.0,72750.0,139125.0,110639.0,139125.0,48404.0,331.2338596243162,40.11397475066002,222.11438332729003
139125.0,72743.0,139125.0,110660.0,139125.0,48397.0,329.76615485508563,39.668882536607754,219.68223194391257
139125.0,72729.0,139125.0,110665.0,139125.0,48402.0,328.2597229797245,39.23950147820057,217.26827661809767
139125.0,72724.0,139125.0,110650.0,139125.0,48390.0,326.7189722120555,38.827049402524395,214.87612707133852
139136.0,72726.0,139136.0,110612.0,139136.0,48396.0,325.14840213544477,38.43299527396857,212.5093955971656
139136.0,72733.0,139136.0,110636.0,139136.0,48393.0,323.5524552514531,38.05870719706442,210.1716733868325
139136.0,72731.0,139136.0,110647.0,139136.0,48412.0,321.93553545100383,37.7051018500454,207.8665829108986
139136.0,72723.0,139136.0,110620.0,139136.0,48382.0,320.302077912312,37.37263731607979,205.59791028669758
139136.0,72742.0,139136.0,110680.0,139136.0,48382.0,318.65657112134664,37.06147119702798,203.36963133126835
139136.0,72697.0,139136.0,110636.0,139136.0,48379.0,317.00353289453517,36.77167066434789,201.18573808594107
139146.0,72721.0,139146.0,110649.0,139146.0,48372.0,315.3473694290441,36.50341777526941,199.05004377222173
139146.0,72731.0,139146.0,110626.0,139146.0,48390.0,313.69219413814744,36.2569672041071,196.96611175925375
139146.0,72743.0,139146.0,110645.0,139146.0,48388.0,312.04191171095067,36.03242316542992,194.93733270434757
139146.0,72695.0,139146.0,110684.0,139146.0,48382.0,310.40045595844543,35.8297099097681,192.96709510980037
139146.0,72718.0,139146.0,110636.0,139146.0,48342.0,308.77173610111964,35.64886125823991,191.05880431496283
139146.0,72713.0,139146.0,110642.0,139146.0,48371.0,307.15936017762465,35.49022443306194,189.2156041062365
139156.0,72704.0,139156.0,110627.0,139156.0,48357.0,305.5665037666187,35.35424831605448,187.44008213386826
139156.0,72731.0,139156.0,110637.0,139156.0,48371.0,303.9959320019164,35.2411434928628,185.73423628529872
139156.0,72723.0,139156.0,110657.0,139156.0,48385.0,302.45011001920454,35.15077024545587,184.09963312551503
139156.0,72714.0,139156.0,110652.0,139156.0,48377.0,300.9313754353162,35.08279900963643,182.53765108038573
139156.0,72715.0,139156.0,110646.0,139156.0,48358.0,299.44198052534665,35.036946999719724,181.04966057760348
139156.0,72712.0,139156.0,110632.0,139156.0,48363.0,297.9839837844083,35.01301780733047,179.63695086902783
139167.0,72703.0,139167.0,110651.0,139167.0,48328.0,296.55913853324984,35.01074803028332,178.30045610714075
139167.0,72725.0,139167.0,110631.0,139167.0,48370.0,295.1688250480196,35.02968557096843,177.04046884212187
139167.0,72722.0,139167.0,110657.0,139167.0,48375.0,293.81409698804583,35.06917853947512,175.85658578167318
139167.0,72726.0,139167.0,110603.0,139167.0,48353.0,292.4958582661342,35.128351329776024,174.74795663400306
139167.0,72719.0,139167.0,110647.0,139167.0,48363.0,291.2150084276583,35.20594039754317,173.7134697522713
139167.0,72716.0,139167.0,110638.0,139167.0,48349.0,289.9724512744301,35.300137500349685,172.75167425781487
139177.0,72708.0,139177.0,110626.0,139177.0,48374.0,288.7689970597243,35.40863269569693,171.86067949968964
139177.0,72712.0,139177.0,110655.0,139177.0,48351.0,287.6052209612901,35.52870335298825,171.03818367619164
139177.0,72719.0,139177.0,110692.0,139177.0,48375.0,286.4813729223763,35.65738365576803,170.28155073062615
139177.0,72729.0,139177.0,110673.0,139177.0,48382.0,285.3974299103181,35.79195145252117,169.58791535684713
139177.0,72714.0,139177.0,110621.0,139177.0,48358.0,284.3532440382568,35.930317685252874,168.9543465533598
139177.0,72710.0,139177.0,110638.0,139177.0,48352.0,283.34859429673406,36.070755887679496,168.37787149251741
139187.0,72722.0,139187.0,110652.0,139187.0,48372.0,282.3830852346965,36.21134621032526,167.85527682703946
139187.0,72701.0,139187.0,110708.0,139187.0,48401.0,281.4560443769879,36.34993744713055,167.38307001259733
139187.0,72738.0,139187.0,110673.0,139187.0,48380.0,280.566501363846,36.48472021693872,166.95780919195715
139187.0,72737.0,139187.0,110653.0,139187.0,48369.0,279.7133095459819,36.61471925340963,166.5764030783253
139187.0,72708.0,139187.0,110658.0,139187.0,48360.0,278.89537161364456,36.73968678566904,166.23601262992665
139187.0,72708.0,139187.0,110617.0,139187.0,48360.0,278.111637405868,36.85963583987516,165.93372056048366
139198.0,72716.0,139198.0,110659.0,139198.0,48361.0,277.3608213189717,36.974410123355085,165.66627840886673
139198.0,72735.0,139198.0,110689.0,139198.0,48392.0,276.6412542116337,37.08357583913628,165.43006685397773
139198.0,72742.0,139198.0,110668.0,139198.0,48376.0,275.95107424454613,37.18679935815456,165.22129164078171
139198.0,72701.0,139198.0,110645.0,139198.0,48383.0,275.28847945781115,37.2842412575625,165.03623512130093
139198.0,72739.0,139198.0,110631.0,139198.0,48377.0,274.65171025489695,37.376404139540746,164.8713409212757
139198.0,72726.0,139198.0,110654.0,139198.0,48368.0,274.03890958152755,37.4636669541129,164.72314601679398
139208.0,72745.0,139208.0,110653.0,139208.0,48385.0,273.44818060367595,37.54606031144422,164.58817366383613
139208.0,72734.0,139208.0,110672.0,139208.0,48396.0,272.87776504310034,37.62340622079264,164.46292895315585
139208.0,72722.0,139208.0,110625.0,139208.0,48372.0,272.32611152580444,37.69551262612744,164.344039600263
139208.0,72727.0,139208.0,110627.0,139208.0,48363.0,271.79176114625596,37.76205645051773,164.2282749517653
139208.0,72706.0,139208.0,110652.0,139208.0,48364.0,271.273127199357,37.82222193951047,164.1122854675083
139208.0,72724.0,139208.0,110645.0,139208.0,48399.0,270.7682804344631,37.874561794855246,163.9923784842249
139218.0,72732.0,139218.0,110692.0,139218.0,48402.0,270.27484916584876,37.917251118725915,163.8646764254209
139218.0,72756.0,139218.0,110675.0,139218.0,48392.0,269.7901678676784,37.94854600579889,163.72551389079445
139218.0,72732.0,139218.0,110679.0,139218.0,48393.0,269.31159945053696,37.96721006204312,163.57165888431757
139218.0,72729.0,139218.0,110659.0,139218.0,48379.0,268.8367034601438,37.97265796012817,163.40024496817816
139218.0,72737.0,139218.0,110662.0,139218.0,48390.0,268.36312278714763,37.96479785557563,163.20859658053305
139218.0,72748.0,139218.0,110658.0,139218.0,48404.0,267.88846419223785,37.943795292580546,162.99414391154767
139229.0,72735.0,139229.0,110646.0,139229.0,48379.0,267.4103609283577,37.9098921703154,162.75448813573772
139229.0,72738.0,139229.0,110646.0,139229.0,48404.0,266.9265414743252,37.86323826941472,162.48746125704108
139229.0,72749.0,139229.0,110665.0,139229.0,48378.0,266.4347992220106,37.80375152293031,162.19108957576373
139229.0,72723.0,139229.0,110641.0,139229.0,48377.0,265.9329583046296,37.73111226153031,161.8634932267111
139229.0,72734.0,139229.0,110661.0,139229.0,48387.0,265.41879313999766,37.64481048759511,161.50271780579328
139229.0,72744.0,139229.0,110665.0,139229.0,48395.0,264.88989366508343,37.54417333389347,161.1066438545438
139239.0,72751.0,139239.0,110649.0,139239.0,48383.0,264.343682753302,37.42844760004289,160.6730734279124
139239.0,72736.0,139239.0,110684.0,139239.0,48399.0,263.7775777968393,37.296898936526645,160.19982786806332
139239.0,72737.0,139239.0,110635.0,139239.0,48399.0,263.1890375004973,37.14887103505405,159.68480423667546
139239.0,72746.0,139239.0,110664.0,139239.0,48376.0,262.57546158961065,36.98374818445735,159.1260309485084
139239.0,72740.0,139239.0,110654.0,139239.0,48416.0,261.9341357676617,36.80082323725114,158.52165791417082
139239.0,72785.0,139239.0,110671.0,139239.0,48380.0,261.26234140619226,36.5992754027104,157.86995208474792
139249.0,72754.0,139249.0,110668.0,139249.0,48416.0,260.5576401712226,36.37831455349925,157.16937131078686
139249.0,72750.0,139249.0,110689.0,139249.0,48404.0,259.8181130851598,36.13738278958894,156.41866597701568
139249.0,72728.0,139249.0,110640.0,139249.0,48385.0,259.0422424482838,35.8763060255108,155.616965962517
139249.0,72740.0,139249.0,110631.0,139249.0,48363.0,258.22853382117387,35.59514467694847,154.7636526177996
139249.0,72745.0,139249.0,110655.0,139249.0,48391.0,257.3752464363131,35.293739407369806,153.85798138522227
139249.0,72745.0,139249.0,110701.0,139249.0,48399.0,256.4803798215464,34.971536789679156,152.89888006563882
139260.0,72764.0,139260.0,110666.0,139260.0,48406.0,255.54181348225006,34.628012612731354,151.8851534599675
139260.0,72758.0,139260.0,110648.0,139260.0,48400.0,254.5575025663301,34.2630897792269,150.81581109755317
139260.0,72755.0,139260.0,110613.0,139260.0,48368.0,253.5256546995511,33.87692143382183,149.69016595964905
139260.0,72744.0,139260.0,110633.0,139260.0,48389.0,252.44475651344212,33.46924372092723,148.5076253027985
139260.0,72747.0,139260.0,110712.0,139260.0,48407.0,251.3134377800427,33.03906111383634,147.26748323367573
139260.0,72752.0,139260.0,110684.0,139260.0,48392.0,250.13033105315995,32.58515811206726,145.96903075457496
139270.0,72773.0,139270.0,110681.0,139270.0,48393.0,248.89409280517748,32.10692331016872,144.61177283446608
139270.0,72758.0,139270.0,110648.0,139270.0,48394.0,247.60360431623363,31.604605552484305,143.19545908727065
139270.0,72744.0,139270.0,110636.0,139270.0,48370.0,246.25812367671912,31.07892731276933,141.71998675909776
139270.0,72715.0,139270.0,110638.0,139270.0,48382.0,244.8571137120604,30.53051872414307,140.18523876805708
139270.0,72768.0,139270.0,110669.0,139270.0,48386.0,243.39986930200627,29.959587104578144,138.590927631202
139270.0,72741.0,139270.0,110677.0,139270.0,48389.0,241.885401473888,29.36605468814331,136.93660920384244
139281.0,72759.0,139281.0,110649.0,139281.0,48393.0,240.3126430519015,28.749945993072465,135.2218358838178
139281.0,72754.0,139281.0,110680.0,139281.0,48390.0,238.68063590848402,28.111587702736323,133.44630156118032
139281.0,72750.0,139281.0,110645.0,139281.0,48390.0,236.98860068655696,27.45158867573965,131.60992570820147
139281.0,72749.0,139281.0,110661.0,139281.0,48384.0,235.2359456857189,26.77076804245943,129.71287256977104
139281.0,72740.0,139281.0,110670.0,139281.0,48374.0,233.422202793947,26.070086008763685,127.75549736065929
139281.0,72770.0,139281.0,110671.0,139281.0,48383.0,231.54697750362374,25.3507068585479,125.73823767745886
139291.0,72752.0,139291.0,110641.0,139291.0,48374.0,229.61004861489064,24.61412936422439,123.6615330862283
139291.0,72718.0,139291.0,110639.0,139291.0,48365.0,227.61146383501523,23.862072914495748,121.52578703788423
139291.0,72725.0,139291.0,110612.0,139291.0,48372.0,225.55130748611225,23.096084910063475,119.33129014846
139291.0,72748.0,139291.0,110627.0,139291.0,48361.0,223.42933055030278,22.317104126577107,117.07813113952662
139291.0,72750.0,139291.0,110661.0,139291.0,48377.0,221.24494088591777,21.525263320697633,114.76617637788158
139291.0,72763.0,139291.0,110662.0,139291.0,48372.0,218.99754147936372,20.720143540074336,112.39513824779199
139301.0,72748.0,139301.0,110693.0,139301.0,48372.0,216.6868605738825,19.90134251725307,109.9646999788418
139301.0,72742.0,139301.0,110623.0,139301.0,48368.0,214.3130713175952,19.068920031135406,107.47460182142561
139301.0,72730.0,139301.0,110644.0,139301.0,48369.0,211.8766806998412,18.223345857028082,104.92465215090587
139301.0,72739.0,139301.0,110646.0,139301.0,48358.0,209.37831931149034,17.365096010148555,102.31470600552727
139301.0,72750.0,139301.0,110681.0,139301.0,48378.0,206.81865047525454,16.494510455911914,99.64464951370513
139301.0,72750.0,139301.0,110666.0,139301.0,48381.0,204.19849991106753,15.612118691303785,96.91448937607063
139312.0,72718.0,139312.0,110660.0,139312.0,48359.0,201.51901568366057,14.719010226958726,94.12454537970788
139312.0,72709.0,139312.0,110617.0,139312.0,48324.0,198.78154270455684,13.816824968512922,91.27543631335963
139312.0,72734.0,139312.0,110617.0,139312.0,48349.0,195.98728055769502,12.907302751190322,88.36770547113116
139312.0,72716.0,139312.0,110653.0,139312.0,48344.0,193.1371293506632,11.99177648475963,85.4014783277396
139312.0,72725.0,139312.0,110664.0,139312.0,48386.0,190.23177819365338,11.07114716582937,82.37654699453398
139312.0,72720.0,139312.0,110658.0,139312.0,48365.0,187.27178533557856,10.14633261940892,79.29280454877471
139322.0,72726.0,139322.0,110633.0,139322.0,48345.0,184.2576175530997,9.218615201576249,76.1506224704452
139322.0,72703.0,139322.0,110642.0,139322.0,48326.0,181.1896831758315,8.289568682223127,72.9507947739342
139322.0,72707.0,139322.0,110592.0,139322.0,48337.0,178.06826159283494,7.360722116286777,69.69415000755089
139322.0,72703.0,139322.0,110645.0,139322.0,48342.0,174.89334541744046,6.433179217647467,66.38128845713305
139322.0,72726.0,139322.0,110652.0,139322.0,48352.0,171.66458957735853,5.507498771156435,63.012657018809676
139322.0,72703.0,139322.0,110677.0,139322.0,48329.0,168.38145030260895,4.5840809168986,59.58877149124578
139332.0,72708.0,139332.0,110632.0,139332.0,48314.0,165.04332783764033,3.6637132288924086,56.11026247514108
139332.0,72721.0,139332.0,110606.0,139332.0,48331.0,161.6495975413188,2.7476431466988487,52.5776801033912
139332.0,72697.0,139332.0,110630.0,139332.0,48318.0,158.19965486127487,1.837107927619055,48.99133887769628
139332.0,72697.0,139332.0,110646.0,139332.0,48338.0,154.69294182240847,0.9329534812532785,45.35137461038637
139332.0,72709.0,139332.0,110622.0,139332.0,48356.0,151.12886600407612,0.03572655634825139,41.65797703210767
139332.0,72711.0,139332.0,110633.0,139332.0,48325.0,147.5068062996865,-0.854140205657572,37.911731274098784
139343.0,72687.0,139343.0,110619.0,139343.0,48310.0,143.82625202176044,-1.736359997956903,34.11377882242515
139343.0,72681.0,139343.0,110624.0,139343.0,48310.0,140.08679407445138,-2.6109027584558397,30.265595551288584
139343.0,72699.0,139343.0,110615.0,139343.0,48299.0,136.28793987685333,-3.478082061546793,26.36866404788354
139343.0,72691.0,139343.0,110651.0,139343.0,48318.0,132.42905965497755,-4.338565375167541,22.424331598773094
139343.0,72693.0,139343.0,110653.0,139343.0,48321.0,128.5095288767787,-5.1931558951300545,18.43390033574771
139343.0,72683.0,139343.0,110647.0,139343.0,48295.0,124.52884423930081,-6.042394508168954,14.398836167642685
139353.0,72688.0,139353.0,110619.0,139353.0,48293.0,120.48663430061339,-6.88634815444933,10.320819203962571
139353.0,72674.0,139353.0,110599.0,139353.0,48277.0,116.38263762503053,-7.724841585974932,6.20154050676247
139353.0,72693.0,139353.0,110636.0,139353.0,48302.0,112.21670106838155,-8.55790990815865,2.042494034017878
139353.0,72683.0,139353.0,110650.0,139353.0,48318.0,107.98885487495079,-9.385933597840324,-2.154950936048209
139353.0,72676.0,139353.0,110641.0,139353.0,48282.0,103.6994382796239,-10.209294098599745,-6.38922123473246
139353.0,72680.0,139353.0,110625.0,139353.0,48274.0,99.34915014180989,-11.028031628184824,-10.65838011544389
139363.0,72651.0,139363.0,110618.0,139363.0,48284.0,94.93899221859077,-11.841891718897546,-14.960324708071852
139363.0,72652.0,139363.0,110626.0,139363.0,48260.0,90.47010707768106,-12.650586450654682,-19.293004741300507
139363.0,72640.0,139363.0,110610.0,139363.0,48291.0,85.94352883263984,-13.453976943995531,-23.654464275528
139363.0,72672.0,139363.0,110611.0,139363.0,48275.0,81.36003891737285,-14.252175095990268,-28.042742940207887
139363.0,72668.0,139363.0,110609.0,139363.0,48252.0,76.72032519092201,-15.04566574736371,-32.45574197399385
139363.0,72639.0,139363.0,110611.0,139363.0,48264.0,72.0252905413165,-15.83540273025418,-36.89126964740069
139374.0,72633.0,139374.0,110625.0,139374.0,48244.0,67.27610014857854,-16.6227958078778,-41.34722161474913
139374.0,72634.0,139374.0,110622.0,139374.0,48261.0,62.47392487736893,-17.409576333433463,-45.821671633756736
139374.0,72647.0,139374.0,110592.0,139374.0,48247.0,57.61977133927948,-18.19768324407228,-50.312844388511806
139374.0,72631.0,139374.0,110650.0,139374.0,48242.0,52.71457262662109,-18.989290758661994,-54.8190595231098
139374.0,72625.0,139374.0,110641.0,139374.0,48235.0,47.75931505127919,-19.786700468465078,-59.33874813055915
139374.0,72611.0,139374.0,110603.0,139374.0,48232.0,42.75499038993661,-20.592018828328932,-63.87054377594228
139384.0,72612.0,139384.0,110631.0,139384.0,48227.0,37.702426219005986,-21.407091502008882,-68.41335906157911
139384.0,72634.0,139384.0,110637.0,139384.0,48213.0,32.602206797990476,-22.23366413912011,-72.96644575444549
139384.0,72605.0,139384.0,110657.0,139384.0,48240.0,27.454799824948424,-23.073261572413394,-77.5294405352316
139384.0,72625.0,139384.0,110638.0,139384.0,48230.0,22.260731192969075,-23.926823831027775,-82.10227092395087
139384.0,72618.0,139384.0,110610.0,139384.0,48232.0,17.020684282703485,-24.794550212638846,-86.68491532552162
139384.0,72619.0,139384.0,110652.0,139384.0,48204.0,11.735622931826043,-25.676078879921903,-91.27726207075122
139394.0,72573.0,139394.0,110596.0,139394.0,48227.0,6.406851037274947,-26.570694369464903,-95.87917876066493
139394.0,72593.0,139394.0,110609.0,139394.0,48224.0,1.0358043622098592,-27.477490168514755,-100.49056323932771
139394.0,72585.0,139394.0,110641.0,139394.0,48199.0,-4.376239311580548,-28.39557542298286,-105.11124870641191
139394.0,72608.0,139394.0,110625.0,139394.0,48213.0,-9.828175557379211,-29.324038437330486,-109.74097141706244
139394.0,72569.0,139394.0,110590.0,139394.0,48196.0,-15.318862814644746,-30.261745920453315,-114.37945966351879
139394.0,72562.0,139394.0,110591.0,139394.0,48211.0,-20.84706451069391,-31.207512268180004,-119.02646596071585
139405.0,72575.0,139405.0,110599.0,139405.0,48196.0,-26.41164906472821,-32.160543802579,-123.68170601884489
139405.0,72575.0,139405.0,110619.0,139405.0,48188.0,-32.011703782972404,-33.1206156470018,-128.3448097454003
139405.0,72560.0,139405.0,110642.0,139405.0,48201.0,-37.64640685573889,-34.087807221422494,-133.0153409516431
139405.0,72563.0,139405.0,110627.0,139405.0,48191.0,-43.31491450008548,-35.06201493000673,-137.6927866147804
139405.0,72562.0,139405.0,110608.0,139405.0,48185.0,-49.01635636785352,-36.04263262089299,-142.37647321351415
139405.0,72538.0,139405.0,110592.0,139405.0,48155.0,-54.749838063071905,-37.02867100367454,-147.06559431299115
139415.0,72540.0,139415.0,110574.0,139415.0,48163.0,-60.51450948537641,-38.0192067620111,-151.75945060691768
139415.0,72564.0,139415.0,110595.0,139415.0,48189.0,-66.30965248367175,-39.01384164152323,-156.4576515008492
139415.0,72548.0,139415.0,110629.0,139415.0,48158.0,-72.13454905041965,-40.01282750621839,-161.16001112829107
139415.0,72536.0,139415.0,110607.0,139415.0,48159.0,-77.988233292292,-41.01673595205913,-165.8663634461361
139415.0,72507.0,139415.0,110600.0,139415.0,48157.0,-83.86949956714255,-42.026081263412685,-170.57659390399422
139415.0,72518.0,139415.0,110585.0,139415.0,48153.0,-89.7771971755576,-43.04133381994833,-175.2907359153822
139425.0,72528.0,139425.0,110616.0,139425.0,48147.0,-95.71045749413605,-44.06314989897501,-180.00898035643894
139425.0,72531.0,139425.0,110621.0,139425.0,48159.0,-101.66858645716383,-45.09237061603236,-184.7316486845237
139425.0,72512.0,139425.0,110614.0,139425.0,48153.0,-107.65078026620336,-46.12973129522242,-189.4591033637529
139425.0,72510.0,139425.0,110635.0,139425.0,48119.0,-113.65599624382983,-47.17557063680207,-194.19166237189847
139425.0,72520.0,139425.0,110588.0,139425.0,48138.0,-119.68298695560992,-48.22971370129845,-198.92971003108804
139425.0,72481.0,139425.0,110605.0,139425.0,48132.0,-125.73032157248434,-49.29158536524554,-203.67387868157985
139436.0,72492.0,139436.0,110596.0,139436.0,48129.0,-131.79646332133166,-50.360481399194086,-208.42504619769122
139436.0,72498.0,139436.0,110597.0,139436.0,48150.0,-137.87991521188474,-51.4357462430989,-213.18419182413928
139436.0,72511.0,139436.0,110608.0,139436.0,48131.0,-143.9791568416672,-52.516784646152345,-217.95219732706528
139436.0,72476.0,139436.0,110605.0,139436.0,48123.0,-150.09237637705223,-53.6029800453622,-222.72968449871902
139436.0,72475.0,139436.0,110574.0,139436.0,48117.0,-156.2173761977948,-54.693633031299605,-227.51704481606694
139436.0,72453.0,139436.0,110585.0,139436.0,48105.0,-162.35178178375787,-55.78811015002526,-232.3146065937728
139446.0,72463.0,139446.0,110596.0,139446.0,48101.0,-168.49331713936283,-56.886085687173356,-237.12280200513885
139446.0,72442.0,139446.0,110621.0,139446.0,48106.0,-174.63996064907673,-57.98750004184901,-241.94228538985547
139446.0,72438.0,139446.0,110566.0,139446.0,48110.0,-180.79003000494856,-59.092283270748204,-246.77392795641015
139446.0,72440.0,139446.0,110590.0,139446.0,48103.0,-186.94227721993292,-60.20031128470016,-251.6186807643677
139446.0,72430.0,139446.0,110610.0,139446.0,48077.0,-193.0959391412407,-61.311588629485975,-256.47748809443993
139446.0,72430.0,139446.0,110576.0,139446.0,48095.0,-199.25071719611378,-62.42623287461573,-261.3513887900107
139456.0,72428.0,139456.0,110600.0,139456.0,48103.0,-205.40674306038846,-63.54434965310897,-266.2416031680981
139456.0,72443.0,139456.0,110608.0,139456.0,48110.0,-211.56448978702207,-64.66599869757292,-271.1493444080583
139456.0,72426.0,139456.0,110588.0,139456.0,48080.0,-217.72457780048052,-65.79108694975378,-276.0755162786745
139456.0,72406.0,139456.0,110580.0,139456.0,48080.0,-223.88763561853563,-66.91929802347641,-281.02065334175444
139456.0,72400.0,139456.0,110592.0,139456.0,48082.0,-230.05441158417466,-68.05023611125941,-285.985091462625
139456.0,72395.0,139456.0,110580.0,139456.0,48084.0,-236.2260313539748,-69.18356983013557,-290.96905898165596
139467.0,72401.0,139467.0,110581.0,139467.0,48070.0,-242.40414410548874,-70.3190606662607,-295.97260758709336
139467.0,72456.0,139467.0,110605.0,139467.0,48085.0,-248.5907611267263,-71.45654483447076,-300.99553668520065
139467.0,72393.0,139467.0,110597.0,139467.0,48054.0,-254.7877665011265,-72.59578963687169,-306.0373659079406
139467.0,72391.0,139467.0,110555.0,139467.0,48050.0,-260.99657337849885,-73.7363417026295,-311.09740231114273
139467.0,72396.0,139467.0,110549.0,139467.0,48048.0,-267.21828599690514,-74.87775364683215,-316.17494072872995
139467.0,72376.0,139467.0,110603.0,139467.0,48060.0,-273.4539707622226,-76.0200232155681,-321.26940505101976
139477.0,72388.0,139477.0,110574.0,139477.0,48045.0,-279.70472469625315,-77.16361757691611,-326.38028069443953
139477.0,72387.0,139477.0,110627.0,139477.0,48038.0,-285.97163430900605,-78.30905240209204,-331.5070082739848
139477.0,72367.0,139477.0,110571.0,139477.0,48027.0,-292.25567747794975,-79.45647701434208,-336.64903074951826
139477.0,72355.0,139477.0,110564.0,139477.0,48015.0,-298.5577119840235,-80.60559748314256,-341.8059677556129
139477.0,72354.0,139477.0,110564.0,139477.0,48039.0,-304.8786478127707,-81.75601658452328,-346.97776332941527
139477.0,72369.0,139477.0,110589.0,139477.0,48043.0,-311.2195805826797,-82.90758791503441,-352.1646107478216
139487.0,72365.0,139487.0,110570.0,139487.0,48023.0,-317.5816735819371,-84.06039561507906,-357.3666666198827
139487.0,72359.0,139487.0,110600.0,139487.0,48022.0,-323.9658976608155,-85.2145317220194,-362.58387397842387
139487.0,72328.0,139487.0,110538.0,139487.0,48001.0,-330.3729163130903,-86.36998078042451,-367.81605221827255
139487.0,72336.0,139487.0,110551.0,139487.0,47990.0,-336.80323936381404,-87.52680800773216,-373.06313245959427
139487.0,72321.0,139487.0,110568.0,139487.0,48005.0,-343.25746513093287,-88.68554173286283,-378.3253966799658
139487.0,72353.0,139487.0,110565.0,139487.0,48009.0,-349.7363459360715,-89.84729881374555,-383.6035303857188
139498.0,72325.0,139498.0,110609.0,139498.0,47999.0,-356.2406081390468,-91.01350730825021,-388.89843619689594
139498.0,72309.0,139498.0,110611.0,139498.0,48005.0,-362.77076952001363,-92.18539231020796,-394.2110309344921
139498.0,72310.0,139498.0,110563.0,139498.0,47989.0,-369.3272190947321,-93.36348597088744,-399.54216379624523
139498.0,72280.0,139498.0,110536.0,139498.0,47990.0,-375.9104662553859,-94.54766962346179,-404.892619166597
139498.0,72295.0,139498.0,110558.0,139498.0,47975.0,-382.5213669695164,-95.73779858537385,-410.2631797489126
139498.0,72319.0,139498.0,110569.0,139498.0,48012.0,-389.1611813108743,-96.93418717018358,-415.654652856611
139508.0,72308.0,139508.0,110595.0,139508.0,47991.0,-395.83129837467385,-98.13748845426719,-421.0676938938181
139508.0,72304.0,139508.0,110579.0,139508.0,47981.0,-402.53281876954964,-99.34823187128717,-426.5025403301204
139508.0,72287.0,139508.0,110559.0,139508.0,47967.0,-409.2663670105347,-100.56651645224808,-431.9589799454529
139508.0,72271.0,139508.0,110524.0,139508.0,47965.0,-416.03218639718756,-101.79217742001804,-437.4365573855522
139508.0,72268.0,139508.0,110562.0,139508.0,47979.0,-422.8303706493908,-103.02528447351571,-442.9347276186224
139508.0,72289.0,139508.0,110582.0,139508.0,47972.0,-429.66101980110295,-104.26638488486623,-448.4527863145734
139518.0,72270.0,139518.0,110586.0,139518.0,47972.0,-436.52414226126103,-105.516167610739,-453.9896722800512
139518.0,72267.0,139518.0,110570.0,139518.0,47963.0,-443.419448747461,-106.77495516997311,-459.5438322034736
139518.0,72264.0,139518.0,110560.0,139518.0,47948.0,-450.3462809407861,-108.04253729426384,-465.1132226240367
139518.0,72250.0,139518.0,110566.0,139518.0,47953.0,-457.3036424931908,-109.31833217805985,-470.6954147719623
139518.0,72234.0,139518.0,110613.0,139518.0,47946.0,-464.2902737222333,-110.60145642541345,-476.2876930648381
139518.0,72259.0,139518.0,110566.0,139518.0,47964.0,-471.30475990563775,-111.89045074846494,-481.8870238912793
139529.0,72239.0,139529.0,110578.0,139529.0,47954.0,-478.34551131924525,-113.18300750401355,-487.4898745334047
139529.0,72229.0,139529.0,110555.0,139529.0,47932.0,-485.41062720749255,-114.4760684338112,-493.09203613093064
139529.0,72208.0,139529.0,110530.0,139529.0,47922.0,-492.4979189640181,-115.76617125940183,-498.6886815062493
139529.0,72216.0,139529.0,110535.0,139529.0,47929.0,-499.6051229395812,-117.04988939991762,-504.27461346454356
139529.0,72235.0,139529.0,110529.0,139529.0,47937.0,-506.7299993901091,-118.32423944806679,-509.8443819524193
139529.0,72230.0,139529.0,110581.0,139529.0,47955.0,-513.8701071712346,-119.5867833088588,-515.3920941791478
139539.0,72213.0,139539.0,110557.0,139539.0,47920.0,-521.022450555867,-120.83530974453522,-520.9110777527459
139539.0,72218.0,139539.0,110544.0,139539.0,47917.0,-528.1833220519817,-122.06743336892143,-526.3937451039433
139539.0,72177.0,139539.0,110511.0,139539.0,47900.0,-535.3483777475186,-123.28062114157102,-531.8317889333955
139539.0,72187.0,139539.0,110555.0,139539.0,47914.0,-542.5128603058474,-124.4725897756346,-537.2164498903512
139539.0,72205.0,139539.0,110571.0,139539.0,47913.0,-549.6717977344986,-125.64144476270589,-542.5385835475035
139539.0,72198.0,139539.0,110562.0,139539.0,47922.0,-556.8198967835289,-126.78530205241516,-547.7885026699253
139550.0,72175.0,139550.0,110570.0,139550.0,47889.0,-563.9512545824584,-127.90183564528976,-552.9557853046831
139550.0,72159.0,139550.0,110576.0,139550.0,47886.0,-571.0593217646074,-128.9880668646354,-558.0293019705668
139550.0,72167.0,139550.0,110508.0,139550.0,47898.0,-578.1371415550283,-130.04037312565032,-562.9974319293465
139550.0,72156.0,139550.0,110536.0,139550.0,47912.0,-585.177529096024,-131.05483974360945,-567.8481127231546
139550.0,72159.0,139550.0,110557.0,139550.0,47889.0,-592.1730617155697,-132.0277302617281,-572.5686120497282
139550.0,72161.0,139550.0,110537.0,139550.0,47878.0,-599.1159815567073,-132.95553508893715,-577.1453724699777
139560.0,72139.0,139560.0,110564.0,139560.0,47878.0,-605.9980917582407,-133.83471594249352,-581.564143875
139560.0,72131.0,139560.0,110517.0,139560.0,47869.0,-612.8107577433552,-134.66158130920235,-585.8101997549045
139560.0,72138.0,139560.0,110530.0,139560.0,47882.0,-619.5450381658286,-135.43241648775958,-589.8684313092979
139560.0,72141.0,139560.0,110551.0,139560.0,47859.0,-626.1917312791899,-136.143714527905,-593.7233380875397
139560.0,72132.0,139560.0,110559.0,139560.0,47875.0,-632.7412338082103,-136.79214594004452,-597.35902088047
139560.0,72141.0,139560.0,110548.0,139560.0,47855.0,-639.1833623775316,-137.37424098111865,-600.7592158152707
139570.0,72120.0,139570.0,110539.0,139570.0,47861.0,-645.5072410196135,-137.8861954411821,-603.9073479066694
139570.0,72109.0,139570.0,110545.0,139570.0,47846.0,-651.7013016389369,-138.32395182381686,-606.7866187555264
139570.0,72090.0,139570.0,110521.0,139570.0,47844.0,-657.7534665902178,-138.68337795635688,-609.3801430954167
139570.0,72124.0,139570.0,110516.0,139570.0,47864.0,-663.6513781541157,-138.96049256541735,-611.6710618751019
139570.0,72099.0,139570.0,110562.0,139570.0,47848.0,-669.382400073918,-139.15167521305642,-613.6425190937111
139570.0,72112.0,139570.0,110542.0,139570.0,47841.0,-674.9334259558875,-139.25358144789072,-615.2775919772533
139581.0,72093.0,139581.0,110537.0,139581.0,47838.0,-680.2907539796865,-139.26285233239417,-616.5593834839949
139581.0,72062.0,139581.0,110530.0,139581.0,47833.0,-685.4401598852123,-139.17605962666374,-617.4712351868534
139581.0,72071.0,139581.0,110518.0,139581.0,47842.0,-690.3671929628592,-138.9899292355754,-617.9968910845964
139581.0,72103.0,139581.0,110569.0,139581.0,47842.0,-695.0574364684742,-138.7015172108214,-618.1205521666013
139581.0,72086.0,139581.0,110554.0,139581.0,47870.0,-699.4963646122558,-138.30805913907852,-617.8267979715118
139581.0,72074.0,139581.0,110558.0,139581.0,47820.0,-703.6690151503002,-137.80659824692188,-617.1004525525483
139591.0,72073.0,139591.0,110523.0,139591.0,47855.0,-707.5599354110363,-137.19384360343832,-615.9266280758608
139591.0,72060.0,139591.0,110528.0,139591.0,47820.0,-711.153361767073,-136.46644267526153,-614.2909748735325
139591.0,72053.0,139591.0,110554.0,139591.0,47848.0,-714.433418537142,-135.62134454352358,-612.179927963303
139591.0,72058.0,139591.0,110557.0,139591.0,47835.0,-717.3843003979641,-134.65583497865717,-609.5808614516168
139591.0,72071.0,139591.0,110570.0,139591.0,47846.0,-719.9903538209153,-133.56724144700848,-606.4821714927727
139591.0,72050.0,139591.0,110535.0,139591.0,47843.0,-722.2360034034971,-132.35268657452232,-602.8733388033265
139601.0,72033.0,139601.0,110521.0,139601.0,47833.0,-724.1057502577464,-131.00921395001652,-598.7450480059034
139601.0,72031.0,139601.0,110521.0,139601.0,47823.0,-725.5844433057212,-129.53426814576991,-594.0894390172763
139601.0,72034.0,139601.0,110549.0,139601.0,47856.0,-726.6576418455743,-127.92612227867107,-588.9004381605961
139601.0,72038.0,139601.0,110567.0,139601.0,47874.0,-727.3118027433479,-126.18386058879096,-583.1738737893228
139601.0,72042.0,139601.0,110542.0,139601.0,47872.0,-727.5342825956953,-124.30703751400424,-576.907263288886
139601.0,72025.0,139601.0,110514.0,139601.0,47874.0,-727.3133131498914,-122.29556171865181,-570.099605504489
139612.0,72035.0,139612.0,110536.0,139612.0,47876.0,-726.6380880022069,-120.15005400785618,-562.7514356879086
139612.0,72036.0,139612.0,110534.0,139612.0,47896.0,-725.4989164313781,-117.87225819419501,-554.8650053815796
139612.0,72038.0,139612.0,110581.0,139612.0,47902.0,-723.8873050785814,-115.46505562737025,-546.4443706822927
139612.0,72069.0,139612.0,110620.0,139612.0,47914.0,-721.7959212398891,-112.93199631068477,-537.4953726191059
139612.0,72043.0,139612.0,110587.0,139612.0,47940.0,-719.2184582829667,-110.27654281740789,-528.0255823664197
139612.0,72036.0,139612.0,110579.0,139612.0,47929.0,-716.1495977020438,-107.50159961227479,-518.0442293158645
139622.0,72059.0,139622.0,110539.0,139622.0,47958.0,-712.5852278872701,-104.60974860308247,-507.56217449644805
139622.0,72073.0,139622.0,110523.0,139622.0,47975.0,-708.5226263391418,-101.60399452538023,-496.5919249955364
139622.0,72093.0,139622.0,110607.0,139622.0,47992.0,-703.9603160674751,-98.48844937985884,-485.14754736820345
139622.0,72097.0,139622.0,110597.0,139622.0,48013.0,-698.8977500653791,-95.26831834673035,-473.2444857008516
139622.0,72113.0,139622.0,110593.0,139622.0,48032.0,-693.3350566361672,-91.94929430068369,-460.8993830364203
139622.0,72106.0,139622.0,110603.0,139622.0,48028.0,-687.2729143990998,-88.53716215332769,-448.1299562552282
139632.0,72098.0,139632.0,110609.0,139632.0,48053.0,-680.7126035163367,-85.0377868835959,-434.95500482083435
139632.0,72111.0,139632.0,110610.0,139632.0,48081.0,-673.656253353314,-81.45711877812812,-421.3944799623618
139632.0,72144.0,139632.0,110619.0,139632.0,48114.0,-666.1070699898289,-77.80114890910839,-407.46937083734997
139632.0,72133.0,139632.0,110629.0,139632.0,48123.0,-658.0693067344505,-74.07586524969726,-393.2013867921622
139632.0,72157.0,139632.0,110641.0,139632.0,48134.0,-649.5481252673734,-70.28715054624335,-378.61269812525865
139632.0,72147.0,139632.0,110607.0,139632.0,48141.0,-640.5495880960602,-66.44069258390931,-363.72592488106574
139643.0,72150.0,139643.0,110610.0,139643.0,48174.0,-631.0808064389923,-62.542145453430116,-348.5642758170089
139643.0,72183.0,139643.0,110629.0,139643.0,48214.0,-621.1501563184174,-58.59750115785035,-333.15155348913953
139643.0,72196.0,139643.0,110639.0,139643.0,48225.0,-610.7673541847857,-54.613270676167176,-317.5118830434574
139643.0,72199.0,139643.0,110615.0,139643.0,48233.0,-599.9433290646169,-50.596407504698576,-301.66940274198225
139643.0,72243.0,139643.0,110674.0,139643.0,48253.0,-588.6900811451609,-46.55424464197854,-285.6482048350281
139643.0,72234.0,139643.0,110661.0,139643.0,48254.0,-577.020552750769,-42.49435979751094,-269.4724814759068
139653.0,72250.0,139653.0,110642.0,139653.0,48279.0,-564.9485153704859,-38.42432204303041,-253.16671906839787
139653.0,72272.0,139653.0,110712.0,139653.0,48319.0,-552.4885876685724,-34.35157869915078,-236.75581276548397
139653.0,72308.0,139653.0,110679.0,139653.0,48361.0,-539.6562322523338,-30.28331829320301,-220.2648979523481
139653.0,72313.0,139653.0,110676.0,139653.0,48349.0,-526.4675465650673,-26.226220306380483,-203.71894040610687
139653.0,72322.0,139653.0,110675.0,139653.0,48384.0,-512.9390396568602,-22.186500268858694,-187.14247692166822
139653.0,72337.0,139653.0,110675.0,139653.0,48399.0,-499.0876270394632,-18.17022570107362,-170.55962701968224
139663.0,72341.0,139663.0,110697.0,139663.0,48442.0,-484.93078440164373,-14.183520214382384,-153.99407340827844
139663.0,72416.0,139663.0,110747.0,139663.0,48462.0,-470.486614764609,-10.23244308214366,-137.4688343537253
139663.0,72402.0,139663.0,110697.0,139663.0,48484.0,-455.7736079248533,-6.322564321447331,-121.00594456971106
139663.0,72427.0,139663.0,110694.0,139663.0,48477.0,-440.81026563879726,-2.458732926467661,-104.62627053797593
139663.0,72415.0,139663.0,110705.0,139663.0,48497.0,-425.61502300333547,1.3546219408551394,-88.34960930168643
139663.0,72444.0,139663.0,110698.0,139663.0,48487.0,-410.20649781150223,5.11308599103792,-72.19500934148078
139674.0,72462.0,139674.0,110719.0,139674.0,48557.0,-394.6037515827194,8.81211549435119,-56.18107206515731
139674.0,72504.0,139674.0,110754.0,139674.0,48547.0,-378.8263208376678,12.447139595624776,-40.325968182161205
139674.0,72532.0,139674.0,110755.0,139674.0,48570.0,-362.89396538161833,16.013931662912412,-24.647247282936405
139674.0,72533.0,139674.0,110718.0,139674.0,48588.0,-346.82630498041743,19.508990778600932,-9.161769899297553
139674.0,72537.0,139674.0,110718.0,139674.0,48598.0,-330.64267163300303,22.929449838645112,6.114224357186231
139674.0,72564.0,139674.0,110720.0,139674.0,48617.0,-314.3622881088917,26.272581205461137,21.16505276360408
139684.0,72591.0,139684.0,110762.0,139684.0,48664.0,-298.00447463542315,29.535474746703173,35.97559080059142
139684.0,72620.0,139684.0,110727.0,139684.0,48675.0,-281.58860585913874,32.71513322277963,50.5314688407621
139684.0,72625.0,139684.0,110767.0,139684.0,48705.0,-265.1339105448463,35.80867548912674,64.81942017749469
139684.0,72692.0,139684.0,110761.0,139684.0,48686.0,-248.65927123457098,38.81344928457503,78.82749956117522
139684.0,72662.0,139684.0,110731.0,139684.0,48688.0,-232.18299491308343,41.72709417200362,92.54495208703861
139684.0,72698.0,139684.0,110763.0,139684.0,48731.0,-215.72267346851442,44.54743127054752,105.9618299634759
139694.0,72721.0,139694.0,110780.0,139694.0,48733.0,-199.29526084844332,47.27231544590613,119.06876428143312
139694.0,72744.0,139694.0,110771.0,139694.0,48784.0,-182.91711337540335,49.89978191992398,131.85708234085905
139694.0,72733.0,139694.0,110757.0,139694.0,48786.0,-166.60391779310675,52.42824654588837,144.31910894130135
139694.0,72765.0,139694.0,110774.0,139694.0,48773.0,-150.37077768830108,54.85641982834949,156.4483969281299
139694.0,72799.0,139694.0,110768.0,139694.0,48793.0,-134.2323849238806,57.18312699238689,168.2396322541967
139694.0,72794.0,139694.0,110799.0,139694.0,48816.0,-118.2030044125251,59.40730329989755,179.68834328654322
139705.0,72820.0,139705.0,110785.0,139705.0,48838.0,-102.29640531733702,61.52816262782862,190.79082332459222
139705.0,72858.0,139705.0,110800.0,139705.0,48846.0,-86.525883923337,63.545389586282,201.54430088104465
139705.0,72851.0,139705.0,110827.0,139705.0,48852.0,-70.90421178723153,65.45930055961102,211.94708262080832
139705.0,72877.0,139705.0,110765.0,139705.0,48868.0,-55.44355932622881,67.27098784390611,221.9985395304456
139705.0,72895.0,139705.0,110784.0,139705.0,48869.0,-40.155550256155436,68.98219997755766,231.69901529935032
139705.0,72915.0,139705.0,110817.0,139705.0,48882.0,-25.051310893633797,70.59498453932719,241.04972574249734
139715.0,72953.0,139715.0,110805.0,139715.0,48900.0,-10.141382401838598,72.11164381134742,250.05267151770943
139715.0,72961.0,139715.0,110793.0,139715.0,48921.0,4.564484144222433,73.53497490976491,258.7106531443602
139715.0,72964.0,139715.0,110789.0,139715.0,48897.0,19.057504506602243,74.8682600472865,267.0273579048768
139715.0,72988.0,139715.0,110788.0,139715.0,48909.0,33.32983207708577,76.11499469537364,275.0072675994443
139715.0,72991.0,139715.0,110767.0,139715.0,48915.0,47.37439585400756,77.27860853142201,282.6553445401064
139715.0,73018.0,139715.0,110803.0,139715.0,48953.0,61.184777877219744,78.362243820836,289.97682348602916
139725.0,73047.0,139725.0,110836.0,139725.0,48966.0,74.75520118408997,79.36878945012117,296.97735018515084
139725.0,73039.0,139725.0,110783.0,139725.0,48963.0,88.08063052056093,80.30125550424214,303.66330850318275
139725.0,73058.0,139725.0,110776.0,139725.0,48958.0,101.15681195686534,81.16293177121943,310.0419676398642
139725.0,73077.0,139725.0,110778.0,139725.0,48950.0,113.98015443446371,81.9569860438695,316.1212853050529
139725.0,73100.0,139725.0,110798.0,139725.0,48980.0,126.5476598043619,82.68603030645247,321.9095689945258
139725.0,73088.0,139725.0,110848.0,139725.0,48982.0,138.8569662348928,83.35220313400086,327.41531283648976
139736.0,73145.0,139736.0,110829.0,139736.0,48989.0,150.9063593811096,83.9577419109757,332.64726033669115
139736.0,73115.0,139736.0,110806.0,139736.0,48992.0,162.69478175006162,84.50551862809155,337.61447014046075
139736.0,73140.0,139736.0,110792.0,139736.0,48981.0,174.22182008235802,84.99900491881024,342.3262408461875
139736.0,73151.0,139736.0,110795.0,139736.0,48995.0,185.48754936492628,85.4417998081368,346.7919168405198
139736.0,73161.0,139736.0,110811.0,139736.0,48998.0,196.4923731287068,85.83726039750093,351.02069021011425
139736.0,73167.0,139736.0,110815.0,139736.0,49000.0,207.23695514734885,86.18848631532714,355.02150164110276
139746.0,73214.0,139746.0,110830.0,139746.0,49029.0,217.7221959828476,86.49854449736802,358.80303596429644
139746.0,73192.0,139746.0,110776.0,139746.0,49018.0,227.94932518812936,86.77063873259894,362.3738120584453
139746.0,73205.0,139746.0,110784.0,139746.0,48999.0,237.91997759821805,87.00791019893296,365.742237313338
139746.0,73226.0,139746.0,110785.0,139746.0,49018.0,247.6360634426149,87.2129538839533,368.9164118651212
139746.0,73247.0,139746.0,110820.0,139746.0,49038.0,257.0996609089608,87.3875648179469,371.9038826827905
139746.0,73253.0,139746.0,110829.0,139746.0,49064.0,266.3131273993895,87.53298521574013,374.7117398476952
139756.0,73275.0,139756.0,110821.0,139756.0,49047.0,275.27926549269625,87.65038938401,377.34698395188116
139756.0,73269.0,139756.0,110862.0,139756.0,49052.0,284.0014039000281,87.74127648294308,379.8167535694681
139756.0,73268.0,139756.0,110772.0,139756.0,49051.0,292.4833427317609,87.80764765181235,382.1282526996723
139756.0,73271.0,139756.0,110818.0,139756.0,49046.0,300.72911440171265,87.85180352782456,384.2885580625273
139756.0,73295.0,139756.0,110815.0,139756.0,49059.0,308.74269361650306,87.87591589814295,386.3044537487958
139756.0,73319.0,139756.0,110819.0,139756.0,49073.0,316.52791738379005,87.88190767560377,388.1823658525419
139767.0,73329.0,139767.0,110824.0,139767.0,49092.0,324.0886816965335,87.87163303528544,389.9284940067017
139767.0,73330.0,139767.0,110802.0,139767.0,49066.0,331.4291921605194,87.8469751668884,391.549046522632
139767.0,73350.0,139767.0,110795.0,139767.0,49065.0,338.5540599956706,87.80972599359836,393.0502713273793
139767.0,73311.0,139767.0,110783.0,139767.0,49058.0,345.4682169674287,87.76127208312866,394.4381772660025
139767.0,73337.0,139767.0,110833.0,139767.0,49076.0,352.1766207705057,87.70233156618099,395.7182106775799
139767.0,73357.0,139767.0,110845.0,139767.0,49093.0,358.6839004660975,87.6331224783974,396.895174422623
139777.0,73372.0,139777.0,110840.0,139777.0,49091.0,364.99430001543635,87.55393214440103,397.97340942547044
139777.0,73362.0,139777.0,110816.0,139777.0,49081.0,371.11187119404144,87.4655411878743,398.9569876347142
139777.0,73365.0,139777.0,110802.0,139777.0,49082.0,377.04051910179885,87.36912574325954,399.8496774628493
139777.0,73377.0,139777.0,110794.0,139777.0,49091.0,382.7838212150374,87.26580783634117,400.6547645463354
139777.0,73408.0,139777.0,110815.0,139777.0,49091.0,388.3449092484874,87.15624650182066,401.37495233963784
139777.0,73396.0,139777.0,110829.0,139777.0,49118.0,393.72658775341654,87.0405650689939,402.0124173163633
139787.0,73425.0,139787.0,110812.0,139787.0,49101.0,398.93152340739834,86.91858019267191,402.56897416894935
139787.0,73407.0,139787.0,110839.0,139787.0,49111.0,403.9623268172344,86.79003108994168,403.0462133229033
139787.0,73412.0,139787.0,110800.0,139787.0,49108.0,408.8214943707127,86.65465720771329,403.4454994022125
139787.0,73434.0,139787.0,110824.0,139787.0,49122.0,413.5112505290309,86.51213849403067,403.76792773307034
139787.0,73448.0,139787.0,110834.0,139787.0,49110.0,418.0334989252482,86.36200958690519,404.01434002894996
139787.0,73455.0,139787.0,110832.0,139787.0,49106.0,422.38999755023826,86.2037563734265,404.1853041080417
139798.0,73447.0,139798.0,110858.0,139798.0,49127.0,426.58253940385066,86.03707874390716,404.2810070247755
139798.0,73448.0,139798.0,110788.0,139798.0,49123.0,430.6129199929885,85.86205444803049,404.30122349593955
139798.0,73457.0,139798.0,110809.0,139798.0,49125.0,434.48274423724433,85.67892478927853,404.2454122331485
139798.0,73486.0,139798.0,110827.0,139798.0,49141.0,438.19331759710144,85.48764786575465,404.1128066239593
139798.0,73497.0,139798.0,110838.0,139798.0,49148.0,441.7458075568111,85.28779813571524,403.9025240631313
139798.0,73476.0,139798.0,110804.0,139798.0,49149.0,445.14152566478447,85.07882445325589,403.6137607401067
139808.0,73486.0,139808.0,110824.0,139808.0,49134.0,448.3819779663237,84.86012827920585,403.2459241788397
139808.0,73485.0,139808.0,110814.0,139808.0,49130.0,451.4686554555991,84.63090946726716,402.7985436820892
139808.0,73488.0,139808.0,110827.0,139808.0,49154.0,454.402829607915,84.39009332162497,402.2710679816894
139808.0,73517.0,139808.0,110830.0,139808.0,49138.0,457.1854905610079,84.13640573552998,401.66280307715226
139808.0,73520.0,139808.0,110824.0,139808.0,49158.0,459.8174704045008,83.8684952593129,400.97299837692526
139808.0,73504.0,139808.0,110890.0,139808.0,49161.0,462.29964833622296,83.58513249290607,400.2009556947829
139819.0,73504.0,139819.0,110833.0,139819.0,49146.0,464.6329421959671,83.28560017092688,399.34613684011083
139819.0,73519.0,139819.0,110802.0,139819.0,49149.0,466.8180762314465,82.96992184949424,398.40816863859663
139819.0,73518.0,139819.0,110797.0,139819.0,49164.0,468.8554306511811,82.63842531236163,397.38673730660844
139819.0,73531.0,139819.0,110853.0,139819.0,49170.0,470.7450680589044,82.29110615469918,396.28160289593114
139819.0,73552.0,139819.0,110813.0,139819.0,49167.0,472.48685378640334,81.92756864607976,395.09278036476803
139819.0,73556.0,139819.0,110815.0,139819.0,49149.0,474.0806822642634,81.54727876913545,393.8206444359791
139829.0,73545.0,139829.0,110857.0,139829.0,49158.0,475.52671836650507,81.14961946941158,392.4658125345347
139829.0,73561.0,139829.0,110810.0,139829.0,49162.0,476.8254635013716,80.7339464553256,391.0289656671188
139829.0,73555.0,139829.0,110831.0,139829.0,49164.0,477.9776970362118,80.29969313731566,389.5108156687708
139829.0,73569.0,139829.0,110875.0,139829.0,49157.0,478.9844569621878,79.84640127855994,387.9121682032644
139829.0,73582.0,139829.0,110851.0,139829.0,49178.0,479.84710632088013,79.37398700242372,386.2339620950654
139829.0,73568.0,139829.0,110822.0,139829.0,49168.0,480.56746107431763,78.8830964603463,384.47733960673037
139839.0,73581.0,139839.0,110819.0,139839.0,49165.0,481.1478640231179,78.37497237821013,382.6437456071607
139839.0,73551.0,139839.0,110815.0,139839.0,49172.0,481.59109948080686,77.85096502691083,380.73493821773354
139839.0,73570.0,139839.0,110830.0,139839.0,49167.0,481.9001708924078,77.31221172392623,378.75294934034343
139839.0,73591.0,139839.0,110839.0,139839.0,49184.0,482.0781254683618,76.75964672404109,376.7001103624446
139839.0,73567.0,139839.0,110838.0,139839.0,49166.0,482.128109898146,76.1942180158713,374.5791369025384
139839.0,73571.0,139839.0,110826.0,139839.0,49168.0,482.05345669801216,75.61708028896176,372.39316323940704
139850.0,73559.0,139850.0,110819.0,139850.0,49171.0,481.8575380098707,75.0295778563455,370.1456716972632
139850.0,73578.0,139850.0,110818.0,139850.0,49163.0,481.5435365002131,74.43305392278816,367.84041402457245
139850.0,73573.0,139850.0,110837.0,139850.0,49176.0,481.1143639576534,73.82870067047718,365.4813914376445
139850.0,73597.0,139850.0,110853.0,139850.0,49182.0,480.5727517721705,73.2176565389546,363.07290737409505
139850.0,73589.0,139850.0,110831.0,139850.0,49151.0,479.9214423721901,72.60130411420577,360.61965842330613
139850.0,73586.0,139850.0,110802.0,139850.0,49170.0,479.16335605919335,71.98138408138362,358.12669127847187
139860.0,73573.0,139860.0,110811.0,139860.0,49143.0,478.30157934789975,71.3596843740506,355.5992093696068
139860.0,73593.0,139860.0,110819.0,139860.0,49152.0,477.33920305060633,70.73763635607631,353.0423747241495
139860.0,73620.0,139860.0,110855.0,139860.0,49168.0,476.27929939859916,70.11628748367484,350.46118786202277
139860.0,73604.0,139860.0,110827.0,139860.0,49170.0,475.12520202218036,69.49665242592734,347.86056293502355
139860.0,73611.0,139860.0,110836.0,139860.0,49152.0,473.88081953340645,68.88002976829384,345.2455331890244
139860.0,73595.0,139860.0,110812.0,139860.0,49158.0,472.5506932099122,68.2679989193087,342.6213032685105
139870.0,73561.0,139870.0,110784.0,139870.0,49137.0,471.1397804398151,67.66212955757703,339.99309963076445
139870.0,73590.0,139870.0,110806.0,139870.0,49138.0,469.6530427094501,67.06352904227504,337.36594842084486
139870.0,73595.0,139870.0,110890.0,139870.0,49160.0,468.0951395126533,66.4726790296238,334.74450004047947
139870.0,73621.0,139870.0,110845.0,139870.0,49176.0,466.4705457481864,65.89002064266013,332.1331086924741
139870.0,73595.0,139870.0,110871.0,139870.0,49160.0,464.7839184146166,65.31678831454363,329.53617686745173
139870.0,73575.0,139870.0,110804.0,139870.0,49134.0,463.04024497725953,64.75526660673268,326.9583619095015
139881.0,73590.0,139881.0,110801.0,139881.0,49136.0,461.244603263511,64.20836674903869,324.4043632202573
139881.0,73587.0,139881.0,110819.0,139881.0,49154.0,459.40186461706116,63.6789478121471,321.8785752961803
139881.0,73609.0,139881.0,110838.0,139881.0,49158.0,457.5166720393433,63.169477397990484,319.3850354777917
139881.0,73584.0,139881.0,110828.0,139881.0,49146.0,455.59360411847894,62.682226036457976,316.9276257952731
139881.0,73592.0,139881.0,110791.0,139881.0,49143.0,453.6372554409818,62.21948320857548,314.5101786759552
139881.0,73582.0,139881.0,110805.0,139881.0,49146.0,451.65214429403807,61.783355775313005,312.1363912721376
139891.0,73577.0,139891.0,110786.0,139891.0,49124.0,449.64255679195446,61.37535111153604,309.8096879220608
139891.0,73600.0,139891.0,110815.0,139891.0,49155.0,447.61244263430103,60.99613141102749,307.53309943253583
139891.0,73609.0,139891.0,110831.0,139891.0,49140.0,445.565491876325,60.64558684798082,305.30924002234684
139891.0,73603.0,139891.0,110847.0,139891.0,49151.0,443.505412820308,60.323221501139706,303.14041623157016
139891.0,73603.0,139891.0,110804.0,139891.0,49132.0,441.436168059331,60.02858288552595,301.02870379048704
139891.0,73565.0,139891.0,110817.0,139891.0,49139.0,439.3619439196284,59.76131821774486,298.9758830919022
139901.0,73586.0,139901.0,110805.0,139901.0,49150.0,437.28685519734773,59.52088980805481,296.98334450451426
139901.0,73601.0,139901.0,110835.0,139901.0,49163.0,435.2146724255711,59.30637457252225,295.0521536991023
139901.0,73608.0,139901.0,110854.0,139901.0,49165.0,433.1489054539333,59.1166107677492,293.18330729691525
139901.0,73597.0,139901.0,110815.0,139901.0,49141.0,431.09311370091683,58.95055841095617,291.37795417042145
139901.0,73572.0,139901.0,110820.0,139901.0,49148.0,429.05101595905506,58.807434273553454,289.63735772942164
139901.0,73609.0,139901.0,110812.0,139901.0,49142.0,427.0263166644437,58.686467678396404,287.9626801037108
139912.0,73585.0,139912.0,110826.0,139912.0,49129.0,425.0225783771092,58.586637348770616,286.3547885316428
139912.0,73586.0,139912.0,110836.0,139912.0,49169.0,423.0432536816095,58.50665849139591,284.81415070172056
139912.0,73595.0,139912.0,110834.0,139912.0,49169.0,421.0916679513043,58.44516348237047,283.3409485380412
139912.0,73599.0,139912.0,110799.0,139912.0,49114.0,419.1709913149467,58.40082120843512,281.9353152980674
139912.0,73569.0,139912.0,110802.0,139912.0,49142.0,417.28427661963013,58.372132024367495,280.597222426196
139912.0,73560.0,139912.0,110793.0,139912.0,49137.0,415.43431841867164,58.35699955792753,279.3260849665386
139922.0,73611.0,139922.0,110848.0,139922.0,49153.0,413.62336526746327,58.35250439553634,278.12062182300576
139922.0,73573.0,139922.0,110844.0,139922.0,49159.0,411.85310617181545,58.35517113340794,276.97902350419537
139922.0,73585.0,139922.0,110898.0,139922.0,49177.0,410.12486635793016,58.36163174657793,275.8992169263163
139922.0,73594.0,139922.0,110834.0,139922.0,49147.0,408.4396480394905,58.36929682648579,274.8791099532569
139922.0,73577.0,139922.0,110797.0,139922.0,49154.0,406.7981011341001,58.37648231405096,273.9166275323847
139922.0,73567.0,139922.0,110781.0,139922.0,49168.0,405.20048460807686,58.381714562971155,273.0095536588321
139932.0,73591.0,139932.0,110838.0,139932.0,49174.0,403.6465131968312,58.38284317027077,272.155496958938
139932.0,73593.0,139932.0,110861.0,139932.0,49166.0,402.1353019837291,58.3769107531958,271.352048770893
139932.0,73614.0,139932.0,110858.0,139932.0,49175.0,400.66558693352573,58.36080605223286,270.59689499994965
139932.0,73596.0,139932.0,110821.0,139932.0,49148.0,399.23604129558606,58.33185858454323,269.8877705204544
139932.0,73600.0,139932.0,110817.0,139932.0,49155.0,397.8454410213653,58.287781994136616,269.22226631833746
139932.0,73569.0,139932.0,110862.0,139932.0,49162.0,396.4925719795925,58.226292001976795,268.5975825406151
139943.0,73602.0,139943.0,110829.0,139943.0,49162.0,395.17597210089826,58.1450365027337,268.0104218088748
139943.0,73602.0,139943.0,110890.0,139943.0,49175.0,393.89379788471535,58.04187835755456,267.45705324429514
139943.0,73592.0,139943.0,110884.0,139943.0,49181.0,392.6439407875204,57.915320488586424,266.93345017176637
139943.0,73589.0,139943.0,110818.0,139943.0,49165.0,391.42412237369314,57.76487703897079,266.435426744075
139943.0,73609.0,139943.0,110807.0,139943.0,49186.0,390.2318327077224,57.590860429649304,265.9586764762723
139943.0,73584.0,139943.0,110852.0,139943.0,49182.0,389.0643002665563,57.39364706758671,265.4987613932574
139953.0,73602.0,139953.0,110879.0,139953.0,49165.0,387.9184995247631,57.17340724982097,265.0511288307523
139953.0,73615.0,139953.0,110859.0,139953.0,49197.0,386.79114975697394,56.93059876403272,264.61107306043925
139953.0,73615.0,139953.0,110808.0,139953.0,49191.0,385.6788508616645,56.66636409811417,264.1737309298592
139953.0,73603.0,139953.0,110821.0,139953.0,49184.0,384.5782854806613,56.38220388874393,263.73420678307053
139953.0,73606.0,139953.0,110835.0,139953.0,49197.0,383.4862426528572,56.07937786372726,263.2876386123802
139953.0,73604.0,139953.0,110815.0,139953.0,49198.0,382.39949144052275,55.75867677615861,262.82918131375936
139963.0,73624.0,139963.0,110846.0,139963.0,49197.0,381.31471712296235,55.42049041640444,262.3540468384514
139963.0,73620.0,139963.0,110874.0,139963.0,49225.0,380.2286232716543,55.06500775503265,261.8576013965265
139963.0,73610.0,139963.0,110812.0,139963.0,49169.0,379.138084460987,54.69255729551725,261.33544701180085
139963.0,73600.0,139963.0,110834.0,139963.0,49189.0,378.0401271114233,54.30369705014485,260.78328925342834
139963.0,73615.0,139963.0,110813.0,139963.0,49202.0,376.9317385657595,53.89888413586429,260.1966175959966
139963.0,73621.0,139963.0,110843.0,139963.0,49216.0,375.80976353209644,53.47818538160261,259.5706336481941
139974.0,73625.0,139974.0,110875.0,139974.0,49234.0,374.6710154849249,53.04138106099426,258.90055691340433
139974.0,73617.0,139974.0,110843.0,139974.0,49226.0,373.51244122862573,52.58839698812328,258.1820208661526
139974.0,73611.0,139974.0,110841.0,139974.0,49209.0,372.3311464711468,52.11962988002887,257.4112842685163
139974.0,73626.0,139974.0,110822.0,139974.0,49197.0,371.12430071947665,51.63582397710021,256.5851000147438
139974.0,73613.0,139974.0,110842.0,139974.0,49216.0,369.88907944031496,51.137739731003904,255.7003772149376
139974.0,73626.0,139974.0,110837.0,139974.0,49225.0,368.6226800047702,50.62599499740184,254.7540110126323
139984.0,73639.0,139984.0,110853.0,139984.0,49224.0,367.3223831759223,50.1011434698944,253.74301177918124
139984.0,73639.0,139984.0,110853.0,139984.0,49241.0,365.9857209394037,49.56386891136694,252.66473141230003
139984.0,73629.0,139984.0,110830.0,139984.0,49218.0,364.6106738612627,49.01513528913026,251.51701683994452
139984.0,73603.0,139984.0,110790.0,139984.0,49209.0,363.19565115720087,48.45604184964478,250.29818760329053
139984.0,73634.0,139984.0,110838.0,139984.0,49222.0,361.73923127765966,47.88735274851851,249.00681330354647
139984.0,73640.0,139984.0,110849.0,139984.0,49229.0,360.2400131645235,47.30923951231291,247.64154190906913
