c_ts,c_val,d_ts,d_val,e_ts,e_val,c_val_filtered,d_val_filtered,e_val_filtered
34971,2810,34971,9076,34971,20201,3.5952665659156806,-121.61103854720417,-131.79238873845924
34971,2808,34971,9079,34971,20189,3.6191956869288044,-122.09677193369865,-133.64233108144808
34971,2809,34971,9095,34971,20219,3.642704431854286,-122.67502510527997,-135.59962407400872
34971,2813,34971,9104,34971,20222,3.665956177092324,-123.34985775834271,-137.66664454991434
34981,2816,34981,9098,34981,20200,3.6891349490277845,-124.12441116152979,-139.84504268840973
34981,2808,34981,9071,34981,20200,3.7125060529656184,-125.00076509443731,-142.13561573517313
34981,2802,34981,9047,34981,20185,3.73640992225259,-125.98016801054239,-144.53846752590727
34981,2810,34981,9044,34981,20184,3.761164894652682,-127.063587736385,-147.05324736580596
34981,2804,34981,9088,34981,20203,3.786988186482565,-128.25215767942512,-149.67928612374496
34981,2811,34981,9113,34981,20208,3.813993742864366,-129.54704091141647,-152.41550205626086
34991,2811,34991,9069,34991,20189,3.8422285067153057,-130.94883756183776,-155.26013911875677
34991,2810,34991,9066,34991,20164,3.87172281774495,-132.45727212068678,-158.2106879031209
34991,2804,34991,9034,34991,20149,3.902514465040226,-134.07150061786575,-161.26419567699932
34991,2808,34991,9054,34991,20148,3.934609965188441,-135.79064306029727,-164.41775918244684
34991,2810,34991,9116,34991,20185,3.9679397290293057,-137.6139664131847,-167.6687995877241
34991,2813,34991,9108,34991,20189,4.002377947136753,-139.54038626290568,-171.01485457586332
35001,2814,35001,9066,35001,20163,4.0378130300279125,-141.56772836011282,-174.4531001450871
35001,2816,35001,9023,35001,20144,4.0742200371374375,-143.6926688507242,-177.98016277356749
35001,2801,35001,9026,35001,20139,4.1116865281084936,-145.91148075885047,-181.59239810451038
35001,2804,35001,9045,35001,20148,4.150335173059925,-148.22080161969504,-185.28624972815402
35001,2805,35001,9076,35001,20161,4.190185618021668,-150.61776264268477,-189.05831783453337
35001,2809,35001,9078,35001,20187,4.231089168190887,-153.09951189028004,-192.90506904419834
35011,2811,35011,9045,35011,20138,4.272770692371284,-155.66267190112296,-196.82240001996593
35011,2814,35011,9006,35011,20125,4.314912994212802,-158.3033126608751,-200.80551436085346
35011,2808,35011,9009,35011,20131,4.357226994074351,-161.01752097793917,-204.84926469015255
35011,2812,35011,9075,35011,20143,4.3994713039786495,-163.8019147489866,-208.9484703503486
35011,2810,35011,9086,35011,20157,4.441435370595252,-166.65336560395397,-213.09781017233388
35011,2819,35011,9077,35011,20124,4.482946905434928,-169.56811217709128,-217.29149285798962
35021,2811,35021,9031,35021,20117,4.523923845953578,-172.54118085660258,-221.52314227279035
35021,2813,35021,9006,35021,20103,4.564414188601773,-175.56662209285707,-225.7860273539945
35021,2814,35021,9024,35021,20123,4.604585245445445,-178.63821029727927,-230.07333935196178
35021,2807,35021,9040,35021,20135,4.6446947022080165,-181.74988302672773,-234.37817865870312
35021,2808,35021,9073,35021,20128,4.685047520184261,-184.89554323821858,-238.69323525386193
35021,2810,35021,9070,35021,20124,4.725934626931624,-188.06842920684687,-243.0104523854303
35032,2808,35032,9013,35032,20101,4.767601955740235,-191.2606068084089,-247.32093073672277
35032,2808,35032,8993,35032,20097,4.810251848623576,-194.46312674563686,-251.61508143596905
35032,2807,35032,9018,35032,20107,4.854034317068956,-197.66670328866908,-255.882842012597
35032,2812,35032,9056,35032,20112,4.899036248921005,-200.8620628286595,-260.1137066907687
35032,2800,35032,9041,35032,20110,4.9452806989182285,-204.03955779812267,-264.2965268230395
35032,2807,35032,9032,35032,20096,4.992695785988133,-207.18860075839024,-268.4193023903223
35042,2811,35042,8993,35042,20091,5.041071410372134,-210.29755846519294,-272.469151112235
35042,2812,35042,8985,35042,20077,5.090090812826346,-213.35415684863537,-276.43243734257334
35042,2804,35042,9019,35042,20089,5.139402579209369,-216.3459743228804,-280.2949255758524
35042,2804,35042,9026,35042,20098,5.188613701032568,-219.26050574605344,-284.0417930593276
35042,2815,35042,9029,35042,20080,5.237230011590238,-222.08475493296464,-287.65746351972723
35042,2810,35042,9012,35042,20069,5.284671504631018,-224.8048276541275,-291.1254931886677
35052,2813,35052,8966,35052,20053,5.330354456506298,-227.40593028825901,-294.42871402583233
35052,2809,35052,8964,35052,20057,5.373735136633646,-229.87284743062685,-297.54952134160703
35052,2822,35052,9017,35052,20042,5.4143211955718025,-232.1904779973202,-300.4701019754068
35052,2818,35052,9020,35052,20092,5.451733719922374,-234.34377260495808,-303.17247407779666
35052,2808,35052,9019,35052,20059,5.485785566034073,-236.3171233074704,-305.6382540760874
35052,2813,35052,8974,35052,20036,5.516458608685665,-238.0939529327281,-307.8484063947283
35063,2811,35063,8949,35063,20036,5.543812290397304,-239.65696795816876,-309.7833934117938
35063,2807,35063,8944,35063,20036,5.567930729703643,-240.98888320528903,-311.4235663916187
35063,2808,35063,8982,35063,20040,5.588888150250092,-242.0730259552342,-312.7493649463008
35063,2815,35063,9013,35063,20060,5.606716438895402,-242.89329791893357,-313.74125482824047
35063,2808,35063,8983,35063,20048,5.621423399805077,-243.43360083386108,-314.3795159906486
35063,2816,35063,8951,35063,20010,5.633037418734462,-243.67746486865025,-314.6441264187582
35073,2811,35073,8939,35073,20012,5.64163603873238,-243.6083721217612,-314.51503783173854
35073,2807,35073,8964,35073,20021,5.647352374739841,-243.2103851664715,-313.9726678356342
35073,2808,35073,8990,35073,20042,5.650335080016055,-242.4683809644597,-312.99811336005246
35073,2807,35073,8996,35073,20040,5.650682097725856,-241.36772066813947,-311.5729706567605
35073,2820,35073,8974,35073,20013,5.648429142047108,-239.89379697299617,-309.6791226932101
35073,2813,35073,8926,35073,20002,5.643629332462782,-238.0320322082646,-307.2988790425766
35083,2808,35083,8929,35083,20021,5.6364389832035,-235.76849560517252,-304.4154061185991
35083,2810,35083,8949,35083,20044,5.62710026474047,-233.0906686808716,-301.0129767968772
35083,2802,35083,9007,35083,20030,5.61585108806006,-229.987656950523,-297.0768355682328
35083,2808,35083,8987,35083,20035,5.60284315344662,-226.4496986143071,-292.59301769268995
35083,2806,35083,8953,35083,20030,5.588096489202651,-222.46764447214755,-287.54840817558323
35083,2802,35083,8935,35083,20006,5.571488452414664,-218.03313792264188,-281.9309985177471
35094,2802,35094,8938,35094,20017,5.552730646071344,-213.1393617739779,-275.7302870190458
35094,2815,35094,9008,35094,20041,5.531343875376694,-207.78157097469,-268.93766111976385
35094,2810,35094,8988,35094,20044,5.506718172206324,-201.95692376262983,-261.5464848650013
35094,2810,35094,9011,35094,20076,5.478223499270925,-195.6639533932218,-253.5519140288002
35094,2807,35094,8996,35094,20039,5.445249729712959,-188.90229170474265,-244.95071433795528
35094,2815,35094,8979,35094,20035,5.4071860403749925,-181.67279027798082,-235.74138246205308
35104,2811,35104,8994,35104,20036,5.36343282915247,-173.97790361089895,-225.92465486640515
35104,2810,35104,9027,35104,20089,5.313442128577841,-165.82203678885452,-215.50398970769393
35104,2809,35104,9046,35104,20089,5.2567197521544555,-157.21149532115737,-204.48556640589217
35104,2818,35104,9062,35104,20105,5.192809428153045,-148.1540956882059,-192.87796265147463
35104,2819,35104,9017,35104,20101,5.121341908928261,-138.65889780445158,-180.6919741032687
35104,2809,35104,9015,35104,20096,5.042124785266149,-128.73647198256964,-167.9407464916753
35115,2813,35115,9070,35115,20124,4.955155641437427,-118.39950987178176,-154.64008823315305
35115,2810,35115,9097,35115,20152,4.860556533237817,-107.6630221517669,-140.80867575789586
35115,2810,35115,9147,35115,20185,4.758522880474935,-96.54381294012697,-126.4679142605094
35115,2804,35115,9089,35115,20175,4.649290818143073,-85.05979100033888,-111.64159695257113
35115,2801,35115,9072,35115,20183,4.533070384175581,-73.2299165786867,-96.35576484478274
35115,2811,35115,9089,35115,20194,4.4099667979047545,-61.07494113867193,-80.6389119956072
35125,2803,35125,9157,35125,20233,4.27996470069421,-48.61810964730407,-64.52224396488043
35125,2805,35125,9201,35125,20287,4.142957142224561,-35.88498286800893,-48.039597969227316
35125,2808,35125,9200,35125,20297,3.998750506515195,-22.902577231947504,-31.22694278030866
35125,2810,35125,9221,35125,20306,3.847077760283013,-9.698643096173441,-14.121833685529765
35125,2814,35125,9188,35125,20332,3.687664551123861,3.6984803322178834,3.2367921190168545
35125,2806,35125,9208,35125,20351,3.5203036415974576,17.259527393876027,20.808596268805815
35135,2810,35135,9261,35135,20397,3.344874952041037,30.95388933835511,38.551919136013055
35135,2803,35135,9287,35135,20422,3.161309194771533,44.749655885743664,56.42407960448344
35135,2806,35135,9330,35135,20433,2.9695355781707455,58.61418883391579,74.38177666187167
35135,2811,35135,9305,35135,20467,2.7694540577874793,72.51473900054054,92.38136955507045
35135,2807,35135,9296,35135,20477,2.56096249269477,86.41859757480498,110.37900755256516
35135,2812,35135,9334,35135,20528,2.3440124017362507,100.29272829824956,128.33077059899864
35146,2807,35146,9400,35146,20560,2.118644753139272,114.10351496024043,146.1929700114955
35146,2807,35146,9447,35146,20564,1.8849956699438768,127.81726072610655,163.92259039977557
35146,2800,35146,9443,35146,20599,1.6432619312567045,141.40118539309282,181.47762327984168
35146,2813,35146,9430,35146,20623,1.3936485261989962,154.82408586097085,198.817222940806
35146,2799,35146,9428,35146,20633,1.1363589660763767,168.05623386800175,215.90186198641015
35146,2806,35146,9466,35146,20663,0.8716060875143476,181.06888841442253,232.69348180179202
35156,2810,35156,9502,35156,20695,0.5996069131033455,193.83409166733924,249.15562101126244
35156,2804,35156,9545,35156,20735,0.3206101315843757,206.32502652969953,265.25369315012784
35156,2810,35156,9543,35156,20737,0.03494607154661278,218.51666964527658,280.95542079923234
35156,2799,35156,9495,35156,20737,-0.2569635750624135,230.3861457299643,296.2311237413876
35156,2807,35156,9518,35156,20735,-0.5546362905097055,241.91236917603277,311.0536071949941
35156,2799,35156,9580,35156,20811,-0.8575671638740463,253.07544115258628,325.3978898862965
35166,2809,35166,9638,35166,20798,-1.1652428544568139,263.8567641550732,339.24128079635216
35166,2807,35166,9626,35166,20829,-1.477108841429236,274.23994952462607,352.56376694149947
35166,2797,35166,9589,35166,20820,-1.7925223561653638,284.21153095871796,365.34823937072497
35166,2809,35166,9579,35166,20813,-2.1107577982167323,293.7607398106889,377.58038803472175
35166,2808,35166,9585,35166,20825,-2.4310181105228317,302.8786664115529,389.2483591741254
35166,2804,35166,9615,35166,20871,-2.7523792838866594,311.5575970218405,400.3424428261435
35177,2793,35177,9646,35177,20863,-3.073769202624619,319.7909233597354,410.85511058504176
35177,2797,35177,9686,35177,20874,-3.3940699046347333,327.5735682942291,420.7812440590724
35177,2797,35177,9661,35177,20879,-3.7122421038209996,334.90260614269147,430.11818190399015
35177,2799,35177,9594,35177,20852,-4.027358681703783,341.7774524040124,438.86553500681725
35177,2796,35177,9623,35177,20876,-4.338573489513687,348.1992081609542,447.0248366926422
35177,2794,35177,9682,35177,20925,-4.645106439459996,354.16983914660517,454.59927688953144
35187,2796,35187,9685,35187,20915,-4.946265149884768,359.69219321054175,461.5938864978041
35187,2796,35187,9672,35187,20898,-5.2414626951768994,364.77060315890316,468.0159006824274
35187,2799,35187,9651,35187,20891,-5.530199103381078,369.41111563205993,473.87469381000403
35187,2790,35187,9647,35187,20883,-5.812032928956421,373.62111719844745,479.18129996432174
35187,2798,35187,9681,35187,20903,-6.08658743887033,377.4088492357158,483.9479457472148
35187,2791,35187,9702,35187,20907,-6.353575236614525,380.7833274132392,488.1878500028738
35197,2807,35197,9691,35197,20916,-6.612782648586819,383.75468777208187,491.9152738844765
35197,2802,35197,9686,35197,20904,-6.863979479480857,386.33448353560277,495.14561644134676
35197,2793,35197,9672,35197,20891,-7.106814856188391,388.53560852606046,497.89534277562007
35197,2789,35197,9638,35197,20879,-7.3408347575255615,390.37190752638855,500.1816754660847
35197,2791,35197,9655,35197,20905,-7.565619217171946,391.85761483604784,502.0222146758442
35197,2791,35197,9699,35197,20917,-7.780889458309549,393.0069686595994,503.4348142331652
35208,2793,35208,9719,35208,20921,-7.986522237045033,393.8344460888992,504.43781025643113
35208,2794,35208,9682,35208,20907,-8.182515924921072,394.35539965494,505.05030223428207
35208,2799,35208,9647,35208,20879,-8.368936666935076,394.58627739496734,505.29213991031145
35208,2796,35208,9630,35208,20873,-8.545848663427677,394.54407381055967,505.1835425017565
35208,2791,35208,9660,35208,20897,-8.713269048927238,394.24554545143496,504.74463698230704
35208,2801,35208,9686,35208,20905,-8.871175698472866,393.70692721614495,503.99533571305494
35218,2793,35218,9690,35218,20896,-9.019511297090787,392.9443006101491,502.95557503333544
35218,2784,35218,9650,35218,20875,-9.158185696783137,391.9740710778499,501.6454952571758
35218,2781,35218,9622,35218,20859,-9.287175724363506,390.81291641423917,500.08526799064947
35218,2804,35218,9586,35218,20857,-9.4066516118386,389.4771025176487,498.29468547264247
35218,2792,35218,9666,35218,20866,-9.516935772559874,387.9817204499532,496.2928229436333
35218,2791,35218,9680,35218,20885,-9.61836070053866,386.3406456770305,494.0980041099268
35228,2792,35228,9657,35228,20865,-9.711236449950606,384.5672614998996,491.72803266028257
35228,2795,35228,9622,35228,20845,-9.795895305373609,382.6749849570207,489.200353303843
35228,2792,35228,9617,35228,20841,-9.872690186115484,380.67701192991586,486.5318806931106
35228,2788,35228,9611,35228,20850,-9.941981176881175,378.5857282607886,483.73869399349917
35228,2793,35228,9666,35228,20861,-10.004164813587922,376.41243202625327,480.83596082385156
35228,2792,35228,9655,35228,20865,-10.059699567045998,374.1676256051735,477.8381548076139
35239,2801,35239,9638,35239,20843,-10.109070847574626,371.86155742543065,474.75932946729534
35239,2787,35239,9607,35239,20829,-10.152723848159265,369.504379622065,471.6131586000406
35239,2788,35239,9596,35239,20806,-10.191061349292063,367.1057512818588,468.41265768357584
35239,2798,35239,9623,35239,20825,-10.224512542257612,364.6743301434391,465.1697922925316
35239,2797,35239,9644,35239,20831,-10.253535244892904,362.21767861171,461.89530499779465
35239,2794,35239,9666,35239,20857,-10.27852721148895,359.7427193962785,458.59893237946505
35249,2800,35249,9623,35249,20824,-10.29976592194732,357.25634387617913,455.28982966924997
35249,2797,35249,9583,35249,20807,-10.317388980537823,354.76554156182357,451.9767736752622
35249,2783,35249,9582,35249,20794,-10.331398925977492,352.2768399641441,448.6679231063999
35249,2791,35249,9627,35249,20806,-10.341753159426407,349.7956658123972,445.3704193346173
35249,2805,35249,9649,35249,20816,-10.34845196962974,347.32639845087937,442.0902442207289
35249,2792,35249,9637,35249,20830,-10.351472877437914,344.87304845607844,438.8324379838355
35259,2780,35259,9607,35259,20795,-10.350692960013186,342.43979636186623,435.60143609680415
35259,2793,35259,9579,35259,20784,-10.345987361122894,340.0308834049095,432.401140535805
35259,2791,35259,9560,35259,20791,-10.337350188480748,337.6499958161517,429.2346544096426
35259,2793,35259,9601,35259,20795,-10.324871856569745,335.2996525044728,426.1040582796643
35259,2788,35259,9614,35259,20817,-10.308676084378389,332.9811100439402,423.01051139196903
35259,2798,35259,9620,35259,20802,-10.288905589119247,330.69483142996216,419.954580615335
35270,2792,35270,9592,35270,20775,-10.26570183216957,328.4409923934153,416.9364752733742
35270,2795,35270,9563,35270,20771,-10.239162623341095,326.21951932387367,413.95592071994116
35270,2795,35270,9567,35270,20781,-10.209320077356221,324.0296587957906,411.01183659692975
35270,2786,35270,9633,35270,20807,-10.176151061971293,321.86963724919997,408.1022670270641
35270,2791,35270,9623,35270,20791,-10.139628231347695,319.7369916578366,405.22468622369314
35270,2789,35270,9610,35270,20790,-10.099787360176698,317.6292960131706,402.3763476887785
35280,2790,35280,9567,35280,20757,-10.056754314679857,315.5444479029759,399.5543370929261
35280,2789,35280,9535,35280,20764,-10.010741777398504,313.48020765548495,396.75532083092537
35280,2799,35280,9579,35280,20757,-9.962031911414883,311.4334373631683,393.9752372427742
35280,2795,35280,9617,35280,20799,-9.910912578131986,309.3998270915928,391.20923012145556
35280,2789,35280,9627,35280,20783,-9.857607574605893,307.37446657487874,388.4519501093374
35280,2799,35280,9579,35280,20773,-9.80227575925188,305.35263720377475,385.6979610542652
35290,2783,35290,9559,35290,20757,-9.745048703175607,303.32995628372396,382.94184675107203
35290,2797,35290,9547,35290,20756,-9.686068410999232,301.3018210971296,380.17800205319395
35290,2787,35290,9597,35290,20752,-9.625521058928648,299.26285716938975,377.40039792242163
35290,2787,35290,9614,35290,20783,-9.563658650103639,297.2070083631721,374.60253916204744
35290,2802,35290,9620,35290,20782,-9.50081060457091,295.12821230969917,371.77771419049714
35290,2791,35290,9574,35290,20761,-9.437338730360338,293.0209996111797,368.9193771890144
35301,2792,35301,9538,35301,20737,-9.37356389757557,290.8804179846706,366.0212520225228
35301,2791,35301,9553,35301,20749,-9.309773684962149,288.7013543788793,363.0770549348396
35301,2798,35301,9590,35301,20769,-9.246264443267172,286.4779938868472,360.08026322710134
35301,2797,35301,9602,35301,20765,-9.183314556529421,284.20400250260286,357.02427415591904
35301,2786,35301,9619,35301,20767,-9.121137461032625,281.87321939442927,353.90276605519205
35301,2799,35301,9576,35301,20756,-9.059903456603092,279.480247730038,350.7099300018692
35311,2796,35311,9540,35311,20727,-8.999769591906135,277.0204787916191,347.44045687521447
35311,2799,35311,9574,35311,20761,-8.94083262219909,274.48957788675347,344.08935082713015
35311,2796,35311,9608,35311,20774,-8.883065746320051,271.8831486035092,340.65190122547165
35311,2794,35311,9619,35311,20755,-8.826309950430877,269.19713814478666,337.1240156025002
35311,2799,35311,9593,35311,20753,-8.770299722477782,266.4285649708513,333.50254948865086
35311,2798,35311,9551,35311,20749,-8.714668502130294,263.5757796249865,329.7853418450713
35321,2792,35321,9538,35321,20719,-8.658931850985134,260.6380220609625,325.9710897601715
35321,2791,35321,9565,35321,20729,-8.602515137413741,257.61475717405733,322.0591454535941
35321,2794,35321,9586,35321,20743,-8.54482777497137,254.5054725823391,318.0493509836599
35321,2789,35321,9607,35321,20742,-8.485313202169866,251.31011878812768,313.9421494784748
35321,2793,35321,9584,35321,20743,-8.42346652711664,248.0297728221592,309.7389020638973
35321,2793,35321,9544,35321,20722,-8.358842115478744,244.66694658182138,305.4421109602586
35332,2786,35332,9533,35332,20701,-8.291055185418884,241.22527269438834,301.0553787085659
35332,2793,35332,9568,35332,20715,-8.219803732036308,237.7089584033742,296.58316010891593
35332,2792,35332,9580,35332,20733,-8.144892580098599,234.12269340424493,292.0306345979259
35332,2788,35332,9577,35332,20717,-8.066223147776004,230.47210256100902,287.4039255771224
35332,2792,35332,9539,35332,20696,-7.983789401937996,226.76416051752335,282.7103690360831
35332,2793,35332,9503,35332,20663,-7.897688103078474,223.0070539935818,277.95841033676265
35342,2793,35342,9487,35342,20671,-7.808098818422336,219.20950975512994,273.1571613018002
35342,2790,35342,9542,35342,20672,-7.715255961126656,215.38014047485373,268.3160220805111
35342,2796,35342,9542,35342,20701,-7.619447253187705,211.5274436536306,263.444695342897
35342,2786,35342,9537,35342,20662,-7.521022414829302,207.66037439899,258.5535135720319
35342,2797,35342,9502,35342,20637,-7.420405999824498,203.7887652662591,253.65361165909405
35342,2787,35342,9467,35342,20620,-7.318110317789635,199.92314157921498,248.7566166231353
35352,2796,35352,9452,35352,20616,-7.214736287276585,196.07406143144905,243.8741050385315
35352,2796,35352,9479,35352,20624,-7.110956131940201,192.25144953686726,239.01726289783343
35352,2797,35352,9514,35352,20634,-7.007463734675275,188.46446897396953,234.1968972940938
35352,2796,35352,9491,35352,20616,-6.9049189368944806,184.7220114521854,229.42367408980235
35352,2797,35352,9441,35352,20602,-6.803926235436988,181.03313999667566,224.70828373356136
35352,2797,35352,9432,35352,20584,-6.705033690157493,177.40684021834102,220.0613304816185
35363,2792,35363,9460,35363,20592,-6.608739880415622,173.85139557671198,215.49306610132373
35363,2789,35363,9478,35363,20599,-6.515537224429142,170.37420190677162,211.0132571061409
35363,2797,35363,9480,35363,20583,-6.425981526140884,166.9821929586456,206.63128637689744
35363,2799,35363,9448,35363,20570,-6.340702736961085,163.68232625593413,202.35626219570526
35363,2793,35363,9430,35363,20553,-6.260340724586704,160.4816190664549,198.19690570761173
35363,2798,35363,9398,35363,20543,-6.185503167289219,157.38670390334894,194.16126508506204
35373,2809,35373,9435,35373,20557,-6.116745553619353,154.4032696262296,190.25646051043364
35373,2791,35373,9460,35373,20561,-6.05450446224933,151.53590802777228,186.48865804231798
35373,2801,35373,9470,35373,20580,-5.999063029474057,148.78858225962568,182.86332879819537
35373,2794,35373,9407,35373,20544,-5.950605254461017,146.1652069675409,179.38560099699166
35373,2806,35373,9382,35373,20530,-5.909251875928398,143.66957099004094,176.06035660076162
35373,2806,35373,9398,35373,20520,-5.875004960369642,141.30461463671443,172.89194286997028
35384,2798,35384,9417,35384,20535,-5.84765583879645,139.07188103431804,169.883814375829
35384,2799,35384,9462,35384,20536,-5.826765673388892,136.97169797210933,167.0384594817528
35384,2794,35384,9452,35384,20546,-5.811740921845541,135.00389996470244,164.35760713506534
35384,2794,35384,9406,35384,20517,-5.801926811682389,133.16845101919074,161.84246294483665
35384,2798,35384,9377,35384,20508,-5.796668249594777,131.46535491906002,159.49371140360398
35384,2799,35384,9394,35384,20510,-5.795313901639222,129.89396230676354,157.3112680234348
35394,2797,35394,9439,35394,20533,-5.797173583889771,128.45250631739663,155.294103135991
35394,2801,35394,9436,35394,20534,-5.801481601614593,127.13838688306907,153.44040246634026
35394,2790,35394,9443,35394,20525,-5.807394391756621,125.94882937477749,151.74790868514617
35394,2797,35394,9392,35394,20496,-5.814030588334678,124.88123971391411,150.2140615115289
35394,2788,35394,9368,35394,20495,-5.820537347802148,123.93293022059851,148.83577049275405
35394,2786,35394,9393,35394,20501,-5.826162724775506,123.10043889385324,147.60905529597952
35404,2800,35404,9444,35404,20509,-5.830317934934449,122.37917277785456,146.52889967010663
35404,2791,35404,9443,35404,20523,-5.832564769912528,121.76384907794197,145.5894001561924
35404,2798,35404,9425,35404,20510,-5.83253830194626,121.24924443098982,144.78404173801283
35404,2794,35404,9389,35404,20495,-5.829897984061011,120.83044503073523,144.10584967925192
35404,2800,35404,9363,35404,20484,-5.824307158386387,120.50239337830243,143.5472538347385
35404,2793,35404,9390,35404,20513,-5.8154086046882005,120.25915882501037,143.09983160655383
35415,2802,35415,9439,35415,20533,-5.802808282608088,120.0936201413923,142.75433048634494
35415,2784,35415,9450,35415,20527,-5.786083469073035,119.9979346939166,142.5010756878017
35415,2798,35415,9426,35415,20515,-5.7648355404868585,119.96434316576506,142.33037461020632
35415,2796,35415,9393,35415,20505,-5.738740867365939,119.9854945093748,142.2325663142937
35415,2794,35415,9386,35415,20500,-5.7075290038619215,120.05406067375695,142.19779322315486
35415,2795,35415,9416,35415,20535,-5.670944846674465,120.16216548916412,142.21581510871806
35425,2786,35425,9450,35425,20546,-5.628771673425999,120.30129172956006,142.2761611456394
35425,2799,35425,9441,35425,20548,-5.580886736538134,120.46277386484645,142.36859809983122
35425,2793,35425,9421,35425,20513,-5.5272745416610265,120.63832025143923,142.48349202805443
35425,2796,35425,9403,35425,20511,-5.467983648492582,120.82003482224053,142.61171371227098
35425,2798,35425,9404,35425,20490,-5.403085682552575,121.00001949140533,142.7442014685086
35425,2788,35425,9448,35425,20556,-5.332666912532685,121.17006548472557,142.87162887019437
35435,2797,35435,9461,35435,20557,-5.2568564384310905,121.32185478581657,142.98460670878353
35435,2799,35435,9473,35435,20543,-5.175850513129628,121.44758898792813,143.07429806701356
35435,2794,35435,9433,35435,20527,-5.08987632912259,121.5405155994088,143.13278504674736
35435,2795,35435,9399,35435,20510,-4.999155975714362,121.5948704046065,143.15288589867
35435,2795,35435,9403,35435,20525,-4.903927223576097,121.60524419365062,143.1277526756166
35435,2794,35435,9443,35435,20545,-4.804472560233837,121.56598116818654,143.05068069627703
35446,2799,35446,9472,35446,20532,-4.701122065343972,121.47125274469157,142.91526967844277
35446,2795,35446,9437,35446,20546,-4.594234163936838,121.31567134828623,142.71569188694696
35446,2796,35446,9420,35446,20511,-4.484176507972325,121.09465917807415,142.4467862033361
35446,2797,35446,9396,35446,20512,-4.371329235629171,120.80415725238217,142.1039014024186
35446,2796,35446,9429,35446,20517,-4.256092382998158,120.44007355550877,141.682598084249
35446,2798,35446,9455,35446,20530,-4.138881246121747,119.99811193934045,141.17849678150313
35456,2801,35456,9482,35456,20546,-4.0201096804623955,119.4742207111885,140.5874403546988
35456,2796,35456,9424,35456,20517,-3.900161324606358,118.8652421321788,139.90579475100265
35456,2804,35456,9404,35456,20493,-3.779366948568027,118.16902429422592,139.13050779882596
35456,2793,35456,9385,35456,20490,-3.6579980331343624,117.3838072706565,138.25874806795952
35456,2795,35456,9436,35456,20496,-3.5362927592421207,116.50753727535502,137.28743757249111
35456,2798,35456,9460,35456,20535,-3.414516421854874,115.53784350182252,136.21313172418618
35466,2793,35466,9427,35466,20541,-3.2929995959368696,114.47261902071224,135.03239234324306
35466,2801,35466,9428,35466,20512,-3.1721358319457877,113.31045298453972,133.74234218036784
35466,2794,35466,9388,35466,20500,-3.052367202017919,112.05048922219275,132.34085869868258
35466,2802,35466,9405,35466,20500,-2.9341657791063813,110.69196828051706,130.82630804286683
35466,2810,35466,9438,35466,20517,-2.8179867506007916,109.2339285173853,129.19727055303676
35466,2798,35466,9459,35466,20525,-2.704174938542836,107.67544470725542,127.45260190893458
35477,2791,35477,9439,35477,20511,-2.5929319694648276,106.01626252621712,125.59171864453992
35477,2806,35477,9394,35477,20476,-2.4844108653911907,104.25715301832726,123.614719513045
35477,2803,35477,9377,35477,20475,-2.3787700805538434,102.39956206701649,121.52210392091538
35477,2802,35477,9375,35477,20486,-2.2761019824104185,100.44486043046626,119.31434241761863
35477,2797,35477,9425,35477,20498,-2.1763835033249412,98.39387831695373,116.9917484926494
35477,2805,35477,9446,35477,20508,-2.079509671774886,96.24716360594081,114.55473666087062
35487,2803,35487,9411,35487,20479,-1.9853108618094142,94.00570464875923,112.00416731238516
35487,2802,35487,9368,35487,20468,-1.8935193608918723,91.67128587635426,109.34142415852196
35487,2806,35487,9366,35487,20449,-1.8037419258274454,89.24605524501536,106.5681372242394
35487,2805,35487,9393,35487,20465,-1.7154444069689703,86.73187617628491,103.68581442665234
35487,2790,35487,9410,35487,20491,-1.627956548469701,84.13021674856861,100.69575000549989
35487,2791,35487,9413,35487,20480,-1.5405759062055129,81.44260036529869,97.59933927391268
35497,2806,35497,9399,35497,20458,-1.4527142396645862,78.67110787049043,94.39846370623093
35497,2797,35497,9360,35497,20446,-1.3639083122608477,75.81850202810386,91.09551323766377
35497,2795,35497,9344,35497,20441,-1.2737396403924803,72.88785894364563,87.69309428193415
35497,2795,35497,9369,35497,20450,-1.1818392696985596,69.8820018040937,84.19378361208416
35497,2802,35497,9380,35497,20465,-1.0879431890114626,66.80328324459163,80.60015467734434
35497,2789,35497,9402,35497,20447,-0.9918992315542381,63.65391255208351,76.91503579679988
35508,2797,35508,9357,35508,20424,-0.8936780880875874,60.43644716715508,73.14169456165095
35508,2798,35508,9325,35508,20409,-0.7934106974607102,57.153873671736875,69.28367717391643
35508,2800,35508,9329,35508,20422,-0.691373090446513,53.80911628119577,65.34445641836382
35508,2801,35508,9351,35508,20407,-0.5879207065514729,50.40451307974675,61.32724230520273
35508,2801,35508,9387,35508,20421,-0.48343491069117306,46.941875117692376,57.23502205494876
35508,2790,35508,9357,35508,20420,-0.3783181257241006,43.42306353420122,53.070709920934604
35518,2801,35518,9334,35518,20376,-0.27305173446711883,39.85043705150568,48.837273184450595
35518,2798,35518,9297,35518,20381,-0.16824793128333404,36.226678011957745,44.53760756995595
35518,2802,35518,9317,35518,20382,-0.06462467716837939,32.55420127735553,40.17421864845451
35518,2805,35518,9339,35518,20398,0.037059834442415784,28.834783378630505,35.74911995087328
35518,2808,35518,9365,35518,20397,0.13608084412712262,25.069810512198984,31.264081274785667
35518,2804,35518,9326,35518,20374,0.231822777441967,21.26088628624734,26.720945819256997
35528,2810,35528,9290,35528,20360,0.32382472344155744,17.41010098352129,22.1216963385815
35528,2806,35528,9278,35528,20350,0.41179970736588967,13.519622300993092,17.468229778811178
35528,2802,35528,9296,35528,20364,0.495637890662759,9.591060813845644,12.762111511225328
35528,2797,35528,9334,35528,20358,0.5753532335424634,5.625304232920882,8.004562066750168
35528,2804,35528,9329,35528,20379,0.6509857667418109,1.6229924198156027,3.196680366873011
35528,2805,35528,9313,35528,20362,0.7225566114056967,-2.414842448161835,-1.660230158015338
35539,2802,35539,9278,35539,20334,0.7901040783959479,-6.48656151680396,-6.56444914140809
35539,2805,35539,9268,35539,20323,0.8537219213633378,-10.590248110330322,-11.513963199054388
35539,2810,35539,9284,35539,20347,0.9135774810068416,-14.724187253711051,-16.50676637552823
35539,2804,35539,9333,35539,20340,0.969952214995895,-18.886939398962966,-21.540898037133047
35539,2804,35539,9311,35539,20350,1.0232702045468338,-23.076810087967317,-26.61415554219286
35539,2801,35539,9252,35539,20313,1.0740640355297106,-27.291306529492118,-31.723821740387734
35549,2800,35549,9257,35549,20301,1.1229083964956246,-31.527305640995053,-36.86669474431352
35549,2803,35549,9242,35549,20299,1.1703679226666681,-35.781700908447675,-42.03938970654906
35549,2809,35549,9259,35549,20304,1.2169956948095608,-40.0518117649689,-47.23858688632521
35549,2800,35549,9299,35549,20319,1.2633843984580286,-44.33528643083076,-52.46097314990379
35549,2800,35549,9265,35549,20292,1.310187152951543,-48.62961163167819,-57.70297010487485
35549,2808,35549,9233,35549,20292,1.3580776352276853,-52.93171901640454,-62.96054848964934
35559,2795,35559,9213,35559,20257,1.4077263786275331,-57.238198336758046,-68.22930904799779
35559,2797,35559,9227,35559,20260,1.4597770356803998,-61.545872617588145,-73.50476121336874
35559,2804,35559,9244,35559,20264,1.5147821095006657,-65.8520797401134,-78.78258320612116
35559,2799,35559,9257,35559,20283,1.573183129568453,-70.15442376429922,-84.05861072332704
35559,2792,35559,9228,35559,20266,1.635329183234182,-74.45030773202095,-89.32852805464006
35559,2808,35559,9204,35559,20232,1.7014508165457762,-78.73675193936018,-94.58761793720893
35570,2798,35570,9185,35570,20213,1.771656075755362,-83.01069811279666,-99.83093253780442
35570,2806,35570,9212,35570,20226,1.8459911798976547,-87.26946769461586,-105.05374607799632
35570,2797,35570,9251,35570,20243,1.9244788007466695,-91.51080769327456,-110.25176916496949
35570,2798,35570,9234,35570,20243,2.0070934739951287,-95.73234407624341,-115.42089022927996
35570,2799,35570,9209,35570,20196,2.0937044968931433,-99.93097704585193,-120.55681252817936
35570,2798,35570,9167,35570,20185,2.18403488301417,-104.10286587095393,-125.6551089702034
35580,2800,35580,9148,35580,20170,2.277656616084151,-108.24403170792772,-130.71169490083696
35580,2807,35580,9172,35580,20195,2.3740161408614497,-112.35107260089299,-135.72323127364933
35580,2803,35580,9211,35580,20216,2.4724981993315893,-116.42137557361659,-140.6870657357934
35580,2801,35580,9209,35580,20203,2.5724855313781925,-120.45261747947737,-145.600750188507
35580,2816,35580,9175,35580,20170,2.6733820796620815,-124.44208693719537,-150.46160846434896
35580,2802,35580,9135,35580,20152,2.774660429432992,-128.38656811497663,-155.2668014472161
35590,2807,35590,9101,35590,20146,2.8759132648103796,-132.28295239746978,-160.01377437098688
35590,2805,35590,9173,35590,20161,2.9768339807786246,-136.1290032990605,-164.70061485998548
35590,2810,35590,9179,35590,20165,3.0771851518219586,-139.9234389233074,-169.32603847106594
35590,2806,35590,9179,35590,20167,3.1768155787662566,-143.66523895032265,-173.88908679634494
35590,2805,35590,9136,35590,20127,3.275677352376044,-147.3530200900795,-178.38886803804178
35590,2808,35590,9120,35590,20119,3.3738085354065612,-150.9850992990152,-182.82464567112822
35601,2800,35601,9113,35601,20119,3.4713037257007295,-154.56002624477287,-187.19620236926414
35601,2799,35601,9154,35601,20139,3.568264404786891,-158.07697997862772,-191.5040562592917
35601,2810,35601,9138,35601,20147,3.6647351408491105,-161.53565344833106,-195.74927047505224
35601,2808,35601,9152,35601,20129,3.7607146867965957,-164.93583027480906,-199.93304217883457
35601,2806,35601,9109,35601,20111,3.8562419718230503,-168.27712128599057,-204.05647171721756
35601,2797,35601,9081,35601,20095,3.9514213970203933,-171.55913401987812,-208.12070210564042
35611,2806,35611,9115,35611,20118,4.046346959317589,-174.78196188035315,-212.12720012658878
35611,2801,35611,9143,35611,20122,4.141032457908041,-177.94640405374764,-216.0777904500701
35611,2803,35611,9147,35611,20143,4.235404444961196,-181.05352560579712,-219.9743213073154
35611,2803,35611,9120,35611,20099,4.329309351430343,-184.10401712180033,-223.81823688894707
35611,2809,35611,9092,35611,20081,4.4225246717268725,-187.09802371261048,-227.61049353578113
35611,2804,35611,9067,35611,20079,4.514800520219104,-190.03556074250025,-231.35192491068034
35622,2807,35622,9109,35622,20093,4.605899186857677,-192.9170831959321,-235.04362304317857
35622,2809,35622,9134,35622,20114,4.6956084149667845,-195.74358335004274,-238.68690416618256
35622,2809,35622,9117,35622,20119,4.783762811650499,-198.51607710189887,-242.2828755006288
35622,2808,35622,9098,35622,20073,4.870277444786103,-201.2350941333877,-245.83198948107128
35622,2804,35622,9061,35622,20053,4.9551511336521585,-203.90073447946463,-249.33406501232554
35622,2805,35622,9072,35622,20045,5.038425269999232,-206.51317410779131,-252.78881014632287
35632,2805,35632,9085,35632,20079,5.120132573241818,-209.07309940739458,-256.1962937065722
35632,2808,35632,9124,35632,20081,5.200278277049797,-211.58164154934946,-259.55689029305677
35632,2804,35632,9112,35632,20081,5.278853746610897,-214.0398289124929,-262.8708302078684
35632,2806,35632,9087,35632,20045,5.355844075827525,-216.44805133082866,-266.1378642711222
35632,2804,35632,9038,35632,20026,5.4312134750015595,-218.80608456235086,-269.3573855320703
35632,2812,35632,9054,35632,20037,5.504900829001633,-221.1136972278481,-272.52887229439654
35642,2805,35642,9071,35642,20046,5.576851735296453,-223.37123108317462,-275.65218297006464
35642,2801,35642,9080,35642,20054,5.647036430773477,-225.5796223898883,-278.7274417171271
35642,2807,35642,9089,35642,20048,5.715403016223409,-227.73999996174388,-281.75470914453336
35642,2808,35642,9055,35642,20024,5.781836809869395,-229.8533293631051,-284.7337719971576
35642,2806,35642,9025,35642,20013,5.8461885670924705,-231.92046142475454,-287.6642359806349
35642,2801,35642,9064,35642,20018,5.908298716305113,-233.94254861907945,-290.5458164996726
35653,2813,35653,9065,35653,20040,5.967975117672628,-235.92128083746178,-293.37848328934865
35653,2810,35653,9102,35653,20033,6.025007322055847,-237.85857423916042,-296.162264671742
35653,2807,35653,9072,35653,19999,6.079235549515056,-239.75600048853073,-298.89698059543935
35653,2809,35653,9027,35653,19986,6.1305792790354,-241.61452094169596,-301.582335511048
35653,2807,35653,9015,35653,19979,6.1790112882831405,-243.4348758374387,-304.2183589457989
35653,2810,35653,9038,35653,19995,6.2245398812334845,-245.21828847332165,-306.80577487388405
35663,2803,35663,9056,35663,20029,6.267203352264971,-246.9667537754786,-309.34596191804945
35663,2805,35663,9079,35663,20002,6.3070402598979545,-248.6826967058263,-311.84052257383735
35663,2806,35663,9044,35663,20000,6.344041580550654,-250.36841935485762,-314.2908803262146
35663,2804,35663,9020,35663,19966,6.378127239613134,-252.02590531165873,-316.69828911768957
35663,2806,35663,8999,35663,19973,6.409147020531655,-253.65720384774937,-319.06417417434307
35663,2820,35663,9042,35663,19991,6.436911925612536,-255.2649870805089,-321.39042975930073
35673,2804,35673,9062,35673,20001,6.461284324755571,-256.85262840890067,-323.6793560820985
35673,2812,35673,9096,35673,19994,6.482245948660397,-258.4236159535301,-325.9332960154063
35673,2813,35673,9051,35673,19977,6.499887066188217,-259.9807683773696,-328.154356054948
35673,2807,35673,8987,35673,19959,6.514397794785568,-261.526015923504,-330.34446036745214
35673,2807,35673,8998,35673,19963,6.526063564910233,-263.0610764463749,-332.5056447679694
35673,2806,35673,9043,35673,19974,6.5352141398037915,-264.5882978303533,-334.6402870046227
35684,2809,35684,9050,35684,19978,6.542174751087085,-266.1107054678161,-336.7510567456019
35684,2801,35684,9078,35684,19970,6.547249695852276,-267.6313336448236,-338.8406863780647
35684,2811,35684,9022,35684,19947,6.550706005751115,-269.152591541663,-340.91185395007886
35684,2808,35684,9002,35684,19941,6.552773368118801,-270.6762202791076,-342.9673420896546
35684,2808,35684,9008,35684,19963,6.553682551244979,-272.2038328387252,-345.0102967500203
35684,2800,35684,9041,35684,19971,6.553677567237146,-273.7373892074536,-347.0442274918918
35694,2807,35694,9051,35694,19986,6.552961090741106,-275.2790623107574,-349.07266015854725
35694,2810,35694,9023,35694,19959,6.551654074662115,-276.8307557311897,-351.09872717842745
35694,2799,35694,9022,35694,19947,6.5498181258475645,-278.3938822848798,-353.12503941775213
35694,2806,35694,9002,35694,19945,6.547457664644664,-279.9695551760058,-355.1538981718138
35694,2813,35694,9019,35694,19927,6.544495795189565,-281.55888407785795,-357.1876023393003
35694,2809,35694,9053,35694,19957,6.540825071857,-283.1630259993462,-359.2286301170554
35704,2808,35704,9046,35704,19978,6.536392689479813,-284.78283102792324,-361.27953324202247
35704,2802,35704,9028,35704,19936,6.531202724656594,-286.4183743307968,-363.34255786829226
35704,2809,35704,8981,35704,19926,6.525251619448751,-288.06892079468804,-365.41946352602434
35704,2802,35704,8943,35704,19920,6.518481903940706,-289.7335368150877,-367.51181531651787
35704,2814,35704,8981,35704,19931,6.510784514066847,-291.4119991485158,-369.62134858889067
35704,2808,35704,9058,35704,19953,6.50204363543993,-293.1051569592655,-371.74999320663807
35715,2810,35715,9042,35715,19940,6.492195744144538,-294.8142289942106,-373.89957556125756
35715,2808,35715,8995,35715,19920,6.481252254707299,-296.53980892443604,-376.0715382577057
35715,2808,35715,8964,35715,19909,6.469283753245427,-298.2817485310263,-378.2669991862562
35715,2806,35715,8976,35715,19904,6.4563961712280395,-300.03987419647154,-380.4870710089653
35715,2809,35715,9009,35715,19920,6.442709016480315,-301.8145572225973,-382.73310710864706
35715,2805,35715,9012,35715,19925,6.428343753161813,-303.60658550062027,-385.00666754283964
35725,2806,35725,9012,35725,19930,6.413414232236079,-305.4166481738169,-387.3092515049232
35725,2805,35725,8972,35725,19914,6.398005002733981,-307.2450322919546,-389.64202290122216
35725,2813,35725,8960,35725,19896,6.382165832325905,-309.0918228534871,-392.00575565494825
35725,2803,35725,8977,35725,19899,6.365944695289787,-310.9573876631333,-394.4010290559572
35725,2810,35725,9011,35725,19911,6.349412680563331,-312.84258238107896,-396.82842826012813
35725,2814,35725,9018,35725,19931,6.332670699407057,-314.748374216884,-399.2884585032582
35735,2810,35735,9002,35735,19894,6.315894653965653,-316.6752323234798,-401.7812337231599
35735,2797,35735,8952,35735,19879,6.299362399032626,-318.62290412309375,-404.30636860381946
35735,2814,35735,8937,35735,19874,6.2833815427690745,-320.5908588482768,-406.86328045754624
35735,2804,35735,8976,35735,19877,6.268225334809191,-322.5789915347295,-409.451571089076
35735,2806,35735,9011,35735,19894,6.254149486162837,-324.5877941799664,-412.07113045897927
35735,2803,35735,8997,35735,19905,6.241392774035256,-326.6177876507084,-414.72191561232756
35746,2809,35746,9002,35746,19884,6.230143209942248,-328.6688517987869,-417.4035870131894
35746,2808,35746,8958,35746,19866,6.220544640961388,-330.74001839267726,-420.1153402505277
35746,2809,35746,8928,35746,19870,6.212743777925072,-332.8298057963047,-422.85607681230715
35746,2803,35746,8967,35746,19882,6.206916934038257,-334.9368404343207,-425.6246144427994
35746,2802,35746,9003,35746,19901,6.203235994671806,-337.06011344919364,-428.4195910619822
35746,2806,35746,9004,35746,19887,6.201801945013241,-339.19847999191677,-431.23909668972755
35756,2802,35756,8963,35756,19876,6.202610709599412,-341.349975918668,-434.08037138316587
35756,2810,35756,8947,35756,19854,6.205565466930363,-343.5117330908807,-436.93982828790155
35756,2810,35756,8930,35756,19853,6.210523296874511,-345.68049334357335,-439.8133391569944
35756,2807,35756,8981,35756,19879,6.217361997325367,-347.8530999293291,-442.6964707989018
35756,2812,35756,8993,35756,19883,6.226022552181474,-350.0264120405823,-445.5843750995268
35756,2809,35756,8976,35756,19876,6.23652320649892,-352.1967254854593,-448.4714035931206
35766,2800,35766,8947,35766,19847,6.2489532453281695,-354.35937756855924,-451.3508616042041
35766,2808,35766,8935,35766,19831,6.263414096472175,-356.5089450908939,-454.21517129970727
35766,2807,35766,8930,35766,19825,6.279958347818693,-358.639750274268,-457.05631030066746
35766,2804,35766,8953,35766,19842,6.298593459152421,-360.74620325438946,-459.8661658723368
35766,2810,35766,9000,35766,19868,6.319303621502848,-362.8226716940935,-462.6365034145581
35766,2807,35766,8982,35766,19858,6.342063455285577,-364.8628574624163,-465.3585495152887
35777,2811,35777,8926,35777,19831,6.366867831963444,-366.85924518487826,-468.02258648612116
35777,2811,35777,8921,35777,19834,6.393769724745933,-368.8032947469928,-470.61794317366343
35777,2810,35777,8940,35777,19824,6.422913945658724,-370.6861128856911,-473.13325082048414
35777,2794,35777,8955,35777,19846,6.454522245244724,-372.49876024967284,-475.556587907722
35777,2804,35777,8979,35777,19841,6.488779177851978,-374.23194731942795,-477.87537268546066
35777,2807,35777,8954,35777,19813,6.525715864935647,-375.87551005567315,-480.0761798402845
35787,2803,35787,8908,35787,19816,6.56521509817804,-377.4182018663332,-482.14477919435564
35787,2810,35787,8897,35787,19810,6.6070770702196615,-378.84811792185724,-484.06637865605325
35787,2811,35787,8924,35787,19814,6.651072882418707,-380.1533960038937,-485.82578856019495
35787,2809,35787,8974,35787,19822,6.697006072254292,-381.3224110877353,-487.40740668825214
35787,2806,35787,8966,35787,19823,6.744749787547919,-382.3432029812667,-488.79507910009704
35787,2804,35787,8924,35787,19799,6.794215091759141,-383.2027890380024,-489.971962753668
35797,2801,35797,8909,35797,19793,6.845276713129724,-383.88714349153986,-490.92059280754813
35797,2811,35797,8877,35797,19782,6.897714929133205,-384.3818337130401,-491.6231733633776
35797,2808,35797,8926,35797,19811,6.951230254920413,-384.67270065289244,-492.06183317418294
35797,2814,35797,8945,35797,19808,7.005522847806481,-384.74600716680385,-492.218595950776
35797,2813,35797,8942,35797,19817,7.060375925109118,-384.58797980474765,-492.0751123897948
35797,2798,35797,8914,35797,19787,7.1156845162836095,-384.1843293645637,-491.6124580645128
35808,2809,35808,8883,35808,19777,7.171385034436045,-383.5203334898683,-490.811248714262
35808,2802,35808,8881,35808,19779,7.22735043023717,-382.5814352277099,-489.652020926241
35808,2807,35808,8932,35808,19785,7.283352117153984,-381.353791375411,-488.1155671800782
35808,2815,35808,8938,35808,19797,7.339088672722875,-379.82421455986116,-486.18300934276584
35808,2808,35808,8940,35808,19770,7.3942610857398305,-377.97962484881214,-483.83572860867696
35808,2801,35808,8897,35808,19780,7.448623728302592,-375.8066933173129,-481.0554196249461
35818,2808,35818,8868,35818,19770,7.501930113402276,-373.2921373784195,-477.8243159484176
35818,2810,35818,8891,35818,19764,7.553866537240861,-370.42347807606626,-474.1254376682645
35818,2809,35818,8939,35818,19784,7.604078847885343,-367.1895393187468,-469.9427909349027
35818,2799,35818,8953,35818,19797,7.65220937814365,-363.58017138106874,-465.26142482672185
35818,2813,35818,8936,35818,19785,7.697861081667964,-359.58557140007247,-460.06730357272784
35818,2809,35818,8894,35818,19772,7.740575903683514,-355.19602282865,-454.34726579251617
35828,2813,35828,8878,35828,19771,7.779896205451711,-350.40239819632416,-448.08929179119696
35828,2809,35828,8928,35828,19787,7.815432355553197,-345.19695396008683,-441.2828850545219
35828,2809,35828,8962,35828,19819,7.846873766906627,-339.57358598496586,-433.9192141780053
35828,2808,35828,8954,35828,19807,7.873961605269561,-333.5273516244233,-425.9909305708758
35828,2808,35828,8927,35828,19800,7.896455558957291,-327.0539911856309,-417.49199410995834
35828,2809,35828,8907,35828,19786,7.914114915718127,-320.15010867364674,-408.4178611310841
35839,2815,35839,8902,35839,19799,7.9267101444593715,-312.81388243147546,-398.7659560249151
35839,2804,35839,8961,35839,19820,7.93405891830654,-305.04569259136196,-388.5360602850883
35839,2806,35839,8981,35839,19829,7.936021827312836,-296.84812303254245,-377.73039850084643
35839,2808,35839,8978,35839,19846,7.932439573458327,-288.22542687505046,-366.3535224836921
35839,2808,35839,8967,35839,19829,7.923096648974172,-279.18313337404277,-354.4122443957982
35839,2796,35839,8946,35839,19827,7.907715551136263,-269.72821903618416,-341.91581705540347
35849,2801,35849,8945,35849,19854,7.885890473930027,-259.86969504484074,-328.8763247677111
35849,2810,35849,9007,35849,19887,7.857005008096934,-249.6191513768516,-315.30892213102317
35849,2811,35849,9054,35849,19908,7.820271475834858,-238.9906886485369,-301.2316613875601
35849,2817,35849,9026,35849,19917,7.774877753544718,-228.0002292207445,-286.66512031845065
35849,2812,35849,9041,35849,19930,7.720122207219954,-216.6649923132361,-271.63217413244735
35849,2809,35849,9027,35849,19924,7.655467958668224,-205.00359604818166,-256.1580199643849
35859,2808,35859,9048,35859,19936,7.580508409567718,-193.03644992762585,-240.27040669543842
35859,2813,35859,9112,35859,20013,7.494906776081063,-180.78594335084165,-223.99982440616856
35859,2811,35859,9156,35859,20032,7.398388572574848,-168.27605916874825,-207.37922555769435
35859,2808,35859,9131,35859,20061,7.290768842125015,-155.53155119095356,-190.44331131978032
35859,2806,35859,9115,35859,20060,7.171941288907435,-142.57749436220905,-173.2279506493822
35859,2812,35859,9132,35859,20078,7.0418353897248664,-129.43961560088502,-155.77003051203516
35870,2807,35870,9163,35870,20111,6.900406247293222,-116.14482570170198,-138.10753169139633
35870,2810,35870,9234,35870,20163,6.747655164003859,-102.72122899775096,-120.27944448616213
35870,2815,35870,9260,35870,20170,6.58365260540628,-89.1974500363711,-102.32535307319407
35870,2809,35870,9266,35870,20188,6.408579742607625,-75.6017033699022,-84.28497666906708
35870,2806,35870,9214,35870,20220,6.222754167646045,-61.96134015246463,-66.19795965110262
35870,2810,35870,9233,35870,20251,6.026593230356633,-48.30324906776937,-48.10374543356133
35880,2803,35880,9275,35880,20270,5.820563555888178,-34.65459465013802,-30.041316279556327
35880,2810,35880,9338,35880,20297,5.605157204219179,-21.04297537723221,-12.048890864336556
35880,2798,35880,9364,35880,20311,5.380872196181265,-7.4957497117739535,5.836292151924056
35880,2808,35880,9341,35880,20326,5.148179177017008,5.960825230390384,23.578087564192288
35880,2804,35880,9323,35880,20338,4.907498486298716,19.30183782527908,41.141445162588525
35880,2803,35880,9350,35880,20372,4.65921190374657,32.503248561151395,58.4923592316581
35891,2809,35891,9395,35891,20410,4.403682748982321,45.541410269863036,75.5979553507575
35891,2807,35891,9420,35891,20448,4.141284322489024,58.393185820182964,92.42686130346738
35891,2795,35891,9449,35891,20451,3.872424533320067,71.03651023680123,108.9497356628475
35891,2803,35891,9429,35891,20447,3.59749587140995,83.45088598947058,125.13958472367744
35891,2808,35891,9412,35891,20449,3.31680939946954,95.61741753790608,140.9716279076606
35891,2808,35891,9440,35891,20489,3.030640246091337,107.51836555986574,156.42293107920523
35901,2803,35901,9483,35901,20496,2.739327925541766,119.13675169306686,171.47223760700535
35901,2803,35901,9536,35901,20544,2.4433019566659477,130.45658505734536,186.10012338785623
35901,2806,35901,9514,35901,20516,2.143046935386428,141.46357956378557,200.28926200752926
35901,2803,35901,9489,35901,20528,1.8390900192562998,152.14560160576792,214.0244768724529
35901,2810,35901,9471,35901,20518,1.5320269981850307,162.4923183783631,227.29242909614248
35901,2804,35901,9515,35901,20571,1.2225646730633724,172.4944155398985,240.08122293320008
35911,2809,35911,9558,35911,20596,0.911559285256998,182.14323451959984,252.38038251030372
35911,2797,35911,9580,35911,20604,0.6000206178744918,191.4311738096128,264.18125083374736
35911,2795,35911,9569,35911,20584,0.28904733803164095,200.3523688277154,275.47733583767234
35911,2803,35911,9550,35911,20596,-0.020280143419502572,208.9029625279942,286.2642050794966
35911,2792,35911,9534,35911,20599,-0.3269582619396001,217.08075648105773,296.53910333456963
35911,2796,35911,9571,35911,20618,-0.6300744205738598,224.8845987273628,306.300673697374
35922,2810,35922,9611,35922,20626,-0.9288090540261331,232.31412369172415,315.54889561191044
35922,2798,35922,9583,35922,20653,-1.2223609065557621,239.37004252471064,324.285175119041
35922,2799,35922,9579,35922,20631,-1.5098522151822769,246.0544152185284,332.5124841127099
35922,2800,35922,9564,35922,20627,-1.7903332241964005,252.37041271132085,340.23532999858287
35922,2789,35922,9575,35922,20636,-2.0628435615898217,258.3218016440077,347.45945042823416
35922,2789,35922,9612,35922,20658,-2.3264961042458996,263.91262724680985,354.1915162877202
35932,2793,35932,9630,35932,20662,-2.5805833616478395,269.1473552974474,360.43912405568176
35932,2791,35932,9650,35932,20675,-2.8246274807172114,274.03137992854414,366.21097613125755
35932,2796,35932,9608,35932,20652,-3.0583516331810303,278.5714660836753,371.51698985020244
35932,2793,35932,9571,35932,20643,-3.2816294651158566,282.77563468146167,376.3681487263101
35932,2796,35932,9604,35932,20642,-3.494442974037929,286.65246598715134,380.7760976243627
35932,2802,35932,9627,35932,20650,-3.696838699824945,290.21052316934794,384.7527324560135
35942,2798,35942,9640,35942,20687,-3.888857946350454,293.45845026918613,388.3100734189944
35942,2791,35942,9630,35942,20678,-4.070485554958841,296.4054083693264,391.4604962747908
35942,2793,35942,9609,35942,20657,-4.241690082617119,299.06125268440974,394.21702176489134
35942,2792,35942,9601,35942,20677,-4.402508839442099,301.4362762359917,396.59329849481776
35942,2797,35942,9598,35942,20657,-4.553080647507654,303.540738357881,398.6033901694839
35942,2790,35942,9641,35942,20669,-4.693624295529661,305.3845581635302,400.26162375279773
35953,2790,35953,9675,35953,20665,-4.824433514913931,306.9775146549709,401.58249809971596
35953,2796,35953,9625,35953,20663,-4.945906683533282,308.3298377987834,402.5806262913519
35953,2796,35953,9598,35953,20667,-5.058540417648059,309.4524475447065,403.2707010870922
35953,2787,35953,9578,35953,20651,-5.16288501549778,310.3564013090293,403.66743850073397
35953,2792,35953,9630,35953,20658,-5.259554827588817,311.0521324056299,403.78547271870184
35953,2792,35953,9650,35953,20671,-5.349281393497316,311.5493148692662,403.639268668785
35963,2799,35963,9643,35963,20668,-5.432908139291415,311.8573988578301,403.2431893797866
35963,2798,35963,9626,35963,20660,-5.511310422378578,311.98612218227146,402.6116508814214
35963,2794,35963,9599,35963,20635,-5.585313751100985,311.9454856538176,401.7591112148034
35963,2802,35963,9596,35963,20646,-5.6556627683731655,311.74529716697657,400.69982428215775
35963,2798,35963,9644,35963,20658,-5.723004546501878,311.3947617966584,399.4476150826484
35963,2799,35963,9648,35963,20660,-5.7878537901170155,310.9025911458454,398.01593895882877
35973,2790,35973,9634,35973,20654,-5.850592543137367,310.2775183173567,396.41811917343597
35973,2797,35973,9607,35973,20633,-5.911530691272599,309.5285726587295,394.66745477490815
35973,2792,35973,9581,35973,20633,-5.970966535648564,308.6647841300479,392.7770789208472
35973,2804,35973,9601,35973,20623,-6.0291867154513525,307.6946003263675,390.7597048437478
35973,2793,35973,9647,35973,20646,-6.086411541079711,306.6256027464562,388.6274796223367
35973,2791,35973,9642,35973,20638,-6.1427666775569385,305.4648741639399,386.39206474846145
35984,2798,35984,9638,35984,20636,-6.198329740434417,304.2196485361745,384.06484393422795
35984,2800,35984,9592,35984,20608,-6.253156685327786,302.8975713420745,381.657000768921
35984,2799,35984,9574,35984,20600,-6.307219182262239,301.5063313141694,379.17931812611806
35984,2793,35984,9579,35984,20605,-6.360346064396737,300.0529628319841,376.6418385984004
35984,2791,35984,9641,35984,20627,-6.412255872261177,298.54345418256696,374.05371143298805
35984,2788,35984,9627,35984,20629,-6.462654190403676,296.98308644498104,371.42340575574525
35994,2792,35994,9625,35994,20615,-6.511322930680473,295.3771182964115,368.7590833669007
35994,2788,35994,9569,35994,20581,-6.5581590725403185,293.7310455273567,366.0687240643378
35994,2799,35994,9550,35994,20584,-6.603162866748368,292.05014570243975,363.3598433563562
35994,2793,35994,9588,35994,20585,-6.6463815772138215,290.33872670341424,360.6390937238059
35994,2795,35994,9658,35994,20602,-6.687843164797535,288.59993907002206,357.912137746452
35994,2797,35994,9625,35994,20604,-6.727526457846295,286.8365223405525,355.18385561546944
36003,2786,36003,9602,36003,20583,-6.765367809037086,285.05166365489436,352.45863793045663
36003,2796,36003,9557,36003,20571,-6.801300191738619,283.24901737747865,349.7404539920789
36003,2792,36003,9559,36003,20565,-6.835292358073705,281.4319949169981,347.03263676023147
36003,2795,36003,9596,36003,20594,-6.867337467655801,279.60311185713965,344.33767981375894
36003,2797,36003,9622,36003,20576,-6.897413448957938,277.76400952840584,341.6573214313906
36003,2793,36003,9622,36003,20578,-6.925449497144653,275.91609629964603,338.9927801238928
36014,2797,36014,9579,36014,20558,-6.951308828159233,274.0611366567102,336.34483193135515
36014,2791,36014,9552,36014,20554,-6.974793762772361,272.2011910209955,333.71367480527334
36014,2800,36014,9540,36014,20545,-6.995654931615379,270.33796089212456,331.0987115935924
36014,2784,36014,9596,36014,20561,-7.013598536367425,268.4721868440704,328.498399356562
36014,2790,36014,9604,36014,20579,-7.028334172835121,266.6037246540718,325.910328955539
36014,2792,36014,9578,36014,20574,-7.039655129866074,264.73214371431,323.33156936667007
36024,2786,36024,9549,36024,20550,-7.047472247788771,262.85704228775467,320.7590035923547
36024,2794,36024,9541,36024,20542,-7.051805389944426,260.9777173744852,318.18933044397835
36024,2793,36024,9564,36024,20546,-7.052764909607979,259.0926587062636,315.6188071741764
36024,2795,36024,9606,36024,20559,-7.050502874929085,257.19949424866195,313.0431013839692
36024,2790,36024,9600,36024,20576,-7.045166428385042,255.29553296748915,310.4574607700975
36024,2796,36024,9583,36024,20566,-7.036893750649475,253.3784212626571,307.8570996651434
36034,2789,36034,9543,36034,20545,-7.025826316057989,251.44629794049288,305.2374908680504
36034,2790,36034,9536,36034,20540,-7.01212731648445,249.4973466132648,302.5943241184214
36034,2792,36034,9556,36034,20549,-6.9960163672840165,247.52920497432024,299.923279092545
36034,2793,36034,9582,36034,20569,-6.977784062806764,245.53879765435815,297.21998542587676
36034,2796,36034,9594,36034,20556,-6.957760066011047,243.522738444897,294.48028323012454
36034,2801,36034,9558,36034,20544,-6.936248889205956,241.47788105189449,291.7004989002696
36045,2793,36045,9548,36045,20526,-6.913457640754209,239.40146803314656,288.8774348100169
36045,2792,36045,9531,36045,20523,-6.889476440139951,237.29079302355944,286.00810944174583
36045,2793,36045,9568,36045,20563,-6.864335779481033,235.14281548682828,283.089575898562
36045,2800,36045,9604,36045,20563,-6.838051784681834,232.95424008447372,280.1191447144084
36045,2791,36045,9596,36045,20541,-6.810600687142523,230.7221518262032,277.0948714186162
36045,2789,36045,9560,36045,20524,-6.78190547774681,228.44465057969967,274.0157706289606
36055,2792,36055,9526,36055,20521,-6.7518974789288455,226.1208313679336,270.8815968603759
36055,2785,36055,9526,36055,20513,-6.720590101531029,223.75015301368376,267.6925320668512
36055,2798,36055,9578,36055,20535,-6.688108123782768,221.33189739592808,264.4490612243761
36055,2797,36055,9588,36055,20535,-6.654650230779134,218.86533859770927,261.15211082809105
36055,2791,36055,9576,36055,20515,-6.620403024359051,216.3504398326753,257.80332279237047
36055,2794,36055,9542,36055,20502,-6.585505659802779,213.78830915541127,254.40514802171214
36065,2800,36065,9521,36065,20489,-6.550069151305502,211.18100313755392,250.96063817546516
36065,2794,36065,9527,36065,20497,-6.514155227355923,208.53096179554208,247.47316018154717
36065,2786,36065,9562,36065,20500,-6.477757230535267,205.84065753911267,243.9462883913721
36065,2797,36065,9573,36065,20526,-6.4408619844993735,203.11282031008844,240.3839734302726
36065,2792,36065,9540,36065,20502,-6.403505608103414,200.35097777006803,236.79090667661342
36065,2792,36065,9505,36065,20467,-6.365758517706698,197.55963452293096,233.172740253582
36076,2785,36076,9482,36076,20460,-6.327728659672351,194.74379074692152,229.53584465666765
36076,2794,36076,9519,36076,20464,-6.289619397401136,191.9082513840309,225.8868244212491
36076,2798,36076,9552,36076,20489,-6.251744910707903,189.0574542691335,222.232315770902
36076,2804,36076,9548,36076,20478,-6.214434294796297,186.19601334519808,218.57921983718842
36076,2789,36076,9521,36076,20450,-6.177907322062586,183.329377795867,214.93501101287222
36076,2801,36076,9491,36076,20431,-6.142249351379022,180.46393911314624,211.30768106635065
36086,2803,36086,9473,36086,20425,-6.107436809285047,177.6065515189918,207.70532687085725
36086,2791,36086,9501,36086,20446,-6.073310031036966,174.76394515918685,204.1357963552881
36086,2790,36086,9529,36086,20444,-6.039582505669312,171.94258635165113,200.60670204659596
36086,2798,36086,9533,36086,20451,-6.005939146376462,169.14913847490573,197.1257169537509
36086,2792,36086,9455,36086,20409,-5.972090029485242,166.39095866644755,193.7008085121101
36086,2790,36086,9449,36086,20409,-5.937759374323674,163.67587728950417,190.340137135835
36096,2791,36096,9451,36096,20395,-5.902710958710992,161.0113854029537,187.0516960224831
36096,2796,36096,9482,36096,20415,-5.8667877178596655,158.4041062574176,183.84303598071264
36096,2792,36096,9481,36096,20408,-5.829896727785144,155.85994925292204,180.72127942043892
36096,2796,36096,9497,36096,20411,-5.791969934097338,153.38460008769002,177.6933180279478
36096,2793,36096,9455,36096,20388,-5.752945151300062,150.9838915654314,174.76595509484983
36096,2795,36096,9412,36096,20370,-5.712761263993636,148.66370679381916,171.94581621295518
36107,2792,36107,9442,36107,20361,-5.67136156096436,146.4293882785404,169.23902609220065
36107,2789,36107,9476,36107,20385,-5.628717346305657,144.28529626944987,166.65089211271663
36107,2791,36107,9474,36107,20400,-5.584875876429604,142.2350848534062,164.18593035233422
36107,2792,36107,9463,36107,20377,-5.540000243868248,140.28230304946138,161.8482217745869
36107,2803,36107,9436,36107,20352,-5.494346565698252,138.43063069534713,159.6416289259009
36107,2791,36107,9406,36107,20355,-5.448178471680091,136.6835830625883,157.5695815924968
36117,2797,36117,9419,36117,20351,-5.401707928133993,135.04393502484186,155.6347206848157
36117,2799,36117,9478,36117,20387,-5.355098816651279,133.5133989324527,153.83880903179565
36117,2792,36117,9482,36117,20383,-5.308468502191033,132.0930256074265,152.18301828054047
36117,2799,36117,9450,36117,20369,-5.261883337832783,130.78398436712283,150.66835304236525
36117,2787,36117,9414,36117,20339,-5.2153845291137095,129.5878316002842,149.29578119119387
36117,2794,36117,9407,36117,20334,-5.1690403079688725,128.50601286631695,148.06591647780292
36128,2791,36128,9436,36128,20353,-5.123000129654066,127.53921772838002,146.97859139181773
36128,2790,36128,9460,36128,20364,-5.077520534011977,126.6872591532096,146.03275737805836
36128,2798,36128,9444,36128,20369,-5.032962665820586,125.9494916229001,145.22676503001634
36128,2804,36128,9427,36128,20341,-4.989739185208322,125.32518917848807,144.55867216526912
36128,2803,36128,9408,36128,20337,-4.948186272874027,124.8134543847176,144.02623984852664
36128,2786,36128,9394,36128,20334,-4.908472022476804,124.4127715680894,143.62665487528614
36138,2795,36138,9446,36138,20368,-4.870664656712416,124.12061719959033,143.35634305923733
36138,2793,36138,9458,36138,20378,-4.834867470150476,123.93356257345395,143.21116887773994
36138,2806,36138,9443,36138,20360,-4.801240384853107,123.84783243492475,143.1868859993208
36138,2793,36138,9431,36138,20333,-4.769908115071312,123.85970647668321,143.27934908322175
36138,2803,36138,9408,36138,20336,-4.740886478037498,123.9654015763521,143.4842502111541
36138,2792,36138,9427,36138,20353,-4.714081487984454,124.16068381268526,143.7967382849607
36148,2795,36148,9467,36148,20359,-4.689330877349476,124.44069607766187,144.2113606788364
36148,2794,36148,9463,36148,20372,-4.6664617393763645,124.80029081353189,144.72232123264456
36148,2789,36148,9450,36148,20349,-4.645342035690829,125.23455839980949,145.3237592974382
36148,2798,36148,9429,36148,20336,-4.6259138314022525,125.73898471102028,146.00977883968667
36148,2795,36148,9400,36148,20340,-4.608190048108499,126.30910241309557,146.77418731891888
36148,2794,36148,9431,36148,20368,-4.592214736749243,126.93993768172567,147.61026225479696
36159,2797,36159,9465,36159,20369,-4.578039486789584,127.62576651645597,148.5108694799571
36159,2790,36159,9509,36159,20379,-4.565732160325293,128.3605612713905,149.46882806131703
36159,2795,36159,9465,36159,20355,-4.555401759647104,129.1388442617945,150.47717808475548
36159,2786,36159,9420,36159,20342,-4.547239425670524,129.95609260098007,151.5291329709539
36159,2804,36159,9421,36159,20334,-4.541545207461687,130.80824517579146,152.61773476125384
36159,2797,36159,9449,36159,20380,-4.538679885152068,131.6909311679304,153.73553436716404
36169,2803,36169,9470,36169,20385,-4.538953979488632,132.59927426743837,154.8747058014818
36169,2794,36169,9484,36169,20395,-4.542555123316577,133.5283233152302,156.02755617947466
36169,2800,36169,9433,36169,20360,-4.5495562838538985,134.4735206274786,157.18693390364126
36169,2797,36169,9420,36169,20346,-4.559948165861144,135.43063342242976,158.3461527940466
36169,2795,36169,9441,36169,20353,-4.573655318734393,136.3952011141581,159.49853965276537
36169,2794,36169,9467,36169,20379,-4.590560231994216,137.36218870162682,160.63709117435616
36179,2796,36179,9465,36179,20367,-4.610543516025755,138.32621269297283,161.75454195524966
36179,2793,36179,9477,36179,20371,-4.633507791957856,139.28198152841,162.8436009827019
36179,2800,36179,9450,36179,20378,-4.659375175636608,140.22453985669245,163.8970593496828
36179,2792,36179,9431,36179,20353,-4.688068477394313,141.14916707801808,164.90778359538058
36179,2799,36179,9434,36179,20379,-4.719496357450406,142.05096876532804,165.86864347307522
36179,2801,36179,9475,36179,20408,-4.753538392280138,142.92453348437385,166.7725281783226
36190,2792,36190,9505,36190,20385,-4.790011841802159,143.76412872268085,167.61264959035054
36190,2794,36190,9473,36190,20391,-4.828674761791912,144.56433896116664,168.38286966991706
36190,2795,36190,9438,36190,20360,-4.869285704423459,145.32041550633005,169.0776859371021
36190,2792,36190,9403,36190,20358,-4.911645136760069,146.02783839741272,169.6919157014864
36190,2795,36190,9459,36190,20354,-4.955602394708271,146.68150338437042,170.22029373980638
36190,2797,36190,9496,36190,20389,-5.001050439502561,147.2754589680135,170.65724667612238
36200,2793,36200,9500,36200,20384,-5.047902350563403,147.80352353497443,170.99704053723516
36200,2805,36200,9467,36200,20386,-5.096055629675107,148.26006840238225,171.23413774066483
36200,2796,36200,9439,36200,20370,-5.145338248738237,148.6401433119087,171.36340347518447
36200,2800,36200,9426,36200,20354,-5.195454658624422,148.93892026843787,171.38000987142794
36200,2796,36200,9462,36200,20377,-5.245980334426271,149.15105490821003,171.27917978882175
36200,2793,36200,9505,36200,20400,-5.296398795644401,149.27060910023584,171.05611845559017
36210,2798,36210,9493,36210,20379,-5.3461487351885415,149.29164828201905,170.70629703676119
36210,2785,36210,9447,36210,20377,-5.394669130918704,149.20883981842874,170.22573817946463
36210,2799,36210,9453,36210,20358,-5.441446404561441,149.0173726012887,169.61096976570926
36210,2789,36210,9441,36210,20349,-5.4860434083605645,148.7124206703674,168.8587400916845
36210,2808,36210,9475,36210,20376,-5.5280657341232295,148.2888026521069,167.96574957649838
36210,2797,36210,9497,36210,20389,-5.567063335657034,147.74112656682357,166.92867230911872
36221,2790,36221,9499,36221,20407,-5.602454498170095,147.06431898398174,165.74456265323892
36221,2784,36221,9470,36221,20373,-5.633593592637123,146.2541238317421,164.41134345485526
36221,2797,36221,9434,36221,20352,-5.659927992856563,145.30709342240092,162.92792465338937
36221,2797,36221,9456,36221,20363,-5.681043826909939,144.2200819494763,161.29387748381046
36221,2792,36221,9517,36221,20375,-5.696580343146488,142.98991546883394,159.50912166642047
36221,2792,36221,9512,36221,20380,-5.706176825415475,141.61383343919434,157.57399998755608
36231,2801,36231,9485,36231,20337,-5.70948849672757,140.09028503400077,155.48950147465018
36231,2791,36231,9463,36231,20338,-5.706174285002902,138.41919391847668,153.25717781691705
36231,2797,36231,9451,36231,20326,-5.695866580757921,136.601566067466,150.87875704743456
36231,2787,36231,9449,36231,20363,-5.678191804151877,134.63895262909696,148.35588751432613
36231,2792,36231,9475,36231,20368,-5.6528316744415905,132.53317255038235,145.69031969115534
36231,2792,36231,9505,36231,20360,-5.61957662404031,130.28648717006115,142.88438613386523
36241,2795,36241,9454,36241,20316,-5.578328868830684,127.90208910444115,139.94128978260085
36241,2791,36241,9418,36241,20313,-5.529067283679827,125.38426585410164,136.86487066378223
36241,2790,36241,9405,36241,20319,-5.471836821656228,122.73784137886769,133.6591200439642
36241,2791,36241,9438,36241,20316,-5.406780691131094,119.96743583927022,130.32793367806173
36241,2800,36241,9490,36241,20351,-5.3341545776513515,117.07737712528503,126.87524163756116
36241,2796,36241,9483,36241,20327,-5.254268265712722,114.07242591970935,123.305376977695
36252,2794,36252,9416,36252,20310,-5.167409293067958,110.95855525475343,119.62339169609238
36252,2790,36252,9372,36252,20275,-5.073843742810377,107.74282515897389,115.83496973589077
36252,2800,36252,9400,36252,20284,-4.9738698794345035,104.43242505566535,111.94597127306399
36252,2790,36252,9402,36252,20291,-4.867833552733383,101.03392388233803,107.96205130139882
36252,2795,36252,9412,36252,20295,-4.756117501816341,97.55326803862866,103.88866195713229
36252,2791,36252,9430,36252,20268,-4.639161211884406,93.99617684848528,99.73126638432015
36262,2798,36262,9402,36262,20266,-4.517482979191349,90.36854476214687,95.49539159854095
36262,2799,36262,9364,36262,20246,-4.391653576986455,86.67656273952802,91.18644529319332
36262,2793,36262,9352,36262,20256,-4.262241743095394,82.92633601399989,86.80949675793588
36262,2801,36262,9380,36262,20268,-4.129790158909224,79.12331778661103,82.36922815447454
36262,2793,36262,9420,36262,20263,-3.994821901733374,75.2722345782922,77.8701389571982
36262,2794,36262,9389,36262,20250,-3.8578571157592343,71.37764269937749,73.31682936415207
36272,2800,36272,9347,36272,20226,-3.7194419081324317,67.44441142482523,68.71406909018091
36272,2798,36272,9341,36272,20196,-3.580144931303905,63.47750739461297,64.06653603990785
36272,2797,36272,9354,36272,20220,-3.4405155629083457,59.48142613754305,59.37838458200548
36272,2798,36272,9374,36272,20239,-3.3010684239067856,55.45999707550868,54.65306420941798
36272,2802,36272,9396,36272,20241,-3.162288146323377,51.416750069351735,49.8936495107267
36272,2800,36272,9341,36272,20214,-3.024605804930394,47.35545482453165,45.103339328634064
36283,2801,36283,9305,36283,20175,-2.888363187168313,43.280195566131866,40.28556038373483
36283,2798,36283,9308,36283,20183,-2.7538053619663563,39.19477444138562,35.44357002464966
36283,2799,36283,9334,36283,20196,-2.6211035601835992,35.102089087600405,30.5800355929467
36283,2804,36283,9371,36283,20222,-2.4903739553925783,31.004190524055645,25.697096228930974
36283,2796,36283,9362,36283,20188,-2.3616680546878817,26.90297067964451,20.796826081825344
36283,2800,36283,9314,36283,20196,-2.234971122535964,22.800797489893796,15.881590896844614
36293,2801,36293,9305,36293,20169,-2.110226849347865,18.700490379883917,10.954061132061014
36293,2800,36293,9292,36293,20153,-1.9873417196270462,14.604779738915965,6.017015091443824
36293,2804,36293,9315,36293,20172,-1.8661609866238558,10.515871580427017,1.0730959098178232
36293,2799,36293,9331,36293,20168,-1.7464466124164244,6.435477524085002,-3.8752591374696124
36293,2793,36293,9321,36293,20161,-1.6278915817364283,2.3652189606601723,-8.825638161212794
36293,2804,36293,9273,36293,20142,-1.510180715488549,-1.6930580912611504,-13.775496304192046
36303,2796,36303,9269,36303,20132,-1.3930271632871083,-5.737486520220813,-18.722228029376737
36303,2796,36303,9272,36303,20136,-1.2761663712583298,-9.766697735596438,-23.663354781673178
36303,2796,36303,9320,36303,20145,-1.159380387796066,-13.780019946381714,-28.596583237560168
36303,2793,36303,9317,36303,20146,-1.0425504917057884,-17.777051591543966,-33.51962089549849
36303,2798,36303,9303,36303,20136,-0.9256916037415239,-21.756978265491426,-38.42988669734768
36303,2798,36303,9278,36303,20106,-0.8089522951638113,-25.718242298255376,-43.3243798421783
36314,2805,36314,9255,36314,20098,-0.6925682505986721,-29.658753227405555,-48.19985460948931
36314,2808,36314,9253,36314,20110,-0.5767691810998654,-33.5763660096556,-53.05312522515547
36314,2803,36314,9284,36314,20118,-0.4616735842241315,-37.46921015006629,-57.881134580942785
36314,2800,36314,9312,36314,20111,-0.34724622237902203,-41.33550959465933,-62.6807059625734
36314,2799,36314,9268,36314,20085,-0.23335069552095344,-45.17299868338179,-67.44829763554944
36314,2796,36314,9241,36314,20064,-0.1198384210626493,-48.978614195534846,-72.18007609429671
36324,2796,36324,9210,36324,20063,-0.00662343137050847,-52.74889056829073,-76.8722696388271
36324,2809,36324,9254,36324,20069,0.10628938685388523,-56.48061923831315,-81.52147051099956
36324,2801,36324,9254,36324,20071,0.21886308304577096,-60.17104772311768,-86.12464488800418
36324,2808,36324,9257,36324,20076,0.33112589348491106,-63.81751735849238,-90.67891357906126
36324,2800,36324,9216,36324,20051,0.44321588522317956,-67.41710237739431,-95.1813220880816
36324,2795,36324,9187,36324,20038,0.5553487071899825,-70.96675027778338,-99.62881262918239
36334,2801,36334,9191,36334,20020,0.667728681586035,-74.46385881419565,-104.01845890322096
36334,2802,36334,9231,36334,20036,0.7804841781843965,-77.90671901908848,-108.34776540871732
36334,2807,36334,9242,36334,20057,0.8936980956104303,-81.29431840603687,-112.61470758550436
36334,2801,36334,9227,36334,20032,1.0074828524016173,-84.62570476078014,-116.81742990045765
36334,2803,36334,9201,36334,20017,1.122012864719152,-87.89957838612213,-120.95397228448459
36334,2800,36334,9164,36334,19983,1.23750034067767,-91.11447508182786,-125.02240544240897
36345,2797,36345,9157,36345,19980,1.3541467652852397,-94.26938205063067,-129.02130022110254
36345,2802,36345,9212,36345,20023,1.47209233069953,-97.36426262942166,-132.95009801915813
36345,2802,36345,9220,36345,20004,1.591395685356706,-100.39992323381495,-136.8089937282906
36345,2800,36345,9213,36345,20003,1.7120561400214314,-103.37731965802115,-140.59851538453165
36345,2796,36345,9179,36345,19996,1.8340196411218814,-106.29704946243942,-144.3192902667438
36345,2798,36345,9148,36345,19969,1.9571320846729563,-109.15949587881852,-147.9720925442581
36355,2804,36355,9172,36355,19971,2.081098660706867,-111.9653823914181,-151.5580490075355
36355,2799,36355,9178,36355,19990,2.2055058975853887,-114.71613288622515,-155.07883286337716
36355,2804,36355,9212,36355,19991,2.3298679650492744,-117.41368521545857,-158.53658045080795
36355,2813,36355,9169,36355,19987,2.453672964228006,-120.06000300308719,-161.93356522869755
36355,2800,36355,9142,36355,19947,2.5764575514629513,-122.65687453499004,-165.272009428402
36355,2805,36355,9129,36355,19955,2.6978471765425107,-125.20630020595743,-168.55426400390309
36366,2802,36366,9151,36366,19960,2.817511357142827,-127.711069790592,-171.7831220559185
36366,2807,36366,9187,36366,19973,2.9351189978877015,-130.1748859270779,-174.96186090902927
36366,2810,36366,9196,36366,19985,3.0503585239934417,-132.60185968374125,-178.09394394563049
36366,2805,36366,9159,36366,19958,3.1629945080646156,-134.99583747808495,-181.18264113038157
36366,2808,36366,9128,36366,19947,3.272900088147635,-137.3602331200116,-184.23088786506594
36366,2802,36366,9122,36366,19934,3.3800388760206914,-139.69851056474823,-187.24148528007635
36376,2802,36376,9155,36376,19944,3.484414573477805,-142.0147405024167,-190.21739497320976
36376,2807,36376,9206,36376,19951,3.586018654172072,-144.3135466520624,-193.1618285931218
36376,2803,36376,9171,36376,19944,3.6848165858442288,-146.5993930610328,-196.0780957441969
36376,2811,36376,9156,36376,19945,3.78077664086803,-148.87594282910848,-198.96940438768024
36376,2814,36376,9129,36376,19935,3.873929153557186,-151.14609928232937,-201.83876743741456
36376,2815,36376,9119,36376,19919,3.9644643191589157,-153.41252710757917,-204.68903366193024
36386,2804,36386,9148,36386,19946,4.052807820876993,-155.67811504109687,-207.52297803714123
36386,2805,36386,9158,36386,19939,4.139583210929322,-157.94601170376234,-210.3432592048528
36386,2806,36386,9156,36386,19907,4.225499482850869,-160.21925270311766,-213.15225204361838
36386,2795,36386,9138,36386,19917,4.3112589307431275,-162.50039781333993,-215.95207501429735
36386,2801,36386,9103,36386,19906,4.397475155520967,-164.79155252660362,-218.74481220390237
36386,2807,36386,9114,36386,19898,4.484607267871343,-167.09476377465452,-221.53266084357818
36397,2808,36397,9152,36397,19918,4.5729932409833935,-169.41234857935473,-224.3179637576668
36397,2802,36397,9159,36397,19931,4.662941923599243,-171.74667796722846,-227.10307810387565
36397,2804,36397,9137,36397,19895,4.7547582313735255,-174.09960428150416,-229.89007830794662
36397,2808,36397,9104,36397,19887,4.848711624666112,-176.47220976538847,-232.6806513174302
36397,2799,36397,9087,36397,19889,4.94502476415877,-178.8651596796763,-235.47633993492826
36397,2796,36397,9110,36397,19876,5.043843885415475,-181.27927541095326,-238.27880633303084
36407,2810,36407,9146,36407,19893,5.145166601230695,-183.71571031059517,-241.08990725591434
36407,2808,36407,9145,36407,19906,5.248846526729588,-186.1755015809668,-243.9115788295099
36407,2803,36407,9132,36407,19876,5.354690916855846,-188.6589312517704,-246.7455774678059
36407,2804,36407,9091,36407,19859,5.462501565397158,-191.1653033348518,-249.59337834924708
36407,2815,36407,9065,36407,19853,5.57205290002725,-193.69333547543383,-252.4564398499732
36407,2808,36407,9103,36407,19875,5.683130726071788,-196.24181096840638,-255.33652020857107
36417,2804,36417,9120,36417,19884,5.795595199026266,-198.80982334908362,-258.23564162978306
36417,2803,36417,9109,36417,19875,5.909348633271053,-201.39640515294266,-261.15574022185257
36417,2806,36417,9080,36417,19860,6.024246602423036,-204.0001257304833,-264.0983821644958
36417,2803,36417,9050,36417,19840,6.140053521099057,-206.61921669762754,-267.0648050838876
36417,2804,36417,9054,36417,19835,6.256436642407564,-209.25212388129702,-270.0562137542921
36417,2808,36417,9060,36417,19846,6.372964075950195,-211.89799404907274,-273.0740670005624
36428,2805,36428,9083,36428,19863,6.489121003091917,-214.5567423177571,-276.12009267689996
36428,2813,36428,9106,36428,19867,6.604348150633857,-217.2286840781941,-279.19597401123536
36428,2811,36428,9041,36428,19829,6.718096467855201,-219.91405321437557,-282.30299260699434
36428,2804,36428,9048,36428,19809,6.829873739723979,-222.61294491985907,-285.4420510080222
36428,2819,36428,9056,36428,19831,6.939248750364467,-225.32570738980357,-288.61406669041855
36428,2811,36428,9061,36428,19844,7.045867652655257,-228.05316919743203,-291.82019104624953
36438,2804,36438,9093,36438,19840,7.149492676191892,-230.79641902194163,-295.0615639367359
36438,2811,36438,9067,36438,19828,7.249966046704195,-233.5563663834859,-298.3389538826936
36438,2813,36438,9035,36438,19810,7.347147694106857,-236.33347797954212,-301.65266836521704
36438,2808,36438,9015,36438,19805,7.440929964183091,-239.12802958007683,-305.002738260879
36438,2811,36438,9054,36438,19799,7.531266603415917,-241.9406285945443,-308.3891699812502
36438,2807,36438,9057,36438,19795,7.618155308899942,-244.7723516137989,-311.8121074630846
36448,2804,36448,9077,36448,19808,7.701596105863057,-247.62433703281522,-315.27186150891464
36448,2799,36448,9056,36448,19791,7.781519482449523,-250.49725770392752,-318.7688186155147
36448,2814,36448,9014,36448,19771,7.8577105910881855,-253.39113297328566,-322.3033770122745
36448,2818,36448,8990,36448,19764,7.92984284732605,-256.3057067367814,-325.87610215011614
36448,2810,36448,9028,36448,19790,7.99762700365231,-259.2411061668814,-329.48795389545387
36448,2806,36448,9060,36448,19807,8.060895596905695,-262.19804448019767,-333.1401907853735
36459,2820,36459,9027,36459,19784,8.119562066170985,-265.17734715504497,-336.8339270303146
36459,2816,36459,9028,36459,19777,8.173618467231568,-268.17946940586376,-340.56979554038827
36459,2814,36459,8995,36459,19746,8.223218331602112,-271.2045189164886,-344.34802050048995
36459,2806,36459,8988,36459,19747,8.268698962435218,-274.25262596849996,-348.16876590826814
36459,2806,36459,9006,36459,19768,8.310486498287588,-277.3243209732345,-352.0324261511975
36459,2814,36459,9039,36459,19774,8.348988967940397,-280.4205692966355,-355.93955708115163
36469,2800,36469,9024,36469,19763,8.384562319759851,-283.54233586607995,-359.8905082859913
36469,2806,36469,9001,36469,19759,8.417488701841021,-286.69011665507213,-363.8851329551371
36469,2800,36469,8976,36469,19744,8.447906270677672,-289.8639490191858,-367.9227493710891
36469,2819,36469,8977,36469,19724,8.475773492195874,-293.06384015610803,-372.0022832026931
36469,2816,36469,9016,36469,19743,8.500963045327802,-296.29009358999105,-376.1224813401179
36469,2811,36469,9035,36469,19751,8.523420569444818,-299.54308441256177,-380.28196660064225
36479,2815,36479,9021,36479,19753,8.543236479466026,-302.822594578577,-384.478981567343
36479,2812,36479,8977,36479,19707,8.560624778137878,-306.1273578631126,-388.7111049278099
36479,2810,36479,8965,36479,19707,8.575895882149766,-309.45526780465775,-392.975345115122
36479,2810,36479,8967,36479,19725,8.58942547930141,-312.8039694006905,-397.2684777635132
36479,2810,36479,9008,36479,19729,8.601613336077426,-316.1711789345114,-401.5871069783084
36479,2807,36479,8997,36479,19735,8.612854304863156,-319.55442440151535,-405.9273412435909
36490,2811,36490,8991,36490,19722,8.62351747094112,-322.9505445715356,-410.28442204110587
36490,2810,36490,8950,36490,19689,8.63393949791428,-326.3555053174782,-414.65259874937374
36490,2802,36490,8943,36490,19684,8.64442406492238,-329.76471140145986,-419.0253511641063
36490,2813,36490,8986,36490,19697,8.655212981795273,-333.1734313641004,-423.39574126247453
36490,2810,36490,9016,36490,19702,8.666471470551887,-336.5767042633099,-427.7564957469949
36490,2810,36490,8957,36490,19713,8.67833010343601,-339.9687203224757,-432.0997366202188
36500,2803,36500,8954,36500,19679,8.69090649071433,-343.3424932347024,-436.41664941964376
36500,2814,36500,8926,36500,19667,8.704268263325925,-346.69021489119854,-440.69742733136053
36500,2816,36500,8925,36500,19666,8.718434484910544,-350.00382527868527,-444.93152991906277
36500,2802,36500,8955,36500,19671,8.733439775453832,-353.27533233749864,-449.10792691771564
36500,2808,36500,8979,36500,19694,8.749331627886384,-356.49665538131967,-453.215038039517
36500,2808,36500,8973,36500,19672,8.766086750629935,-359.6590348373712,-457.24041367137283
36510,2815,36510,8940,36510,19647,8.78358809513983,-362.7525084329023,-461.17049884957925
36510,2819,36510,8904,36510,19641,8.801709114752004,-365.7659640930086,-464.99077435532797
36510,2818,36510,8893,36510,19640,8.82044049874187,-368.6877516580281,-468.6861013287672
36510,2804,36510,8953,36510,19652,8.839958198485924,-371.50626689617616,-472.24088738583987
36510,2802,36510,8964,36510,19650,8.860539654564299,-374.2098383331421,-475.6389715162289
36510,2814,36510,8951,36510,19656,8.882401073785779,-376.78600429521225,-478.86337397521226
36521,2810,36521,8922,36521,19625,8.905645977888637,-379.2209900365287,-481.89611609045926
36521,2803,36521,8887,36521,19610,8.930318946640385,-381.4998750983849,-484.7183027877777
36521,2805,36521,8909,36521,19623,8.956396583736481,-383.6071862383867,-487.31043806059677
36521,2810,36521,8923,36521,19624,8.983719751598976,-385.52730119682485,-489.6526340071589
36521,2815,36521,8937,36521,19639,9.012002665052332,-387.24431167005736,-491.7245015740053
36521,2810,36521,8910,36521,19625,9.040924919979652,-388.74162324585564,-493.50488149968703
36531,2808,36531,8887,36531,19606,9.070191113642515,-390.0018351744469,-494.9716994412283
36531,2810,36531,8869,36531,19580,9.099507473467302,-391.00709883698505,-496.10214834039283
36531,2810,36531,8903,36531,19594,9.12854228646691,-391.739621557596,-496.87312386404494
36531,2809,36531,8930,36531,19603,9.156920732000822,-392.1817618336057,-497.26154128784907
36531,2808,36531,8902,36531,19616,9.184225796870003,-392.3156214440019,-497.2442775553256
36531,2811,36531,8886,36531,19589,9.209987071517649,-392.1227218874112,-496.79792544070074
36541,2803,36541,8856,36541,19558,9.233667559526767,-391.5842413041308,-495.89880375846775
36541,2816,36541,8849,36541,19564,9.254650539566338,-390.68164248508504,-494.52340246260536
36541,2821,36541,8887,36541,19581,9.272279113652708,-389.3972190198417,-492.6488849616628
36541,2808,36541,8903,36541,19591,9.285968698087096,-387.71414329165725,-490.25319509253393
36541,2812,36541,8909,36541,19573,9.29525891208516,-385.61602093884426,-487.31486865119575
36541,2802,36541,8850,36541,19559,9.299734052568585,-383.086527065745,-483.8130014826728
36552,2816,36552,8833,36552,19529,9.2989234749761,-380.1097055421636,-479.72760957435764
36552,2814,36552,8822,36552,19534,9.29229522254662,-376.6708448951882,-475.0402583769901
36552,2805,36552,8881,36552,19576,9.279318634968073,-372.75721490417334,-469.73457141447074
36552,2812,36552,8936,36552,19587,9.259474530384455,-368.35797832720357,-463.79621807690216
36552,2812,36552,8884,36552,19582,9.232215001481894,-363.46338340452496,-457.21250457234544
36552,2814,36552,8855,36552,19563,9.196976051957712,-358.064261496056,-449.972149309625
36562,2813,36562,8839,36562,19553,9.153230948691425,-352.1525182352244,-442.0655446577366
36562,2819,36562,8853,36562,19555,9.100533714401244,-345.72207006364783,-433.4853050950633
36562,2806,36562,8894,36562,19585,9.038546706036083,-338.76937239007316,-424.226719569713
36562,2812,36562,8920,36562,19592,8.967017889903651,-331.293260290032,-414.2878553386985
36562,2811,36562,8900,36562,19594,8.885717943350825,-323.2944236316242,-403.66942473937706
36562,2814,36562,8890,36562,19583,8.79442016399309,-314.7751541392865,-392.37476910478915
36572,2812,36572,8879,36572,19591,8.6929333127392,-305.739655789689,-380.4101216951545
36572,2810,36572,8895,36572,19622,8.58112466260565,-296.19460680936993,-367.78493704304947
36572,2820,36572,8944,36572,19648,8.458925164308804,-286.1494773205924,-354.51195056903214
36572,2809,36572,8961,36572,19657,8.326357206894471,-275.61632111840356,-340.60692768536956
36572,2810,36572,8955,36572,19659,8.183552595919277,-264.60927197680974,-326.088421723332
36572,2809,36572,8932,36572,19660,8.03070610816953,-253.14434311713092,-310.9778113524394
36583,2814,36583,8927,36583,19683,7.868025330469034,-241.23981472534322,-295.2995541541915
36583,2806,36583,9010,36583,19723,7.69573344076035,-228.91676984897208,-279.08135007337575
36583,2814,36583,9034,36583,19745,7.514080403201038,-216.19901715950195,-262.35397717769547
36583,2808,36583,9064,36583,19762,7.323342332807639,-203.112312878611,-245.1509182285962
36583,2808,36583,9033,36583,19784,7.1238211637722575,-189.68363797389952,-227.50807050831136
36583,2813,36583,9009,36583,19813,6.915836517672181,-175.94119357543326,-209.46358841480676
36593,2809,36593,9056,36593,19821,6.699732022645604,-161.9150186244275,-191.05774231231402
36593,2802,36593,9126,36593,19874,6.475883930845626,-147.63739304036162,-172.33275395248842
36593,2807,36593,9157,36593,19901,6.244653335476388,-133.142347485637,-153.33252014418838
36593,2805,36593,9174,36593,19936,6.006322450055423,-118.46465712189851,-134.1021504544239
36593,2811,36593,9161,36593,19945,5.761093863644779,-103.63916013187146,-114.68749561097076
36593,2809,36593,9171,36593,19964,5.509144668081257,-88.70071761202605,-95.13489585441081
36603,2810,36603,9180,36603,20005,5.250686880878462,-73.68455062607859,-75.49111335441
36603,2805,36603,9256,36603,20041,4.9859936829876785,-58.626445334445236,-55.80317398953511
36603,2810,36603,9291,36603,20086,4.7153853929983445,-43.56238793477095,-36.117938891492145
36603,2808,36603,9311,36603,20092,4.439217666904884,-28.52771123140485,-16.48154589582245
36603,2807,36603,9279,36603,20107,4.157894173964347,-13.55642557446339,3.060964913125531
36603,2806,36603,9277,36603,20115,3.871871357659062,1.3187124712266325,22.465675084980774
36614,2797,36614,9316,36614,20175,3.581622889318702,16.06562350928928,41.68967506221571
36614,2806,36614,9373,36614,20213,3.287569871296904,30.65261308620461,60.69124121830498
36614,2809,36614,9399,36614,20238,2.9900496287819602,45.04880202147274,79.43040727202248
36614,2808,36614,9399,36614,20242,2.689381764485973,59.22486950223549,97.86953477540447
36614,2803,36614,9380,36614,20245,2.38595051604978,73.15340568260567,115.97348933956096
36614,2812,36614,9401,36614,20255,2.0802224563405227,86.80866831476845,133.70942786314203
36624,2809,36624,9451,36624,20290,1.7727602349723979,100.16622594588895,151.04649539047512
36624,2806,36624,9491,36624,20339,1.4642687723556955,113.20310372709886,167.95579895953324
36624,2799,36624,9493,36624,20352,1.1555929391549857,125.89841845845672,184.41079300513337
36624,2799,36624,9473,36624,20331,0.8476282479710449,138.23386613814648,200.3877048867813
36624,2799,36624,9468,36624,20338,0.5412153609282875,150.19358913877852,215.8654833272319
36624,2796,36624,9471,36624,20354,0.23708112064834985,161.76359764517701,230.82533124492613
36635,2801,36635,9505,36635,20407,-0.06417999278263675,172.9312578745961,245.2503943553054
36635,2803,36635,9555,36635,20410,-0.3620880495357266,183.6852502586521,259.1259319723743
36635,2799,36635,9565,36635,20434,-0.6562235220037689,194.01606073264128,272.4397216393661
36635,2793,36635,9526,36635,20412,-0.9462035996704623,203.9165238505073,285.18226903563084
36635,2802,36635,9510,36635,20420,-1.2317254075312096,213.38173603778745,297.3466495150093
36635,2806,36635,9526,36635,20436,-1.5125769783347485,222.40834731182878,308.92813741221084
36645,2795,36645,9564,36645,20447,-1.7885653957114656,230.9939723159909,319.92394309394683
36645,2796,36645,9601,36645,20477,-2.0594855621487085,239.13726718673178,330.3332137385444
36645,2798,36645,9597,36645,20466,-2.3251822148781276,246.83850233958572,340.1571886557804
36645,2800,36645,9548,36645,20474,-2.585589844249329,254.09995731600924,349.3992865659718
36645,2800,36645,9544,36645,20442,-2.8406979027126544,260.92559532451247,358.0649305225147
36645,2803,36645,9593,36645,20465,-3.090493923404404,267.3203432247368,366.1611164425
36655,2795,36655,9623,36655,20482,-3.334927047404034,273.2898753630382,373.6960185149263
36655,2799,36655,9605,36655,20503,-3.573916245107645,278.8410771666995,380.678955060278
36655,2796,36655,9602,36655,20492,-3.807389067344772,283.98245370217796,387.1206316065741
36655,2802,36655,9571,36655,20473,-4.035296288272052,288.7239871614408,393.03323792361846
36655,2805,36655,9570,36655,20457,-4.25757006291888,293.0765968056522,398.4301355868348
36655,2795,36655,9581,36655,20487,-4.474055957239708,297.0515632955547,403.32533198155045
36666,2797,36666,9644,36666,20513,-4.684503849529266,300.6603359717466,407.733242203091
36666,2799,36666,9645,36666,20500,-4.88862580318639,303.91497973390597,411.668922561115
36666,2796,36666,9587,36666,20496,-5.086129851368723,306.8288017611844,415.1483522648373
36666,2798,36666,9558,36666,20476,-5.276713512716997,309.41626319697997,418.1883580573668
36666,2793,36666,9571,36666,20472,-5.460067640299853,311.69210858719896,420.80624199524004
36666,2792,36666,9602,36666,20501,-5.635908826885064,313.67063138000736,423.0194194382176
36676,2794,36676,9620,36676,20500,-5.804028233810783,315.3656942754741,424.8453601329594
36676,2792,36676,9598,36676,20501,-5.964322448923744,316.7911902887846,426.3018014731326
36676,2790,36676,9581,36676,20474,-6.11680233245688,317.96127220192415,427.4068691011437
36676,2794,36676,9563,36676,20464,-6.2616061622151005,318.89007472732584,428.1788654792133
36676,2793,36676,9572,36676,20467,-6.399000887910578,319.59120213045566,428.6358492931307
36676,2799,36676,9600,36676,20496,-6.5293451820221176,320.0774281010037,428.79536734670694
36686,2793,36686,9619,36686,20488,-6.653032492489768,320.3608684955497,428.6745710932378
36686,2794,36686,9636,36686,20492,-6.770460631743449,320.4535314218543,428.29052295932445
36686,2792,36686,9567,36686,20464,-6.8820501505842255,320.36778285990675,427.66033168239494
36686,2803,36686,9551,36686,20455,-6.988258867469829,320.11617090559986,426.80097444882415
36686,2795,36686,9575,36686,20471,-7.089533851979358,319.7106871645067,425.72896515493085
36686,2795,36686,9614,36686,20489,-7.186253464710324,319.1623310470916,424.4602325138808
36697,2798,36697,9614,36697,20475,-7.278730269716672,318.48146227347235,423.01034913578496
36697,2798,36697,9599,36697,20457,-7.367226238321429,317.6784251821176,421.3947650089222
36697,2793,36697,9553,36697,20454,-7.451939759890422,316.7637220354645,419.62872310599147
36697,2792,36697,9540,36697,20434,-7.533021115012737,315.74753868593297,417.726963873501
36697,2801,36697,9584,36697,20444,-7.610614380723595,314.63907962755366,415.7034427472238
36697,2801,36697,9607,36697,20432,-7.684834695595486,313.44644469517414,413.571157359396
36707,2795,36707,9605,36707,20454,-7.755686951527709,312.1771847276225,411.34212648704414
36707,2803,36707,9584,36707,20445,-7.823025071307448,310.8388923863329,409.0275263925921
36707,2793,36707,9544,36707,20430,-7.886559967266477,309.43924504933284,406.6378627438277
36707,2805,36707,9531,36707,20427,-7.945865593076009,307.98547525004886,404.1829753787429
36707,2789,36707,9577,36707,20423,-8.000381074248965,306.48374601534346,401.6718856941068
36707,2784,36707,9604,36707,20457,-8.04946761853209,304.93910274864294,399.1127494236198
36717,2795,36717,9606,36717,20422,-8.092542484169867,303.3561188345778,396.51305212658934
36717,2795,36717,9556,36717,20422,-8.129154436456508,301.73953661407387,393.87979618123074
36717,2789,36717,9528,36717,20399,-8.15893392802893,300.0941952756524,391.21939369539086
36717,2796,36717,9533,36717,20410,-8.181547535345505,298.42433253016276,388.5373865325281
36717,2793,36717,9582,36717,20430,-8.196697138131302,296.73303904971993,385.83832513742453
36717,2792,36717,9586,36717,20431,-8.204109212628879,295.0224524166957,383.12598002320533
36728,2795,36728,9567,36728,20405,-8.203528414414526,293.2943869244567,380.40368339895315
36728,2786,36728,9539,36728,20396,-8.194733673081355,291.55063621453,377.67439809360917
36728,2784,36728,9516,36728,20388,-8.17759299644796,289.7926592973332,374.94046307508876
36728,2797,36728,9539,36728,20390,-8.15214080093104,288.02101417030826,372.2033170047965
36728,2791,36728,9568,36728,20418,-8.118576585965787,286.23511777482275,369.46345069591814
36728,2790,36728,9595,36728,20413,-8.077193046199584,284.4336317859943,366.7206673543191
36738,2793,36738,9569,36738,20399,-8.028350990966224,282.61518081133175,363.9744563068164
36738,2797,36738,9527,36738,20374,-7.972482848644448,280.7787271132202,361.22410178478
36738,2796,36738,9524,36738,20377,-7.910047843460616,278.923247745846,358.4684357115666
36738,2792,36738,9543,36738,20384,-7.84147930551482,277.0471451944123,355.7055522425195
36738,2799,36738,9580,36738,20380,-7.767178740027177,275.1481099741384,352.9327653950062
36738,2795,36738,9573,36738,20406,-7.687518191506916,273.2235910683469,350.1467916177413
36748,2802,36748,9546,36748,20380,-7.602810415753849,271.2713460863651,347.3440258429019
36748,2791,36748,9510,36748,20376,-7.513277203673937,269.2894681515262,344.5207249422957
36748,2791,36748,9515,36748,20358,-7.419074534714479,267.2758612596836,341.67293073415874
36748,2793,36748,9542,36748,20376,-7.320376576027568,265.2277328392671,338.7962601564727
36748,2798,36748,9554,36748,20410,-7.217427454311325,263.14161963336596,335.88592295760964
36748,2791,36748,9551,36748,20376,-7.110516272395659,261.0138437850983,332.9371006105575
36759,2797,36759,9546,36759,20367,-6.999948216377395,258.84092366076493,329.94528388268253
36759,2794,36759,9528,36759,20357,-6.886046147393209,256.61968453675524,326.9061887555541
36759,2801,36759,9521,36759,20354,-6.769138146642765,254.34711175888302,323.81546535470557
36759,2791,36759,9561,36759,20395,-6.64952695601215,252.0201852763778,320.6686067971903
36759,2790,36759,9550,36759,20371,-6.52750403897518,249.63601741970086,317.4612119007392
36759,2792,36759,9542,36759,20382,-6.403428488782071,247.19221914070178,314.18938333615506
36769,2800,36769,9520,36769,20349,-6.277777682865535,244.68704756423074,310.8499031636205
36769,2803,36769,9494,36769,20344,-6.151084675484999,242.119152792925,307.4400988568593
36769,2797,36769,9502,36769,20348,-6.023818977866236,239.48711425371158,303.9575739600692
36769,2798,36769,9551,36769,20357,-5.896332132696644,236.78918149642325,300.40007869196825
36769,2793,36769,9574,36769,20380,-5.768896400511103,234.0236485197592,296.7656986625995
36769,2796,36769,9530,36769,20358,-5.641773811158911,231.18964918625483,293.05325856356706
36779,2802,36779,9496,36779,20343,-5.515248788201423,228.28751774212444,289.2626069761012
36779,2799,36779,9491,36779,20330,-5.389591957989423,225.31835019739805,285.3945415095152
36779,2801,36779,9527,36779,20344,-5.264997632561122,222.28341212396018,281.45055640931287
36779,2798,36779,9560,36779,20342,-5.14155971711108,219.18417197120343,277.43276878485415
36779,2797,36779,9538,36779,20337,-5.019290083546889,216.02295378654787,273.3440699543193
36779,2791,36779,9505,36779,20313,-4.898169288274294,212.8034787256841,269.1882448255816
36790,2790,36790,9476,36790,20304,-4.778233680409037,209.5307185129035,264.9698588704041
36790,2794,36790,9462,36790,20317,-4.659666520388151,206.21022870063348,260.6940258985801
36790,2805,36790,9497,36790,20317,-4.542810134489053,202.8475524991489,256.36635194826624
36790,2800,36790,9515,36790,20326,-4.428062672464801,199.44818069483847,251.9931441705878
36790,2798,36790,9500,36790,20306,-4.315762667756351,196.01803307505193,247.58168620036568
36790,2802,36790,9480,36790,20267,-4.206164598114505,192.56388441824635,243.14029041446798
36800,2802,36800,9434,36800,20257,-4.099452819796209,189.0932592803976,238.67795077862664
36800,2803,36800,9428,36800,20254,-3.9957210135266843,185.61383583381792,234.20379838912572
36800,2796,36800,9473,36800,20279,-3.8949535632720753,182.13285433146672,229.72681071255562
36800,2799,36800,9488,36800,20283,-3.79705945765062,178.6571431395725,225.25598672111386
36800,2799,36800,9475,36800,20262,-3.701928358405995,175.19373579529503,220.80075692747556
36800,2804,36800,9426,36800,20245,-3.6094420557527367,171.75031794559015,216.37118482975777
36810,2791,36810,9415,36810,20205,-3.519453456216734,168.33497979293298,211.97773685027326
36810,2799,36810,9410,36810,20224,-3.431812031550736,164.9555631922474,207.63078841290667
36810,2802,36810,9461,36810,20223,-3.346413472345745,161.61928311172937,203.340268544751
36810,2802,36810,9453,36810,20236,-3.263176412639459,158.33298949974312,199.1157077765842
36810,2789,36810,9434,36810,20205,-3.181996821868336,155.10373338483993,194.9664967676359
36810,2796,36810,9399,36810,20186,-3.102801489714638,151.93895903705535,190.90193845858386
36821,2798,36821,9381,36821,20182,-3.025641918967587,148.8461013750238,186.93096393034773
36821,2807,36821,9407,36821,20192,-2.950682920595616,145.83200526697,183.0618132035386
36821,2799,36821,9430,36821,20201,-2.8780940043663374,142.90274729667343,179.30201460494237
36821,2805,36821,9418,36821,20209,-2.80796498362098,140.06399941092434,175.65866648169543
36821,2800,36821,9399,36821,20172,-2.740290311556925,137.32144653286005,172.1387478142536
36821,2801,36821,9366,36821,20152,-2.6749836959927578,134.6807560720607,168.7491033448024
36831,2798,36831,9373,36831,20141,-2.6119068029282273,132.14713759776004,165.49602407044495
36831,2792,36831,9373,36831,20163,-2.550924193448373,129.7249114050113,162.38480334199028
36831,2803,36831,9420,36831,20170,-2.491970331627201,127.41747031533669,159.41968120686943
36831,2805,36831,9404,36831,20169,-2.435053789708891,125.22770135442603,156.60415456438216
36831,2798,36831,9367,36831,20151,-2.3801784155827233,123.15844625946151,153.94128670015166
36831,2801,36831,9347,36831,20125,-2.327294790929284,121.21242395933666,151.43370645438824
36841,2796,36841,9343,36841,20123,-2.276334596981455,119.39164933952175,149.08328478208946
36841,2795,36841,9369,36841,20152,-2.2272712252442073,117.6969472287051,146.890812417189
36841,2796,36841,9407,36841,20151,-2.180178302553397,116.12801890637611,144.85605499361424
36841,2792,36841,9400,36841,20161,-2.135278035569798,114.68403884238721,142.97813702729394
36841,2805,36841,9345,36841,20114,-2.0929550870968203,113.36420693632654,141.2558297822508
36841,2804,36841,9319,36841,20138,-2.0536975264314843,112.16757833346637,139.68746984390583
36852,2803,36852,9344,36852,20149,-2.017981031869737,111.09230440988912,138.2707573556229
36852,2789,36852,9392,36852,20146,-1.986221801039152,110.1352017068449,137.00283871577724
36852,2804,36852,9423,36852,20151,-1.9588548181008574,109.292225636149,135.8805888122503
36852,2803,36852,9377,36852,20141,-1.936395803841662,108.55939776574535,134.90079134980235
36852,2802,36852,9359,36852,20120,-1.9193856483958693,107.93324577885572,134.06012832511226
36852,2803,36852,9337,36852,20096,-1.9083164722540986,107.41043243545948,133.35492411310412
36862,2807,36862,9354,36862,20147,-1.903606081440726,106.98710993537229,132.78077379257059
36862,2811,36862,9396,36862,20129,-1.9055560428316547,106.6586595283087,132.33247878953472
36862,2804,36862,9412,36862,20158,-1.9142792008308418,106.42007553321685,132.00437902425668
36862,2799,36862,9355,36862,20122,-1.9296836460402564,106.26659928758832,131.79069317319443
36862,2802,36862,9344,36862,20123,-1.951551582903009,106.19381798122204,131.68556771495463
36862,2805,36862,9341,36862,20117,-1.979617983939305,106.19710305675946,131.6828592304327
36873,2806,36873,9381,36873,20142,-2.013562017115552,106.27111281429734,131.77593751539652
36873,2805,36873,9402,36873,20145,-2.052949705416885,106.40992399067858,131.95777481211107
36873,2804,36873,9396,36873,20185,-2.097200683259733,106.60763261121895,132.22132339620762
36873,2798,36873,9376,36873,20129,-2.1456053724585566,106.85883944517242,132.55996520346596
36873,2800,36873,9339,36873,20123,-2.1973865251581253,107.15859122259569,132.9676168336559
36873,2799,36873,9341,36873,20120,-2.251766705331932,107.50183445154691,133.43833229467754
36883,2803,36883,9391,36883,20136,-2.3079931640348446,107.88290614349067,133.96587116507067
36883,2800,36883,9415,36883,20163,-2.365318109481259,108.2956667054936,134.5436877069314
36883,2799,36883,9404,36883,20139,-2.422978918090736,108.73421446878602,135.16526018275778
36883,2793,36883,9379,36883,20125,-2.4802228325137707,109.19343934127224,135.82431941465433
36883,2795,36883,9335,36883,20123,-2.5363781946256063,109.66888555526,136.51468942689178
36883,2798,36883,9357,36883,20122,-2.5909175967064204,110.15608759751399,137.22995691280735
36893,2802,36893,9413,36893,20146,-2.643450236725654,110.65009384334589,137.9633218551637
36893,2799,36893,9410,36893,20167,-2.693653613444205,111.14576492044526,138.70777319204072
36893,2794,36893,9390,36893,20149,-2.7412295706216256,111.63846852482145,139.4564966546784
36893,2798,36893,9367,36893,20128,-2.785933270355913,112.12432291175845,140.2031284694945
36893,2804,36893,9364,36893,20106,-2.827604275111085,112.5998414768994,140.9415353949273
36893,2802,36893,9355,36893,20133,-2.866118797724943,113.06143389155045,141.66532771973743
36904,2799,36904,9386,36904,20152,-2.9013157416337103,113.50512413173168,142.36763766236075
36904,2788,36904,9413,36904,20154,-2.933009863903261,113.9266676545102,143.04137991736488
36904,2798,36904,9394,36904,20143,-2.9611001608641985,114.32202130265286,143.6796464893087
36904,2803,36904,9349,36904,20137,-2.9856399161793794,114.68765204613874,144.27583534302784
36904,2795,36904,9339,36904,20130,-3.0067854416209343,115.02019697336449,144.82350702003
36904,2800,36904,9381,36904,20155,-3.024730765940044,115.31581665715565,145.31622037545526
36914,2804,36914,9421,36914,20168,-3.0396950500125706,115.57008792225278,145.74760668000238
36914,2799,36914,9401,36914,20154,-3.0518939162677268,115.77862232042868,146.11168431704417
36914,2799,36914,9377,36914,20144,-3.061506827977966,115.93765965183717,146.4030763167448
36914,2801,36914,9353,36914,20125,-3.0686911045168106,116.04399110305627,146.61688402473186
36914,2805,36914,9352,36914,20132,-3.0735899502618764,116.0943922338048,146.74834862131456
36914,2800,36914,9366,36914,20161,-3.0762960415416947,116.08512041937252,146.7926386129017
36924,2799,36924,9413,36924,20158,-3.07682935496155,116.01187350656741,146.74500427308118
36924,2798,36924,9413,36924,20172,-3.075171732227758,115.87029075238155,146.60116966925878
36924,2798,36924,9390,36924,20128,-3.0713197298896215,115.65659750642317,146.35759006017875
36924,2805,36924,9344,36924,20114,-3.0653011137278683,115.36774618206563,146.0112955265126
36924,2799,36924,9360,36924,20129,-3.0571408317039253,115.00090590522751,145.55940797029322
36924,2796,36924,9407,36924,20160,-3.0468331287968624,114.55295865059719,144.99885774905678
36935,2797,36935,9424,36935,20161,-3.0343805144662044,114.02070823686755,144.32665014223966
36935,2798,36935,9387,36935,20148,-3.01985506080512,113.40157157563891,143.54035390408905
36935,2801,36935,9358,36935,20122,-3.003409176984767,112.69386385985338,142.6382777335071
36935,2797,36935,9333,36935,20122,-2.9852459759791485,111.89632362194507,141.6192173609527
36935,2805,36935,9363,36935,20139,-2.965589703172055,111.00738364903081,140.48211936365027
36935,2800,36935,9411,36935,20141,-2.944654197039535,110.02493050619036,139.22603816133204
36945,2798,36945,9417,36945,20144,-2.922617469944028,108.94684413498977,137.85036801305426
36945,2800,36945,9396,36945,20113,-2.8996388291810464,107.77181773145651,136.35502624844824
36945,2811,36945,9347,36945,20107,-2.8758699633471863,106.49965252423071,134.74034085730324
36945,2797,36945,9334,36945,20103,-2.8513972538715464,105.1307704793219,133.00671327055318
36945,2804,36945,9380,36945,20114,-2.8261962558556166,103.66549741606492,131.15436190577708
36945,2800,36945,9402,36945,20128,-2.8001610809444086,102.10393410751612,129.18335490877556
36955,2798,36955,9403,36955,20126,-2.7731479714384815,100.44654487311153,127.09388756113998
36955,2806,36955,9341,36955,20119,-2.7449966416929126,98.69471083235052,124.88658578618202
36955,2798,36955,9339,36955,20090,-2.7155253436917626,96.85056783040667,122.56258884913194
36955,2800,36955,9319,36955,20083,-2.684519899094436,94.91631314976597,120.1233181386313
36955,2801,36955,9364,36955,20115,-2.6517531304471356,92.89367710309352,117.57016674494074
36955,2797,36955,9372,36955,20116,-2.617010413743713,90.78398846904116,114.9045246520117
36966,2800,36966,9375,36966,20103,-2.5801051696233954,88.58869812494387,112.12813544940381
36966,2787,36966,9328,36966,20080,-2.540918702855619,86.30980430568587,109.24330691829778
36966,2808,36966,9317,36966,20070,-2.4994583243747406,83.94972005340651,106.25272853884597
36966,2797,36966,9312,36966,20072,-2.455852810631764,81.51072445387123,103.15912452450782
36966,2796,36966,9373,36966,20097,-2.410289247478391,78.99462089004487,99.96510252004263
36966,2789,36966,9383,36966,20084,-2.36302684355184,76.40309197998512,96.67334560658922
36976,2811,36976,9335,36976,20074,-2.314469493530134,73.73844960225213,93.28690872834414
36976,2798,36976,9307,36976,20047,-2.2651311380045764,71.00388546450893,89.80925720507554
36976,2805,36976,9298,36976,20039,-2.215520215577633,68.20294084080494,86.24398449510221
36976,2806,36976,9292,36976,20041,-2.166076756819203,65.33880856399666,82.59444789696289
36976,2795,36976,9339,36976,20077,-2.1171641283237084,62.41404392454139,78.86365598927404
36976,2804,36976,9349,36976,20055,-2.0690992231066074,59.43086246197005,75.05455745486651
36986,2808,36986,9324,36986,20056,-2.02218465842264,56.391775645146026,71.17044179632195
36986,2796,36986,9273,36986,20024,-1.97668023538369,53.299878322937005,67.2150531704404
36986,2811,36986,9272,36986,19999,-1.9327723384420532,50.158411449657464,63.19233223645047
36986,2803,36986,9295,36986,20035,-1.8905655512293864,46.97010591711488,59.106008507295414
36986,2805,36986,9321,36986,20015,-1.850051961366072,43.737054144572696,54.95943972763666
36986,2798,36986,9329,36986,20041,-1.8111107676293148,40.46121457195258,50.75582362892749
36997,2806,36997,9286,36997,20016,-1.7735604504462736,37.145000555912915,46.498508748288
36997,2803,36997,9254,36997,20002,-1.7371866080566423,33.79133434173002,42.19114516753942
36997,2805,36997,9254,36997,19984,-1.7017191555950888,30.403097225173838,37.83755768547638
36997,2802,36997,9294,36997,19986,-1.666809486979454,26.98260518949168,33.441442491375426
36997,2803,36997,9312,36997,19996,-1.6320379642515417,23.53173930353664,29.006180656580852
36997,2801,36997,9283,36997,19985,-1.5969375795965683,20.052570930462522,24.534907961937392
37006,2806,37006,9255,37006,19978,-1.5610095187913042,16.547730881164895,20.03067500559365
37006,2796,37006,9219,37006,19947,-1.5237265935189401,13.020103531911843,15.496442499311343
37006,2804,37006,9234,37006,19957,-1.484552890493716,9.472147356828955,10.934861060871697
37006,2797,37006,9267,37006,19969,-1.4429796541107816,5.905481282210857,6.3480863482761265
37006,2804,37006,9259,37006,19965,-1.398543016432934,2.3210909369091155,1.737890509524675
37006,2802,37006,9251,37006,19974,-1.3508134721619434,-1.2801811926192102,-2.8940211913943585
37016,2803,37016,9225,37016,19940,-1.2993672322873644,-4.897430403944469,-7.545769930824179
37016,2796,37016,9213,37016,19928,-1.2437758974203679,-8.52989674184849,-12.215333399742264
37016,2796,37016,9246,37016,19933,-1.1836549387592894,-12.177268612127648,-16.900812054664414
37016,2800,37016,9251,37016,19952,-1.1187386204962342,-15.839654041547988,-21.600583530439394
37016,2799,37016,9288,37016,19947,-1.0489064978655926,-19.51709007838548,-26.3130943359331
37016,2800,37016,9231,37016,19922,-0.9741574515839968,-23.208930321026315,-31.036533757736407
37027,2798,37027,9218,37027,19919,-0.8945879266804373,-26.913650913060224,-35.76876846114598
37027,2803,37027,9191,37027,19914,-0.8103885420096479,-30.629267281632607,-40.50751154111228
37027,2804,37027,9218,37027,19903,-0.7218226406941666,-34.353916447821504,-45.2504630092063
37027,2807,37027,9232,37027,19929,-0.6291685623381515,-38.0860322567265,-49.9953104858626
37027,2804,37027,9240,37027,19909,-0.5326559849367114,-41.82400632938449,-54.7395679127367
37027,2806,37027,9221,37027,19892,-0.4324347788517655,-45.56570108391898,-59.48038390454195
37037,2807,37037,9166,37037,19866,-0.32857029479138333,-49.30832283626496,-64.21461528581474
37037,2798,37037,9157,37037,19861,-0.22105091507229124,-53.04889587338937,-68.93919221294809
37037,2806,37037,9179,37037,19880,-0.10982607924100396,-56.78496926859104,-73.65144309122093
37037,2801,37037,9226,37037,19883,0.005147476939553197,-60.51480977825808,-78.34906975545053
37037,2792,37037,9209,37037,19871,0.12386948160227895,-64.23684614752443,-83.0298397845651
37037,2807,37037,9172,37037,19854,0.24623548222711822,-67.94902461816844,-87.6913683919312
37047,2795,37047,9145,37047,19849,0.37199631892224305,-71.64881840003099,-92.33118019660006
37047,2799,37047,9146,37047,19843,0.5007640277290113,-75.3338102250361,-96.94689108011644
37047,2810,37047,9167,37047,19852,0.6320196604665749,-79.00217821131119,-101.53629367110801
37047,2805,37047,9220,37047,19863,0.7651695787578165,-82.65257513538847,-106.09724332555615
37047,2803,37047,9173,37047,19854,0.8996380959106993,-86.28346188546362,-110.627370985428
37047,2810,37047,9167,37047,19810,1.0348973229505924,-89.89256094932207,-115.12388607224258
37058,2804,37058,9128,37058,19799,1.170464592519044,-93.47696020677137,-119.58379328907708
37058,2803,37058,9118,37058,19808,1.3059059281557812,-97.03367282396806,-124.00438580719143
37058,2811,37058,9167,37058,19836,1.4408192664205353,-100.56011503063021,-128.38346245626417
37058,2807,37058,9165,37058,19847,1.574839943952457,-104.05404248934065,-132.71898770874168
37058,2802,37058,9153,37058,19792,1.7076704861350946,-107.51303640907204,-137.00856487388518
37058,2802,37058,9117,37058,19787,1.8390497131573285,-110.93420325948324,-141.24935599607642
37068,2808,37068,9098,37068,19778,1.9686834343651416,-114.31445041287265,-145.43850722478237
37068,2804,37068,9109,37068,19778,2.09623185455498,-117.65104031946962,-149.5735515556812
37068,2807,37068,9144,37068,19795,2.221341559738211,-120.94186274220777,-153.65248345065083
37068,2804,37068,9111,37068,19787,2.343659358072716,-124.18519848129463,-157.6735701748525
37068,2799,37068,9131,37068,19776,2.462809773875393,-127.37935916514164,-161.63510229028986
37068,2814,37068,9086,37068,19748,2.5783604909658786,-130.5226018394961,-165.5353525194799
37078,2809,37078,9066,37078,19741,2.689850635106694,-133.61337912276645,-169.3728361266895
37078,2813,37078,9120,37078,19755,2.7968900039066096,-136.6507367762482,-173.14664216725055
37078,2805,37078,9148,37078,19765,2.8992220012468017,-139.6342819783198,-176.8564936428122
37078,2811,37078,9115,37078,19779,2.996705766388825,-142.56351794069673,-180.50244350166764
37078,2809,37078,9078,37078,19745,3.089282264889926,-145.43734830127946,-184.08447362787757
37078,2811,37078,9057,37078,19724,3.1769749390300817,-148.25438473754355,-187.60239954192514
37089,2801,37089,9069,37089,19718,3.2598905167148855,-151.013655114845,-191.05620021442854
37089,2803,37089,9101,37089,19738,3.338159266995712,-153.71496748098986,-194.44639860942505
37089,2809,37089,9116,37089,19760,3.411851126405155,-156.3586263779806,-197.77403964317585
37089,2805,37089,9079,37089,19733,3.4809607835972525,-158.94485158306992,-201.04028982720382
37089,2805,37089,9054,37089,19722,3.5454414832710848,-161.47357317264957,-204.24613818688908
37089,2817,37089,9036,37089,19690,3.6052308853132846,-163.9448457502734,-207.39253840575782
37099,2808,37099,9053,37099,19703,3.660307430638773,-166.35944673885106,-210.4808302657308
37099,2806,37099,9085,37099,19717,3.7107488829999147,-168.71908601825902,-213.51302143999175
37099,2805,37099,9104,37099,19740,3.7566999561876324,-171.02601641531132,-216.49163615441188
37099,2809,37099,9079,37099,19706,3.7982975935100116,-173.28236069545142,-219.4192743387385
37099,2815,37099,9040,37099,19695,3.8356672234884837,-175.48979043761636,-222.29837902489874
37099,2806,37099,9011,37099,19683,3.8689879636943445,-177.6499088537802,-225.13143856758632
37110,2807,37110,9057,37110,19699,3.898523558766197,-179.76495501360367,-227.92130588413403
37110,2807,37110,9070,37110,19717,3.924576548544831,-181.83805028569842,-230.6712298881584
37110,2808,37110,9095,37110,19716,3.947440535566561,-183.8727258619917,-233.38453224267147
37110,2804,37110,9071,37110,19700,3.9673889932689796,-185.87222707965967,-236.0642207467493
37110,2811,37110,9036,37110,19674,3.984670250043272,-187.83920762031227,-238.71290352189862
37110,2805,37110,9019,37110,19674,3.9995106640842364,-189.77604216534382,-241.33306461396035
37120,2805,37120,9056,37120,19692,4.012119909835812,-191.6853911267932,-243.92737510619236
37120,2798,37120,9081,37120,19714,4.022651823470328,-193.57032323802432,-246.49864706037937
37120,2800,37120,9070,37120,19692,4.03111675383637,-195.4338299730181,-249.04943627204113
37120,2810,37120,9053,37120,19669,4.037320292358206,-197.27831655357656,-251.58175718402407
37120,2810,37120,9004,37120,19659,4.040911354390441,-199.10563204593694,-254.09724581563745
37120,2811,37120,9012,37120,19650,4.041507238297096,-200.91763239783668,-256.5975763647862
37130,2807,37130,9043,37130,19675,4.0387782968310715,-202.71674613734473,-259.08474084931413
37130,2812,37130,9059,37130,19679,4.0324578288793145,-204.50596388557008,-261.5609812643408
37130,2815,37130,9060,37130,19663,4.022348031721832,-206.2883042216042,-264.0284854965209
37130,2810,37130,9019,37130,19655,4.008364520123153,-208.0663669704353,-266.48920714750227
37130,2813,37130,9005,37130,19634,3.9905708490734497,-209.84242915704095,-268.9449913324446
37130,2805,37130,9013,37130,19661,3.9691605445953293,-211.61893985850674,-271.3978161609855
37141,2806,37141,9045,37141,19668,3.944396759368921,-213.39883104635254,-273.84981997382715
37141,2804,37141,9076,37141,19672,3.9165338323483505,-215.18523554713244,-276.30300296753234
37141,2800,37141,9053,37141,19643,3.8857470532648426,-216.98079821211527,-278.75890062797356
37141,2813,37141,9012,37141,19630,3.8520949093678,-218.78723386235006,-281.2185931801695
37141,2807,37141,8980,37141,19634,3.8155502360089697,-220.60562773842247,-283.6830166022747
37141,2809,37141,9012,37141,19630,3.7760780079478264,-222.43719102903825,-286.15323113468554
37151,2821,37151,9048,37151,19641,3.733701083609911,-224.28363564204065,-288.6304549982802
37151,2809,37151,9062,37151,19659,3.688576163115491,-226.14674724266837,-291.1158895956642
37151,2812,37151,9038,37151,19614,3.6410536499679287,-228.02762803383365,-293.6104636525631
37151,2796,37151,8989,37151,19622,3.5916262963228553,-229.92640252492012,-296.1147897021179
37151,2808,37151,8986,37151,19600,3.540788882061354,-231.84266350591594,-298.62943002089906
37151,2817,37151,9008,37151,19616,3.4889606917432627,-233.77615026645586,-301.1551805797737
37161,2812,37161,9019,37161,19621,3.436571959844841,-235.726966955802,-303.6931321664853
37161,2807,37161,9030,37161,19632,3.384188799714249,-237.69526418829278,-306.244482345527
37161,2806,37161,8979,37161,19618,3.3325086329138984,-239.68088375107683,-308.81023583531334
37161,2809,37161,8975,37161,19577,3.2822766932951097,-241.68344805672047,-311.39110087192864
37161,2805,37161,8963,37161,19594,3.2342409593683876,-243.70285994171775,-313.9877636623956
37161,2811,37161,8992,37161,19603,3.189151562679886,-245.73971498428963,-316.60122722638556
37172,2803,37172,9036,37172,19613,3.1477682213383575,-247.79519326577747,-319.23277747910066
37172,2811,37172,9010,37172,19586,3.11085948466577,-249.87044270050202,-321.8836979460226
37172,2801,37172,8971,37172,19585,3.07919174067624,-251.96605696979688,-324.55516614522975
37172,2808,37172,8946,37172,19565,3.0535079616966936,-254.0822753796853,-327.2484348066721
37172,2798,37172,8970,37172,19566,3.0344921162403526,-256.2196637993378,-329.9651056357898
37172,2797,37172,9015,37172,19589,3.022707081455943,-258.3794327774503,-332.7072830878642
37182,2802,37182,9009,37182,19619,3.01851210611159,-260.563006285961,-335.4773814443436
37182,2808,37182,8976,37182,19585,3.0220367079673203,-262.771377340423,-338.2776053633157
37182,2803,37182,8955,37182,19563,3.033251468386677,-265.00500732662215,-341.10961785525
37182,2802,37182,8918,37182,19539,3.052036557406357,-267.2643580460201,-343.97479024040547
37182,2799,37182,8962,37182,19556,3.0781650172574953,-269.55056469667716,-346.8747426168399
37182,2815,37182,9003,37182,19565,3.11126961442851,-271.8656102737633,-349.811624338814
37192,2812,37192,9020,37192,19603,3.150910642939933,-274.21169374725616,-352.78789362806657
37192,2809,37192,8972,37192,19557,3.1967123103800184,-276.5903363391664,-355.80580064603
37192,2806,37192,8938,37192,19544,3.24841796469262,-279.0021365101551,-358.86711226105155
37192,2806,37192,8926,37192,19536,3.305835841148634,-281.4473557436163,-361.9733597370142
37192,2811,37192,8949,37192,19541,3.3687805712726755,-283.92665918154086,-365.12623894461274
37192,2802,37192,8991,37192,19551,3.4370630771597614,-286.44128458226794,-368.3277360377556
37203,2809,37203,8970,37203,19571,3.510484335897651,-288.99255255669743,-371.5799259220659
37203,2811,37203,8948,37203,19533,3.5888249254933053,-291.58132920917114,-374.88462963507965
37203,2809,37203,8919,37203,19526,3.6718769041059534,-294.2080502837285,-378.2432887720249
37203,2807,37203,8917,37203,19515,3.7594836262270466,-296.8732298865568,-381.6572086780278
37203,2808,37203,8960,37203,19533,3.8515288144908832,-299.5778790305445,-385.12784656350925
37203,2810,37203,8969,37203,19551,3.947909295339537,-302.3233584082151,-388.6567782056167
37213,2809,37213,8971,37213,19550,4.048537947918956,-305.11076857149874,-392.24531890440943
37213,2805,37213,8928,37213,19508,4.153352585065589,-307.9404805476989,-395.89415279705844
37213,2803,37213,8906,37213,19500,4.262282200189597,-310.81225612566925,-399.6033954709305
37213,2809,37213,8923,37213,19519,4.37518677223386,-313.7257898307965,-403.372976525006
37213,2809,37213,8934,37213,19509,4.491843485316686,-316.6810695240156,-407.2028179303331
37213,2805,37213,8962,37213,19525,4.611983415212386,-319.67819743332643,-411.09267260066264
37223,2815,37223,8972,37223,19527,4.735320001909275,-322.71682339870955,-415.0418437619084
37223,2809,37223,8920,37223,19500,4.8615774112961825,-325.79561126643694,-419.04893893414504
37223,2813,37223,8873,37223,19487,4.990534984436582,-328.91228889992175,-423.11184675702174
37223,2813,37223,8915,37223,19499,5.122055403380252,-332.0643405367335,-427.2279609881378
37223,2805,37223,8944,37223,19517,5.256084437993109,-335.24948148007286,-431.3942814012073
37223,2803,37223,8956,37223,19519,5.392597993810354,-338.4652757080254,-435.6071387036147
37234,2812,37234,8929,37234,19512,5.531510629453385,-341.70839633520234,-439.86176213452467
37234,2805,37234,8893,37234,19486,5.672640659930614,-344.9743506409977,-444.1520521120445
37234,2808,37234,8886,37234,19467,5.815731849143251,-348.25785595701626,-448.4707179597489
37234,2812,37234,8917,37234,19493,5.960464914939738,-351.5533626506917,-452.8096028216053
37234,2817,37234,8940,37234,19498,6.106493257761867,-354.8550848771148,-457.1597730417596
37234,2814,37234,8931,37234,19490,6.253531254506241,-358.15648261430897,-461.51123870700695
37244,2816,37244,8911,37244,19469,6.4014283451753515,-361.449755743129,-465.85268205414667
37244,2809,37244,8880,37244,19443,6.550178327788486,-364.72582596169536,-470.17153809919733
37244,2814,37244,8846,37244,19442,6.69987803220025,-367.97482297647974,-474.45437118950645
37244,2803,37244,8894,37244,19469,6.8506657292366375,-371.1867170602658,-478.68718563605785
