c_ts,c_val,d_ts,d_val,e_ts,e_val,c_val_filtered,d_val_filtered,e_val_filtered
173008.0,17911.0,173008.0,15456.0,173008.0,41397.0,352.6662520394909,145.9276626659414,365.7064794126497
173008.0,17898.0,173008.0,15417.0,173008.0,41361.0,351.7553369867309,145.3229641489333,366.02957564449827
173018.0,17897.0,173018.0,15439.0,173018.0,41332.0,350.8966059678506,144.78524148287482,366.46299674042865
173018.0,17882.0,173018.0,15409.0,173018.0,41350.0,350.1015873095242,144.32290956141455,367.0210802676993
173018.0,17884.0,173018.0,15440.0,173018.0,41368.0,349.381254910531,143.94319605013038,367.71634630823905
173018.0,17888.0,173018.0,15426.0,173018.0,41372.0,348.74593320360606,143.65213982985986,368.559609968608
173018.0,17884.0,173018.0,15444.0,173018.0,41340.0,348.205317229734,143.4547304968519,369.56029801547277
173018.0,17872.0,173018.0,15443.0,173018.0,41335.0,347.76854273020103,143.35510777304788,370.7264491874685
173028.0,17866.0,173028.0,15404.0,173028.0,41315.0,347.4441541621355,143.3566749542511,372.06434728406015
173028.0,17833.0,173028.0,15405.0,173028.0,41334.0,347.2399055819767,143.46191984183451,373.57811461521374
173028.0,17857.0,173028.0,15435.0,173028.0,41348.0,347.16244673829675,143.67206447206158,375.26956916847917
173028.0,17850.0,173028.0,15444.0,173028.0,41362.0,347.2171086387941,143.98704342205556,377.1384424984662
173028.0,17852.0,173028.0,15443.0,173028.0,41346.0,347.40793813208006,144.40588755314778,379.18275590407575
173028.0,17853.0,173028.0,15435.0,173028.0,41355.0,347.7378295516896,144.92706999564413,381.3990371728082
173039.0,17843.0,173039.0,15411.0,173039.0,41363.0,348.20859543855806,145.5485270341487,383.7823577138145
173039.0,17846.0,173039.0,15420.0,173039.0,41351.0,348.82096815074397,146.26740453425134,386.326376370368
173039.0,17853.0,173039.0,15432.0,173039.0,41358.0,349.5745869398095,147.07980318068468,389.02338399755513
173039.0,17855.0,173039.0,15438.0,173039.0,41371.0,350.46806963026194,147.98078975145216,391.86430853392005
173039.0,17859.0,173039.0,15444.0,173039.0,41350.0,351.4991749817869,148.9646280079881,394.83876176259326
173039.0,17841.0,173039.0,15442.0,173039.0,41383.0,352.6649303052282,150.02500877287292,397.935101745025
173049.0,17847.0,173049.0,15446.0,173049.0,41346.0,353.9616171446454,151.155182238462,401.14046066794026
173049.0,17854.0,173049.0,15455.0,173049.0,41380.0,355.3846879735213,152.34803722923382,404.44073847816776
173049.0,17845.0,173049.0,15448.0,173049.0,41388.0,356.928771873953,153.59619441641635,407.8206335495767
173049.0,17854.0,173049.0,15462.0,173049.0,41407.0,358.5877450597145,154.89210359431053,411.26388689852246
173049.0,17872.0,173049.0,15452.0,173049.0,41396.0,360.35482391629796,156.2281189466035,414.7536696073987
173049.0,17854.0,173049.0,15452.0,173049.0,41407.0,362.222745511499,157.5965343317305,418.2728367272709
173060.0,17843.0,173060.0,15430.0,173060.0,41399.0,364.1838900846406,158.98949990895207,421.8039915344769
173060.0,17855.0,173060.0,15466.0,173060.0,41418.0,366.2301757547394,160.3988466632706,425.3294962814377
173060.0,17852.0,173060.0,15481.0,173060.0,41438.0,368.3529179459423,161.8161024037162,428.8315898751171
173060.0,17870.0,173060.0,15460.0,173060.0,41434.0,370.5428703285553,163.23281080205936,432.29268387989225
173060.0,17850.0,173060.0,15458.0,173060.0,41381.0,372.7903747008596,164.6407672128249,435.69555814180194
173060.0,17857.0,173060.0,15425.0,173060.0,41406.0,375.0854359498792,166.0318558459746,439.02309030819737
173070.0,17859.0,173070.0,15456.0,173070.0,41405.0,377.41768192642974,167.3976625980466,442.2577788363236
173070.0,17864.0,173070.0,15473.0,173070.0,41438.0,379.776350216083,168.72928271653126,445.3816287115612
173070.0,17866.0,173070.0,15467.0,173070.0,41450.0,382.1503729696287,170.01753403712155,448.37648948453636
173070.0,17881.0,173070.0,15481.0,173070.0,41481.0,384.5285135930288,171.25331097269583,451.2246256182474
173070.0,17870.0,173070.0,15472.0,173070.0,41440.0,386.89953339018405,172.42779217872692,453.9092667584837
173070.0,17867.0,173070.0,15472.0,173070.0,41439.0,389.2523035220769,173.5325102804468,456.41479041383116
173080.0,17865.0,173080.0,15461.0,173080.0,41431.0,391.5757675281998,174.5593102534072,458.72645663448145
173080.0,17877.0,173080.0,15513.0,173080.0,41458.0,393.8588539306497,175.5003120823759,460.8301039859143
173080.0,17890.0,173080.0,15495.0,173080.0,41477.0,396.09052950624766,176.34813699619528,462.71221203794823
173080.0,17868.0,173080.0,15481.0,173080.0,41452.0,398.25998548738374,177.09627205957855,464.3602660655786
173080.0,17876.0,173080.0,15451.0,173080.0,41436.0,400.3567303888397,177.73907552266505,465.76296298684906
173080.0,17871.0,173080.0,15480.0,173080.0,41444.0,402.3705129062572,178.2713846878711,466.9100181164034
173091.0,17879.0,173091.0,15471.0,173091.0,41454.0,404.2912512870808,178.6882243129323,467.7919151072513
173091.0,17886.0,173091.0,15483.0,173091.0,41461.0,406.10908283233226,178.98484844691077,468.399949515887
173091.0,17895.0,173091.0,15494.0,173091.0,41461.0,407.81452575771965,179.15693777257593,468.7264792765105
173091.0,17874.0,173091.0,15476.0,173091.0,41456.0,409.3986667093029,179.20080082684663,468.76514558619635
173091.0,17869.0,173091.0,15488.0,173091.0,41421.0,410.8531840073657,179.1134861444329,468.5108964749452
173091.0,17865.0,173091.0,15472.0,173091.0,41435.0,412.17015631179356,178.8927669909396,467.95975255246924
173101.0,17868.0,173101.0,15464.0,173101.0,41440.0,413.3418532784033,178.53704734902644,467.1085417511092
173101.0,17888.0,173101.0,15495.0,173101.0,41419.0,414.36070273928226,178.04526005972005,465.95486020580375
173101.0,17886.0,173101.0,15473.0,173101.0,41440.0,415.21948120077,177.41690894886116,464.4971440205277
173101.0,17874.0,173101.0,15464.0,173101.0,41409.0,415.91157612111044,176.6521942603006,462.73469617018424
173101.0,17873.0,173101.0,15438.0,173101.0,41409.0,416.43107937416136,175.75190166362836,460.66764632448275
173101.0,17851.0,173101.0,15452.0,173101.0,41417.0,416.77266758804205,174.71704673574922,458.29684361445226
173111.0,17872.0,173111.0,15437.0,173111.0,41406.0,416.931413232321,173.54858047468798,455.6238260190401
173111.0,17869.0,173111.0,15473.0,173111.0,41392.0,416.9027148311148,172.24734199702215,452.65088253189043
173111.0,17878.0,173111.0,15457.0,173111.0,41387.0,416.68243752697225,170.81426041144505,449.3810158025873
173111.0,17852.0,173111.0,15465.0,173111.0,41380.0,416.2671002197408,169.2506540590743,445.8178092235663
173111.0,17853.0,173111.0,15447.0,173111.0,41384.0,415.65387870656554,167.55839840587765,441.9653562134608
173111.0,17843.0,173111.0,15428.0,173111.0,41374.0,414.84043505164306,165.7398593317921,437.82830217186626
173122.0,17854.0,173122.0,15446.0,173122.0,41364.0,413.8247756476713,163.79767068003912,433.41191802099837
173122.0,17854.0,173122.0,15447.0,173122.0,41368.0,412.6052776799269,161.73460693164213,428.7221262554038
173122.0,17850.0,173122.0,15441.0,173122.0,41365.0,411.1808456041134,159.55369662732903,423.76554408417564
173122.0,17829.0,173122.0,15419.0,173122.0,41317.0,409.5510216231365,157.25834169429763,418.54952930411264
173122.0,17832.0,173122.0,15426.0,173122.0,41292.0,407.7159186531333,154.85222199295254,413.0819453675605
173122.0,17837.0,173122.0,15415.0,173122.0,41309.0,405.6760972141198,152.33911651445223,407.3706312413862
173132.0,17837.0,173132.0,15438.0,173132.0,41320.0,403.4326007534915,149.72285967148062,401.42310804191544
173132.0,17823.0,173132.0,15426.0,173132.0,41320.0,400.9871129542229,147.00748922305198,395.24682777299887
173132.0,17816.0,173132.0,15421.0,173132.0,41297.0,398.3420265235818,144.19745416470693,388.84960774468516
173132.0,17800.0,173132.0,15404.0,173132.0,41269.0,395.5003505505113,141.2976719836502,382.2397788981633
173132.0,17784.0,173132.0,15389.0,173132.0,41287.0,392.4655130167866,138.31336632655484,375.42601337535
173132.0,17788.0,173132.0,15399.0,173132.0,41267.0,389.24112919432804,135.2498144391877,368.41718521110226
173142.0,17792.0,173142.0,15403.0,173142.0,41272.0,385.8308795016144,132.11222884251833,361.2224520707153
173142.0,17792.0,173142.0,15392.0,173142.0,41248.0,382.2386100286464,128.90585807058795,353.85138774966924
173142.0,17764.0,173142.0,15394.0,173142.0,41233.0,378.4685119237736,125.63612821249379,346.31399311914356
173142.0,17755.0,173142.0,15370.0,173142.0,41203.0,374.5251103596094,122.30865914124283,338.62052853988166
173142.0,17741.0,173142.0,15351.0,173142.0,41208.0,370.4130305602092,118.9291066832778,330.78122610779275
173142.0,17741.0,173142.0,15378.0,173142.0,41209.0,366.1367532328254,115.5028993538678,322.80611412597074
173153.0,17756.0,173153.0,15380.0,173153.0,41172.0,361.70055555455997,112.03517505726036,314.70505870415843
173153.0,17746.0,173153.0,15344.0,173153.0,41181.0,357.1086962543093,108.53098638145283,306.48779954949094
173153.0,17722.0,173153.0,15353.0,173153.0,41169.0,352.3656604884734,104.99536957583933,298.1638966532935
173153.0,17704.0,173153.0,15332.0,173153.0,41142.0,347.4761547389272,101.43314752863472,289.74272314428185
173153.0,17714.0,173153.0,15332.0,173153.0,41118.0,342.44486979847386,97.84872156940054,281.2333866204747
173153.0,17700.0,173153.0,15333.0,173153.0,41154.0,337.27633548462245,94.24595919882525,272.64454020385597
173163.0,17714.0,173163.0,15352.0,173163.0,41130.0,331.9750025172564,90.6282302198844,263.98443312334825
173163.0,17704.0,173163.0,15351.0,173163.0,41134.0,326.54545427136077,86.99867006766998,255.26125720513738
173163.0,17681.0,173163.0,15310.0,173163.0,41087.0,320.99260457115975,83.36046987642709,246.48338223011046
173163.0,17668.0,173163.0,15307.0,173163.0,41086.0,315.32170126144854,79.7168248622069,237.6592491834756
173163.0,17664.0,173163.0,15312.0,173163.0,41068.0,309.5381374174177,76.07059555720683,228.79708909142312
173163.0,17664.0,173163.0,15318.0,173163.0,41072.0,303.6473148910958,72.42413308223777,219.90475251458992
173173.0,17656.0,173173.0,15333.0,173173.0,41054.0,297.65469155955316,68.77945454682506,210.98973645041963
173173.0,17637.0,173173.0,15308.0,173173.0,41047.0,291.5658866263767,65.13856410252609,202.05927886929015
173173.0,17618.0,173173.0,15287.0,173173.0,41028.0,285.38665356666263,61.50359173755274,193.12039516698803
173173.0,17617.0,173173.0,15283.0,173173.0,41011.0,279.12270231749324,57.876587847918586,184.1798218920934
173173.0,17613.0,173173.0,15282.0,173173.0,41024.0,272.77955873166684,54.259204220174155,175.24393632450227
173173.0,17601.0,173173.0,15282.0,173173.0,41000.0,266.36258253098737,50.652558847460796,166.31879334380852
173184.0,17606.0,173184.0,15296.0,173184.0,40976.0,259.8770666759458,47.0573189291062,157.4102186660325
173184.0,17591.0,173184.0,15299.0,173184.0,40988.0,253.32835119108694,43.47394535110914,148.5237720665877
173184.0,17572.0,173184.0,15252.0,173184.0,40957.0,246.72190472449626,39.902930653089015,139.6646755122856
173184.0,17556.0,173184.0,15281.0,173184.0,40908.0,240.0632603363568,36.34476738007538,130.8377181618306
173184.0,17546.0,173184.0,15280.0,173184.0,40932.0,233.35781343211568,32.79980262742106,122.0469316462312
173184.0,17543.0,173184.0,15283.0,173184.0,40947.0,226.61064760468452,29.268353148879015,113.29534307839828
173194.0,17538.0,173194.0,15265.0,173194.0,40935.0,219.82650356157978,25.75095959109882,104.5852529004099
173194.0,17519.0,173194.0,15264.0,173194.0,40890.0,213.00984442432184,22.2484641410054,95.91867117192339
173194.0,17518.0,173194.0,15235.0,173194.0,40900.0,206.16488974889603,18.76188525771815,87.29734355402451
173194.0,17499.0,173194.0,15239.0,173194.0,40894.0,199.29558776327968,15.292176481502679,78.72255107634527
173194.0,17484.0,173194.0,15239.0,173194.0,40896.0,192.4055519905666,11.83999880627897,70.19514098757094
173194.0,17496.0,173194.0,15271.0,173194.0,40874.0,185.49798438832363,8.405733241807809,61.715756264376694
173204.0,17497.0,173204.0,15234.0,173204.0,40883.0,178.57573463895199,4.9897740165068285,53.285010781308415
173204.0,17457.0,173204.0,15223.0,173204.0,40861.0,171.6415116726415,1.5927381358151251,44.90359190074537
173204.0,17465.0,173204.0,15204.0,173204.0,40820.0,164.69795388688505,-1.784718348137858,36.572270221002555
173204.0,17444.0,173204.0,15216.0,173204.0,40829.0,157.7474972590894,-5.142264885228542,28.291680868260357
173204.0,17445.0,173204.0,15219.0,173204.0,40821.0,150.7922820862683,-8.480055283772089,20.062054393118558
173204.0,17436.0,173204.0,15247.0,173204.0,40835.0,143.83417112435103,-11.798545296263455,11.883243305426504
173215.0,17431.0,173215.0,15208.0,173215.0,40821.0,136.87482441400243,-15.098118687831885,3.755028045944414
173215.0,17420.0,173215.0,15207.0,173215.0,40784.0,129.91579227762497,-18.37888604682368,-4.322621401228162
173215.0,17413.0,173215.0,15181.0,173215.0,40775.0,122.95857988364799,-21.640856676378405,-12.349611574927565
173215.0,17379.0,173215.0,15199.0,173215.0,40774.0,116.00462868339622,-24.884254883646378,-20.326012027060642
173215.0,17400.0,173215.0,15201.0,173215.0,40763.0,109.05519847892276,-28.109644727949473,-28.252202019473543
173215.0,17377.0,173215.0,15214.0,173215.0,40766.0,102.11129780395197,-31.317753940059987,-36.128794454783076
173225.0,17372.0,173225.0,15190.0,173225.0,40763.0,95.17375161771616,-34.509173060833774,-43.956460479611565
173225.0,17355.0,173225.0,15190.0,173225.0,40731.0,88.24324640179498,-37.684213100428735,-51.735757955738904
173225.0,17341.0,173225.0,15188.0,173225.0,40714.0,81.32025751506109,-40.84296622422431,-59.46714591708627
173225.0,17350.0,173225.0,15170.0,173225.0,40728.0,74.40495794347743,-43.98540148844174,-67.15118904543976
173225.0,17336.0,173225.0,15187.0,173225.0,40721.0,67.49724199190581,-47.11142479281207,-74.78862026279705
173225.0,17345.0,173225.0,15176.0,173225.0,40695.0,60.59688819264801,-50.22087471988493,-82.38017440563209
173235.0,17323.0,173235.0,15157.0,173235.0,40699.0,53.70375821933516,-53.31347045517697,-89.92649044792961
173235.0,17324.0,173235.0,15147.0,173235.0,40672.0,46.817930621194705,-56.3888959527018,-97.42817332103607
173235.0,17298.0,173235.0,15139.0,173235.0,40670.0,39.939728902608124,-59.447060829072086,-104.88588984278562
173235.0,17302.0,173235.0,15164.0,173235.0,40663.0,33.06966620199563,-62.488291101876484,-112.30044612189022
173235.0,17281.0,173235.0,15172.0,173235.0,40673.0,26.20837738660225,-65.51320692917048,-119.67275939932478
173235.0,17286.0,173235.0,15161.0,173235.0,40643.0,19.356593184131214,-68.52234198295181,-127.0036959726092
173246.0,17267.0,173246.0,15136.0,173246.0,40631.0,12.515160374869822,-71.51588085293054,-134.29398159738855
173246.0,17233.0,173246.0,15125.0,173246.0,40618.0,5.685010879085269,-74.49378362153908,-141.54432802623194
173246.0,17244.0,173246.0,15127.0,173246.0,40610.0,-1.1330315945123175,-77.45612963626243,-148.75562995596312
173246.0,17239.0,173246.0,15136.0,173246.0,40596.0,-7.9384373787059985,-80.40332430461936,-155.9290826069069
173246.0,17248.0,173246.0,15151.0,173246.0,40608.0,-14.730882054540928,-83.33599486882238,-163.06620776450058
173246.0,17212.0,173246.0,15132.0,173246.0,40602.0,-21.509996384422323,-86.25468847750511,-170.1687417025089
173256.0,17205.0,173256.0,15120.0,173256.0,40573.0,-28.275290924397666,-89.15967609595114,-177.23843958394377
173256.0,17196.0,173256.0,15102.0,173256.0,40561.0,-35.026316043446286,-92.05106258836463,-184.27705330059695
173256.0,17211.0,173256.0,15119.0,173256.0,40576.0,-41.76277404814465,-94.92905320896406,-191.2864907929029
173256.0,17190.0,173256.0,15096.0,173256.0,40561.0,-48.48439117716026,-97.7941032956154,-198.26883502561606
173256.0,17175.0,173256.0,15129.0,173256.0,40585.0,-55.19073566155913,-100.6468884235914,-205.22610923344172
173256.0,17161.0,173256.0,15118.0,173256.0,40540.0,-61.88123280546432,-103.48812536205591,-212.15997860444617
173266.0,17152.0,173266.0,15104.0,173266.0,40520.0,-68.55533258292661,-106.31832881128102,-219.07167570997694
173266.0,17131.0,173266.0,15074.0,173266.0,40526.0,-75.21267394522715,-109.13778722114336,-225.96225486455467
173266.0,17134.0,173266.0,15096.0,173266.0,40518.0,-81.85321752548111,-111.94684267152414,-232.83284146405475
173266.0,17137.0,173266.0,15093.0,173266.0,40517.0,-88.47728806626634,-114.746108511859,-239.68460306745862
173266.0,17137.0,173266.0,15118.0,173266.0,40522.0,-95.08541931804103,-117.53633738066773,-246.51856158837057
173266.0,17111.0,173266.0,15080.0,173266.0,40482.0,-101.67810663651824,-120.31810553241812,-253.33542465066773
173277.0,17105.0,173277.0,15068.0,173277.0,40471.0,-108.25571820841566,-123.0917121233608,-260.1356222622369
173277.0,17095.0,173277.0,15086.0,173277.0,40466.0,-114.81859322633466,-125.85739664949529,-266.9195811657835
173277.0,17091.0,173277.0,15100.0,173277.0,40461.0,-121.36713475101499,-128.6154596656501,-273.68795150984477
173277.0,17080.0,173277.0,15078.0,173277.0,40476.0,-127.90180820898405,-131.3660419091926,-280.44157738422405
173277.0,17077.0,173277.0,15061.0,173277.0,40456.0,-134.42310015608484,-134.10893823235813,-287.1812698902569
173277.0,17067.0,173277.0,15067.0,173277.0,40426.0,-140.9314716989329,-136.84373370883168,-293.90762961728944
173287.0,17040.0,173287.0,15043.0,173287.0,40424.0,-147.42735108429923,-139.5700534789179,-300.6211573024801
173287.0,17040.0,173287.0,15047.0,173287.0,40432.0,-153.91124436946234,-142.28775230551668,-307.32248266480997
173287.0,17034.0,173287.0,15057.0,173287.0,40420.0,-160.38388726068848,-144.99703373272646,-314.01236534349687
173287.0,17025.0,173287.0,15074.0,173287.0,40416.0,-166.84627620813626,-147.6983632630523,-320.6915144689932
173287.0,17023.0,173287.0,15068.0,173287.0,40406.0,-173.29959897344094,-150.39213305155496,-327.36046159767136
173287.0,17005.0,173287.0,15024.0,173287.0,40389.0,-179.74517189846944,-153.0783998773847,-334.01954163257676
173298.0,16999.0,173298.0,15041.0,173298.0,40377.0,-186.1844344339263,-155.75701815434215,-340.66896957447955
173298.0,17007.0,173298.0,15039.0,173298.0,40384.0,-192.61896243830574,-158.42795144152095,-347.30895643061626
173298.0,16992.0,173298.0,15052.0,173298.0,40380.0,-199.05038485266124,-161.0913212876005,-353.93970237934434
173298.0,16989.0,173298.0,15050.0,173298.0,40395.0,-205.4802279895177,-163.74717924452668,-360.5611842152764
173298.0,16974.0,173298.0,15025.0,173298.0,40344.0,-211.909829048186,-166.3952954885591,-367.1728929002353
173298.0,16958.0,173298.0,15015.0,173298.0,40335.0,-218.3403613097097,-169.03520284864706,-373.7738409735076
173308.0,16955.0,173308.0,15015.0,173308.0,40304.0,-224.77293656820677,-171.66646994197015,-380.36294507319565
173308.0,16953.0,173308.0,15006.0,173308.0,40309.0,-231.2086856007695,-174.28894641822862,-386.93950027943094
173308.0,16939.0,173308.0,15031.0,173308.0,40318.0,-237.64872962289792,-176.90281640395872,-393.5034164461795
173308.0,16946.0,173308.0,15042.0,173308.0,40318.0,-244.09409126536883,-179.50840348831534,-400.05509714529524
173308.0,16930.0,173308.0,14994.0,173308.0,40325.0,-250.54559361009638,-182.10584867098294,-406.59508265305226
173308.0,16908.0,173308.0,14991.0,173308.0,40285.0,-257.00379784929146,-184.69508826950766,-413.1237362459119
173318.0,16897.0,173318.0,14986.0,173318.0,40282.0,-263.4691009678787,-187.2762329681559,-419.641216640568
173318.0,16901.0,173318.0,15009.0,173318.0,40309.0,-269.9419306978406,-189.84986636404835,-426.1476232427842
173318.0,16895.0,173318.0,14994.0,173318.0,40287.0,-276.42280095863464,-192.41697361369742,-432.6429155306596
173318.0,16895.0,173318.0,15002.0,173318.0,40243.0,-282.9121771794921,-194.97871669965014,-439.1267057352318
173318.0,16872.0,173318.0,14999.0,173318.0,40261.0,-289.4103174361703,-197.53628496854353,-445.5983821827341
173318.0,16850.0,173318.0,14997.0,173318.0,40227.0,-295.91727557361423,-200.09080471688816,-452.0574398662693
173329.0,16853.0,173329.0,14985.0,173329.0,40224.0,-302.4330966648997,-202.64328552792827,-458.50369447168384
173329.0,16855.0,173329.0,14999.0,173329.0,40238.0,-308.95797410260593,-205.19462558579934,-464.9373859446239
173329.0,16849.0,173329.0,14982.0,173329.0,40221.0,-315.49216595154496,-207.74560510569566,-471.35912708433784
173329.0,16836.0,173329.0,14994.0,173329.0,40217.0,-322.035798054368,-210.29683547293055,-477.7697254921569
173329.0,16823.0,173329.0,14968.0,173329.0,40205.0,-328.58877851922625,-212.84873692080603,-484.1700933730391
173329.0,16804.0,173329.0,14964.0,173329.0,40200.0,-335.1508762062123,-215.4016256770956,-490.5612674289365
173339.0,16809.0,173339.0,14978.0,173339.0,40180.0,-341.7218721507826,-217.9558761621875,-496.94445786891004
173339.0,16810.0,173339.0,14976.0,173339.0,40203.0,-348.30161191758236,-220.5119518093814,-503.32108603034385
173339.0,16806.0,173339.0,14994.0,173339.0,40201.0,-354.88985770885506,-223.07020533422605,-509.6926668910703
173339.0,16786.0,173339.0,14964.0,173339.0,40182.0,-361.4860798734709,-225.63061843329604,-516.0605141705622
173339.0,16758.0,173339.0,14966.0,173339.0,40162.0,-368.08943876997125,-228.1927156557598,-522.4255715338695
173339.0,16750.0,173339.0,14940.0,173339.0,40154.0,-374.69903390483057,-230.75572935144353,-528.7885499708987
173349.0,16760.0,173349.0,14944.0,173349.0,40160.0,-381.3141916936919,-233.3188902395598,-535.1501406185873
173349.0,16763.0,173349.0,14991.0,173349.0,40159.0,-387.934476175443,-235.88156637182064,-541.5110257549475
173349.0,16750.0,173349.0,14961.0,173349.0,40171.0,-394.5594247273856,-238.44300766920745,-547.8716555655803
173349.0,16738.0,173349.0,14943.0,173349.0,40135.0,-401.1883103347932,-241.0019814000941,-554.2319647052971
173349.0,16733.0,173349.0,14928.0,173349.0,40121.0,-407.820096380274,-243.5568308648623,-560.5913038711842
173349.0,16692.0,173349.0,14928.0,173349.0,40115.0,-414.4535394587092,-246.10587030762875,-566.9486693643664
173360.0,16698.0,173360.0,14941.0,173360.0,40121.0,-421.0874281104145,-248.64765469894076,-573.3029392473497
173360.0,16715.0,173360.0,14918.0,173360.0,40104.0,-427.72079763924205,-251.1809868287242,-579.6528813782148
173360.0,16686.0,173360.0,14929.0,173360.0,40111.0,-434.35285594917593,-253.70486210367943,-585.9970446640942
173360.0,16679.0,173360.0,14935.0,173360.0,40079.0,-440.9827964969138,-256.2184502511628,-592.3337015453683
173360.0,16660.0,173360.0,14895.0,173360.0,40053.0,-447.6098323029835,-258.72106337062235,-598.6609652066677
173360.0,16643.0,173360.0,14917.0,173360.0,40056.0,-454.2334065283811,-261.212229759407,-604.9771260927229
173370.0,16658.0,173370.0,14926.0,173370.0,40069.0,-460.853383342352,-263.69182294222645,-611.2809285157183
173370.0,16659.0,173370.0,14911.0,173370.0,40052.0,-467.47003696575166,-266.1599747420935,-617.5715061127759
173370.0,16647.0,173370.0,14926.0,173370.0,40053.0,-474.0838004470112,-268.6168715605191,-623.8481563069574
173370.0,16644.0,173370.0,14910.0,173370.0,40019.0,-480.69500891816836,-271.06264230819824,-630.1102654561921
173370.0,16626.0,173370.0,14922.0,173370.0,40009.0,-487.30380731492517,-273.49729750877816,-636.3574737589761
173370.0,16607.0,173370.0,14914.0,173370.0,40036.0,-493.9102063644484,-275.9206649332201,-642.5899119690716
173380.0,16619.0,173380.0,14910.0,173380.0,40021.0,-500.51422005580093,-278.33232986111875,-648.8081800653431
173380.0,16617.0,173380.0,14914.0,173380.0,40033.0,-507.11589638861176,-280.73160628435403,-655.013039543221
173380.0,16587.0,173380.0,14895.0,173380.0,40022.0,-513.7151806906248,-283.1175471625719,-661.205096562634
173380.0,16587.0,173380.0,14872.0,173380.0,39996.0,-520.3118664939768,-285.4890605354557,-667.3846398549991
173380.0,16562.0,173380.0,14891.0,173380.0,39961.0,-526.9057452790086,-287.8451800901644,-673.5517649148371
173380.0,16577.0,173380.0,14877.0,173380.0,39978.0,-533.4967689117727,-290.185281774191,-679.7067804193913
173391.0,16573.0,173391.0,14893.0,173391.0,39999.0,-540.0850446722175,-292.5090764910134,-685.8504637958174
173391.0,16567.0,173391.0,14883.0,173391.0,39984.0,-546.6706446639196,-294.81648210838875,-691.9838299891237
173391.0,16533.0,173391.0,14868.0,173391.0,39951.0,-553.2534461436645,-297.10753466400695,-698.1077776777335
173391.0,16524.0,173391.0,14855.0,173391.0,39952.0,-559.8332456179752,-299.38247638495943,-704.2231127662159
173391.0,16521.0,173391.0,14852.0,173391.0,39934.0,-566.4100536207976,-301.6420184954644,-710.3308378236804
173391.0,16532.0,173391.0,14886.0,173391.0,39969.0,-572.9842403128855,-303.8875177435474,-716.4322946035369
173401.0,16522.0,173401.0,14855.0,173401.0,39952.0,-579.5563922670334,-306.1208581800097,-722.5289754542918
173401.0,16506.0,173401.0,14878.0,173401.0,39949.0,-586.127082802161,-308.3442162340849,-728.6221695266332
173401.0,16494.0,173401.0,14877.0,173401.0,39917.0,-592.6968128635838,-310.5599073521032,-734.7127958600411
173401.0,16489.0,173401.0,14866.0,173401.0,39908.0,-599.2661204104437,-312.77024330210156,-740.8015690182041
173401.0,16483.0,173401.0,14844.0,173401.0,39895.0,-605.8356781849765,-314.9774789966647,-746.889331298734
173401.0,16476.0,173401.0,14870.0,173401.0,39868.0,-612.4062968749523,-317.1839580405168,-752.977373404262
173411.0,16476.0,173411.0,14863.0,173411.0,39892.0,-618.9788700763402,-319.3921999176529,-759.0676868802998
173411.0,16457.0,173411.0,14857.0,173411.0,39895.0,-625.5543075781745,-321.60477898719057,-765.1630025687917
173411.0,16462.0,173411.0,14853.0,173411.0,39891.0,-632.1334994416164,-323.824225910908,-771.2665158522624
173411.0,16448.0,173411.0,14835.0,173411.0,39863.0,-638.7173007279656,-326.05309916157506,-777.3815879954415
173411.0,16431.0,173411.0,14860.0,173411.0,39860.0,-645.30652470687,-328.29411724937285,-783.5117432323536
173411.0,16435.0,173411.0,14858.0,173411.0,39845.0,-651.901993088055,-330.55014921154486,-789.6608785194237
173422.0,16435.0,173422.0,14864.0,173422.0,39869.0,-658.5045663507267,-332.8239944718804,-795.8333964489273
173422.0,16426.0,173422.0,14859.0,173422.0,39853.0,-665.1150327233088,-335.11812804329827,-802.0340952518347
173422.0,16397.0,173422.0,14840.0,173422.0,39813.0,-671.7339954248972,-337.43459716805046,-808.2680039551257
173422.0,16389.0,173422.0,14832.0,173422.0,39829.0,-678.3619787303365,-339.7751320522733,-814.5404924053335
173422.0,16389.0,173422.0,14819.0,173422.0,39835.0,-684.9996718913739,-342.14142003452935,-820.8574839804025
173422.0,16382.0,173422.0,14841.0,173422.0,39824.0,-691.6480478133589,-344.5353508763926,-827.2253782148402
173432.0,16383.0,173432.0,14815.0,173432.0,39849.0,-698.3082957540024,-346.9590752679544,-833.6507539785499
173432.0,16375.0,173432.0,14838.0,173432.0,39816.0,-704.9816853903075,-349.41494529224985,-840.1400715675962
173432.0,16354.0,173432.0,14804.0,173432.0,39784.0,-711.6694735227874,-351.90548248688157,-846.699561704365
173432.0,16347.0,173432.0,14807.0,173432.0,39794.0,-718.3729464693989,-354.43345437556826,-853.3354671840412
173432.0,16354.0,173432.0,14825.0,173432.0,39818.0,-725.0935353747112,-357.0020128417992,-860.054299004275
173432.0,16335.0,173432.0,14838.0,173432.0,39801.0,-731.8328242827879,-359.61463319522665,-866.8626595341829
173442.0,16337.0,173442.0,14830.0,173442.0,39793.0,-738.5924691422504,-362.2747688343751,-873.7668652413024
173442.0,16336.0,173442.0,14814.0,173442.0,39776.0,-745.3741268565508,-364.9855553099922,-880.7728119605691
173442.0,16291.0,173442.0,14802.0,173442.0,39740.0,-752.1794246840672,-367.74983485836236,-887.8861432149029
173442.0,16304.0,173442.0,14820.0,173442.0,39755.0,-759.010087311119,-370.57036369103093,-895.1125858060716
173442.0,16302.0,173442.0,14805.0,173442.0,39776.0,-765.8681405964732,-373.44990041384847,-902.458142861925
173442.0,16293.0,173442.0,14799.0,173442.0,39754.0,-772.755908611158,-376.39116131886465,-909.9288749992205
173453.0,16282.0,173453.0,14813.0,173453.0,39768.0,-779.6758727152705,-379.3968104279289,-917.5305061852051
173453.0,16269.0,173453.0,14782.0,173453.0,39727.0,-786.6306394919932,-382.46947408176595,-925.268216351266
173453.0,16266.0,173453.0,14805.0,173453.0,39712.0,-793.6230154365469,-385.6117597510305,-933.1467217624726
173453.0,16253.0,173453.0,14787.0,173453.0,39701.0,-800.6560749883381,-388.82628505518267,-941.1705964289513
173453.0,16268.0,173453.0,14805.0,173453.0,39721.0,-807.7331509859396,-392.1156319086986,-949.3445510832804
173453.0,16270.0,173453.0,14790.0,173453.0,39715.0,-814.8576685222224,-395.4822257106545,-957.6733619684626
173463.0,16253.0,173463.0,14811.0,173463.0,39707.0,-822.0328423326165,-398.928192112254,-966.1615484469592
173463.0,16238.0,173463.0,14757.0,173463.0,39686.0,-829.261474384818,-402.45526413941093,-974.813145334693
173463.0,16207.0,173463.0,14783.0,173463.0,39662.0,-836.5460458457559,-406.0648893569835,-983.6317539746296
173463.0,16213.0,173463.0,14771.0,173463.0,39656.0,-843.8890183390369,-409.75844999752826,-992.6208031124729
173463.0,16218.0,173463.0,14773.0,173463.0,39670.0,-851.2930529953456,-413.5373228040742,-1001.7837644673014
173463.0,16197.0,173463.0,14762.0,173463.0,39649.0,-858.7609650801802,-417.40281496773116,-1011.1241043224906
173473.0,16191.0,173473.0,14759.0,173473.0,39632.0,-866.2956023188046,-421.3561622971512,-1020.645122803085
173473.0,16175.0,173473.0,14746.0,173473.0,39638.0,-873.8998694373728,-425.39860171960464,-1030.349935716436
173473.0,16183.0,173473.0,14763.0,173473.0,39624.0,-881.5768138329622,-429.5314411715512,-1040.241499688014
173473.0,16166.0,173473.0,14755.0,173473.0,39620.0,-889.3296184763076,-433.7560175573893,-1050.3225327605082
173473.0,16166.0,173473.0,14779.0,173473.0,39622.0,-897.1615201627516,-438.07349011813085,-1060.595385001433
173473.0,16163.0,173473.0,14753.0,173473.0,39623.0,-905.0757238399651,-442.48455416539616,-1071.0618509383319
173484.0,16150.0,173484.0,14737.0,173484.0,39582.0,-913.0753068384836,-446.98928966011397,-1081.722956127387
173484.0,16129.0,173484.0,14747.0,173484.0,39560.0,-921.1631675434448,-451.58727210884024,-1092.5789829054393
173484.0,16125.0,173484.0,14723.0,173484.0,39551.0,-929.3421135232934,-456.27775756862627,-1103.6298162395226
173484.0,16129.0,173484.0,14735.0,173484.0,39577.0,-937.6149777169638,-461.0597717797582,-1114.8752190838914
173484.0,16130.0,173484.0,14720.0,173484.0,39554.0,-945.9845521220712,-465.932141899013,-1126.3146911900085
173484.0,16106.0,173484.0,14747.0,173484.0,39552.0,-954.4533753205101,-470.893444555968,-1137.9471076780505
173494.0,16105.0,173494.0,14711.0,173494.0,39542.0,-963.02361052807,-475.94184396259675,-1149.7704834444662
173494.0,16090.0,173494.0,14698.0,173494.0,39505.0,-971.697074799366,-481.0750265422008,-1161.7819221326527
173494.0,16078.0,173494.0,14709.0,173494.0,39509.0,-980.4753019428761,-486.2903778443713,-1173.9777213990815
173494.0,16082.0,173494.0,14714.0,173494.0,39515.0,-989.3595803991844,-491.5851205227618,-1186.353486835813
173494.0,16069.0,173494.0,14727.0,173494.0,39513.0,-998.3509235344359,-496.9561321628797,-1198.9039774192
173494.0,16067.0,173494.0,14708.0,173494.0,39509.0,-1007.4499621893887,-502.3995928062855,-1211.622712984113
173505.0,16052.0,173505.0,14675.0,173505.0,39452.0,-1016.6568424249232,-507.91082047293713,-1224.5016980468122
173505.0,16033.0,173505.0,14670.0,173505.0,39462.0,-1025.9712053459125,-513.4844971778173,-1237.531519200073
173505.0,16024.0,173505.0,14672.0,173505.0,39445.0,-1035.392279354598,-519.1150650055068,-1250.7016261085028
173505.0,16023.0,173505.0,14675.0,173505.0,39434.0,-1044.9190038953566,-524.7968998094692,-1264.000434160343
173505.0,16035.0,173505.0,14692.0,173505.0,39425.0,-1054.5499965093004,-530.5241635510473,-1277.4152632802904
173505.0,16009.0,173505.0,14672.0,173505.0,39426.0,-1064.2833187119168,-536.2904912871848,-1290.9322468425512
173515.0,15986.0,173515.0,14662.0,173515.0,39388.0,-1074.1162977523736,-542.0887639394842,-1304.5362171659349
173515.0,15980.0,173515.0,14638.0,173515.0,39392.0,-1084.0456269271972,-547.9111613291773,-1318.210669225573
173515.0,15976.0,173515.0,14645.0,173515.0,39369.0,-1094.0675664470527,-553.7494147587845,-1331.937825332107
173515.0,15971.0,173515.0,14663.0,173515.0,39395.0,-1104.177973783707,-559.5949497622016,-1345.6986029873487
173515.0,15969.0,173515.0,14675.0,173515.0,39369.0,-1114.3721656411306,-565.4386683486291,-1359.4723569738765
173515.0,15951.0,173515.0,14634.0,173515.0,39329.0,-1124.6447472746186,-571.270530893283,-1373.2366087877285
173525.0,15930.0,173525.0,14629.0,173525.0,39324.0,-1134.9895428762693,-577.0794155693087,-1386.9671081149413
173525.0,15921.0,173525.0,14616.0,173525.0,39310.0,-1145.399696007877,-582.8533730222285,-1400.6381218443676
173525.0,15916.0,173525.0,14623.0,173525.0,39293.0,-1155.867822904123,-588.5799103516769,-1414.2225972471956
173525.0,15925.0,173525.0,14629.0,173525.0,39290.0,-1166.38601447084,-594.2460295581559,-1427.6921778913095
173525.0,15909.0,173525.0,14625.0,173525.0,39294.0,-1176.9456346003058,-599.8380451422041,-1441.0171338750088
173525.0,15880.0,173525.0,14616.0,173525.0,39275.0,-1187.537119456134,-605.3413613883898,-1454.166158728598
173536.0,15876.0,173536.0,14585.0,173536.0,39249.0,-1198.15001275932,-610.7404263160903,-1467.1061796540885
173536.0,15868.0,173536.0,14595.0,173536.0,39228.0,-1208.7731382221161,-616.01892752788,-1479.8024148435625
173536.0,15868.0,173536.0,14614.0,173536.0,39264.0,-1219.394640311958,-621.1599693971133,-1492.2185393081566
173536.0,15856.0,173536.0,14590.0,173536.0,39246.0,-1230.0018572789577,-626.1459589189506,-1504.3165495271924
173536.0,15855.0,173536.0,14582.0,173536.0,39178.0,-1240.581154324996,-630.9584152851913,-1516.0564576103502
173536.0,15839.0,173536.0,14569.0,173536.0,39198.0,-1251.1177881556205,-635.5780315943932,-1527.3964071271253
173546.0,15825.0,173546.0,14572.0,173546.0,39177.0,-1261.5958377600264,-639.98488608462,-1538.293100590336
173546.0,15811.0,173546.0,14580.0,173546.0,39173.0,-1271.998238323028,-644.1585384042,-1548.7019834208545
173546.0,15830.0,173546.0,14573.0,173546.0,39176.0,-1282.3068256922484,-648.0779366856761,-1558.5771776951256
173546.0,15803.0,173546.0,14576.0,173546.0,39153.0,-1292.5022239835248,-651.7212534598455,-1567.8713755575923
173546.0,15779.0,173546.0,14572.0,173546.0,39137.0,-1302.5636983352047,-655.0657725150423,-1576.5358071099697
173546.0,15781.0,173546.0,14549.0,173546.0,39106.0,-1312.469226402444,-658.0878699066805,-1584.5204259659022
173556.0,15755.0,173556.0,14539.0,173556.0,39114.0,-1322.1956900986538,-660.7631667522526,-1591.7742695224874
173556.0,15756.0,173556.0,14541.0,173556.0,39114.0,-1331.718998064242,-663.0668302883761,-1598.245720336714
173556.0,15764.0,173556.0,14545.0,173556.0,39110.0,-1341.014105204539,-664.9737952944761,-1603.8824982346155
173556.0,15750.0,173556.0,14546.0,173556.0,39095.0,-1350.0548734111148,-666.4587751413949,-1608.6315446939407
173556.0,15723.0,173556.0,14526.0,173556.0,39098.0,-1358.8138977237272,-667.4962049340445,-1612.43902177536
173556.0,15705.0,173556.0,14517.0,173556.0,39060.0,-1367.2625841222555,-668.0603421973622,-1615.2504596959366
173567.0,15699.0,173567.0,14491.0,173567.0,39052.0,-1375.3714616193706,-668.1256028308065,-1617.0110851378336
173567.0,15701.0,173567.0,14506.0,173567.0,39064.0,-1383.1104320883176,-667.6670097120063,-1617.666273359658
173567.0,15711.0,173567.0,14552.0,173567.0,39049.0,-1390.4487584271833,-666.6604228816831,-1617.1618587439857
173567.0,15718.0,173567.0,14532.0,173567.0,39044.0,-1397.3547940559229,-665.0822870080816,-1615.4442772094576
173567.0,15670.0,173567.0,14492.0,173567.0,39030.0,-1403.7956753271615,-662.9092976081427,-1612.4607891265498
173567.0,15660.0,173567.0,14506.0,173567.0,39018.0,-1409.7373522631697,-660.118606045015,-1608.159867436043
173577.0,15657.0,173577.0,14503.0,173577.0,39005.0,-1415.1449890357658,-656.6883556099627,-1602.4916960036808
173577.0,15654.0,173577.0,14510.0,173577.0,39043.0,-1419.9833143524363,-652.5979949232253,-1595.4086442791981
173577.0,15648.0,173577.0,14527.0,173577.0,39026.0,-1424.2167144268758,-647.8283207858266,-1586.8654992773254
173577.0,15643.0,173577.0,14501.0,173577.0,39013.0,-1427.8092335919505,-642.3614555391545,-1576.819565694802
173577.0,15618.0,173577.0,14511.0,173577.0,39010.0,-1430.7246496491125,-636.1809538280892,-1565.2310181014434
173577.0,15610.0,173577.0,14500.0,173577.0,39024.0,-1432.9267101100788,-629.2721041013618,-1552.063480269427
173587.0,15617.0,173587.0,14510.0,173587.0,39019.0,-1434.379463714733,-621.6222715733312,-1537.2845131712897
173587.0,15606.0,173587.0,14523.0,173587.0,39049.0,-1435.0474839967667,-613.2211394329748,-1520.8659419823937
173587.0,15621.0,173587.0,14531.0,173587.0,39062.0,-1434.8959314145638,-604.0608021580994,-1502.7840595548416
173587.0,15603.0,173587.0,14534.0,173587.0,39061.0,-1433.890560422887,-594.135769952597,-1483.0197436937897
173587.0,15604.0,173587.0,14527.0,173587.0,39057.0,-1431.9977818901925,-583.4430525278883,-1461.5587095806968
173587.0,15585.0,173587.0,14542.0,173587.0,39079.0,-1429.1848669617677,-571.9823993035009,-1438.3920254468744
173598.0,15602.0,173598.0,14560.0,173598.0,39116.0,-1425.4202529755967,-559.7565524346378,-1413.5166268415182
173598.0,15604.0,173598.0,14599.0,173598.0,39128.0,-1420.673774396524,-546.7712819662672,-1386.935552522578
173598.0,15612.0,173598.0,14592.0,173598.0,39186.0,-1414.9167206220716,-533.0351746903259,-1358.6579587243307
173598.0,15601.0,173598.0,14631.0,173598.0,39172.0,-1408.1218471017864,-518.5594031750721,-1328.6990918074655
173598.0,15599.0,173598.0,14603.0,173598.0,39215.0,-1400.2635309241527,-503.3576649180515,-1297.0803970761845
173598.0,15586.0,173598.0,14616.0,173598.0,39238.0,-1391.31812233957,-487.44637625509966,-1263.829813854006
173608.0,15594.0,173608.0,14666.0,173608.0,39296.0,-1381.2644100678947,-470.84501736747234,-1228.9820132692341
173608.0,15619.0,173608.0,14681.0,173608.0,39347.0,-1370.0840169879127,-453.57622310684735,-1192.5783471338702
173608.0,15633.0,173608.0,14699.0,173608.0,39401.0,-1357.7615326097575,-435.66552793689476,-1154.6665209544542
173608.0,15630.0,173608.0,14716.0,173608.0,39443.0,-1344.284451725174,-417.14115281118615,-1115.3001597264579
173608.0,15648.0,173608.0,14737.0,173608.0,39472.0,-1329.643199002596,-398.03398493935197,-1074.5384956710484
173608.0,15660.0,173608.0,14770.0,173608.0,39531.0,-1313.831294567487,-378.3775795344002,-1032.446283433346
173618.0,15668.0,173618.0,14813.0,173618.0,39603.0,-1296.8455192118834,-358.2080165948495,-989.093740473068
173618.0,15698.0,173618.0,14824.0,173618.0,39645.0,-1278.6860430093768,-337.5635833030477,-944.556251511768
173618.0,15711.0,173618.0,14838.0,173618.0,39710.0,-1259.3565032674837,-316.48449943392234,-898.9139359470842
173618.0,15741.0,173618.0,14876.0,173618.0,39779.0,-1238.8640014506898,-295.0128686932534,-852.2512579271281
173618.0,15732.0,173618.0,14895.0,173618.0,39823.0,-1217.2191160897437,-273.192690761363,-804.6566279222046
173618.0,15762.0,173618.0,14943.0,173618.0,39900.0,-1194.4360771491815,-251.0697303057109,-756.2219991301922
173629.0,15807.0,173629.0,14964.0,173629.0,39963.0,-1170.5330023416745,-228.69124760824195,-707.0424801377072
173629.0,15843.0,173629.0,15024.0,173629.0,40047.0,-1145.531875174836,-206.1056318251093,-657.2158394373047
173629.0,15864.0,173629.0,15055.0,173629.0,40125.0,-1119.4582439024557,-183.36191713836797,-606.8418299170327
173629.0,15883.0,173629.0,15085.0,173629.0,40166.0,-1092.3409907691073,-160.50922880680054,-556.0214495595702
173629.0,15928.0,173629.0,15092.0,173629.0,40228.0,-1064.2123245212042,-137.59638014177887,-504.8564083266059
173629.0,15965.0,173629.0,15145.0,173629.0,40310.0,-1035.107776684586,-114.67173417234363,-453.44885462390096
173639.0,16012.0,173639.0,15180.0,173639.0,40406.0,-1005.0660062853032,-91.78307747922622,-401.9009796191773
173639.0,16025.0,173639.0,15212.0,173639.0,40448.0,-974.1285150700771,-68.97727595264206,-350.3142876639164
173639.0,16061.0,173639.0,15217.0,173639.0,40499.0,-942.3395127949234,-46.29990115743652,-298.7889160424678
173639.0,16101.0,173639.0,15220.0,173639.0,40553.0,-909.7459656381125,-23.795165773535246,-247.42337919903548
173639.0,16121.0,173639.0,15271.0,173639.0,40604.0,-876.397656308892,-1.506162586927644,-196.3145925382887
173639.0,16189.0,173639.0,15299.0,173639.0,40683.0,-842.3471693295041,20.524995100266892,-145.5578589288009
173649.0,16235.0,173649.0,15338.0,173649.0,40761.0,-807.649720949043,42.25738802769456,-95.24661644194953
173649.0,16285.0,173649.0,15366.0,173649.0,40839.0,-772.3627530594422,63.65168580333841,-45.471861265975576
173649.0,16318.0,173649.0,15391.0,173649.0,40866.0,-736.5454694365355,84.67050071274275,3.6785487861197907
173649.0,16371.0,173649.0,15393.0,173649.0,40926.0,-700.2585208897048,105.27859047778736,52.12031039961653
173649.0,16412.0,173649.0,15424.0,173649.0,40983.0,-663.5637888338763,125.44284236915746,99.77275062202216
173649.0,16465.0,173649.0,15460.0,173649.0,41058.0,-626.5241438958068,145.13218957074616,146.5589254221752
173660.0,16522.0,173660.0,15471.0,173660.0,41109.0,-589.2031310041048,164.31769157442568,192.40596819279745
173660.0,16567.0,173660.0,15493.0,173660.0,41165.0,-551.6645688082746,182.97269866449415,237.2455429584536
173660.0,16587.0,173660.0,15508.0,173660.0,41193.0,-513.9721848159412,201.07290310598546,281.0141597797078
173660.0,16627.0,173660.0,15509.0,173660.0,41244.0,-476.189508813203,218.5962637357759,323.65324528743395
173660.0,16698.0,173660.0,15545.0,173660.0,41282.0,-438.37993952873285,235.52285938745865,365.10905945156765
173660.0,16747.0,173660.0,15575.0,173660.0,41356.0,-400.6065919031454,251.83482769397915,405.332679048772
173670.0,16798.0,173670.0,15594.0,173670.0,41387.0,-362.931831840751,267.5165497892267,444.2801952825055
173670.0,16853.0,173670.0,15613.0,173670.0,41430.0,-325.41676150708236,282.55494792235083,481.91300572069986
173670.0,16885.0,173670.0,15618.0,173670.0,41455.0,-288.1208069566668,296.9396637624061,518.1979510355359
173670.0,16932.0,173670.0,15605.0,173670.0,41493.0,-251.10143646911342,310.6630065129574,553.1072451829154
173670.0,16969.0,173670.0,15624.0,173670.0,41509.0,-214.414013739089,323.7196489147017,586.61830128836
173670.0,17016.0,173670.0,15657.0,173670.0,41569.0,-178.11169906041323,336.10630007123973,618.7135492621849
173680.0,17065.0,173680.0,15677.0,173680.0,41597.0,-142.24530159327037,347.82170133159525,649.3803915912251
173680.0,17091.0,173680.0,15661.0,173680.0,41615.0,-106.86307896611265,358.866858319469,678.6113080017183
173680.0,17134.0,173680.0,15665.0,173680.0,41632.0,-72.0105898206798,369.24506393407535,706.403846324379
173680.0,17160.0,173680.0,15684.0,173680.0,41661.0,-37.73067058737843,378.9616212255528,732.7603844604919
173680.0,17219.0,173680.0,15692.0,173680.0,41684.0,-4.063441920042351,388.02361209853257,757.6878659088547
173680.0,17259.0,173680.0,15718.0,173680.0,41710.0,28.953816475519943,396.43990595401067,781.1976565174486
173691.0,17291.0,173691.0,15696.0,173691.0,41726.0,61.286938088074976,404.22126638327927,803.3054736744955
173691.0,17317.0,173691.0,15707.0,173691.0,41731.0,92.90508776086926,411.3803168304894,824.0312702033928
173691.0,17355.0,173691.0,15707.0,173691.0,41735.0,123.78079330907508,417.93131226205014,843.3989631806951
173691.0,17357.0,173691.0,15725.0,173691.0,41772.0,153.8898482623049,423.8899269053645,861.4360576337931
173691.0,17418.0,173691.0,15727.0,173691.0,41765.0,183.2111473402606,429.27321140266986,878.1733707740145
173691.0,17447.0,173691.0,15747.0,173691.0,41797.0,211.72660723155946,434.09967233026305,893.6448923113121
173701.0,17483.0,173701.0,15721.0,173701.0,41782.0,239.4213170492378,438.3893521099877,907.8876382018136
173701.0,17476.0,173701.0,15705.0,173701.0,41772.0,266.2837004918515,442.16370027327457,920.9413591238845
173701.0,17518.0,173701.0,15709.0,173701.0,41785.0,292.30540080665287,445.4451382954353,932.8480316651758
173701.0,17534.0,173701.0,15733.0,173701.0,41803.0,317.481006312109,448.25662896531423,943.651343436253
173701.0,17568.0,173701.0,15722.0,173701.0,41838.0,341.80788996053957,450.62158348458,953.3965147953415
173701.0,17596.0,173701.0,15722.0,173701.0,41809.0,365.2862035986054,452.56394770801546,962.130421374972
173711.0,17605.0,173711.0,15727.0,173711.0,41827.0,387.9189197601597,454.10817940170466,969.9016213281027
173711.0,17617.0,173711.0,15711.0,173711.0,41805.0,409.71177326140105,455.2791278885645,976.7600854340451
173711.0,17635.0,173711.0,15677.0,173711.0,41811.0,430.673023584244,456.101799103737,982.7567782559754
173711.0,17653.0,173711.0,15704.0,173711.0,41818.0,450.8131633413475,456.6009182419929,987.9432627827566
173711.0,17690.0,173711.0,15719.0,173711.0,41802.0,470.1447506517329,456.8005947758098,992.3714058409921
173711.0,17699.0,173711.0,15738.0,173711.0,41841.0,488.68241973549516,456.7244614125117,996.0931927363401
173722.0,17714.0,173722.0,15707.0,173722.0,41814.0,506.4429458805985,456.396065625955,999.1606636190479
173722.0,17708.0,173722.0,15686.0,173722.0,41796.0,523.4451558710136,455.8389605222727,1001.6258403794445
173722.0,17722.0,173722.0,15681.0,173722.0,41774.0,539.709618581544,455.07631821558664,1003.5403368158136
173722.0,17733.0,173722.0,15692.0,173722.0,41806.0,555.2582527520485,454.1304373207096,1004.9547515865795
173722.0,17762.0,173722.0,15725.0,173722.0,41824.0,570.1140556810626,453.02260522688925,1005.9183785720741
173722.0,17786.0,173722.0,15727.0,173722.0,41803.0,584.3010735611099,451.7734257384111,1006.4793827711565
173732.0,17791.0,173732.0,15716.0,173732.0,41789.0,597.8445499822171,450.4033037865362,1006.6849483788635
173732.0,17782.0,173732.0,15671.0,173732.0,41805.0,610.7709927940559,448.9325947797781,1006.5810797667632
173732.0,17803.0,173732.0,15693.0,173732.0,41775.0,623.1079743566211,447.3812540113904,1006.2123047853138
173732.0,17808.0,173732.0,15692.0,173732.0,41816.0,634.8838282497263,445.7684043790174,1005.6215015158705
173732.0,17823.0,173732.0,15698.0,173732.0,41830.0,646.1274682135984,444.1122467569711,1004.8499522705824
173732.0,17817.0,173732.0,15704.0,173732.0,41820.0,656.8682838897923,442.43022336226795,1003.9376882142747
173743.0,17824.0,173743.0,15686.0,173743.0,41778.0,667.1359626792782,440.7391684191,1002.923734719622
173743.0,17819.0,173743.0,15664.0,173743.0,41796.0,676.9602023711675,439.055267470437,1001.8458574905944
173743.0,17817.0,173743.0,15668.0,173743.0,41755.0,686.3703560884376,437.3937600356319,1000.7400409251668
173743.0,17837.0,173743.0,15681.0,173743.0,41792.0,695.3950774059545,435.7686279408184,999.6400698688194
173743.0,17867.0,173743.0,15705.0,173743.0,41787.0,704.0621427870644,434.19261286508856,998.5773633589986
173743.0,17873.0,173743.0,15675.0,173743.0,41799.0,712.3985860071266,432.67752420068894,997.5810936767848
173753.0,17873.0,173753.0,15661.0,173753.0,41782.0,720.4309433208646,431.2343996915316,996.678385296734
173753.0,17855.0,173753.0,15671.0,173753.0,41763.0,728.1852583985672,429.87329383555004,995.8942973308806
173753.0,17879.0,173753.0,15677.0,173753.0,41787.0,735.6867895131568,428.60302963338404,995.251574427308
173753.0,17906.0,173753.0,15693.0,173753.0,41820.0,742.9597561030455,427.4312472744824,994.7705356577985
173753.0,17897.0,173753.0,15662.0,173753.0,41782.0,750.0273971018671,426.36461388765633,994.469335413761
173753.0,17908.0,173753.0,15692.0,173753.0,41795.0,756.9121257422926,425.4089107883817,994.3642010303697
173763.0,17912.0,173763.0,15666.0,173763.0,41766.0,763.6355109313374,424.569000030859,994.4692903794232
173763.0,17908.0,173763.0,15664.0,173763.0,41778.0,770.2181492349462,423.84876317004546,994.7963490216987
173763.0,17924.0,173763.0,15671.0,173763.0,41776.0,776.6795218945499,423.2509675572717,995.3544234800311
173763.0,17923.0,173763.0,15686.0,173763.0,41806.0,783.0378706185506,422.7771794459195,996.1497800155953
173763.0,17938.0,173763.0,15686.0,173763.0,41803.0,789.3101360462963,422.4278978589325,997.186085283525
173763.0,17937.0,173763.0,15680.0,173763.0,41811.0,795.5119360386973,422.2027695311807,998.4646928404618
173774.0,17937.0,173774.0,15666.0,173774.0,41810.0,801.6575164698218,422.10063599299974,999.9848228960404
173774.0,17950.0,173774.0,15677.0,173774.0,41815.0,807.7596396162139,422.119384475165,1001.7436049095229
173774.0,17967.0,173774.0,15695.0,173774.0,41826.0,813.8295027793595,422.25583540245293,1003.7360862689109
173774.0,17971.0,173774.0,15681.0,173774.0,41816.0,819.8767980376122,422.5058446333436,1005.9552617890542
173774.0,17991.0,173774.0,15709.0,173774.0,41855.0,825.9098561048345,422.86449912629087,1008.3921282395152
173774.0,17989.0,173774.0,15694.0,173774.0,41831.0,831.9357768463319,423.3262806953179,1011.0358066297551
173784.0,17970.0,173784.0,15673.0,173784.0,41840.0,837.9604449994172,423.88513123047767,1013.8736515963731
173784.0,17978.0,173784.0,15689.0,173784.0,41822.0,843.9882993321587,424.5342940925076,1016.8911559947494
173784.0,18006.0,173784.0,15682.0,173784.0,41876.0,850.0220088592898,425.2660694934692,1020.0717664605563
173784.0,18025.0,173784.0,15717.0,173784.0,41876.0,856.0624384609519,426.07177954809606,1023.3969787313074
173784.0,18022.0,173784.0,15716.0,173784.0,41885.0,862.1089240598469,426.9420059817086,1026.846731478977
173784.0,18033.0,173784.0,15697.0,173784.0,41893.0,868.1595052039768,427.866896379085,1030.3997390307736
173794.0,18044.0,173794.0,15695.0,173794.0,41897.0,874.2109713941147,428.8362134592029,1034.0336219661294
173794.0,18059.0,173794.0,15702.0,173794.0,41904.0,880.2588901901543,429.8391135293266,1037.7249597262248
173794.0,18061.0,173794.0,15715.0,173794.0,41924.0,886.2977102942748,430.86399646054224,1041.4493529822314
173794.0,18091.0,173794.0,15731.0,173794.0,41950.0,892.3208932117166,431.8986197912169,1045.1816037788672
173794.0,18087.0,173794.0,15757.0,173794.0,41951.0,898.3210777181125,432.9304368591536,1048.8960668599775
173794.0,18083.0,173794.0,15715.0,173794.0,41938.0,904.2902125879341,433.946981268645,1052.566954429116
173805.0,18098.0,173805.0,15728.0,173805.0,41966.0,910.2195161649042,434.935970253513,1056.1683826849678
173805.0,18105.0,173805.0,15749.0,173805.0,41970.0,916.0993561300074,435.88513138662756,1059.6743431017903
173805.0,18117.0,173805.0,15754.0,173805.0,41997.0,921.9192379615654,436.7822002758412,1063.0588623779724
173805.0,18143.0,173805.0,15765.0,173805.0,41990.0,927.6679206166054,437.61520701956607,1066.2962952312203
173805.0,18143.0,173805.0,15757.0,173805.0,41997.0,933.3336294196336,438.3727563547649,1069.3615424379204
173805.0,18139.0,173805.0,15755.0,173805.0,41999.0,938.9042471245805,439.04412784287706,1072.2301018559851
173815.0,18142.0,173815.0,15758.0,173815.0,42002.0,944.3672973509458,439.6192227700898,1074.878028122682
173815.0,18160.0,173815.0,15767.0,173815.0,42021.0,949.7097875726745,440.0884977464317,1077.2819232461525
173815.0,18195.0,173815.0,15774.0,173815.0,42044.0,954.9182115778574,440.443016873284,1079.41907219617
173815.0,18195.0,173815.0,15772.0,173815.0,42058.0,959.9788534826821,440.67459850397455,1081.2677930578102
173815.0,18190.0,173815.0,15758.0,173815.0,42043.0,964.8781448199868,440.7759030837781,1082.8078446315906
173815.0,18186.0,173815.0,15767.0,173815.0,42044.0,969.6027311145976,440.7403611484614,1084.0205967169447
173825.0,18214.0,173825.0,15764.0,173825.0,42063.0,974.1393070744496,440.5620449298939,1084.8889596869344
173825.0,18219.0,173825.0,15764.0,173825.0,42093.0,978.4745709366614,440.2356173486826,1085.3974341796845
173825.0,18238.0,173825.0,15767.0,173825.0,42080.0,982.5954137543274,439.75633227921685,1085.5324635947634
173825.0,18258.0,173825.0,15794.0,173825.0,42102.0,986.4892125142635,439.12009840287817,1085.2828328824664
173825.0,18248.0,173825.0,15780.0,173825.0,42095.0,990.144126323466,438.3236958457181,1084.639907642754
173825.0,18242.0,173825.0,15764.0,173825.0,42068.0,993.5492442935013,437.36498383396145,1083.5977098478784
173836.0,18254.0,173836.0,15770.0,173836.0,42074.0,996.6944822980399,436.24284448230685,1082.1527555918183
173836.0,18267.0,173836.0,15782.0,173836.0,42080.0,999.5704434741551,434.95701456362735,1080.303766368405
173836.0,18285.0,173836.0,15776.0,173836.0,42094.0,1002.1684957619498,433.5081027839782,1078.0515899322518
173836.0,18278.0,173836.0,15775.0,173836.0,42092.0,1004.4810141722166,431.8977237658363,1075.3993935216133
173836.0,18278.0,173836.0,15731.0,173836.0,42055.0,1006.5015492635093,430.12846539980313,1072.3528339538425
173836.0,18284.0,173836.0,15769.0,173836.0,42071.0,1008.2248127957469,428.20360654172987,1068.9199353370782
173846.0,18293.0,173846.0,15755.0,173846.0,42063.0,1009.6466204075666,426.12688043723756,1065.1108219491118
173846.0,18290.0,173846.0,15786.0,173846.0,42051.0,1010.7639230331274,423.9025711376389,1060.9375893478043
173846.0,18299.0,173846.0,15784.0,173846.0,42059.0,1011.5748745796175,421.5358577898087,1056.4142627963622
173846.0,18317.0,173846.0,15768.0,173846.0,42038.0,1012.0789157287675,419.03315976430804,1051.5567353576728
173846.0,18296.0,173846.0,15742.0,173846.0,42025.0,1012.2769164209944,416.4022112727009,1046.3826609213625
173846.0,18293.0,173846.0,15747.0,173846.0,42016.0,1012.1712313339444,413.6517762224436,1040.9112328463561
173856.0,18299.0,173856.0,15746.0,173856.0,42034.0,1011.7655529776935,410.7913045957021,1035.1629630030134
173856.0,18334.0,173856.0,15757.0,173856.0,41996.0,1011.0648274402336,407.8308356534865,1029.1596305895794
173856.0,18307.0,173856.0,15740.0,173856.0,42005.0,1010.0754653933222,404.78110313950447,1022.9242584011265
173856.0,18288.0,173856.0,15712.0,173856.0,42002.0,1008.8055385707503,401.65355479143614,1016.4810004966065
173856.0,18278.0,173856.0,15725.0,173856.0,41967.0,1007.2645689121528,398.46011379729157,1009.8550477774113
173856.0,18289.0,173856.0,15696.0,173856.0,41965.0,1005.4630962971871,395.21285384506837,1003.0724697499074
173867.0,18281.0,173867.0,15717.0,173867.0,41964.0,1003.4124353827979,391.9237897554884,996.1599410671861
173867.0,18282.0,173867.0,15710.0,173867.0,41959.0,1001.1246495400251,388.604817713497,989.1445908081766
173867.0,18299.0,173867.0,15711.0,173867.0,41927.0,998.6125958198988,385.26779661578746,982.0539837522626
173867.0,18269.0,173867.0,15696.0,173867.0,41932.0,995.890010203459,381.9246426547918,974.9159879039552
173867.0,18265.0,173867.0,15686.0,173867.0,41888.0,992.9715011794112,378.58727688119603,967.7584869039547
173867.0,18261.0,173867.0,15686.0,173867.0,41908.0,989.8723378793195,375.2674476208882,960.6090497569659
173877.0,18259.0,173877.0,15701.0,173877.0,41893.0,986.608216459475,371.976611520358,953.4946986386321
173877.0,18259.0,173877.0,15686.0,173877.0,41898.0,983.1951681606045,368.7260043828986,946.441889244323
173877.0,18249.0,173877.0,15688.0,173877.0,41861.0,979.6495458055824,365.5267759539853,939.4765611465501
173877.0,18248.0,173877.0,15651.0,173877.0,41840.0,975.9879931039154,362.3899596114523,932.6239679144596
173877.0,18227.0,173877.0,15657.0,173877.0,41827.0,972.2273496903767,359.32620577037216,925.9082315186512
173877.0,18225.0,173877.0,15654.0,173877.0,41825.0,968.3844691013013,356.3454466171359,919.3518751979295
173887.0,18237.0,173887.0,15656.0,173887.0,41837.0,964.4760321195466,353.456736701384,912.975611262238
173887.0,18221.0,173887.0,15655.0,173887.0,41843.0,960.5185067247006,350.6682852564561,906.7984559594609
173887.0,18208.0,173887.0,15650.0,173887.0,41838.0,956.5281731622598,347.9875281768649,900.8380432406644
173887.0,18207.0,173887.0,15632.0,173887.0,41793.0,952.5210112293177,345.4211240347007,895.1108251527176
173887.0,18204.0,173887.0,15616.0,173887.0,41784.0,948.5125200822445,342.9747828275774,889.6318608000697
173887.0,18208.0,173887.0,15663.0,173887.0,41803.0,944.517650162825,340.6530385489088,884.4143592901634
173898.0,18207.0,173898.0,15663.0,173898.0,41815.0,940.5508609092024,338.4593438317438,879.4695185345615
173898.0,18188.0,173898.0,15638.0,173898.0,41787.0,936.626194487819,336.3964844940291,874.806768761283
173898.0,18173.0,173898.0,15645.0,173898.0,41781.0,932.7572031818479,334.46679579864804,870.4339427772966
173898.0,18172.0,173898.0,15635.0,173898.0,41768.0,928.9566915333157,332.6720427225467,866.3571156631031
173898.0,18169.0,173898.0,15634.0,173898.0,41779.0,925.23645898602,331.0132677166685,862.5803564925716
173898.0,18165.0,173898.0,15637.0,173898.0,41785.0,921.6071883264588,329.4907172054934,859.1056671087915
173908.0,18172.0,173908.0,15656.0,173908.0,41775.0,918.0784431167591,328.10386500681284,855.933117943729
173908.0,18165.0,173908.0,15652.0,173908.0,41779.0,914.6587231820821,326.8516014690599,853.0609926098477
173908.0,18157.0,173908.0,15616.0,173908.0,41769.0,911.3555232028516,325.732412277826,850.4858218606108
173908.0,18155.0,173908.0,15630.0,173908.0,41774.0,908.1753091407999,324.74425352735136,848.2023555432055
173908.0,18160.0,173908.0,15624.0,173908.0,41767.0,905.1234507078274,323.8842445300437,846.2035333672626
173908.0,18165.0,173908.0,15647.0,173908.0,41784.0,902.2042432343466,323.1485548437049,844.4804951336537
173918.0,18162.0,173918.0,15655.0,173918.0,41812.0,899.42104102449,322.5325888202046,843.0227460025078
173918.0,18148.0,173918.0,15636.0,173918.0,41792.0,896.7763684930119,322.03128161560835,841.818529700557
173918.0,18143.0,173918.0,15648.0,173918.0,41783.0,894.2718733860086,321.63924777151317,840.8551307299817
173918.0,18139.0,173918.0,15632.0,173918.0,41769.0,891.9081523605603,321.3507299125066,840.1188023985812
173918.0,18151.0,173918.0,15632.0,173918.0,41789.0,889.6846168406463,321.15947725169536,839.5944829797636
173918.0,18166.0,173918.0,15657.0,173918.0,41809.0,887.5995529340239,321.05865730119615,839.26571126329
173929.0,18156.0,173929.0,15641.0,173929.0,41810.0,885.6503713812618,321.0409143184131,839.114891739303
173929.0,18163.0,173929.0,15634.0,173929.0,41821.0,883.8338533131556,321.09848768881227,839.1236853123818
173929.0,18153.0,173929.0,15647.0,173929.0,41836.0,882.1462482137989,321.2231779921859,839.2733217145161
173929.0,18144.0,173929.0,15648.0,173929.0,41817.0,880.5832424055701,321.4062763549042,839.5448382522532
173929.0,18148.0,173929.0,15643.0,173929.0,41827.0,879.1398386522354,321.6386152032634,839.919188827446
173929.0,18169.0,173929.0,15681.0,173929.0,41836.0,877.8102805864629,321.91069010603394,840.3772218193037
173939.0,18167.0,173939.0,15666.0,173939.0,41842.0,876.5881961633904,322.212891451033,840.899725766775
173939.0,18153.0,173939.0,15649.0,173939.0,41830.0,875.4668409258861,322.5357511451279,841.4675657306155
173939.0,18150.0,173939.0,15654.0,173939.0,41821.0,874.4391478470304,322.86990918372106,842.0616923937963
173939.0,18154.0,173939.0,15658.0,173939.0,41848.0,873.4975799199626,323.2058894392229,842.663002258156
173939.0,18149.0,173939.0,15666.0,173939.0,41857.0,872.6340083336257,323.53401888579094,843.2523369210126
173939.0,18143.0,173939.0,15704.0,173939.0,41858.0,871.8396630256044,323.8446018715625,843.8107454952433
173950.0,18153.0,173950.0,15686.0,173950.0,41850.0,871.1050749277357,324.12830927418355,844.3197436588439
173950.0,18170.0,173950.0,15673.0,173950.0,41856.0,870.4200891137216,324.3765197652851,844.7613594770844
173950.0,18156.0,173950.0,15655.0,173950.0,41855.0,869.7740381978524,324.5812633791529,845.1180698026626
173950.0,18164.0,173950.0,15668.0,173950.0,41859.0,869.1559204854534,324.7348567080439,845.3727735421818
173950.0,18174.0,173950.0,15690.0,173950.0,41880.0,868.554471913648,324.82967520219574,845.508852947999
173950.0,18171.0,173950.0,15689.0,173950.0,41871.0,867.958257606667,324.8582995996812,845.5103477713766
173960.0,18182.0,173960.0,15681.0,173960.0,41849.0,867.3558259064928,324.813814122556,845.3620971039004
173960.0,18166.0,173960.0,15688.0,173960.0,41866.0,866.7358240608876,324.68993692895884,845.0496430027886
173960.0,18178.0,173960.0,15674.0,173960.0,41852.0,866.0870212973281,324.48097899484145,844.5590259077621
173960.0,18180.0,173960.0,15678.0,173960.0,41864.0,865.3982983370045,324.18175102723774,843.8766949269962
173960.0,18186.0,173960.0,15673.0,173960.0,41877.0,864.6587150157576,323.78745299696277,842.9895496334674
173960.0,18184.0,173960.0,15696.0,173960.0,41898.0,863.8576462518353,323.2936294317071,841.8851563061185
173970.0,18176.0,173970.0,15675.0,173970.0,41888.0,862.9848673133482,322.69625943079916,840.5521329635483
173970.0,18173.0,173970.0,15677.0,173970.0,41859.0,862.0305178978144,321.9918439318518,838.9804101480722
173970.0,18163.0,173970.0,15660.0,173970.0,41861.0,860.9849655917028,321.1773183425105,837.1610986701164
173970.0,18178.0,173970.0,15684.0,173970.0,41862.0,859.8386621210891,320.24987767044644,835.0861487962785
173970.0,18194.0,173970.0,15689.0,173970.0,41888.0,858.5821505556635,319.206965192047,832.7482200792138
173970.0,18204.0,173970.0,15690.0,173970.0,41864.0,857.206329006843,318.0464935558761,830.1408612516595
173981.0,18179.0,173981.0,15653.0,173981.0,41873.0,855.702799106321,316.7670231756174,827.2587191226667
173981.0,18170.0,173981.0,15650.0,173981.0,41842.0,854.063953499813,315.36758632599106,824.0975358588801
173981.0,18159.0,173981.0,15651.0,173981.0,41853.0,852.2827216774667,313.84726627023366,820.6539631540247
173981.0,18188.0,173981.0,15683.0,173981.0,41855.0,850.352284016936,312.2049726236761,816.9253877011505
173981.0,18176.0,173981.0,15691.0,173981.0,41872.0,848.2660659218793,310.4396699961214,812.9099765178105
173981.0,18183.0,173981.0,15669.0,173981.0,41831.0,846.0179454935608,308.5508332889551,808.606885542607
173991.0,18179.0,173991.0,15650.0,173991.0,41831.0,843.6024199571752,306.53863791227496,804.0162855035112
173991.0,18176.0,173991.0,15667.0,173991.0,41821.0,841.0146703261752,304.40375541796976,799.1391079446855
173991.0,18158.0,173991.0,15661.0,173991.0,41824.0,838.2505467412695,302.1471430964059,793.9768048453998
173991.0,18168.0,173991.0,15666.0,173991.0,41820.0,835.3064564256438,299.77007440923296,788.5313019118721
173991.0,18186.0,173991.0,15658.0,173991.0,41826.0,832.1793041453528,297.2742544006025,782.8050847822801
173991.0,18147.0,173991.0,15660.0,173991.0,41811.0,828.8666087367044,294.6618743360438,776.801333083482
174000.0,18152.0,174000.0,15650.0,174000.0,41808.0,825.3665468820097,291.93561158295347,770.5240091637024
174000.0,18142.0,174000.0,15604.0,174000.0,41769.0,821.6777582682298,289.0985018073637,763.9777921145793
174000.0,18147.0,174000.0,15618.0,174000.0,41783.0,817.7991550335519,286.15355388427935,757.1678326683133
174000.0,18152.0,174000.0,15659.0,174000.0,41770.0,813.7299176808151,283.10339479429797,750.0995089293436
174000.0,18146.0,174000.0,15664.0,174000.0,41771.0,809.4696248751986,279.950476647685,742.7783770507175
174000.0,18136.0,174000.0,15620.0,174000.0,41788.0,805.0183835844903,276.6976373049194,735.2103045369525
174011.0,18120.0,174011.0,15629.0,174011.0,41753.0,800.3768179126532,273.34827787610885,727.4016949219817
174011.0,18127.0,174011.0,15612.0,174011.0,41732.0,795.5459247163956,269.90608819743255,719.3595810184682
174011.0,18112.0,174011.0,15619.0,174011.0,41747.0,790.5269497866962,266.3747876532305,711.0914387966187
174011.0,18119.0,174011.0,15627.0,174011.0,41718.0,785.3213594401051,262.75807955018576,702.6049928411333
174011.0,18109.0,174011.0,15630.0,174011.0,41728.0,779.9308690278111,259.0597946382888,693.9081973016594
174011.0,18106.0,174011.0,15586.0,174011.0,41683.0,774.3574898622561,255.28405568773107,685.0092139980371
174021.0,18082.0,174021.0,15581.0,174021.0,41708.0,768.6035236734942,251.4351392013262,675.9162842115747
174021.0,18074.0,174021.0,15582.0,174021.0,41686.0,762.671417508996,247.51705841432667,666.6376375799642
174021.0,18084.0,174021.0,15590.0,174021.0,41667.0,756.5635579272301,243.53329445013603,657.1815167520265
174021.0,18093.0,174021.0,15615.0,174021.0,41692.0,750.2822533224585,239.48691430200506,647.5562062286904
174021.0,18087.0,174021.0,15614.0,174021.0,41671.0,743.8299892973702,235.3809885055674,637.770127854642
174021.0,18059.0,174021.0,15557.0,174021.0,41638.0,737.2096898735634,231.21896234162722,627.8320087588343
174031.0,18051.0,174031.0,15567.0,174031.0,41623.0,730.4246930398451,227.00454738989572,617.7507976729146
174031.0,18059.0,174031.0,15572.0,174031.0,41630.0,723.4785356558915,222.7412911714707,607.5353475563267
174031.0,18050.0,174031.0,15583.0,174031.0,41623.0,716.374873420624,218.43242782908078,597.1942811234372
174031.0,18039.0,174031.0,15587.0,174031.0,41626.0,709.117576263945,214.0811331772337,586.7361563596407
174031.0,18041.0,174031.0,15576.0,174031.0,41577.0,701.7108027403046,209.69086224320907,576.169656517668
174031.0,18015.0,174031.0,15552.0,174031.0,41588.0,694.1589986553516,205.26549396561933,565.5035371818994
174042.0,18001.0,174042.0,15526.0,174042.0,41571.0,686.4668056226475,200.80914127571893,554.7464272548165
174042.0,18009.0,174042.0,15528.0,174042.0,41556.0,678.6388773818906,196.32570940936296,543.906738568585
174042.0,18014.0,174042.0,15558.0,174042.0,41554.0,670.6798182414234,191.8185787310589,532.9926615797615
174042.0,18012.0,174042.0,15549.0,174042.0,41549.0,662.5943952705807,187.29073371616857,522.0121821129225
174042.0,17986.0,174042.0,15530.0,174042.0,41539.0,654.3878156454314,182.7451194184023,510.97318364278317
174042.0,17966.0,174042.0,15528.0,174042.0,41525.0,646.0657613835385,178.1847618906607,499.8835761639391
174052.0,17963.0,174052.0,15504.0,174052.0,41465.0,637.6341570116299,173.61260186796045,488.751242945727
174052.0,17954.0,174052.0,15541.0,174052.0,41495.0,629.0989310409749,169.03132088670722,477.5837037284391
174052.0,17943.0,174052.0,15526.0,174052.0,41509.0,620.4659349798225,164.44340663830963,466.38787456372347
174052.0,17951.0,174052.0,15536.0,174052.0,41477.0,611.7409650496536,159.85144532556112,455.17031867829985
174052.0,17948.0,174052.0,15503.0,174052.0,41423.0,602.9298803414486,155.2583474980478,443.9375226774692
174052.0,17894.0,174052.0,15496.0,174052.0,41465.0,594.0387342479164,150.66728467034235,432.6956838473468
174062.0,17897.0,174062.0,15483.0,174062.0,41428.0,585.0736275636964,146.08139936311707,421.4504434418545
174062.0,17896.0,174062.0,15488.0,174062.0,41417.0,576.0403478156442,141.50352119350623,410.206927997253
174062.0,17891.0,174062.0,15495.0,174062.0,41441.0,566.944227701119,136.93608319165486,398.96984552440364
174062.0,17879.0,174062.0,15488.0,174062.0,41419.0,557.7902689914852,132.38124837011986,387.7436424786186
174062.0,17868.0,174062.0,15473.0,174062.0,41390.0,548.5832484047902,127.84106433053407,376.53274968033674
174062.0,17859.0,174062.0,15462.0,174062.0,41400.0,539.3277121906507,123.31744346310197,365.3416276451318
174073.0,17852.0,174073.0,15456.0,174073.0,41385.0,530.0279402179194,118.81197878998273,354.1746900999564
174073.0,17848.0,174073.0,15469.0,174073.0,41358.0,520.6879522688654,114.32579371494197,343.03632409819835
174073.0,17849.0,174073.0,15487.0,174073.0,41370.0,511.311592824817,109.85963204638435,331.93088921206345
174073.0,17831.0,174073.0,15470.0,174073.0,41342.0,501.902675995334,105.41419634916068,320.86268149035095
174073.0,17819.0,174073.0,15446.0,174073.0,41325.0,492.4650791573807,100.99041282521455,309.8359207246363
174073.0,17788.0,174073.0,15450.0,174073.0,41284.0,483.0026637541178,96.58934949454257,298.85458279538767
174083.0,17789.0,174083.0,15424.0,174083.0,41304.0,473.51903729190155,92.2119414476706,287.92204862824275
174083.0,17790.0,174083.0,15462.0,174083.0,41299.0,464.0173547340505,87.85881455122907,277.0409116394385
174083.0,17790.0,174083.0,15451.0,174083.0,41302.0,454.50036559238765,83.53037554501819,266.2131661675573
174083.0,17779.0,174083.0,15428.0,174083.0,41307.0,444.97065197040354,79.22707136945962,255.44060478588335
174083.0,17754.0,174083.0,15429.0,174083.0,41254.0,435.43080247536057,74.94946153273162,244.72513098338715
174083.0,17750.0,174083.0,15406.0,174083.0,41236.0,425.88337417931166,70.69802255223635,234.0687099001383
174093.0,17744.0,174093.0,15433.0,174093.0,41251.0,416.3307599173383,66.47295360636099,223.4729955026225
174093.0,17751.0,174093.0,15434.0,174093.0,41243.0,406.7751854701731,62.27421206114616,212.93913601575923
174093.0,17729.0,174093.0,15432.0,174093.0,41259.0,397.21887095338616,58.101793029166686,202.4680064729821
174093.0,17716.0,174093.0,15409.0,174093.0,41220.0,387.66416003592155,53.9559817796202,192.0605809734335
174093.0,17705.0,174093.0,15414.0,174093.0,41193.0,378.11347525141656,49.837346268208165,181.71805403327335
174093.0,17680.0,174093.0,15379.0,174093.0,41195.0,368.56916205851354,45.746542629414535,171.44159564245115
174104.0,17682.0,174104.0,15399.0,174104.0,41168.0,359.0333126376126,41.684071226152696,161.2320293778173
174104.0,17682.0,174104.0,15410.0,174104.0,41171.0,349.5076685088975,37.65015727633323,151.08967233307214
174104.0,17679.0,174104.0,15400.0,174104.0,41181.0,339.9937192769359,33.64491591304292,141.01433683703203
174104.0,17665.0,174104.0,15376.0,174104.0,41146.0,330.49292053958925,29.66857298828873,131.00548382784962
174104.0,17631.0,174104.0,15372.0,174104.0,41127.0,321.00678401428854,25.72139555807388,121.06231134617019
174104.0,17642.0,174104.0,15376.0,174104.0,41126.0,311.53673459695756,21.803441321029993,111.18357781272891
174114.0,17644.0,174114.0,15396.0,174114.0,41149.0,302.08397512415274,17.9144912709329,101.36746164683632
174114.0,17630.0,174114.0,15389.0,174114.0,41129.0,292.64960770651743,14.054286982919166,91.6117830806279
174114.0,17623.0,174114.0,15382.0,174114.0,41127.0,283.23485374014916,10.222847903968841,81.91438180232569
174114.0,17600.0,174114.0,15344.0,174114.0,41100.0,273.8411216139493,6.420542832994158,72.27329634127307
174114.0,17586.0,174114.0,15358.0,174114.0,41092.0,264.4698998079322,2.6478285678914517,62.68669668836128
174114.0,17575.0,174114.0,15340.0,174114.0,41061.0,255.12255830696648,-1.095087279451775,53.15267746909012
174124.0,17570.0,174124.0,15336.0,174124.0,41096.0,245.80017970348848,-4.808434680129778,43.66906148148871
174124.0,17586.0,174124.0,15357.0,174124.0,41087.0,236.503557555795,-8.49293699206271,34.23347067021746
174124.0,17554.0,174124.0,15372.0,174124.0,41066.0,227.23338220035754,-12.149661310699798,24.84366864946287
174124.0,17542.0,174124.0,15335.0,174124.0,41054.0,217.99038733094346,-15.779671442013068,15.497776172397948
174124.0,17535.0,174124.0,15324.0,174124.0,41034.0,208.77526708814747,-19.383892258559626,6.194173431381273
174124.0,17519.0,174124.0,15354.0,174124.0,41036.0,199.588511363564,-22.963310877580454,-3.068696240231702
174135.0,17528.0,174135.0,15348.0,174135.0,41049.0,190.4303434521047,-26.519037035607823,-12.292372297621341
174135.0,17515.0,174135.0,15339.0,174135.0,41005.0,181.30078634211856,-30.052058708264894,-21.47823000055223
174135.0,17500.0,174135.0,15316.0,174135.0,41018.0,172.19978680162149,-33.56310375672632,-30.627385340694673
174135.0,17484.0,174135.0,15318.0,174135.0,40982.0,163.12723738173082,-37.05280994299778,-39.74079754786612
174135.0,17477.0,174135.0,15299.0,174135.0,40988.0,154.08285586076124,-40.52200294273297,-48.819431529859116
174135.0,17464.0,174135.0,15315.0,174135.0,40962.0,145.06605164784105,-43.97189008021337,-57.86439522049625
174145.0,17465.0,174145.0,15330.0,174145.0,40989.0,136.0758681964261,-47.404054406201226,-66.87700121414889
174145.0,17465.0,174145.0,15328.0,174145.0,40956.0,127.11103382342333,-50.820186346422815,-75.85866968198184
174145.0,17450.0,174145.0,15321.0,174145.0,40949.0,118.17011286537843,-54.22173500872475,-84.81079597898338
174145.0,17445.0,174145.0,15312.0,174145.0,40931.0,109.25164387944335,-57.60974825397582,-93.73479539098128
174145.0,17421.0,174145.0,15291.0,174145.0,40931.0,100.3541576732249,-60.98495410423516,-102.63226426860933
174145.0,17420.0,174145.0,15291.0,174145.0,40933.0,91.47608532540016,-64.34799643536516,-111.50503692022926
174156.0,17437.0,174156.0,15306.0,174156.0,40939.0,82.61570802005917,-67.69964279497296,-120.35503703017969
174156.0,17408.0,174156.0,15300.0,174156.0,40909.0,73.77130456781424,-71.04075992904043,-129.18402271079128
174156.0,17390.0,174156.0,15291.0,174156.0,40898.0,64.94131452983186,-74.37213794254865,-137.99348416813666
174156.0,17391.0,174156.0,15276.0,174156.0,40881.0,56.12426200746074,-77.69444234150347,-146.78480118663617
174156.0,17374.0,174156.0,15272.0,174156.0,40868.0,47.3185939469563,-81.00836881019438,-155.55949444200257
174156.0,17384.0,174156.0,15296.0,174156.0,40890.0,38.522653589493984,-84.31479225977239,-164.31936620380372
174166.0,17380.0,174166.0,15255.0,174166.0,40884.0,29.734801255641514,-87.61474215742012,-173.06637657882732
174166.0,17367.0,174166.0,15277.0,174166.0,40875.0,20.953623824768783,-90.90935993494222,-181.80230785904143
174166.0,17352.0,174166.0,15272.0,174166.0,40862.0,12.178079153874364,-94.19994165455861,-190.52851035722108
174166.0,17340.0,174166.0,15249.0,174166.0,40833.0,3.407462148030504,-97.4879404262312,-199.2459057428896
174166.0,17325.0,174166.0,15265.0,174166.0,40840.0,-5.358736657439522,-100.77498519978897,-207.95517700906532
174166.0,17321.0,174166.0,15257.0,174166.0,40840.0,-14.120972725491924,-104.06294219419198,-216.65691433878703
174176.0,17319.0,174176.0,15314.0,174176.0,40824.0,-22.87971244082962,-107.35376594884687,-225.3515509073046
174176.0,17305.0,174176.0,15235.0,174176.0,40821.0,-31.635390960835252,-110.64911160868596,-234.03922824124368
174176.0,17294.0,174176.0,15264.0,174176.0,40794.0,-40.38835404998656,-113.95015562595304,-242.71978337881785
174176.0,17277.0,174176.0,15245.0,174176.0,40773.0,-49.13889519207305,-117.25781303398347,-251.3929043757828
174176.0,17288.0,174176.0,15255.0,174176.0,40790.0,-57.88734142707676,-120.57294246482036,-260.058379286765
174176.0,17273.0,174176.0,15260.0,174176.0,40788.0,-66.63403815158335,-123.89631020081441,-268.71617150320526
174187.0,17266.0,174187.0,15243.0,174187.0,40780.0,-75.37923085243699,-127.22845691740866,-277.3662000353137
174187.0,17255.0,174187.0,15224.0,174187.0,40762.0,-84.12299149860235,-130.5696694663344,-286.00809997021895
174187.0,17241.0,174187.0,15236.0,174187.0,40734.0,-92.86524018074215,-133.92015482146888,-294.6412342930639
174187.0,17225.0,174187.0,15237.0,174187.0,40759.0,-101.60583164417744,-137.28019761674187,-303.26488828057643
174187.0,17238.0,174187.0,15232.0,174187.0,40733.0,-110.344652080184,-140.65010294548284,-311.87835305155363
174187.0,17233.0,174187.0,15244.0,174187.0,40715.0,-119.08157440473485,-144.0300397654891,-320.48086389685886
174197.0,17202.0,174197.0,15231.0,174197.0,40721.0,-127.81628215153273,-147.4198962076282,-329.0716362611904
174197.0,17200.0,174197.0,15222.0,174197.0,40679.0,-136.5482331661683,-150.81919333152337,-337.65001357049323
174197.0,17188.0,174197.0,15201.0,174197.0,40676.0,-145.27681168502397,-154.2271686384994,-346.2156722918886
174197.0,17176.0,174197.0,15210.0,174197.0,40682.0,-154.00145632885358,-157.64301519150308,-354.7688660345499
174197.0,17169.0,174197.0,15235.0,174197.0,40700.0,-162.72171748749645,-161.06600923544318,-363.31043954919585
174197.0,17168.0,174197.0,15199.0,174197.0,40679.0,-171.43728459080944,-164.4953563523684,-371.8414972705127
174207.0,17163.0,174207.0,15206.0,174207.0,40676.0,-180.1479326911192,-167.930031402532,-380.3630542241244
174207.0,17141.0,174207.0,15203.0,174207.0,40653.0,-188.85342277474888,-171.36884095958936,-388.87594044805064
174207.0,17145.0,174207.0,15183.0,174207.0,40643.0,-197.55347723750947,-174.81054030612574,-397.3809143795248
174207.0,17125.0,174207.0,15198.0,174207.0,40648.0,-206.2478204174281,-178.253913961085,-405.87881721470364
174207.0,17132.0,174207.0,15189.0,174207.0,40659.0,-214.9361890827953,-181.69782180318202,-414.37056180033426
174207.0,17143.0,174207.0,15197.0,174207.0,40634.0,-223.61823193974328,-185.14113797703965,-422.856899369957
174218.0,17116.0,174218.0,15168.0,174218.0,40629.0,-232.29326781774273,-188.5826696405602,-431.33821706577817
174218.0,17087.0,174218.0,15155.0,174218.0,40598.0,-240.96013730152663,-192.02125998675643,-439.8145847883966
174218.0,17074.0,174218.0,15176.0,174218.0,40612.0,-249.61741294271076,-195.45605331761362,-448.28595827456707
174218.0,17074.0,174218.0,15161.0,174218.0,40583.0,-258.26377786081514,-198.88662876757905,-456.75233198314424
174218.0,17056.0,174218.0,15189.0,174218.0,40597.0,-266.89823481893484,-202.31287116284432,-465.2137770331925
174218.0,17073.0,174218.0,15169.0,174218.0,40584.0,-275.5201073666508,-205.73472069271463,-473.6703965767157
174228.0,17058.0,174228.0,15184.0,174228.0,40572.0,-284.1289039156279,-209.15194103775588,-482.12223301079007
174228.0,17036.0,174228.0,15135.0,174228.0,40579.0,-292.72415000822014,-212.5640415498155,-490.56919583664444
174228.0,17031.0,174228.0,15158.0,174228.0,40556.0,-301.3053851005466,-215.9704486082403,-499.01101624005173
174228.0,17038.0,174228.0,15167.0,174228.0,40540.0,-309.872271262715,-219.3707136778724,-507.4472466135601
174228.0,17035.0,174228.0,15147.0,174228.0,40552.0,-318.42454061298315,-222.7644666720209,-515.8773556250582
174228.0,17022.0,174228.0,15170.0,174228.0,40547.0,-326.9617754301081,-226.15123403551115,-524.3007508818625
174238.0,17000.0,174238.0,15160.0,174238.0,40513.0,-335.48327796997023,-229.53029560248427,-532.7166624280704
174238.0,16986.0,174238.0,15141.0,174238.0,40511.0,-343.9881757122198,-232.90056810564352,-541.1241623234981
174238.0,16973.0,174238.0,15150.0,174238.0,40482.0,-352.4756709947908,-236.260616548597,-549.5224134221634
174238.0,16971.0,174238.0,15149.0,174238.0,40499.0,-360.9452569779895,-239.60874895595094,-557.910924772579
174238.0,16972.0,174238.0,15143.0,174238.0,40516.0,-369.39678056553896,-242.94300229546872,-566.2895627265151
174238.0,16972.0,174238.0,15123.0,174238.0,40489.0,-377.830325993247,-246.26111069528247,-574.6582469458822
174249.0,16949.0,174249.0,15122.0,174249.0,40470.0,-386.24602635187114,-249.56063410721623,-583.0166692783877
174249.0,16942.0,174249.0,15092.0,174249.0,40463.0,-394.64399529971354,-252.83922320434442,-591.3643653760449
174249.0,16922.0,174249.0,15103.0,174249.0,40445.0,-403.02443765259795,-256.09492952205267,-599.7009711011015
174249.0,16921.0,174249.0,15107.0,174249.0,40475.0,-411.38782147427526,-259.32642532663226,-608.0263500593019
174249.0,16921.0,174249.0,15100.0,174249.0,40451.0,-419.7349700020085,-262.53300173146744,-616.340462756377
174249.0,16924.0,174249.0,15099.0,174249.0,40437.0,-428.06698232737847,-265.71445640861356,-624.6431352361518
174259.0,16892.0,174259.0,15097.0,174259.0,40401.0,-436.3850617346949,-268.87104293650924,-632.9340813563396
174259.0,16886.0,174259.0,15081.0,174259.0,40411.0,-444.6904924881926,-272.00348786335206,-641.2132293029703
174259.0,16892.0,174259.0,15124.0,174259.0,40394.0,-452.9847812223494,-275.1129884595924,-649.4810265340788
174259.0,16890.0,174259.0,15113.0,174259.0,40424.0,-461.2696795761758,-278.20100900381334,-657.7384681663691
174259.0,16884.0,174259.0,15110.0,174259.0,40417.0,-469.54699493532314,-281.26889782835394,-665.9868204609893
174259.0,16869.0,174259.0,15098.0,174259.0,40398.0,-477.81839969662406,-284.31766506666276,-674.2272235404539
174269.0,16862.0,174269.0,15087.0,174269.0,40383.0,-486.0853867331766,-287.34805260416374,-682.4605072160517
174269.0,16847.0,174269.0,15060.0,174269.0,40390.0,-494.34933458308785,-290.3607828723359,-690.6872806058449
174269.0,16851.0,174269.0,15075.0,174269.0,40332.0,-502.6115831541118,-293.3568974161425,-698.9080992181489
174269.0,16851.0,174269.0,15095.0,174269.0,40371.0,-510.87341466890825,-296.33795045730557,-707.1236872203564
174269.0,16826.0,174269.0,15079.0,174269.0,40376.0,-519.1359357634983,-299.30585302352074,-715.3350469067374
174269.0,16818.0,174269.0,15077.0,174269.0,40335.0,-527.4000387883156,-302.2626124649512,-723.5432408300787
174280.0,16817.0,174280.0,15061.0,174280.0,40328.0,-535.6665090618008,-305.2102991885883,-731.7492371455089
174280.0,16799.0,174280.0,15058.0,174280.0,40298.0,-543.9361141291179,-308.1512122151453,-739.9541641907593
174280.0,16795.0,174280.0,15062.0,174280.0,40331.0,-552.209630480466,-311.0880552853238,-748.1596525007074
174280.0,16786.0,174280.0,15098.0,174280.0,40343.0,-560.4878825838338,-314.0239190449604,-756.3678068600362
174280.0,16796.0,174280.0,15094.0,174280.0,40337.0,-568.7717375455637,-316.9619235161833,-764.5807375143622
174280.0,16773.0,174280.0,15061.0,174280.0,40287.0,-577.0619946639941,-319.90477170028885,-772.8001179571307
174290.0,16752.0,174290.0,15036.0,174290.0,40264.0,-585.3593196067843,-322.8547343112024,-781.0273055150612
174290.0,16751.0,174290.0,15065.0,174290.0,40283.0,-593.6643790151304,-325.81407162424136,-789.2638809952683
174290.0,16766.0,174290.0,15066.0,174290.0,40269.0,-601.9779852858678,-328.7852933444242,-797.5119799956847
174290.0,16753.0,174290.0,15075.0,174290.0,40292.0,-610.3009762866304,-331.7709670282576,-805.7741770276531
174290.0,16728.0,174290.0,15059.0,174290.0,40255.0,-618.6339858076936,-334.7733987741097,-814.053197609157
174290.0,16725.0,174290.0,15039.0,174290.0,40232.0,-626.9774366171172,-337.7945442995414,-822.3518204951932
174300.0,16704.0,174300.0,15030.0,174300.0,40242.0,-635.3317318170949,-340.83622521010125,-830.6730954303329
174300.0,16710.0,174300.0,15040.0,174300.0,40230.0,-643.6974239036747,-343.9004520706655,-839.0205788477292
174300.0,16704.0,174300.0,15053.0,174300.0,40246.0,-652.0752542604927,-346.98953649436885,-847.3982980244741
174300.0,16700.0,174300.0,15040.0,174300.0,40231.0,-660.4660590231865,-350.10591932964553,-855.8105225052775
174300.0,16685.0,174300.0,15063.0,174300.0,40215.0,-668.8706445034078,-353.2519233154542,-864.261559205919
174300.0,16666.0,174300.0,15015.0,174300.0,40203.0,-677.2897778566529,-356.42961023996,-872.7557410546788
174311.0,16663.0,174311.0,15018.0,174311.0,40192.0,-685.7243192784945,-359.6408760948532,-881.2975867735736
174311.0,16657.0,174311.0,15031.0,174311.0,40210.0,-694.1753641641427,-362.88773558876886,-889.8919151221227
174311.0,16664.0,174311.0,15049.0,174311.0,40196.0,-702.6442434257721,-366.1723972849295,-898.5437454900136
174311.0,16644.0,174311.0,15034.0,174311.0,40186.0,-711.1323880057022,-369.49697347199594,-907.2580797999414
174311.0,16635.0,174311.0,15019.0,174311.0,40186.0,-719.6412234905969,-372.8632112292434,-916.0397820998116
174311.0,16623.0,174311.0,15000.0,174311.0,40147.0,-728.1722101354638,-376.27257043887266,-924.8936062784011
174321.0,16613.0,174321.0,15014.0,174321.0,40142.0,-736.726961470764,-379.72652321853974,-933.8243798430142
174321.0,16624.0,174321.0,15017.0,174321.0,40158.0,-745.3073058575676,-383.22672259819444,-942.837252537288
174321.0,16607.0,174321.0,15022.0,174321.0,40162.0,-753.9152120153531,-386.7748865898767,-951.9376797765589
174321.0,16596.0,174321.0,15023.0,174321.0,40136.0,-762.552663462103,-390.37254735339894,-961.1311103804227
174321.0,16595.0,174321.0,14975.0,174321.0,40135.0,-771.2216295376264,-394.0209284882655,-970.4227710307467
174321.0,16580.0,174321.0,14996.0,174321.0,40099.0,-779.9240944979973,-397.72113253794976,-979.8177354879591
174331.0,16569.0,174331.0,14986.0,174331.0,40110.0,-788.6620778367768,-401.47445450735694,-989.3211428085259
174331.0,16577.0,174331.0,14991.0,174331.0,40112.0,-797.4376599364729,-405.2824813709572,-998.938333695016
174331.0,16562.0,174331.0,15016.0,174331.0,40112.0,-806.2529441804279,-409.14694514920546,-1008.6747226779639
174331.0,16552.0,174331.0,14962.0,174331.0,40096.0,-815.109959507863,-413.0695015194105,-1018.5355152399981
174331.0,16525.0,174331.0,14977.0,174331.0,40055.0,-824.0106733384476,-417.0517050851787,-1028.5256036236724
174331.0,16515.0,174331.0,14937.0,174331.0,40061.0,-832.9571937269573,-421.0953026737662,-1038.6497949585716
174342.0,16517.0,174342.0,14984.0,174342.0,40064.0,-841.9520210471713,-425.20255521701284,-1048.9130983469831
174342.0,16529.0,174342.0,14979.0,174342.0,40089.0,-850.9981022428775,-429.3762279352112,-1059.3206518419636
174342.0,16508.0,174342.0,14974.0,174342.0,40049.0,-860.0986207835608,-433.61924875112754,-1069.877305347586
174342.0,16509.0,174342.0,14968.0,174342.0,40035.0,-869.2567549604148,-437.9344051881754,-1080.5873348528794
174342.0,16496.0,174342.0,14975.0,174342.0,40026.0,-878.4755804873906,-442.3242658437466,-1091.454548905574
174342.0,16473.0,174342.0,14940.0,174342.0,40004.0,-887.7580849282814,-446.7911968319721,-1102.482542318238
174352.0,16484.0,174352.0,14966.0,174352.0,40014.0,-897.1072513539116,-451.3374427570882,-1113.6748460409121
174352.0,16485.0,174352.0,14943.0,174352.0,39992.0,-906.5260755447268,-455.96521749969753,-1125.0349427265546
174352.0,16465.0,174352.0,14971.0,174352.0,39996.0,-916.0174012923015,-460.67665903527734,-1136.566190373168
174352.0,16440.0,174352.0,14959.0,174352.0,39984.0,-925.5838003617412,-465.47363607191045,-1148.2717186900754
174352.0,16443.0,174352.0,14936.0,174352.0,39953.0,-935.2277014202418,-470.3575521478819,-1160.1543668877996
174352.0,16426.0,174352.0,14928.0,174352.0,39951.0,-944.9515816671158,-475.329377834077,-1172.2167599294112
174362.0,16442.0,174362.0,14943.0,174362.0,39952.0,-954.7579944300929,-480.3898664738109,-1184.4614462499708
174362.0,16431.0,174362.0,14930.0,174362.0,39971.0,-964.6494083640999,-485.53962558526734,-1196.890803420063
174362.0,16425.0,174362.0,14911.0,174362.0,39956.0,-974.6279573351118,-490.77904592472004,-1209.5066287009995
174362.0,16402.0,174362.0,14915.0,174362.0,39909.0,-984.6952830477002,-496.108353297163,-1222.3097624985342
174362.0,16368.0,174362.0,14901.0,174362.0,39914.0,-994.8526261759988,-501.52776084005785,-1235.3001210719258
174362.0,16376.0,174362.0,14914.0,174362.0,39901.0,-1005.1011396364142,-507.03753558971823,-1248.4769664560554
174373.0,16385.0,174373.0,14922.0,174373.0,39904.0,-1015.442118378644,-512.6378983740763,-1261.8389805224074
174373.0,16371.0,174373.0,14949.0,174373.0,39877.0,-1025.8768785261523,-518.3286942899583,-1275.3841270120256
174373.0,16357.0,174373.0,14911.0,174373.0,39870.0,-1036.4064902210766,-524.1089167347393,-1289.10955657186
174373.0,16331.0,174373.0,14896.0,174373.0,39844.0,-1047.0317182842207,-529.9764634374492,-1303.011654023418
174373.0,16331.0,174373.0,14887.0,174373.0,39838.0,-1057.7531888706535,-535.9283370145879,-1317.0861611727412
174373.0,16330.0,174373.0,14888.0,174373.0,39844.0,-1068.5715372261075,-541.9609825122983,-1331.3282376646937
174383.0,16320.0,174383.0,14887.0,174383.0,39839.0,-1079.4873604600616,-548.070417996785,-1345.732312287904
174383.0,16307.0,174383.0,14876.0,174383.0,39837.0,-1090.5010724541462,-554.2521825900719,-1360.291743102265
174383.0,16296.0,174383.0,14861.0,174383.0,39800.0,-1101.6128409991181,-560.5013024272812,-1374.9985152531963
174383.0,16283.0,174383.0,14868.0,174383.0,39773.0,-1112.822621314477,-566.8123596756345,-1389.843225607259
174383.0,16284.0,174383.0,14843.0,174383.0,39761.0,-1124.1301928549683,-573.1795797792315,-1404.8153747057145
174383.0,16270.0,174383.0,14869.0,174383.0,39773.0,-1135.5351245282354,-579.5968581788596,-1419.9036405186566
174394.0,16282.0,174394.0,14852.0,174394.0,39766.0,-1147.036648094711,-586.057678124061,-1435.0958004235754
174394.0,16264.0,174394.0,14862.0,174394.0,39760.0,-1158.6334519083211,-592.5549157286774,-1450.3783685575909
174394.0,16255.0,174394.0,14835.0,174394.0,39747.0,-1170.3234739509708,-599.0806741428039,-1465.7362423813074
174394.0,16225.0,174394.0,14815.0,174394.0,39694.0,-1182.1038459845674,-605.6263190888018,-1481.1525774554107
174394.0,16224.0,174394.0,14805.0,174394.0,39690.0,-1193.9710273388562,-612.1827544663572,-1496.6090002003343
174394.0,16212.0,174394.0,14807.0,174394.0,39677.0,-1205.920966529598,-618.7407521204909,-1512.0859810938439
174404.0,16216.0,174404.0,14852.0,174404.0,39684.0,-1217.949116780728,-625.2909940552204,-1527.5629823669747
174404.0,16219.0,174404.0,14836.0,174404.0,39676.0,-1230.050263083623,-631.8236493045997,-1543.0182674997927
174404.0,16176.0,174404.0,14804.0,174404.0,39658.0,-1242.2182843894252,-638.3278378933703,-1558.4285836487986
174404.0,16169.0,174404.0,14791.0,174404.0,39634.0,-1254.4461182357722,-644.7915549216566,-1573.7689767477332
174404.0,16159.0,174404.0,14818.0,174404.0,39598.0,-1266.725972528075,-651.2019620361882,-1589.0128837191035
174404.0,16158.0,174404.0,14792.0,174404.0,39643.0,-1279.0494791211256,-657.5454861054659,-1604.1323447526033
174414.0,16162.0,174414.0,14795.0,174414.0,39622.0,-1291.4076012461571,-663.807683014541,-1619.0979115278633
174414.0,16143.0,174414.0,14795.0,174414.0,39600.0,-1303.7903881457978,-669.9731564098036,-1633.8782219310535
174414.0,16119.0,174414.0,14773.0,174414.0,39584.0,-1316.1867977967854,-676.0255440042895,-1648.439746126159
174414.0,16110.0,174414.0,14756.0,174414.0,39555.0,-1328.5847499412116,-681.9475840835771,-1662.7468992743197
174414.0,16101.0,174414.0,14746.0,174414.0,39538.0,-1340.9712944314338,-687.721363925328,-1676.7623115178676
174414.0,16095.0,174414.0,14769.0,174414.0,39553.0,-1353.3326787401325,-693.3285726005361,-1690.4470560285354
174425.0,16094.0,174425.0,14761.0,174425.0,39533.0,-1365.6542705316529,-698.750473389355,-1703.7606460957227
174425.0,16072.0,174425.0,14731.0,174425.0,39509.0,-1377.920416688532,-703.9677097312103,-1716.6608753668474
174425.0,16057.0,174425.0,14730.0,174425.0,39499.0,-1390.1143748566196,-708.9603318453671,-1729.1038162246539
174425.0,16029.0,174425.0,14724.0,174425.0,39455.0,-1402.218425272149,-713.7080567894704,-1741.0440545669871
174425.0,16043.0,174425.0,14754.0,174425.0,39468.0,-1414.2140804382443,-718.1903922590149,-1752.4350328878613
174425.0,16042.0,174425.0,14747.0,174425.0,39470.0,-1426.082132162505,-722.386422411058,-1763.229278491375
174435.0,16040.0,174435.0,14742.0,174435.0,39460.0,-1437.802407035455,-726.2744425587377,-1773.3783179930842
174435.0,16018.0,174435.0,14725.0,174435.0,39454.0,-1449.3534434634053,-729.831779353311,-1782.8324415410123
174435.0,16008.0,174435.0,14716.0,174435.0,39426.0,-1460.7123600655632,-733.03490441449,-1791.5406198585401
174435.0,15982.0,174435.0,14705.0,174435.0,39408.0,-1471.8549464866103,-735.859702504581,-1799.45067285532
174435.0,15981.0,174435.0,14726.0,174435.0,39436.0,-1482.755857964373,-738.2816987034455,-1806.5095477697398
174435.0,15979.0,174435.0,14709.0,174435.0,39391.0,-1493.3887545593252,-740.2760996534687,-1812.6634474673406
174445.0,15971.0,174445.0,14709.0,174445.0,39400.0,-1503.7262705117553,-741.8177326368303,-1817.8578733426825
174445.0,15941.0,174445.0,14709.0,174445.0,39392.0,-1513.7399279057418,-742.8810674444564,-1822.037788956711
174445.0,15941.0,174445.0,14680.0,174445.0,39376.0,-1523.400208014642,-743.4403481581098,-1825.1478110543385
174445.0,15939.0,174445.0,14682.0,174445.0,39360.0,-1532.6767124413986,-743.4698518582995,-1827.1324155718196
174445.0,15936.0,174445.0,14696.0,174445.0,39372.0,-1541.5381802554716,-742.9442062803345,-1827.9362474398026
174445.0,15937.0,174445.0,14683.0,174445.0,39364.0,-1549.9523438952006,-741.838540589984,-1827.5043801461225
174456.0,15917.0,174456.0,14684.0,174456.0,39371.0,-1557.8857766259416,-740.1285065229351,-1825.782421610253
174456.0,15907.0,174456.0,14648.0,174456.0,39343.0,-1565.3038681873427,-737.7904479387012,-1822.7166259914902
174456.0,15882.0,174456.0,14684.0,174456.0,39316.0,-1572.170990421489,-734.801768141904,-1818.254251983236
174456.0,15879.0,174456.0,14671.0,174456.0,39335.0,-1578.450797334061,-731.1412245529352,-1812.3442077743878
174456.0,15880.0,174456.0,14671.0,174456.0,39333.0,-1584.1065008623902,-726.7890118177273,-1804.937652483869
174456.0,15871.0,174456.0,14700.0,174456.0,39331.0,-1589.1009879324129,-721.726789866404,-1795.988318935303
174466.0,15866.0,174466.0,14688.0,174466.0,39318.0,-1593.3968346313452,-715.937675773234,-1785.4527880225367
174466.0,15851.0,174466.0,14661.0,174466.0,39319.0,-1596.9563745202358,-709.4062627447539,-1773.2909509048689
174466.0,15836.0,174466.0,14671.0,174466.0,39332.0,-1599.7418951477966,-702.1189460516239,-1759.4665612645972
174466.0,15847.0,174466.0,14692.0,174466.0,39354.0,-1601.7159154104206,-694.0644066418142,-1743.947644162496
174466.0,15855.0,174466.0,14706.0,174466.0,39338.0,-1602.841356767848,-685.2337995562791,-1726.7067262271817
174466.0,15848.0,174466.0,14706.0,174466.0,39366.0,-1603.081500242577,-675.6206495323127,-1707.7211047414214
174476.0,15828.0,174476.0,14710.0,174476.0,39370.0,-1602.399944913923,-665.2207981101419,-1686.9732293592233
174476.0,15812.0,174476.0,14692.0,174476.0,39389.0,-1600.760846340726,-654.0325926793619,-1664.4510595659235
174476.0,15808.0,174476.0,14709.0,174476.0,39379.0,-1598.1294138236922,-642.0572872390632,-1640.1484287943817
174476.0,15818.0,174476.0,14733.0,174476.0,39435.0,-1594.4724005279922,-629.2994343329347,-1614.0654904532123
174476.0,15823.0,174476.0,14769.0,174476.0,39463.0,-1589.7583710451659,-615.7669665783412,-1586.2090234470543
174476.0,15844.0,174476.0,14773.0,174476.0,39492.0,-1583.9577353210448,-601.4709474014012,-1556.5924231352387
174487.0,15819.0,174487.0,14779.0,174487.0,39509.0,-1577.0427037650416,-586.4253286814612,-1525.2356304670143
174487.0,15817.0,174487.0,14805.0,174487.0,39551.0,-1568.9874215064965,-570.6469537452866,-1492.1652457472978
174487.0,15831.0,174487.0,14811.0,174487.0,39594.0,-1559.7683595929007,-554.1556737161637,-1457.4146887679626
174487.0,15839.0,174487.0,14833.0,174487.0,39678.0,-1549.364686709837,-536.9744228668133,-1421.024115045718
174487.0,15838.0,174487.0,14888.0,174487.0,39699.0,-1537.7584582548138,-519.1291976897052,-1383.0399919660617
174487.0,15858.0,174487.0,14897.0,174487.0,39748.0,-1524.934771162932,-500.6488114467975,-1343.5146249473896
174497.0,15861.0,174497.0,14903.0,174497.0,39775.0,-1510.8819477938848,-481.5645589465509,-1302.5059842471128
174497.0,15870.0,174497.0,14925.0,174497.0,39836.0,-1495.5917149529323,-461.9101528610876,-1260.0777780964772
174497.0,15898.0,174497.0,14965.0,174497.0,39883.0,-1479.0593905592148,-441.72185569164157,-1216.2994950564803
174497.0,15911.0,174497.0,15002.0,174497.0,39970.0,-1461.284009416262,-421.03841368758793,-1171.246233415448
174497.0,15922.0,174497.0,15035.0,174497.0,40025.0,-1442.2683700167272,-399.90069845300206,-1124.998254664032
174497.0,15960.0,174497.0,15066.0,174497.0,40067.0,-1422.0190995452658,-378.35125938339473,-1077.6404225367658
174507.0,15973.0,174507.0,15080.0,174507.0,40165.0,-1400.5466985332214,-356.43397786563025,-1029.2617658450395
174507.0,15997.0,174507.0,15100.0,174507.0,40212.0,-1377.8655244712568,-334.19392305142753,-979.9550631927509
174507.0,16026.0,174507.0,15160.0,174507.0,40298.0,-1353.9938051023287,-311.6773207639475,-929.8162847960905
174507.0,16063.0,174507.0,15197.0,174507.0,40378.0,-1328.9536485460576,-288.93132444939226,-878.9439531643507
174507.0,16108.0,174507.0,15220.0,174507.0,40424.0,-1302.7709120476113,-266.0035097770775,-827.4384741781967
174507.0,16122.0,174507.0,15271.0,174507.0,40491.0,-1275.4749468459647,-242.94137670878735,-775.4015851334541
174518.0,16163.0,174518.0,15287.0,174518.0,40560.0,-1247.0984045042946,-219.7919769007167,-722.9360318528746
174518.0,16182.0,174518.0,15305.0,174518.0,40613.0,-1217.6772008881235,-196.60164466623348,-670.1453116976028
174518.0,16215.0,174518.0,15319.0,174518.0,40706.0,-1187.250571971105,-173.41594937598336,-617.1333536792633
174518.0,16268.0,174518.0,15350.0,174518.0,40775.0,-1155.8611211380753,-150.27984957971483,-564.0040695852578
174518.0,16314.0,174518.0,15398.0,174518.0,40850.0,-1123.5547049313604,-127.23777821647133,-510.86073430208137
174518.0,16347.0,174518.0,15427.0,174518.0,40904.0,-1090.380121454545,-104.33344901175684,-457.8053639901366
174528.0,16389.0,174528.0,15443.0,174528.0,40972.0,-1056.388810413878,-81.60950404550044,-404.93827697358574
174528.0,16408.0,174528.0,15471.0,174528.0,41027.0,-1021.6347291604675,-59.10729653890519,-352.3578198763977
174528.0,16475.0,174528.0,15522.0,174528.0,41128.0,-986.1743544954761,-36.8668014090718,-300.16008778642663
174528.0,16539.0,174528.0,15527.0,174528.0,41192.0,-950.066559570216,-14.926423572480019,-248.43842479564535
174528.0,16585.0,174528.0,15571.0,174528.0,41263.0,-913.3721596549781,6.677258846367181,-197.28271597200228
174528.0,16626.0,174528.0,15561.0,174528.0,41302.0,-876.1533292661597,27.909619320467186,-146.77877534792083
174538.0,16667.0,174538.0,15579.0,174538.0,41349.0,-838.4732246211322,48.73788585853731,-97.00807998093478
174538.0,16714.0,174538.0,15618.0,174538.0,41381.0,-800.395823574097,69.13089200745867,-48.04785539983595
174538.0,16757.0,174538.0,15657.0,174538.0,41462.0,-761.9858170648708,89.05899268468636,0.028692580395500045
174538.0,16824.0,174538.0,15693.0,174538.0,41535.0,-723.308434654049,108.49436036648785,47.15237050022574
174538.0,16866.0,174538.0,15709.0,174538.0,41587.0,-684.4291372883657,127.41145819595187,93.25840088819882
174538.0,16923.0,174538.0,15697.0,174538.0,41635.0,-645.4132197048477,145.78731652181176,138.28694771218397
174549.0,16960.0,174549.0,15733.0,174549.0,41655.0,-606.3254559428709,163.60142953635858,182.18336505190427
174549.0,17011.0,174549.0,15754.0,174549.0,41724.0,-567.2298546556859,180.8355196523894,224.89811831686825
174549.0,17064.0,174549.0,15785.0,174549.0,41779.0,-528.1894715295282,197.47353455645816,266.38669548501525
174549.0,17113.0,174549.0,15806.0,174549.0,41825.0,-489.2661755496223,213.50187348559894,306.60978519809214
174549.0,17185.0,174549.0,15793.0,174549.0,41842.0,-450.52030231082665,228.9095801650443,345.53353293086
174549.0,17193.0,174549.0,15801.0,174549.0,41891.0,-412.01025105642805,243.68825190769076,383.1295446224601
174559.0,17254.0,174559.0,15822.0,174559.0,41903.0,-373.7922359809712,257.83169154247855,419.3746631574834
174559.0,17287.0,174559.0,15846.0,174559.0,41948.0,-335.9202566862857,271.3356505290899,454.250690641195
174559.0,17340.0,174559.0,15864.0,174559.0,41985.0,-298.44607347613066,284.19786381313304,487.7441563917316
174559.0,17391.0,174559.0,15879.0,174559.0,42020.0,-261.41905419453406,296.41823490229365,519.8462263629494
174559.0,17423.0,174559.0,15872.0,174559.0,42064.0,-224.88593949714596,307.9989506528341,550.5527544425377
174559.0,17464.0,174559.0,15874.0,174559.0,42073.0,-188.89064840068409,318.9443780400453,579.8643585423881
174569.0,17508.0,174569.0,15891.0,174569.0,42098.0,-153.4741954473792,329.26078129651717,607.7863678196122
174569.0,17543.0,174569.0,15922.0,174569.0,42130.0,-118.67463306197044,338.9561345077134,634.3286025652915
174569.0,17600.0,174569.0,15917.0,174569.0,42155.0,-84.52693277253661,348.04020552986515,659.5051707558068
174569.0,17632.0,174569.0,15910.0,174569.0,42170.0,-51.06278584542588,356.524674199939,683.3343760725029
174569.0,17666.0,174569.0,15906.0,174569.0,42159.0,-18.310380886469602,364.42296680065215,705.8385406419413
174569.0,17680.0,174569.0,15921.0,174569.0,42177.0,13.705672629228275,371.74988533203225,727.043555732615
174580.0,17704.0,174580.0,15917.0,174580.0,42198.0,44.96416856024484,378.52131852917967,746.9783054059071
174580.0,17755.0,174580.0,15939.0,174580.0,42210.0,75.4470104047964,384.75412117345275,765.6742597830585
174580.0,17792.0,174580.0,15935.0,174580.0,42261.0,105.13909586795126,390.46609845219484,783.1653341436852
174580.0,17801.0,174580.0,15946.0,174580.0,42265.0,134.02842480549884,395.6760280418516,799.4879824899531
174580.0,17834.0,174580.0,15924.0,174580.0,42249.0,162.10612343506,400.40361006002524,814.6813160417071
174580.0,17858.0,174580.0,15938.0,174580.0,42264.0,189.36627188119724,404.6692633336354,828.7868872910879
174590.0,17881.0,174590.0,15952.0,174590.0,42280.0,215.8057195079307,408.4938968679969,841.8482193080088
174590.0,17915.0,174590.0,15969.0,174590.0,42298.0,241.4239691874434,411.8989027535938,853.9105019190199
174590.0,17946.0,174590.0,15960.0,174590.0,42306.0,266.2231346624617,414.9063597175067,865.0205403806306
174590.0,17970.0,174590.0,15952.0,174590.0,42306.0,290.20799328582007,417.53915116521387,875.2267345070254
174590.0,17976.0,174590.0,15941.0,174590.0,42298.0,313.38602277043833,419.82080677017314,884.5789046099333
174590.0,18002.0,174590.0,15925.0,174590.0,42276.0,335.76727204631663,421.7751296099282,893.127879720508
174601.0,18019.0,174601.0,15959.0,174601.0,42303.0,357.36412063057605,423.42581451293336,900.9249173221795
174601.0,18053.0,174601.0,15959.0,174601.0,42315.0,378.191108328414,424.79633005377013,908.0212646145208
174601.0,18054.0,174601.0,15958.0,174601.0,42325.0,398.264877370641,425.91009378923366,914.4680842923278
174601.0,18081.0,174601.0,15940.0,174601.0,42313.0,417.6040990305926,426.79059594522187,920.3165286752599
174601.0,18094.0,174601.0,15941.0,174601.0,42302.0,436.2293255012984,427.46124616533245,925.6176124589324
174601.0,18103.0,174601.0,15928.0,174601.0,42328.0,454.1628271478444,427.94507005855087,930.4218743441559
174611.0,18108.0,174611.0,15949.0,174611.0,42323.0,471.4283861460848,428.2644591891277,934.7791233882654
174611.0,18148.0,174611.0,15950.0,174611.0,42331.0,488.0510417484812,428.44111138113965,938.738389873934
174611.0,18145.0,174611.0,15963.0,174611.0,42332.0,504.05694426582295,428.4961768054095,942.347907074381
174611.0,18147.0,174611.0,15926.0,174611.0,42323.0,519.4732764882474,428.4504087993423,945.6550110296018
174611.0,18165.0,174611.0,15914.0,174611.0,42321.0,534.3280211222407,428.32401720269627,948.705942613162
174611.0,18179.0,174611.0,15932.0,174611.0,42328.0,548.6496522974489,428.13623770765275,951.5455827446228
174621.0,18192.0,174621.0,15958.0,174621.0,42331.0,562.4669586894106,427.9050860770343,954.2172508009692
174621.0,18197.0,174621.0,15957.0,174621.0,42331.0,575.8089507997031,427.64759005073597,956.7626173986794
174621.0,18209.0,174621.0,15939.0,174621.0,42346.0,588.7047219515039,427.3801603969101,959.2216674157328
174621.0,18227.0,174621.0,15941.0,174621.0,42333.0,601.1832802825213,427.11866343253473,961.6326815547359
174621.0,18240.0,174621.0,15924.0,174621.0,42325.0,613.2734519867558,426.87820864877267,964.0321542097604
174621.0,18248.0,174621.0,15917.0,174621.0,42319.0,625.0038609441622,426.67285330305515,966.4545330767228
174632.0,18258.0,174632.0,15961.0,174632.0,42354.0,636.4028866730562,426.515387415325,968.9319230178066
174632.0,18277.0,174632.0,15957.0,174632.0,42361.0,647.4985794475238,426.41744156307584,971.4940728196348
174632.0,18279.0,174632.0,15943.0,174632.0,42366.0,658.3185984501597,426.3898462315186,974.1686539294953
174632.0,18276.0,174632.0,15936.0,174632.0,42336.0,668.8901275368371,426.44277283924635,976.9814457032123
174632.0,18284.0,174632.0,15914.0,174632.0,42350.0,679.2396523737448,426.585492168202,979.9561550945225
174632.0,18294.0,174632.0,15940.0,174632.0,42353.0,689.3926587865533,426.8260129558638,983.1140682817779
174642.0,18313.0,174642.0,15943.0,174642.0,42378.0,699.3734315840732,427.17091403103586,986.4738997655747
174642.0,18338.0,174642.0,15958.0,174642.0,42360.0,709.2050481538472,427.62548711329214,990.0518787290519
174642.0,18340.0,174642.0,15958.0,174642.0,42379.0,718.9095275984396,428.1940220950777,993.8618231430323
174642.0,18344.0,174642.0,15930.0,174642.0,42378.0,728.5079525347842,428.8799675034386,997.9150999088201
174642.0,18351.0,174642.0,15930.0,174642.0,42376.0,738.0204049980739,429.6857858919835,1002.2205596395854
174642.0,18364.0,174642.0,15946.0,174642.0,42392.0,747.4657926745624,430.612627501382,1006.784461907547
174652.0,18377.0,174652.0,15991.0,174652.0,42435.0,756.8617327883981,431.6602713777286,1011.6104938851383
174652.0,18387.0,174652.0,15956.0,174652.0,42432.0,766.2245335114446,432.82749985785176,1016.7000764572897
174652.0,18401.0,174652.0,15961.0,174652.0,42411.0,775.5692156673279,434.1124409724931,1022.0527249590295
174652.0,18392.0,174652.0,15960.0,174652.0,42425.0,784.9094973057322,435.5125145363179,1027.666023323791
174652.0,18401.0,174652.0,15962.0,174652.0,42418.0,794.2576536466174,437.02422887959517,1033.5352946348178
174652.0,18418.0,174652.0,15967.0,174652.0,42461.0,803.6242863604873,438.6430934151181,1039.6533810029437
174663.0,18431.0,174663.0,15980.0,174663.0,42439.0,813.0181900002951,440.3636370378957,1046.0106806605959
174663.0,18445.0,174663.0,16003.0,174663.0,42473.0,822.4463840547801,442.1795567886487,1052.5952725163336
174663.0,18457.0,174663.0,15973.0,174663.0,42463.0,831.9142010628989,444.08396457817514,1059.3929706340891
174663.0,18462.0,174663.0,15977.0,174663.0,42472.0,841.4253394988816,446.06946302158156,1066.3873090265868
174663.0,18481.0,174663.0,16017.0,174663.0,42540.0,850.9818630457851,448.1280202501307,1073.5595806723327
174663.0,18513.0,174663.0,15987.0,174663.0,42543.0,860.5842392331522,450.25099606811466,1080.889204493032
174673.0,18508.0,174673.0,16014.0,174673.0,42541.0,870.2315165373509,452.42931971573626,1088.3543318519341
174673.0,18533.0,174673.0,15993.0,174673.0,42566.0,879.9215185092366,454.6535402453526,1095.9321893318859
174673.0,18515.0,174673.0,15996.0,174673.0,42550.0,889.6508768755461,456.91373361563967,1103.5990856454214
174673.0,18537.0,174673.0,16010.0,174673.0,42568.0,899.4148874989801,459.19936192667774,1111.330308049157
174673.0,18549.0,174673.0,16014.0,174673.0,42598.0,909.2073147825438,461.4992186852851,1119.1000264098388
174673.0,18576.0,174673.0,16042.0,174673.0,42601.0,919.0203430011347,463.80157174774763,1126.8813736950387
174683.0,18578.0,174683.0,16039.0,174683.0,42622.0,928.8447132179369,466.0944537091384,1134.6466814664766
174683.0,18600.0,174683.0,16035.0,174683.0,42626.0,938.6698800972542,468.3659321484042,1142.3676648279677
174683.0,18599.0,174683.0,16026.0,174683.0,42637.0,948.4840816592111,470.6041597668669,1150.015509155708
174683.0,18626.0,174683.0,16042.0,174683.0,42674.0,958.2743506528327,472.797220996599,1157.5609526191927
174683.0,18645.0,174683.0,16059.0,174683.0,42692.0,968.0265691176753,474.9330527133369,1164.9745273242008
174683.0,18658.0,174683.0,16081.0,174683.0,42703.0,977.7256414343669,476.99964585991063,1172.2269741907846
174694.0,18674.0,174694.0,16062.0,174694.0,42703.0,987.3557094217845,478.9854109939464,1179.289577530393
174694.0,18670.0,174694.0,16063.0,174694.0,42717.0,996.9002723586345,480.87937423276753,1186.1342583714377
174694.0,18690.0,174694.0,16047.0,174694.0,42729.0,1006.3421679236278,482.6710481436478,1192.7335549576792
174694.0,18693.0,174694.0,16057.0,174694.0,42745.0,1015.6634854224958,484.350141857821,1199.0606694184141
174694.0,18735.0,174694.0,16085.0,174694.0,42759.0,1024.8455595934497,485.9063940720375,1205.0896179286567
174694.0,18753.0,174694.0,16093.0,174694.0,42753.0,1033.8691831868323,487.3297336686849,1210.7953941607318
174704.0,18745.0,174704.0,16088.0,174704.0,42788.0,1042.7149620231985,488.61065091032674,1216.1540679449795
174704.0,18777.0,174704.0,16068.0,174704.0,42767.0,1051.3635359025225,489.7403930024119,1221.142862448036
174704.0,18776.0,174704.0,16082.0,174704.0,42777.0,1059.7956315897538,490.71082850469674,1225.7401843372172
174704.0,18797.0,174704.0,16086.0,174704.0,42799.0,1067.9921265925614,491.5142439593867,1229.9255530308374
174704.0,18817.0,174704.0,16116.0,174704.0,42813.0,1075.9341668556044,492.14338263005277,1233.679630084151
174704.0,18832.0,174704.0,16126.0,174704.0,42843.0,1083.603355182134,492.59178226505503,1236.9845132963
174714.0,18831.0,174714.0,16094.0,174714.0,42832.0,1090.9819745671414,492.8541753425665,1239.8241545029705
174714.0,18843.0,174714.0,16088.0,174714.0,42837.0,1098.0530932363824,492.9265553548904,1242.1846466438662
174714.0,18845.0,174714.0,16087.0,174714.0,42830.0,1104.8005276822726,492.80585061501716,1244.054247057734
174714.0,18868.0,174714.0,16083.0,174714.0,42852.0,1111.2087957896942,492.4895740352204,1245.4232730458327
174714.0,18891.0,174714.0,16140.0,174714.0,42866.0,1117.2632022391315,491.9757646812173,1246.2841331691443
174714.0,18909.0,174714.0,16111.0,174714.0,42873.0,1122.9501254962918,491.26331225085215,1246.6315836379742
174725.0,18907.0,174725.0,16114.0,174725.0,42840.0,1128.2573854405703,490.3523832413975,1246.462977311683
174725.0,18903.0,174725.0,16072.0,174725.0,42843.0,1133.1744391076722,489.2444651701619,1245.7781877553416
174725.0,18903.0,174725.0,16092.0,174725.0,42862.0,1137.692297684667,487.941994439975,1244.5793156983495
174725.0,18923.0,174725.0,16102.0,174725.0,42873.0,1141.8033330705543,486.44801099905646,1242.8706251445915
174725.0,18931.0,174725.0,16119.0,174725.0,42869.0,1145.5012272625916,484.7662060128719,1240.6588062067963
174725.0,18944.0,174725.0,16099.0,174725.0,42887.0,1148.7811194591636,482.90124709826244,1237.95328322986
174735.0,18939.0,174735.0,16099.0,174735.0,42846.0,1151.639795259168,480.85898030232573,1234.7663838265598
174735.0,18938.0,174735.0,16077.0,174735.0,42833.0,1154.0757562188962,478.6463427285437,1231.1132329312316
174735.0,18947.0,174735.0,16062.0,174735.0,42812.0,1156.0891536825477,476.2710746656733,1227.0113046936847
174735.0,18959.0,174735.0,16066.0,174735.0,42818.0,1157.6817366927742,473.7413524221294,1222.4798867188767
174735.0,18963.0,174735.0,16104.0,174735.0,42832.0,1158.8569394495303,471.0655966082498,1217.5398041740816
174735.0,18962.0,174735.0,16057.0,174735.0,42808.0,1159.6200333847696,468.25263166737204,1212.2134658795333
174745.0,18945.0,174745.0,16077.0,174745.0,42786.0,1159.978167679786,465.31187865950943,1206.5249200589237
174745.0,18931.0,174745.0,16069.0,174745.0,42788.0,1159.9401806815063,462.2533199513745,1200.4996458244646
174745.0,18933.0,174745.0,16042.0,174745.0,42766.0,1159.5162305607475,459.0873974049059,1194.1642354478577
174745.0,18956.0,174745.0,16070.0,174745.0,42773.0,1158.7175080159527,455.8249024304386,1187.5461831347934
174745.0,18968.0,174745.0,16066.0,174745.0,42784.0,1157.5562958057683,452.476928398092,1180.6738340866018
174745.0,18928.0,174745.0,16047.0,174745.0,42744.0,1156.0462371374313,449.05499433901684,1173.5764787947298
174756.0,18922.0,174756.0,16058.0,174756.0,42732.0,1154.2023328935782,445.5711291103471,1166.2843346396864
174756.0,18919.0,174756.0,16017.0,174756.0,42699.0,1152.0405539305461,442.0377658957632,1158.8281912397742
174756.0,18923.0,174756.0,16025.0,174756.0,42695.0,1149.5774727113635,438.46749522290474,1151.2388865453822
174756.0,18916.0,174756.0,16025.0,174756.0,42711.0,1146.8301464903413,434.87278133187186,1143.5469324364944
174756.0,18910.0,174756.0,16029.0,174756.0,42689.0,1143.816101762372,431.26585802806926,1135.7824689411436
174756.0,18906.0,174756.0,16030.0,174756.0,42669.0,1140.5532696728303,427.65884611544163,1127.9753538368316
174766.0,18899.0,174766.0,15993.0,174766.0,42641.0,1137.059877894595,424.06385321521634,1120.1550142966296
174766.0,18884.0,174766.0,15999.0,174766.0,42633.0,1133.3543206558318,420.4928329687391,1112.3500333083705
174766.0,18902.0,174766.0,16004.0,174766.0,42639.0,1129.4550204981783,416.95731251474933,1104.58776942921
174766.0,18899.0,174766.0,16015.0,174766.0,42629.0,1125.3804046195582,413.46833188803504,1096.8942396592126
174766.0,18892.0,174766.0,16001.0,174766.0,42627.0,1121.1490397285302,410.0366394887076,1089.2942038391677
174766.0,18870.0,174766.0,15965.0,174766.0,42606.0,1116.7797062530808,406.6727911371061,1081.8112331932705
174776.0,18871.0,174776.0,15962.0,174776.0,42590.0,1112.291251430307,403.38687916473657,1074.4676286496551
174776.0,18867.0,174776.0,15971.0,174776.0,42603.0,1107.7023663794425,400.1880935741048,1067.284236746169
174776.0,18864.0,174776.0,15973.0,174776.0,42598.0,1103.0314788047594,397.08453587805457,1060.2803829862307
174776.0,18871.0,174776.0,15976.0,174776.0,42610.0,1098.296772868507,394.0833440113348,1053.4740433933139
174776.0,18857.0,174776.0,15979.0,174776.0,42581.0,1093.5162688558853,391.19090139519153,1046.8820917393314
174776.0,18841.0,174776.0,15956.0,174776.0,42559.0,1088.7078507395981,388.4129700478347,1040.5203425900768
174787.0,18826.0,174787.0,15965.0,174787.0,42538.0,1083.8891095204685,385.7546686073348,1034.4032499851173
174787.0,18821.0,174787.0,15958.0,174787.0,42553.0,1079.077042242829,383.22035983910826,1028.543467662764
174787.0,18841.0,174787.0,15985.0,174787.0,42554.0,1074.287836823172,380.8136518579455,1022.9516508254391
174787.0,18828.0,174787.0,15953.0,174787.0,42554.0,1069.5369182084248,378.5375635156862,1017.6365941527724
174787.0,18806.0,174787.0,15961.0,174787.0,42528.0,1064.8390954673562,376.39463729857033,1012.6054244206058
174787.0,18802.0,174787.0,15930.0,174787.0,42526.0,1060.2084936164706,374.38681952487116,1007.8635701900331
174797.0,18789.0,174797.0,15963.0,174797.0,42539.0,1055.6582858924507,372.5152271606868,1003.4145953557892
174797.0,18786.0,174797.0,15948.0,174797.0,42515.0,1051.200450650044,370.7800622521155,999.2601493429462
174797.0,18794.0,174797.0,15953.0,174797.0,42520.0,1046.8456475775126,369.18071643649125,995.3999913397906
174797.0,18792.0,174797.0,15948.0,174797.0,42550.0,1042.603245223871,367.71586922495544,991.8320116115951
174797.0,18782.0,174797.0,15937.0,174797.0,42517.0,1038.4814448528687,366.3834728178891,988.5524016802784
174797.0,18781.0,174797.0,15930.0,174797.0,42508.0,1034.4873424701573,365.18063563806174,985.5558176097845
174807.0,18775.0,174807.0,15946.0,174807.0,42511.0,1030.6268943546606,364.1034673841791,982.835249151558
174807.0,18780.0,174807.0,15966.0,174807.0,42530.0,1026.9048850269107,363.1470941420232,980.3818418164301
174807.0,18778.0,174807.0,15974.0,174807.0,42544.0,1023.3249622209519,362.3059772429192,978.1850424399395
174807.0,18780.0,174807.0,15976.0,174807.0,42546.0,1019.8897306098934,361.5743619833441,976.2330118610782
174807.0,18774.0,174807.0,15955.0,174807.0,42544.0,1016.6008515495835,360.9465609165891,974.5130176828911
174807.0,18765.0,174807.0,15939.0,174807.0,42533.0,1013.459081972485,360.4168958356621,973.0116152393464
174818.0,18766.0,174818.0,15952.0,174818.0,42525.0,1010.4642260694967,359.9793836275511,971.7145989637527
174818.0,18750.0,174818.0,15973.0,174818.0,42542.0,1007.615036162768,359.62753247766074,970.606856134621
174818.0,18771.0,174818.0,15931.0,174818.0,42560.0,1004.9091275361297,359.3544186120058,969.6723743996941
174818.0,18763.0,174818.0,15980.0,174818.0,42550.0,1002.3429983317335,359.1527766567988,968.8945047515581
174818.0,18757.0,174818.0,15958.0,174818.0,42542.0,999.9121464949072,359.01503907911524,968.2562173865858
174818.0,18754.0,174818.0,15947.0,174818.0,42539.0,997.6111179351235,358.9334321989676,967.7400980183186
174828.0,18762.0,174828.0,15963.0,174828.0,42559.0,995.4334617635591,358.89996104834876,967.3282268547774
174828.0,18773.0,174828.0,15966.0,174828.0,42552.0,993.3717708703805,358.90632785007034,967.0022059096082
174828.0,18764.0,174828.0,15958.0,174828.0,42551.0,991.4178647134612,358.94399484116065,966.7433008226749
174828.0,18778.0,174828.0,15983.0,174828.0,42572.0,989.5629850382635,359.00430671230106,966.5325419572109
174828.0,18762.0,174828.0,15971.0,174828.0,42573.0,987.7979177710437,359.0786203208571,966.3508622778015
174828.0,18749.0,174828.0,15963.0,174828.0,42538.0,986.1129988689542,359.15842778909575,966.1792604777788
174839.0,18761.0,174839.0,15965.0,174839.0,42560.0,984.4979740694394,359.23532755812386,965.9987349826697
174839.0,18776.0,174839.0,15987.0,174839.0,42573.0,982.9419051054382,359.30093271578835,965.7901068195199
174839.0,18787.0,174839.0,15969.0,174839.0,42581.0,981.433357469113,359.346939478683,965.5341205196248
174839.0,18777.0,174839.0,15980.0,174839.0,42600.0,979.9607567474081,359.36526300767514,965.2118074829884
174839.0,18775.0,174839.0,15970.0,174839.0,42585.0,978.5126164089168,359.3480627369454,964.804853386517
174839.0,18768.0,174839.0,15972.0,174839.0,42573.0,977.0775382510851,359.28769188017276,964.2957739432318
174849.0,18781.0,174849.0,15968.0,174849.0,42579.0,975.6441315857126,359.1766320788121,963.6678206767738
174849.0,18781.0,174849.0,16000.0,174849.0,42585.0,974.2010296182967,359.00748831738355,962.9048196472714
174849.0,18773.0,174849.0,15997.0,174849.0,42594.0,972.7370033890319,358.77318803141196,961.9911946110199
174849.0,18777.0,174849.0,15963.0,174849.0,42593.0,971.2410299579335,358.4672490552622,960.9121508510337
174849.0,18763.0,174849.0,15978.0,174849.0,42580.0,969.7022605557845,358.08375236712476,959.6538319735649
174849.0,18769.0,174849.0,15964.0,174849.0,42575.0,968.1099396499324,357.61706840945635,958.2033044385125
174859.0,18774.0,174859.0,15998.0,174859.0,42581.0,966.4533481300566,357.0617216837069,956.5484147922149
174859.0,18778.0,174859.0,16000.0,174859.0,42594.0,964.7218600048573,356.412563794008,954.6777365578072
174859.0,18773.0,174859.0,15992.0,174859.0,42566.0,962.9050886704796,355.665117501496,952.5806719341612
174859.0,18777.0,174859.0,15966.0,174859.0,42577.0,960.9930016690689,354.8157479199782,950.2474982043136
174859.0,18761.0,174859.0,15979.0,174859.0,42560.0,958.9759516543958,353.86148695561366,947.669262055969
174859.0,18781.0,174859.0,15950.0,174859.0,42570.0,956.84465626708,352.79972764646953,944.8376658112493
174870.0,18775.0,174870.0,15985.0,174870.0,42570.0,954.5902324633744,351.6280192041476,941.7450531114943
174870.0,18771.0,174870.0,15980.0,174870.0,42575.0,952.2043220229024,350.3440721242097,938.3845125369612
174870.0,18778.0,174870.0,15966.0,174870.0,42574.0,949.6791951922505,348.94594106432476,934.7500589313747
174870.0,18762.0,174870.0,15960.0,174870.0,42560.0,947.0077882104702,347.43210224184503,930.8367833696151
174870.0,18757.0,174870.0,15961.0,174870.0,42547.0,944.1836790122106,345.8013100603442,926.6408566065121
174870.0,18750.0,174870.0,15966.0,174870.0,42562.0,941.2009669330876,344.0524657415894,922.1594104474395
174880.0,18758.0,174880.0,15961.0,174880.0,42542.0,938.0541416212479,342.18463359240997,917.3904792974722
174880.0,18765.0,174880.0,15997.0,174880.0,42544.0,934.7380951481208,340.19718470360596,912.333034359499
174880.0,18748.0,174880.0,15976.0,174880.0,42562.0,931.248271423916,338.090086321049,906.9870417358312
174880.0,18739.0,174880.0,15946.0,174880.0,42513.0,927.5807486851024,335.8641406043023,901.3535647000404
174880.0,18745.0,174880.0,15937.0,174880.0,42504.0,923.7321540131445,333.5208165969212,895.4347158601895
174880.0,18737.0,174880.0,15945.0,174880.0,42514.0,919.6995779785092,331.06180287737203,889.2333418021523
174890.0,18738.0,174890.0,15946.0,174890.0,42541.0,915.4805987986821,328.48875439553024,882.7528813143034
174890.0,18730.0,174890.0,15948.0,174890.0,42480.0,911.073335153999,325.8033467703678,875.9976116132768
174890.0,18723.0,174890.0,15958.0,174890.0,42491.0,906.4764609547635,323.0074538361112,868.9727785504455
174890.0,18720.0,174890.0,15933.0,174890.0,42470.0,901.6891780709192,320.10331279032414,861.684361740062
174890.0,18703.0,174890.0,15906.0,174890.0,42466.0,896.7111571841975,317.0934967697041,854.1388204931077
174890.0,18707.0,174890.0,15929.0,174890.0,42424.0,891.5424528586021,313.9806178795631,846.342925597077
174901.0,18709.0,174901.0,15939.0,174901.0,42470.0,886.1834555739329,310.76712081636566,838.3035634045262
174901.0,18708.0,174901.0,15904.0,174901.0,42442.0,880.6349778570127,307.45540377401426,830.0277224764294
174901.0,18694.0,174901.0,15924.0,174901.0,42423.0,874.8984137832856,304.04793264038483,821.5227030284746
174901.0,18677.0,174901.0,15914.0,174901.0,42424.0,868.9757836132005,300.5471925780838,812.7961846806492
174901.0,18677.0,174901.0,15919.0,174901.0,42420.0,862.86960887532,296.95570761115283,803.8561421510832
174901.0,18673.0,174901.0,15900.0,174901.0,42414.0,856.5827756792442,293.27612611185873,794.7108899378661
174911.0,18676.0,174911.0,15922.0,174911.0,42391.0,850.1185420017127,289.5112486570922,785.3692031107397
174911.0,18671.0,174911.0,15919.0,174911.0,42369.0,843.4806746839577,285.6641094704986,775.8402852591892
174911.0,18640.0,174911.0,15887.0,174911.0,42356.0,836.6735622287232,281.73813361753076,766.1335367648705
174911.0,18627.0,174911.0,15875.0,174911.0,42347.0,829.702111018821,277.7370824854139,756.2582809495667
174911.0,18630.0,174911.0,15905.0,174911.0,42351.0,822.5714592171875,273.6647773179193,746.2236380229973
174911.0,18631.0,174911.0,15876.0,174911.0,42340.0,815.2868137708349,269.5250034031607,736.0386031910976
174921.0,18607.0,174921.0,15917.0,174921.0,42345.0,807.8535135612459,265.3216939521442,725.7122496999705
174921.0,18603.0,174921.0,15862.0,174921.0,42293.0,800.2770777081377,261.0591527203667,715.2538824788004
174921.0,18574.0,174921.0,15853.0,174921.0,42264.0,792.5630830250942,256.7420521584937,704.6728810241299
174921.0,18567.0,174921.0,15819.0,174921.0,42275.0,784.7169250876568,252.37503696019104,693.9782211045264
174921.0,18573.0,174921.0,15857.0,174921.0,42272.0,776.7435962986451,247.96219594212985,683.1781465085813
174921.0,18582.0,174921.0,15865.0,174921.0,42284.0,768.6476851709172,243.50693232294907,672.2803183873906
174932.0,18573.0,174932.0,15870.0,174932.0,42255.0,760.4336533266394,239.01235166787538,661.292207168462
174932.0,18540.0,174932.0,15860.0,174932.0,42259.0,752.1061087624371,234.48176466389674,650.221372634806
174932.0,18542.0,174932.0,15806.0,174932.0,42217.0,743.6697919100061,229.918847258282,639.0755165678346
174932.0,18523.0,174932.0,15822.0,174932.0,42210.0,735.1293755254624,225.32732043718448,627.8623360362635
174932.0,18520.0,174932.0,15838.0,174932.0,42207.0,726.4893251458591,220.71053605620364,616.5892964785721
