c_ts,c_val,d_ts,d_val,e_ts,e_val,c_val_filtered,d_val_filtered,e_val_filtered
104433,6869,104433.0,20077.0,104433.0,26087.0,185.77106367885656,68.31670551594343,93.0373442194766
104433,6880,104433.0,20073.0,104433.0,26093.0,187.87655978085945,68.14035988455798,93.50288656564908
104433,6890,104433.0,20093.0,104433.0,26106.0,189.96491795516965,67.9621996741459,93.96336881002107
104433,6896,104433.0,20076.0,104433.0,26104.0,192.0295376583289,67.78169996119493,94.41647635330793
104433,6883,104433.0,20070.0,104433.0,26094.0,194.0642886077726,67.59837058864255,94.86022040469022
104433,6892,104433.0,20065.0,104433.0,26074.0,196.06357046806158,67.41166352841222,95.29291209490515
104443,6889,104443.0,20100.0,104443.0,26103.0,198.0222622923487,67.22085202301962,95.71295073676683
104443,6899,104443.0,20090.0,104443.0,26097.0,199.9357076072512,67.0251688915079,96.11872175154247
104443,6891,104443.0,20074.0,104443.0,26097.0,201.79976363845338,66.82408462213598,96.50872168903643
104443,6887,104443.0,20059.0,104443.0,26081.0,203.61081971234753,66.61731850745626,96.88165135717318
104443,6873,104443.0,20065.0,104443.0,26084.0,205.36569187658264,66.40454438806648,97.23630711677137
104443,6881,104443.0,20073.0,104443.0,26081.0,207.06141207084045,66.18514314282244,97.57139787820519
104454,6887,104454.0,20064.0,104454.0,26090.0,208.69506777886176,65.95818812052586,97.88545176143128
104454,6892,104454.0,20097.0,104454.0,26109.0,210.2638197530836,65.72257448996488,98.17688936299115
104454,6898,104454.0,20070.0,104454.0,26105.0,211.7650493363483,65.47721968265454,98.44426772336593
104454,6885,104454.0,20067.0,104454.0,26065.0,213.19649381036345,65.22120341956541,98.68647243414996
104454,6890,104454.0,20043.0,104454.0,26080.0,214.55626664391764,64.95363688926857,98.90255639635696
104454,6874,104454.0,20063.0,104454.0,26070.0,215.84275866572494,64.67334205706588,99.09137097472971
104464,6895,104464.0,20107.0,104464.0,26113.0,217.05451331420764,64.37875397420399,99.25143277524566
104464,6903,104464.0,20096.0,104464.0,26101.0,218.19022981909907,64.06831932646531,99.38117786250923
104464,6891,104464.0,20060.0,104464.0,26095.0,219.2489388826888,63.741004738656294,99.47933633152408
104464,6875,104464.0,20055.0,104464.0,26075.0,220.23011007858454,63.39628145752016,99.54503872703138
104464,6872,104464.0,20040.0,104464.0,26093.0,221.13348255542996,63.03364108632428,99.57762196996977
104464,6878,104464.0,20052.0,104464.0,26078.0,221.95878500841397,62.652148321658494,99.5764444485298
104474,6870,104474.0,20053.0,104474.0,26096.0,222.705587775163,62.25026951257295,99.54086207551134
104474,6897,104474.0,20092.0,104474.0,26095.0,223.37332146938104,61.825999335573286,99.47031271633607
104474,6889,104474.0,20066.0,104474.0,26080.0,223.96143990429889,61.37722896891596,99.36443008225966
104474,6883,104474.0,20057.0,104474.0,26071.0,224.46963625430737,60.90205024563082,99.22302723216092
104474,6860,104474.0,20066.0,104474.0,26079.0,224.89787367111987,60.398730742998225,99.04590719659939
104474,6882,104474.0,20077.0,104474.0,26098.0,225.24618381791413,59.86559664363391,98.83275571951742
104485,6891,104485.0,20087.0,104485.0,26088.0,225.51454497537878,59.30115531302965,98.5832921872339
104485,6880,104485.0,20068.0,104485.0,26089.0,225.7030299478672,58.70435646026458,98.29749257130544
104485,6874,104485.0,20068.0,104485.0,26065.0,225.81197687529996,58.07469848845143,97.97562333242531
104485,6875,104485.0,20045.0,104485.0,26076.0,225.84196033746082,57.41208697658062,97.6180660480321
104485,6854,104485.0,20058.0,104485.0,26079.0,225.79364975855398,56.716574827753064,97.22513715137099
104485,6880,104485.0,20068.0,104485.0,26054.0,225.66767246961263,55.98820467439604,96.79703228890996
104495,6891,104495.0,20109.0,104495.0,26079.0,225.4646291387113,55.22718019551017,96.33378195896806
104495,6880,104495.0,20061.0,104495.0,26089.0,225.1853526141944,54.434317772643965,95.83524878086133
104495,6870,104495.0,20044.0,104495.0,26075.0,224.83114707484646,53.61126647310532,95.30132019444304
104495,6858,104495.0,20042.0,104495.0,26070.0,224.40374032646753,52.7601745613417,94.73209219691729
104495,6855,104495.0,20054.0,104495.0,26078.0,223.90504431642722,51.883225443906156,94.12784174652953
104495,6869,104495.0,20079.0,104495.0,26095.0,223.33696463388483,50.982567124683484,93.48900841366917
104505,6853,104505.0,20080.0,104505.0,26074.0,222.70138440549437,50.060653313767595,92.8163552611464
104505,6872,104505.0,20039.0,104505.0,26078.0,222.00025371821042,49.12060756329756,92.11110656589001
104505,6835,104505.0,20019.0,104505.0,26047.0,221.23564284657166,48.16613275062083,91.37485593682214
104505,6861,104505.0,20015.0,104505.0,26075.0,220.40968838981473,47.20094557147866,90.60932573826481
104505,6850,104505.0,20024.0,104505.0,26052.0,219.52451927087088,46.22823376304672,89.81620240161837
104505,6853,104505.0,20044.0,104505.0,26061.0,218.58229609265803,45.250520448527794,88.99710828274594
104516,6859,104516.0,20033.0,104516.0,26081.0,217.5853192595591,44.26988490906278,88.15364322808391
104516,6855,104516.0,20052.0,104516.0,26075.0,216.53614103282234,43.2882644737272,87.28755853036313
104516,6836,104516.0,20006.0,104516.0,26044.0,215.4376429921581,42.30760675257906,86.40096000996188
104516,6829,104516.0,20016.0,104516.0,26049.0,214.29294930152875,41.329744653968625,85.49622041606541
104516,6836,104516.0,20030.0,104516.0,26060.0,213.10521008910513,40.356123641406924,84.57570428912204
104516,6840,104516.0,20038.0,104516.0,26052.0,211.87749768703515,39.38776365463762,83.64168566778731
104526,6835,104526.0,20046.0,104526.0,26042.0,210.61289860141397,38.42554266745753,82.69642213784635
104526,6814,104526.0,20015.0,104526.0,26032.0,209.31460278745,37.4704740041907,81.74210385288356
104526,6810,104526.0,20001.0,104526.0,26040.0,207.98579382807284,36.52366168377631,80.78067340630571
104526,6810,104526.0,20022.0,104526.0,26030.0,206.62941276665157,35.58597828033067,79.81370064317414
104526,6820,104526.0,20018.0,104526.0,26043.0,205.24803429039753,34.65786596237008,78.84237306129418
104526,6817,104526.0,20054.0,104526.0,26070.0,203.8439523078187,33.739499482238045,77.8676280584339
104536,6823,104536.0,20028.0,104536.0,26048.0,202.41936757800792,32.83116134419084,76.8904694822029
104536,6799,104536.0,20028.0,104536.0,26027.0,200.9765194644253,31.93352153604919,75.91220941230105
104536,6796,104536.0,20006.0,104536.0,26034.0,199.51764234007513,31.047603250208546,74.93433967754538
104536,6797,104536.0,20014.0,104536.0,26029.0,198.0447829977242,30.174525639140604,73.95824960267883
104536,6806,104536.0,20013.0,104536.0,26036.0,196.55969755452577,29.315288680927175,72.98511980426957
104536,6792,104536.0,20038.0,104536.0,26035.0,195.06392492294503,28.470776183834587,72.01597984954384
104547,6778,104547.0,20027.0,104547.0,26040.0,193.55884656062173,27.641984991793898,71.0518184345081
104547,6788,104547.0,19991.0,104547.0,26023.0,192.0455887641548,26.830215252780455,70.09367319237012
104547,6767,104547.0,19979.0,104547.0,26014.0,190.52488686092295,26.036861495117556,69.14259081801109
104547,6783,104547.0,19974.0,104547.0,26010.0,188.99701851966745,25.262869230896356,68.19942711935155
104547,6788,104547.0,20028.0,104547.0,26038.0,187.4618324639834,24.50838321256883,67.26468326346696
104547,6811,104547.0,20020.0,104547.0,26040.0,185.9189717394267,23.772975868278664,66.33862913090435
104557,6785,104557.0,20017.0,104557.0,26011.0,184.36824701276055,23.05620496783596,65.42159840813346
104557,6777,104557.0,19959.0,104557.0,26024.0,182.80985432836331,22.357838772683436,64.51407090033132
104557,6775,104557.0,19996.0,104557.0,25998.0,181.24427947420816,21.67750583555013,63.616493482722944
104557,6775,104557.0,20014.0,104557.0,26013.0,179.6721135823817,21.01432193352322,62.72907442673556
104557,6766,104557.0,20036.0,104557.0,26030.0,178.09398636778508,20.36708912083143,61.85171703273238
104557,6766,104557.0,20009.0,104557.0,26019.0,176.51055425082268,19.734854437372213,60.98417958223926
104567,6761,104567.0,19992.0,104567.0,26008.0,174.9224704892058,19.1171786934612,60.126285547184914
104567,6757,104567.0,19968.0,104567.0,26011.0,173.33035753378027,18.51387048870229,59.277920978547904
104567,6744,104567.0,19974.0,104567.0,26000.0,171.73476337295932,17.92445665921622,58.43889395632097
104567,6750,104567.0,20016.0,104567.0,26028.0,170.1360735131085,17.34786473769835,57.60887264236702
104567,6750,104567.0,20024.0,104567.0,26000.0,168.5344534541794,16.78265540483963,56.78746872481629
104567,6766,104567.0,19966.0,104567.0,26025.0,166.92993497504457,16.22751152539422,55.97436305374941
104578,6738,104578.0,19995.0,104578.0,25990.0,165.32260574630993,15.681307890290874,55.16934598475002
104578,6755,104578.0,19992.0,104578.0,26006.0,163.71271810806883,15.142816345697653,54.37224410729654
104578,6738,104578.0,20025.0,104578.0,26000.0,162.1006765325423,14.610677745194003,53.582802171180006
104578,6748,104578.0,20019.0,104578.0,26013.0,160.4870272080908,14.083768258044095,52.80066592436084
104578,6742,104578.0,20006.0,104578.0,26012.0,158.87249627541274,13.56158973337832,52.025514438933214
104578,6724,104578.0,20002.0,104578.0,26010.0,157.25801800877423,13.044374523265347,51.25723265373854
104588,6726,104588.0,19977.0,104588.0,25986.0,155.64466185021365,12.532892636355449,50.4959703390456
104588,6711,104588.0,19959.0,104588.0,25979.0,154.03346636099684,12.028076568242568,49.74197011053023
104588,6715,104588.0,19955.0,104588.0,25978.0,152.42528731316236,11.530534618725554,48.99524139038418
104588,6717,104588.0,19989.0,104588.0,26004.0,150.8207266707629,11.040187422803442,48.25536363070455
104588,6731,104588.0,20009.0,104588.0,26008.0,149.22020314381112,10.556367663118678,47.52162926642332
104588,6717,104588.0,19999.0,104588.0,25999.0,147.62415822172034,10.078334395452856,46.79339284383521
104598,6700,104598.0,19980.0,104598.0,25999.0,146.03319732120437,9.605692026743824,46.07029647763177
104598,6697,104598.0,19970.0,104598.0,25991.0,144.44798794466044,9.138353743149494,45.352270467668305
104598,6721,104598.0,19992.0,104598.0,26000.0,142.86908684434218,8.676261889871697,44.639462887776475
104598,6709,104598.0,19991.0,104598.0,25982.0,141.2970017511808,8.21929635829271,43.93220135805379
104598,6688,104598.0,19996.0,104598.0,25978.0,139.73237836772194,7.7674519314363835,43.230924260866686
104598,6695,104598.0,19965.0,104598.0,25982.0,138.17598071682312,7.320989127519169,42.53603484514056
104609,6683,104609.0,19944.0,104609.0,25957.0,136.6285133928603,6.880265101825316,41.84774701215753
104609,6672,104609.0,19959.0,104609.0,25977.0,135.0904860386507,6.445283050979228,41.1659430086107
104609,6684,104609.0,19991.0,104609.0,25987.0,133.5621099073918,6.015409377027723,40.490115874751766
104609,6687,104609.0,20007.0,104609.0,25991.0,132.04327708581806,5.58964109509192,39.81954640564065
104609,6693,104609.0,19981.0,104609.0,25996.0,130.53372153194618,5.16717660855744,39.153617500503756
104609,6675,104609.0,19983.0,104609.0,25975.0,129.03323443340707,4.7477191900213,38.492021049477614
104619,6671,104619.0,19950.0,104619.0,25967.0,127.54172342476718,4.331331055361673,37.834723809121854
104619,6670,104619.0,19947.0,104619.0,25989.0,126.05910554953178,3.918032317726343,37.18177929573599
104619,6668,104619.0,19988.0,104619.0,25967.0,124.5852039610179,3.507448380994461,36.53324270999107
104619,6658,104619.0,19971.0,104619.0,25984.0,123.1197212181859,3.0988336171031676,35.889225318507386
104619,6657,104619.0,19967.0,104619.0,25958.0,121.66220620912864,2.6913580110688997,35.24991222658123
104619,6656,104619.0,19954.0,104619.0,25968.0,120.21199447372848,2.2841933646199237,34.615482826352036
104629,6650,104629.0,19961.0,104629.0,25946.0,118.76818062683373,1.8763444433813135,33.9859622466583
104629,6652,104629.0,19963.0,104629.0,25946.0,117.32962290227854,1.466510438827953,33.361026061142326
104629,6650,104629.0,19976.0,104629.0,25984.0,115.89496163202762,1.053124509177266,32.739875630879325
104629,6663,104629.0,20012.0,104629.0,25964.0,114.46269216952595,0.6346119143386488,32.12138443992221
104629,6668,104629.0,19983.0,104629.0,25966.0,113.03134896215806,0.20983643537697105,31.504394024129383
104629,6640,104629.0,19953.0,104629.0,25952.0,111.59972391616762,-0.22162307391518254,30.88780335246048
104640,6623,104640.0,19955.0,104640.0,25963.0,110.16685601485895,-0.6597201194241364,30.270453719598635
104640,6645,104640.0,19976.0,104640.0,25969.0,108.73175377734995,-1.104382102533691,29.651072268051976
104640,6651,104640.0,19989.0,104640.0,25977.0,107.29325128506076,-1.5555651513321607,29.028397623222162
104640,6641,104640.0,19975.0,104640.0,25969.0,105.85019815532743,-2.0129404625415503,28.401398636845315
104640,6620,104640.0,19957.0,104640.0,25953.0,104.40164148925496,-2.4756857077968206,27.769381881265502
104640,6623,104640.0,19941.0,104640.0,25936.0,102.94672257910258,-2.94265876618131,27.13184424234916
104650,6624,104650.0,19881.0,104650.0,25956.0,101.48446851560203,-3.4129274992545717,26.48816979660205
104650,6623,104650.0,19967.0,104650.0,25955.0,100.0137337113124,-3.8864228715990805,25.837474548231754
104650,6623,104650.0,19991.0,104650.0,25954.0,98.53327518112968,-4.3640617809225475,25.178706304143645
104650,6639,104650.0,19956.0,104650.0,25966.0,97.04187661856932,-4.84707044588216,24.510813532294165
104650,6624,104650.0,19958.0,104650.0,25947.0,95.53853142287673,-5.336370431155437,23.832861811641592
104650,6611,104650.0,19932.0,104650.0,25934.0,94.02257745536912,-5.832644509923284,23.144027075526708
104661,6617,104661.0,19953.0,104661.0,25983.0,92.49364189448005,-6.336687711330647,22.443491986014664
104661,6628,104661.0,19978.0,104661.0,25962.0,90.95155608265677,-6.8495295050264176,21.730551045954698
104661,6612,104661.0,19994.0,104661.0,25949.0,89.39644072346587,-7.372122701521455,21.004904235691157
104661,6600,104661.0,19932.0,104661.0,25942.0,87.82879953496641,-7.904890453910639,20.266691953147046
104661,6595,104661.0,19923.0,104661.0,25935.0,86.24941088705197,-8.447778923068853,19.51623483901632
104661,6586,104661.0,19943.0,104661.0,25931.0,84.65910847308749,-9.000833805570274,18.75377597015155
104671,6578,104671.0,19945.0,104671.0,25924.0,83.0585946753811,-9.564584326341844,17.97930636233039
104671,6585,104671.0,19943.0,104671.0,25944.0,81.44830885948343,-10.13995744153457,17.19246972899525
104671,6596,104671.0,19984.0,104671.0,25962.0,79.82841938085559,-10.728013649727984,16.392669942919383
104671,6593,104671.0,19956.0,104671.0,25955.0,78.19900202284683,-11.329609618690213,15.579421683757118
104671,6576,104671.0,19951.0,104671.0,25921.0,76.56024903069775,-11.94511914027094,14.752632633963813
104671,6569,104671.0,19947.0,104671.0,25927.0,74.9124780318023,-12.574463329777195,13.912483322314557
104681,6589,104681.0,19958.0,104681.0,25927.0,73.25600154515422,-13.217294232712064,13.059084728721274
104681,6571,104681.0,19961.0,104681.0,25928.0,71.59111812775839,-13.8730141175826,12.192306247547748
104681,6578,104681.0,19949.0,104681.0,25938.0,69.9182271699477,-14.540652726890556,11.31182662415425
104681,6564,104681.0,19949.0,104681.0,25915.0,68.23788114557968,-15.218814997215034,10.417235852339616
104681,6539,104681.0,19903.0,104681.0,25915.0,66.55069637710147,-15.905840940208009,9.508022096911404
104681,6551,104681.0,19920.0,104681.0,25925.0,64.85712027354884,-16.60020201222433,8.5834396066886
104692,6548,104692.0,19921.0,104692.0,25941.0,63.157214896044366,-17.300911413001117,7.64250048005627
104692,6543,104692.0,19944.0,104692.0,25933.0,61.45063290018351,-18.00760230354556,6.684207681372101
104692,6556,104692.0,19951.0,104692.0,25928.0,59.73670895117013,-18.720237547732374,5.707800657083254
104692,6561,104692.0,19941.0,104692.0,25929.0,58.01460995593689,-19.43871812360851,4.712815256032584
104692,6557,104692.0,19915.0,104692.0,25911.0,56.283574485135034,-20.162709957621907,3.699008569386365
104692,6538,104692.0,19935.0,104692.0,25938.0,54.54309367588638,-20.891798468182024,2.666270127721873
104702,6555,104702.0,19952.0,104702.0,25907.0,52.79290614193101,-21.62564096386948,1.6146044592899358
104702,6541,104702.0,19936.0,104702.0,25925.0,51.032950588817414,-22.36381537591516,0.5441485857096353
104702,6542,104702.0,19948.0,104702.0,25910.0,49.26339554004369,-23.105575804177832,-0.5448585179173904
104702,6524,104702.0,19917.0,104702.0,25899.0,47.48463689383149,-23.849800236987164,-1.6521484323032496
104702,6516,104702.0,19897.0,104702.0,25888.0,45.69716616554891,-24.5951972524567,-2.7775843251780117
104702,6516,104702.0,19909.0,104702.0,25911.0,43.90136404321319,-25.340721142348208,-3.921372061047265
104712,6513,104712.0,19911.0,104712.0,25916.0,42.097350782405755,-26.085906104392855,-5.084066404765224
104712,6519,104712.0,19936.0,104712.0,25924.0,40.284970329566164,-26.83084430849493,-6.266295412282631
104712,6525,104712.0,19933.0,104712.0,25915.0,38.4638960259654,-27.57587463488575,-7.468437745515146
104712,6497,104712.0,19906.0,104712.0,25881.0,36.63376885090696,-28.321283618671394,-8.69052812074905
104712,6508,104712.0,19901.0,104712.0,25894.0,34.794206314392085,-29.067330245439962,-9.932488018461555
104712,6504,104712.0,19941.0,104712.0,25916.0,32.94470224590671,-29.814473166531464,-11.194392261007678
104723,6501,104723.0,19951.0,104723.0,25930.0,31.084605695888428,-30.56327820702387,-12.476344455859547
104723,6501,104723.0,19919.0,104723.0,25908.0,29.213178964761624,-31.31397782167862,-13.77805034780944
104723,6483,104723.0,19913.0,104723.0,25887.0,27.329613355624787,-32.06627340958323,-15.09860917625889
104723,6488,104723.0,19874.0,104723.0,25883.0,25.432960174585787,-32.819655707319896,-16.436745658831
104723,6484,104723.0,19908.0,104723.0,25890.0,23.522037715303412,-33.57392959159054,-17.79117704823041
104723,6495,104723.0,19903.0,104723.0,25880.0,21.59543568028576,-34.32950213252836,-19.160783411385466
104733,6488,104733.0,19928.0,104733.0,25915.0,19.651645407129166,-35.08725379020636,-20.54455081483313
104733,6479,104733.0,19923.0,104733.0,25892.0,17.689196542899765,-35.84817690081043,-21.941350189268704
104733,6479,104733.0,19903.0,104733.0,25904.0,15.706680812941755,-36.6130910568599,-23.34968345122998
104733,6478,104733.0,19900.0,104733.0,25873.0,13.702707450920258,-37.38264581965261,-24.76760738855836
104733,6466,104733.0,19911.0,104733.0,25872.0,11.675885448656203,-38.15752169485454,-26.192898095087898
104733,6489,104733.0,19953.0,104733.0,25884.0,9.6248448113856,-38.93843067792666,-27.623302214207527
104743,6474,104743.0,19924.0,104743.0,25869.0,7.548341382763681,-39.7257321907981,-29.056650429005984
104743,6461,104743.0,19940.0,104743.0,25853.0,5.4453926641313615,-40.51900842302756,-30.490877792501365
104743,6459,104743.0,19892.0,104743.0,25856.0,3.315252412427782,-41.31698762421894,-31.924175599735193
104743,6452,104743.0,19871.0,104743.0,25822.0,1.157252378979365,-42.11789631106457,-33.35526879594727
104743,6456,104743.0,19896.0,104743.0,25856.0,-1.0293005816071172,-42.92005626797106,-34.78368743494801
104743,6455,104743.0,19912.0,104743.0,25866.0,-3.245115347280972,-43.72222653481016,-36.20983390263359
104754,6449,104754.0,19914.0,104754.0,25882.0,-5.490841833889732,-44.523399017820196,-37.63466783457436
104754,6455,104754.0,19897.0,104754.0,25874.0,-7.766993484954156,-45.32242822380499,-39.05920704364682
104754,6437,104754.0,19891.0,104754.0,25854.0,-10.07389930719475,-46.11794239518815,-40.48423096285791
104754,6436,104754.0,19895.0,104754.0,25860.0,-12.411719840804352,-46.908507753156215,-41.91032014040047
104754,6431,104754.0,19912.0,104754.0,25866.0,-14.780537173925865,-47.69273424063816,-43.33801320201778
104754,6434,104754.0,19889.0,104754.0,25890.0,-17.180423882502538,-48.46918519871805,-44.767757467661724
104764,6449,104764.0,19821.0,104764.0,25886.0,-19.61138161361589,-49.23644112387173,-46.19958440058882
104764,6429,104764.0,19846.0,104764.0,25823.0,-22.07315336023052,-49.99370003203644,-47.63285998137751
104764,6399,104764.0,19877.0,104764.0,25819.0,-24.56513608696477,-50.74145710924641,-49.06658760452315
104764,6404,104764.0,19893.0,104764.0,25830.0,-27.08661430215514,-51.48148251472624,-50.50010971269384
104764,6420,104764.0,19875.0,104764.0,25854.0,-29.637067702025774,-52.21625517017519,-51.93347965722076
104764,6420,104764.0,19915.0,104764.0,25857.0,-32.21614816634735,-52.948500072557266,-53.36723060089007
104774,6427,104774.0,19934.0,104774.0,25850.0,-34.82337469354988,-53.68082096320818,-54.801936088085014
104774,6393,104774.0,19875.0,104774.0,25835.0,-37.45788829922154,-54.41526232784925,-56.23798725061823
104774,6399,104774.0,19882.0,104774.0,25837.0,-40.118479388248176,-55.15322360464651,-57.67566555954183
104774,6386,104774.0,19854.0,104774.0,25838.0,-42.80380263428694,-55.89590969295179,-59.11530064476038
104774,6395,104774.0,19894.0,104774.0,25817.0,-45.51253251229795,-56.644799642604355,-60.557359370105345
104774,6388,104774.0,19914.0,104774.0,25863.0,-48.243362389306384,-57.40165385978908,-62.002468176358974
104785,6378,104785.0,19884.0,104785.0,25848.0,-50.99494435591842,-58.168108350902145,-63.45125737374238
104785,6358,104785.0,19873.0,104785.0,25814.0,-53.76592769258201,-58.945398306814084,-64.90410426776926
104785,6363,104785.0,19866.0,104785.0,25841.0,-56.55514863178209,-59.73455096167574,-66.36114948799589
104785,6359,104785.0,19875.0,104785.0,25811.0,-59.361813609781706,-60.53672793840819,-67.82252377327174
104785,6366,104785.0,19908.0,104785.0,25823.0,-62.18551617194095,-61.3532880174225,-69.28848772164004
104785,6359,104785.0,19896.0,104785.0,25831.0,-65.02611993811317,-62.18548124741622,-70.75947640436084
104795,6358,104795.0,19871.0,104795.0,25831.0,-67.88363109092035,-63.03410422322848,-72.236020503867
104795,6346,104795.0,19888.0,104795.0,25804.0,-70.75814336705903,-63.899494928843055,-73.71861074579742
104795,6349,104795.0,19863.0,104795.0,25824.0,-73.6498596015627,-64.78174569797936,-75.20773024195708
104795,6353,104795.0,19872.0,104795.0,25832.0,-76.55910280422586,-65.68087322061493,-76.70393128274652
104795,6358,104795.0,19909.0,104795.0,25831.0,-79.48621153070087,-66.59685249971625,-78.20769145770433
104795,6342,104795.0,19902.0,104795.0,25825.0,-82.43135799166816,-67.52935488494532,-79.71917253537191
104805,6328,104805.0,19859.0,104805.0,25811.0,-85.39448114572127,-68.47738446433874,-81.23814719674183
104805,6323,104805.0,19846.0,104805.0,25798.0,-88.37542988731911,-69.43938351511528,-82.76414623531083
104805,6318,104805.0,19849.0,104805.0,25800.0,-91.37417669576519,-70.41379894988896,-84.29672302067388
104805,6327,104805.0,19856.0,104805.0,25787.0,-94.39091961513853,-71.39952697324263,-85.83568953055625
104805,6330,104805.0,19886.0,104805.0,25808.0,-97.42600578402133,-72.39591422339466,-87.38123087242288
104805,6331,104805.0,19876.0,104805.0,25803.0,-100.47971900940752,-73.40241459654854,-88.93385580183522
104816,6309,104816.0,19868.0,104816.0,25810.0,-103.55208922765073,-74.4182215260366,-90.4942115649708
104816,6305,104816.0,19851.0,104816.0,25792.0,-106.64289586290101,-75.4421934618113,-92.06292292506336
104816,6304,104816.0,19831.0,104816.0,25794.0,-109.75182663344617,-76.47311102824406,-93.64058891966131
104816,6307,104816.0,19885.0,104816.0,25811.0,-112.87857527603663,-77.50998257503375,-95.22784626253292
104816,6296,104816.0,19864.0,104816.0,25792.0,-116.02279927407122,-78.55200758125594,-96.82531926096584
104816,6301,104816.0,19839.0,104816.0,25778.0,-119.18404890569715,-79.59829913093913,-98.43355741445396
104826,6273,104826.0,19843.0,104826.0,25789.0,-122.3617647635852,-80.64789772474253,-100.05315697563921
104826,6268,104826.0,19832.0,104826.0,25789.0,-125.55540649754317,-81.70008657528557,-101.68490253436264
104826,6268,104826.0,19846.0,104826.0,25795.0,-128.76468446588865,-82.7546097427136,-103.32971409144722
104826,6281,104826.0,19867.0,104826.0,25793.0,-131.9896797985376,-83.8116292106655,-104.98848257016654
104826,6284,104826.0,19861.0,104826.0,25796.0,-135.23069907951557,-84.8714391252479,-106.66192527969928
104826,6269,104826.0,19840.0,104826.0,25785.0,-138.48800126218688,-85.93417194636356,-108.3504997551069
104836,6270,104836.0,19839.0,104836.0,25771.0,-141.76164370521406,-86.99980613349469,-110.05442856896516
104836,6265,104836.0,19829.0,104836.0,25769.0,-145.05148375174173,-88.06841667454286,-111.773869503069
104836,6249,104836.0,19865.0,104836.0,25798.0,-148.35722252423872,-89.14033859097232,-113.50906512726972
104836,6265,104836.0,19874.0,104836.0,25774.0,-151.67845249025723,-90.21599045162154,-115.26025524229361
104836,6256,104836.0,19865.0,104836.0,25770.0,-155.01464607491872,-91.2954266934805,-117.02751002963683
104836,6241,104836.0,19841.0,104836.0,25764.0,-158.36507116924957,-92.37803967358357,-118.81077329374315
104847,6220,104847.0,19817.0,104847.0,25763.0,-161.72883390116343,-93.4627271532571,-120.61003484590438
104847,6207,104847.0,19806.0,104847.0,25753.0,-165.10516404483087,-94.54841595189482,-122.42544989640166
104847,6233,104847.0,19834.0,104847.0,25768.0,-168.49372858190753,-95.63455931790773,-124.25739533529523
104847,6225,104847.0,19848.0,104847.0,25738.0,-171.8946617858138,-96.7212194927747,-126.10648718102819
104847,6228,104847.0,19836.0,104847.0,25797.0,-175.3083219595347,-97.80873750857579,-127.97354097168986
104847,6220,104847.0,19837.0,104847.0,25766.0,-178.73506219405093,-98.89741520027367,-129.8593556817055
104857,6204,104857.0,19820.0,104857.0,25756.0,-182.17516894259597,-99.98747857975434,-131.76441625575808
104857,6197,104857.0,19810.0,104857.0,25753.0,-185.62896030708947,-101.07925375666856,-133.6888749586249
104857,6218,104857.0,19859.0,104857.0,25764.0,-189.09691855792533,-102.173332788958,-135.6327406966243
104857,6218,104857.0,19854.0,104857.0,25768.0,-192.5796160555622,-103.27040565746444,-137.59589584689581
104857,6214,104857.0,19826.0,104857.0,25763.0,-196.07742241887968,-104.37083929657314,-139.57791833390706
104857,6194,104857.0,19811.0,104857.0,25742.0,-199.5902863650852,-105.4745804211026,-141.5779659707992
104868,6179,104868.0,19805.0,104868.0,25724.0,-203.11779863203805,-106.58153189335886,-143.5949214045254
104868,6178,104868.0,19808.0,104868.0,25743.0,-206.65945503708582,-107.69197562489053,-145.6277187658975
104868,6179,104868.0,19835.0,104868.0,25720.0,-210.2148788622613,-108.80670607471491,-147.67556671380476
104868,6192,104868.0,19859.0,104868.0,25751.0,-213.7838244942343,-109.9267670766342,-149.73796064881645
104868,6172,104868.0,19830.0,104868.0,25738.0,-217.36600280674077,-111.05293768114308,-151.81455090431393
104868,6157,104868.0,19810.0,104868.0,25731.0,-220.96097316594012,-112.1854526753474,-153.90496407194183
104878,6163,104878.0,19813.0,104878.0,25723.0,-224.56825182532697,-113.32422286563934,-156.0087596094396
104878,6145,104878.0,19826.0,104878.0,25767.0,-228.18748089909855,-114.46917465590963,-158.12546305669662
104878,6154,104878.0,19857.0,104878.0,25728.0,-231.81850817435145,-115.6202272774616,-160.25439862705468
104878,6150,104878.0,19829.0,104878.0,25733.0,-235.46138586868022,-116.77691779221385,-162.39446892266272
104878,6157,104878.0,19810.0,104878.0,25721.0,-239.11627619741756,-117.93813932966785,-164.54420154500156
104878,6148,104878.0,19791.0,104878.0,25703.0,-242.78328803622765,-119.10235684381763,-166.701977640312
104888,6122,104888.0,19773.0,104888.0,25707.0,-246.46239443195316,-120.26815269204593,-168.86628255185062
104888,6133,104888.0,19800.0,104888.0,25706.0,-250.15354428834576,-121.43471959726932,-171.03590982183124
104888,6120,104888.0,19800.0,104888.0,25714.0,-253.8568366864713,-122.60201366540379,-173.21000323821534
104888,6135,104888.0,19830.0,104888.0,25717.0,-257.5725534459671,-123.77051081841113,-175.3879308941609
104888,6135,104888.0,19820.0,104888.0,25697.0,-261.3010215930257,-124.94076294763157,-177.56913294940213
104888,6113,104888.0,19791.0,104888.0,25698.0,-265.04242108062437,-126.11307959549792,-179.75311108445504
104899,6115,104899.0,19815.0,104899.0,25706.0,-268.7967259593605,-127.28755371315414,-181.93953538188788
104899,6122,104899.0,19826.0,104899.0,25713.0,-272.56377292424185,-128.464178520586,-184.12823794729482
104899,6111,104899.0,19820.0,104899.0,25717.0,-276.34324272597905,-129.6426952454858,-186.3190123330932
104899,6107,104899.0,19789.0,104899.0,25703.0,-280.13456254849643,-130.82239637457874,-188.511386741509
104899,6081,104899.0,19770.0,104899.0,25685.0,-283.9369256651582,-132.00231143060847,-190.70458148279
104899,6079,104899.0,19772.0,104899.0,25674.0,-287.7494911280243,-133.1817206549271,-192.8977296293177
104909,6085,104909.0,19783.0,104909.0,25691.0,-291.5716198313955,-134.3605716412576,-195.09018482550204
104909,6087,104909.0,19809.0,104909.0,25692.0,-295.4029263906895,-135.53949133436856,-197.28161879258695
104909,6089,104909.0,19819.0,104909.0,25717.0,-299.2431165021991,-136.71940553746654,-199.47181141026135
104909,6067,104909.0,19802.0,104909.0,25682.0,-303.09180812304044,-137.9010451853723,-201.66032159388962
104909,6055,104909.0,19785.0,104909.0,25683.0,-306.94854290268785,-139.08472588879636,-203.84635265413215
104909,6049,104909.0,19777.0,104909.0,25665.0,-310.81300406911805,-140.270536317898,-206.02893155432216
104919,6071,104919.0,19816.0,104919.0,25663.0,-314.68520198512607,-141.4586095956849,-208.20720983691172
104919,6069,104919.0,19817.0,104919.0,25689.0,-318.5653764440044,-142.64903652669005,-210.38063935417173
104919,6061,104919.0,19801.0,104919.0,25677.0,-322.45369665519326,-143.84147732177638,-212.5488852162794
104919,6044,104919.0,19799.0,104919.0,25660.0,-326.3500806869318,-145.0349453690545,-214.71162573020752
104919,6042,104919.0,19748.0,104919.0,25651.0,-330.25426792897156,-146.22799579133311,-216.86857932600304
104919,6020,104919.0,19755.0,104919.0,25650.0,-334.1660170845961,-147.41923787084932,-219.01976252807677
104930,6027,104930.0,19748.0,104930.0,25659.0,-338.0853102998541,-148.60792246436523,-221.16568351603655
104930,6030,104930.0,19798.0,104930.0,25663.0,-342.0124703452124,-149.79419160863975,-223.30731342276604
104930,6043,104930.0,19798.0,104930.0,25642.0,-345.9480694272302,-150.97876772910115,-225.44594665768088
104930,6016,104930.0,19778.0,104930.0,25670.0,-349.89269235712266,-152.16239207889015,-227.58312831210736
104930,6009,104930.0,19768.0,104930.0,25648.0,-353.8468353573285,-153.34557903075125,-229.7206101558727
104930,6010,104930.0,19767.0,104930.0,25653.0,-357.8110396512834,-154.52880357660422,-231.86027446492608
104940,6013,104940.0,19791.0,104940.0,25656.0,-361.7860169747804,-155.71270715588975,-234.0041045490502
104940,6007,104940.0,19782.0,104940.0,25673.0,-365.77259902297556,-156.89801823846557,-236.15412097134924
104940,6003,104940.0,19793.0,104940.0,25658.0,-369.7716261628781,-158.08530299356113,-238.3121761401016
104940,5981,104940.0,19742.0,104940.0,25656.0,-373.7839332360168,-159.27485969930524,-240.47977315476015
104940,5976,104940.0,19737.0,104940.0,25633.0,-377.81049111262615,-160.46699567303557,-242.65810110102714
104940,5973,104940.0,19763.0,104940.0,25645.0,-381.8526270682339,-161.66252683572657,-244.84824222437007
104950,5984,104950.0,19764.0,104950.0,25636.0,-385.91213574414195,-162.8629798005915,-247.05135261734205
104950,6022,104950.0,19802.0,104950.0,25659.0,-389.9910964908877,-164.07029813322688,-249.26866662880596
104950,5975,104950.0,19789.0,104950.0,25649.0,-394.0914233485795,-165.2863117725363,-251.5013229339499
104950,5973,104950.0,19763.0,104950.0,25640.0,-398.2145665114432,-166.5123358482926,-253.7501660294583
104950,5965,104950.0,19766.0,104950.0,25637.0,-402.36164651505936,-167.74918620836337,-256.0157113246727
104950,5959,104950.0,19797.0,104950.0,25620.0,-406.5337195661569,-168.99739912379943,-258.2982798731362
104961,5964,104961.0,19792.0,104961.0,25631.0,-410.73188458559656,-170.25715326326352,-260.5981752323489
104961,5975,104961.0,19787.0,104961.0,25647.0,-414.95722181087194,-171.5279343946726,-262.91574256600063
104961,5950,104961.0,19750.0,104961.0,25622.0,-419.21061756425956,-172.80841636007057,-265.25123105348814
104961,5936,104961.0,19721.0,104961.0,25605.0,-423.49269169146595,-174.09681939997435,-267.6047125605684
104961,5925,104961.0,19738.0,104961.0,25600.0,-427.8039956113195,-175.39157182565947,-269.9763115512267
104961,5933,104961.0,19743.0,104961.0,25616.0,-432.1452927495192,-176.69178534989527,-272.36651957967956
104971,5947,104971.0,19737.0,104971.0,25614.0,-436.5176198028949,-177.99729115637962,-274.7762483002721
104971,5949,104971.0,19764.0,104971.0,25629.0,-440.92204583728795,-179.30845529564579,-277.206625025778
104971,5921,104971.0,19762.0,104971.0,25604.0,-445.35935584476937,-180.6259231699325,-279.6587554388983
104971,5917,104971.0,19734.0,104971.0,25596.0,-449.8299865712376,-181.95036392861613,-282.13367198417757
104971,5915,104971.0,19737.0,104971.0,25617.0,-454.3342125668838,-183.28246974386917,-284.6324699290275
104971,5919,104971.0,19788.0,104971.0,25625.0,-458.8722788874337,-184.6230905462282,-287.15631738407376
104981,5921,104981.0,19748.0,104981.0,25617.0,-463.444330681613,-185.9730569567671,-289.7061935404612
104981,5918,104981.0,19747.0,104981.0,25618.0,-468.05023072520027,-187.33287959544296,-292.2826262666126
104981,5886,104981.0,19725.0,104981.0,25595.0,-472.68944703369544,-188.70282864544174,-294.8856455731177
104981,5892,104981.0,19720.0,104981.0,25601.0,-477.3611623380919,-190.08331473104397,-297.51491852633285
104981,5873,104981.0,19745.0,104981.0,25605.0,-482.0645224678028,-191.47519468496603,-300.16990371101554
104981,5874,104981.0,19742.0,104981.0,25599.0,-486.7988293880798,-192.87977553198698,-302.8498653775772
104992,5882,104992.0,19767.0,104992.0,25599.0,-491.5636121346469,-194.29852880288274,-305.5537938362596
104992,5886,104992.0,19742.0,104992.0,25598.0,-496.35853114588707,-195.73274179556134,-308.28035759263264
104992,5874,104992.0,19750.0,104992.0,25583.0,-501.18315041269517,-197.18333239580616,-311.02790344738787
104992,5858,104992.0,19729.0,104992.0,25588.0,-506.03679804465844,-198.65089217710891,-313.7945126980445
104992,5860,104992.0,19753.0,104992.0,25587.0,-510.91863466771264,-200.135820137111,-316.5780730208693
104992,5874,104992.0,19755.0,104992.0,25597.0,-515.8277374223987,-201.63832241790166,-319.37624871890006
105001,5850,105001.0,19751.0,105001.0,25579.0,-520.7630093606683,-203.15822335689757,-322.1863574994991
105001,5838,105001.0,19742.0,105001.0,25568.0,-525.7230883112693,-204.69479630584692,-325.00533396830406
105001,5837,105001.0,19719.0,105001.0,25567.0,-530.7064636923781,-206.24682266742457,-327.8298790882084
105001,5828,105001.0,19706.0,105001.0,25552.0,-535.7116576308892,-207.81289738493763,-330.65667630132015
105001,5821,105001.0,19721.0,105001.0,25566.0,-540.7373125856548,-209.39181902310935,-333.48254085246475
105001,5835,105001.0,19740.0,105001.0,25564.0,-545.7822037345345,-210.98274675715845,-336.30444170776127
105011,5838,105011.0,19772.0,105011.0,25584.0,-550.8451215291182,-212.5849057463351,-339.11934962545973
105011,5824,105011.0,19728.0,105011.0,25564.0,-555.9246224350459,-214.19704531745583,-341.92397623770546
105011,5802,105011.0,19706.0,105011.0,25565.0,-561.0188927692474,-215.81722067618682,-344.714598520672
105011,5800,105011.0,19706.0,105011.0,25549.0,-566.1258896030251,-217.4431612712081,-347.4870881604757
105011,5840,105011.0,19774.0,105011.0,25552.0,-571.2434916585803,-219.07264506486288,-350.2370649862296
105011,5789,105011.0,19775.0,105011.0,25534.0,-576.3693506360186,-220.70316643382398,-352.9600572263379
105022,5790,105022.0,19746.0,105022.0,25556.0,-581.5007182655038,-222.331158834346,-355.651616110316
105022,5782,105022.0,19686.0,105022.0,25526.0,-586.63459521657,-223.95174167919117,-358.30734853205627
105022,5779,105022.0,19704.0,105022.0,25510.0,-591.7679631540259,-225.559329503868,-360.92298933961405
105022,5775,105022.0,19693.0,105022.0,25527.0,-596.897851118163,-227.14842360546407,-363.4946449328665
105022,5772,105022.0,19712.0,105022.0,25541.0,-602.0213152501437,-228.71394278399868,-366.018947244803
105022,5774,105022.0,19741.0,105022.0,25565.0,-607.1353906462891,-230.25107514518848,-368.49280455558926
105032,5792,105032.0,19706.0,105032.0,25551.0,-612.2369567497065,-231.7548919515997,-370.9128909109595
105032,5765,105032.0,19701.0,105032.0,25525.0,-617.3224981638307,-233.22011425860973,-373.27530530161334
105032,5750,105032.0,19692.0,105032.0,25523.0,-622.3879694339299,-234.6412814133545,-375.57566784500375
105032,5750,105032.0,19699.0,105032.0,25538.0,-627.4289399744297,-236.0130544556147,-377.80942239144173
105032,5765,105032.0,19714.0,105032.0,25528.0,-632.4407744022305,-237.3303105622421,-379.97193690265044
105032,5733,105032.0,19706.0,105032.0,25535.0,-637.4185995006566,-238.58799835053884,-382.0583977006849
105042,5746,105042.0,19690.0,105042.0,25521.0,-642.3572340264052,-239.78097883910561,-384.06372844027095
105042,5732,105042.0,19671.0,105042.0,25502.0,-647.2512292483159,-240.9041213843087,-385.9826533595489
105042,5717,105042.0,19669.0,105042.0,25498.0,-652.0949353890185,-241.9526588040327,-387.8099413985112
105042,5721,105042.0,19681.0,105042.0,25515.0,-656.8825981917082,-242.9225266247345,-389.54068564452785
105042,5725,105042.0,19694.0,105042.0,25527.0,-661.6084432950779,-243.81042351867228,-391.1703268558926
105042,5744,105042.0,19713.0,105042.0,25521.0,-666.2665644437711,-244.61355258713505,-392.69439086536295
105053,5725,105053.0,19699.0,105053.0,25516.0,-670.8506177462207,-245.32922370981564,-394.1082334518696
105053,5714,105053.0,19716.0,105053.0,25519.0,-675.3535893042384,-245.95455382975445,-395.4069810328854
105053,5710,105053.0,19683.0,105053.0,25506.0,-679.7678266509465,-246.48637049784287,-396.5855863798324
105053,5711,105053.0,19705.0,105053.0,25535.0,-684.0851864925958,-246.9212904392004,-397.6388639244029
105053,5699,105053.0,19729.0,105053.0,25529.0,-688.2970986522541,-247.25577491917622,-398.56138744296726
105053,5710,105053.0,19694.0,105053.0,25514.0,-692.39455861947,-247.48596571776227,-399.34729683287287
105063,5687,105063.0,19650.0,105063.0,25509.0,-696.368109693758,-247.60765192957405,-399.9902792636776
105063,5687,105063.0,19717.0,105063.0,25498.0,-700.20787370035,-247.61667734062235,-400.48379369830946
105063,5685,105063.0,19659.0,105063.0,25502.0,-703.9036568911197,-247.5092886563138,-400.8213406609849
105063,5672,105063.0,19699.0,105063.0,25528.0,-707.4450483760847,-247.28214543761453,-400.99658115915
105063,5684,105063.0,19715.0,105063.0,25534.0,-710.821468915216,-246.93222661564783,-401.00316937881485
105063,5699,105063.0,19704.0,105063.0,25516.0,-714.022119813293,-246.45658714837808,-400.83442482974806
105074,5667,105074.0,19682.0,105074.0,25507.0,-717.0357978571965,-245.85211062695905,-400.4832205591256
105074,5655,105074.0,19673.0,105074.0,25485.0,-719.8508397286289,-245.1156525524667,-399.9422394284403
105074,5649,105074.0,19710.0,105074.0,25506.0,-722.4553945777914,-244.24439022371354,-399.2043801191537
105074,5676,105074.0,19724.0,105074.0,25519.0,-724.8377195508608,-243.23583697896902,-398.26297109054923
105074,5670,105074.0,19740.0,105074.0,25523.0,-726.9861424772893,-242.08740148344228,-397.1116389135731
105074,5657,105074.0,19687.0,105074.0,25490.0,-728.888823637252,-240.79595557726003,-395.7441064214246
105084,5641,105084.0,19679.0,105084.0,25486.0,-730.5337095882281,-239.35794300801155,-394.15432562589183
105084,5630,105084.0,19666.0,105084.0,25495.0,-731.908794784646,-237.77000688568936,-392.33689500681714
105084,5636,105084.0,19707.0,105084.0,25491.0,-733.0024768627575,-236.02956123241316,-390.28737078778113
105084,5645,105084.0,19702.0,105084.0,25509.0,-733.803755033162,-234.13485948695975,-388.0023286836896
105084,5656,105084.0,19698.0,105084.0,25522.0,-734.3021687431934,-232.08473206063664,-385.4792592337521
105084,5658,105084.0,19725.0,105084.0,25526.0,-734.4875639841523,-229.8783896501002,-382.7163413525262
105094,5639,105094.0,19704.0,105094.0,25523.0,-734.3499020969807,-227.5153287739914,-379.712219652353
105094,5646,105094.0,19699.0,105094.0,25527.0,-733.8792834215155,-224.99530718008631,-376.46593737610135
105094,5638,105094.0,19739.0,105094.0,25534.0,-733.0661254013487,-222.3184336603268,-372.9769824861079
105094,5653,105094.0,19725.0,105094.0,25545.0,-731.9012991611442,-219.48513955305967,-369.2452992078117
105094,5666,105094.0,19721.0,105094.0,25516.0,-730.3761095117972,-216.49599347818648,-365.2712771853487
105094,5643,105094.0,19703.0,105094.0,25529.0,-728.4821652228321,-213.3517276071573,-361.05590038295225
105105,5635,105105.0,19693.0,105105.0,25531.0,-726.2113907832394,-210.0535907990365,-356.6010334549555
105105,5613,105105.0,19700.0,105105.0,25544.0,-723.5563640775006,-206.60380596482278,-351.90958853615643
105105,5645,105105.0,19722.0,105105.0,25551.0,-720.5107839318555,-203.00586043483577,-346.98549751101916
105105,5663,105105.0,19758.0,105105.0,25576.0,-717.0696630210762,-199.2644086678099,-341.8335746618149
105105,5665,105105.0,19769.0,105105.0,25562.0,-713.229106699303,-195.38478111813288,-336.45932623290565
105105,5667,105105.0,19745.0,105105.0,25579.0,-708.985995639529,-191.37244517063385,-330.8688281790053
105115,5659,105115.0,19758.0,105115.0,25571.0,-704.3379002510037,-187.23283890823052,-325.0687508439672
105115,5671,105115.0,19757.0,105115.0,25605.0,-699.2832067379501,-182.97153706294506,-319.0664109729759
105115,5677,105115.0,19785.0,105115.0,25608.0,-693.8212605987138,-178.59436041928817,-312.86968489601514
105115,5700,105115.0,19791.0,105115.0,25622.0,-687.9523758355045,-174.10724028228248,-306.48678669292474
105115,5699,105115.0,19767.0,105115.0,25618.0,-681.6776997751633,-169.5160118610729,-299.92608714920897
105115,5687,105115.0,19774.0,105115.0,25625.0,-674.9991095530951,-164.82645207609016,-293.1960946601058
105125,5691,105125.0,19720.0,105125.0,25610.0,-667.9193446167617,-160.04467695003336,-286.30558971572077
105125,5705,105125.0,19797.0,105125.0,25624.0,-660.4422962592115,-155.17768185184474,-279.2638742375579
105125,5714,105125.0,19820.0,105125.0,25666.0,-652.573182910811,-150.2334840568496,-272.08094929572644
105125,5759,105125.0,19820.0,105125.0,25682.0,-644.3184774936581,-145.2205921694547,-264.7673274640118
105125,5744,105125.0,19829.0,105125.0,25670.0,-635.6856251189877,-140.14736474570134,-257.3335867466669
105125,5743,105125.0,19812.0,105125.0,25666.0,-626.682814001636,-135.02180222556066,-249.7901696441742
105136,5755,105136.0,19812.0,105136.0,25668.0,-617.3190664807172,-129.85170310049642,-242.14760307905223
105136,5788,105136.0,19840.0,105136.0,25702.0,-607.6044373886539,-124.64491692473699,-234.4167907614332
105136,5794,105136.0,19851.0,105136.0,25710.0,-597.5499592516132,-119.40939238052727,-226.60902147523245
105136,5799,105136.0,19841.0,105136.0,25713.0,-587.1674311319773,-114.1529816909304,-218.7357475699076
105136,5805,105136.0,19839.0,105136.0,25712.0,-576.4693563357479,-108.88334515419572,-210.80845911036567
105136,5827,105136.0,19836.0,105136.0,25729.0,-565.4690387198525,-103.60812958427641,-202.83876259436147
105146,5835,105146.0,19840.0,105146.0,25730.0,-554.1806388674648,-98.33524839048061,-194.8384898238257
105146,5863,105146.0,19876.0,105146.0,25754.0,-542.6191127963675,-93.07303031705726,-186.81971512848534
105146,5875,105146.0,19899.0,105146.0,25777.0,-530.8000691668789,-87.83004230718345,-178.79464615361647
105146,5883,105146.0,19922.0,105146.0,25760.0,-518.7396112869629,-82.61457408116036,-170.7754181764838
105146,5900,105146.0,19859.0,105146.0,25776.0,-506.45426257047905,-77.4341808042017,-162.77400404642523
105146,5912,105146.0,19895.0,105146.0,25790.0,-493.96097492566867,-72.29576117569795,-154.80230816123796
105156,5927,105156.0,19900.0,105156.0,25808.0,-481.2771345404558,-67.2059662985011,-146.87219314955115
105156,5971,105156.0,19931.0,105156.0,25819.0,-468.4204876121093,-62.171299606879586,-138.99532554402444
105156,5970,105156.0,19901.0,105156.0,25836.0,-455.4089146271221,-57.197877279235286,-131.18296553152084
105156,6001,105156.0,19894.0,105156.0,25839.0,-442.2601436841999,-52.29136901934993,-123.445791470574
105156,5985,105156.0,19917.0,105156.0,25832.0,-428.99161072464517,-47.457282927791255,-115.79383166596006
105156,5994,105156.0,19913.0,105156.0,25831.0,-415.6205713281167,-42.70122191249021,-108.23659816764342
105167,6024,105167.0,19909.0,105167.0,25848.0,-402.16437446156505,-38.02892932145667,-100.78335548333132
105167,6041,105167.0,19958.0,105167.0,25883.0,-388.6406082257052,-33.446263249656965,-93.44324057171065
105167,6089,105167.0,19936.0,105167.0,25881.0,-375.06692882762746,-28.959040645812678,-86.22506179790093
105167,6096,105167.0,19971.0,105167.0,25904.0,-361.4606612527943,-24.572749006932384,-79.13696678456466
105167,6086,105167.0,19947.0,105167.0,25893.0,-347.83845438673575,-20.292346059254726,-72.1862399347595
105167,6103,105167.0,19951.0,105167.0,25898.0,-334.216293583544,-16.122252482410914,-65.37929816984268
105177,6124,105177.0,19994.0,105177.0,25925.0,-320.6097628826313,-12.066434306179247,-58.72179357817811
105177,6150,105177.0,19992.0,105177.0,25939.0,-307.03415767934035,-8.128279373430843,-52.21859003725672
105177,6150,105177.0,20006.0,105177.0,25919.0,-293.50437651034264,-4.310221196266895,-45.87358124548291
105177,6169,105177.0,19973.0,105177.0,25907.0,-280.03483632536336,-0.6134986515322112,-39.68971022626255
105177,6177,105177.0,19969.0,105177.0,25918.0,-266.63952206484356,2.961675360645586,-33.66934600124682
105177,6182,105177.0,19962.0,105177.0,25940.0,-253.33209924321437,6.415645619349249,-27.814651039077262
105187,6214,105187.0,19973.0,105187.0,25921.0,-240.1260263452524,9.748866407364261,-22.127662147624733
105187,6238,105187.0,20016.0,105187.0,25963.0,-227.0345492133173,12.9617709394916,-16.61023853796462
105187,6256,105187.0,20012.0,105187.0,25964.0,-214.0704879437331,16.05506159217674,-11.263955917394526
105187,6264,105187.0,19977.0,105187.0,25959.0,-201.24597371258977,19.030089029783653,-6.0899081006904225
105187,6274,105187.0,19999.0,105187.0,25977.0,-188.57234153471757,21.888824392609592,-1.0885921520552415
105187,6291,105187.0,19980.0,105187.0,25984.0,-176.06017451422224,24.633521642424114,3.7400946459876536
105198,6301,105198.0,20041.0,105198.0,26001.0,-163.71936969865862,27.266559744681416,8.396942313857153
105198,6344,105198.0,20030.0,105198.0,25999.0,-151.55910781515354,29.79069127308142,12.883604231108677
105198,6326,105198.0,19999.0,105198.0,25985.0,-139.58769823347836,32.20942618044077,17.202679567645305
105198,6345,105198.0,19993.0,105198.0,25987.0,-127.81247896770935,34.5269981709298,21.357564425306578
105198,6349,105198.0,19989.0,105198.0,25992.0,-116.2399292947457,36.74787713507695,25.352164700377102
105198,6356,105198.0,19991.0,105198.0,25989.0,-104.8758692774054,38.87630916116248,29.19068102875906
105208,6376,105208.0,20043.0,105208.0,26017.0,-93.72560836409559,40.91619563730316,32.87753854609417
105208,6401,105208.0,20036.0,105208.0,26009.0,-82.79398215985248,42.871400352832126,36.41745930628946
105208,6398,105208.0,20037.0,105208.0,26022.0,-72.08524683749317,44.7462578143917,39.81560840990426
105208,6428,105208.0,20009.0,105208.0,26011.0,-61.602954476689774,46.54579088459451,43.07766393511531
105208,6428,105208.0,20021.0,105208.0,26018.0,-51.34988811638709,48.275497965325,46.20975991223884
105208,6440,105208.0,20029.0,105208.0,26001.0,-41.32802402409902,49.9410515734572,49.21833656376083
105218,6454,105218.0,20039.0,105218.0,26032.0,-31.538539302706567,51.54823800096216,52.109964397844976
105218,6459,105218.0,20045.0,105218.0,26022.0,-21.981844530364583,53.10312371185833,54.89128361080452
105218,6464,105218.0,20007.0,105218.0,26017.0,-12.657621154607455,54.61217508745213,57.569050493874386
105218,6460,105218.0,19993.0,105218.0,26018.0,-3.5649385005531258,56.082031814618034,60.15008218903836
105218,6471,105218.0,19994.0,105218.0,26006.0,5.297525317180657,57.51894383117755,62.64105303279143
105218,6494,105218.0,19998.0,105218.0,26019.0,13.931288072532539,58.928264222294985,65.04826976562231
105229,6510,105229.0,20036.0,105229.0,26039.0,22.3380676981011,60.31432369115319,67.37756705591414
105229,6518,105229.0,20035.0,105229.0,26048.0,30.519969911707904,61.68070869466777,69.63445063094946
105229,6525,105229.0,20018.0,105229.0,26034.0,38.47965879733522,63.03065978228392,71.8243684272698
105229,6514,105229.0,20035.0,105229.0,26043.0,46.220360518716234,64.36721765516597,73.95281816627221
105229,6537,105229.0,20036.0,105229.0,26057.0,53.74570615356777,65.69317147969912,76.02529927368363
105229,6555,105229.0,20053.0,105229.0,26055.0,61.059603777907455,67.01111493818789,78.04734574086967
105239,6550,105239.0,20037.0,105239.0,26061.0,68.16629551333835,68.32361397414834,80.02464784611061
105239,6558,105239.0,20069.0,105239.0,26037.0,75.07043954047572,69.6333384164592,81.96307232841923
105239,6579,105239.0,20028.0,105239.0,26024.0,81.77707933125612,70.94313109019717,83.86844119577665
105239,6569,105239.0,20016.0,105239.0,26044.0,88.29162339888808,72.2558929057002,85.74613576542879
105239,6591,105239.0,19977.0,105239.0,26058.0,94.61986171385479,73.57408349028108,87.60086371452235
105239,6588,105239.0,20043.0,105239.0,26055.0,100.76795183155025,74.89907405121201,89.43677312953747
105249,6602,105249.0,20090.0,105249.0,26084.0,106.7424069267687,76.2310708167858,91.25771103167546
105249,6600,105249.0,20072.0,105249.0,26076.0,112.55008756276163,77.5698680475762,93.06747851136947
105249,6606,105249.0,20049.0,105249.0,26066.0,118.19815448953432,78.91562921362302,94.87002163390474
105249,6596,105249.0,20049.0,105249.0,26073.0,123.69395189763134,80.26894351530595,96.66941633269062
105249,6622,105249.0,20066.0,105249.0,26057.0,129.04484113766966,81.63047748796367,98.46968561480298
105249,6642,105249.0,20081.0,105249.0,26085.0,134.2581566884569,83.00086723939253,100.27463513242947
105260,6631,105260.0,20070.0,105260.0,26093.0,139.34137925329048,84.38092415500637,102.08785877217792
105260,6615,105260.0,20051.0,105260.0,26078.0,144.30223838142172,85.77177359154066,103.9129181881882
105260,6617,105260.0,20043.0,105260.0,26063.0,149.14846307924074,87.1746533322623,105.7534027246657
105260,6633,105260.0,20045.0,105260.0,26083.0,153.88738658577495,88.59050938339249,107.61270771709337
105260,6648,105260.0,20052.0,105260.0,26085.0,158.52578148065118,90.01969870607903,109.49383259313174
105260,6668,105260.0,20091.0,105260.0,26088.0,163.0700058409751,91.46199111103849,111.3994131809211
105270,6666,105270.0,20066.0,105270.0,26085.0,167.52628619014843,92.9168642344388,113.33181409048558
105270,6665,105270.0,20062.0,105270.0,26076.0,171.9009083527801,94.38377185374006,115.29309692622661
105270,6662,105270.0,20084.0,105270.0,26085.0,176.2001864971428,95.86212652319236,117.28487437473365
105270,6674,105270.0,20060.0,105270.0,26107.0,180.43029313704437,97.35120094219147,119.30821604910227
105270,6674,105270.0,20106.0,105270.0,26115.0,184.5971279804337,98.85015449605478,121.3637881740965
105270,6693,105270.0,20098.0,105270.0,26109.0,188.70629828339963,100.35821130156478,123.45214208152572
105281,6674,105281.0,20085.0,105281.0,26095.0,192.76314981083567,101.8749209769845,125.57384388853254
105281,6687,105281.0,20067.0,105281.0,26094.0,196.77272073147435,103.40018646077539,127.72930772876663
105281,6687,105281.0,20049.0,105281.0,26088.0,200.739598040984,104.93389497440805,129.91848430035805
105281,6717,105281.0,20052.0,105281.0,26093.0,204.66785039383763,106.47538081797785,132.14059495219544
105281,6713,105281.0,20090.0,105281.0,26137.0,208.56116064549417,108.02307820762894,134.394061070289
105281,6732,105281.0,20131.0,105281.0,26132.0,212.42305476514468,109.57470821262305,136.67676842774944
105291,6723,105291.0,20102.0,105291.0,26119.0,216.25706510284624,111.12794317721188,138.9864702479274
105291,6730,105291.0,20062.0,105291.0,26122.0,220.0667651624471,112.68084444267106,141.3209000191148
105291,6723,105291.0,20081.0,105291.0,26117.0,223.85568386317442,114.23157560796159,143.67758199142617
105291,6740,105291.0,20118.0,105291.0,26146.0,227.62717000819003,115.77793577368391,146.05367536868084
105291,6713,105291.0,20091.0,105291.0,26127.0,231.38426553840003,117.31739482547579,148.44601215236224
105291,6751,105291.0,20137.0,105291.0,26163.0,235.12956520740875,118.84743250579146,150.8512376640116
105301,6738,105301.0,20107.0,105301.0,26144.0,238.86513139024152,120.36580291897565,153.26596075781356
105301,6740,105301.0,20084.0,105301.0,26110.0,242.59250846762956,121.87060312595347,155.6867762194397
105301,6749,105301.0,20124.0,105301.0,26152.0,246.31269101516608,123.36006495305432,158.10999958968006
105301,6765,105301.0,20093.0,105301.0,26160.0,250.0260639640705,124.83233113876165,160.53143225059017
105301,6772,105301.0,20123.0,105301.0,26169.0,253.73248469635132,126.28544860627207,162.94654342625063
105301,6802,105301.0,20105.0,105301.0,26186.0,257.43151111087184,127.71742107424294,165.35084864921998
105312,6767,105312.0,20094.0,105312.0,26155.0,261.1226461471373,129.12618143373535,167.74014687639743
105312,6784,105312.0,20144.0,105312.0,26182.0,264.80538224377904,130.50951228929617,170.1105233070382
105312,6778,105312.0,20139.0,105312.0,26183.0,268.47899920481666,131.8651697200964,172.458253628681
105312,6812,105312.0,20166.0,105312.0,26204.0,272.1424089332344,133.19132770672772,174.779870878674
105312,6790,105312.0,20165.0,105312.0,26194.0,275.79422109903055,134.48706604281207,177.07238897129173
105312,6808,105312.0,20159.0,105312.0,26192.0,279.43284157435505,135.75268929490647,179.33344218013718
105322,6801,105322.0,20079.0,105322.0,26198.0,283.0564417856774,136.98966434737224,181.5612394865576
105322,6807,105322.0,20111.0,105322.0,26183.0,286.6628658201455,138.1999640356483,183.75442898726897
105322,6822,105322.0,20076.0,105322.0,26195.0,290.2495684399812,139.3851871697577,185.91194729984528
105322,6841,105322.0,20144.0,105322.0,26199.0,293.81367109772975,140.54609641329782,188.03289853543123
105322,6854,105322.0,20157.0,105322.0,26199.0,297.35220281886643,141.6828228901841,190.11653572999904
105322,6843,105322.0,20129.0,105322.0,26247.0,300.86239247938136,142.79547845812593,192.16238726271916
105332,6844,105332.0,20166.0,105332.0,26208.0,304.34176972814976,143.88459888013298,194.1705384037561
105332,6851,105332.0,20123.0,105332.0,26192.0,307.78804428935973,144.95121753768555,196.14179075634922
105332,6863,105332.0,20163.0,105332.0,26240.0,311.19898431330523,145.99680644126195,198.0774628161293
105332,6874,105332.0,20140.0,105332.0,26235.0,314.5724557506127,147.02323426068497,199.9792748174861
105332,6874,105332.0,20103.0,105332.0,26186.0,317.9065661605239,148.0326785944954,201.84950400839602
105332,6881,105332.0,20159.0,105332.0,26193.0,321.1997754108497,149.027358855773,203.69081937565937
105343,6860,105343.0,20113.0,105343.0,26195.0,324.4508761939363,150.00930422172527,205.50572694504
105343,6872,105343.0,20117.0,105343.0,26198.0,327.6588100085122,150.98028609686097,207.29619424104385
105343,6878,105343.0,20107.0,105343.0,26221.0,330.82243400319794,151.94161349426315,209.06362787121162
105343,6898,105343.0,20169.0,105343.0,26239.0,333.9404572822515,152.89393091739336,210.8090888219486
105343,6910,105343.0,20151.0,105343.0,26248.0,337.0116134964022,153.8374659426078,212.53369077839022
105343,6897,105343.0,20150.0,105343.0,26215.0,340.034907864032,154.7725261317957,214.23894465563143
105353,6903,105353.0,20125.0,105353.0,26215.0,343.00970593642955,155.6996685052227,215.92672146118713
105353,6904,105353.0,20158.0,105353.0,26214.0,345.93562771369466,156.61949704122392,217.59888808179676
105353,6911,105353.0,20173.0,105353.0,26252.0,348.81242724570563,157.5325779251171,219.25705710863497
105353,6936,105353.0,20143.0,105353.0,26238.0,351.64000141780537,158.4396627581028,220.9027177747863
105353,6912,105353.0,20165.0,105353.0,26236.0,354.4185178129801,159.3418554384659,222.53750308389567
105353,6918,105353.0,20134.0,105353.0,26233.0,357.14846535505967,160.24051829492663,224.16323488343932
105363,6918,105363.0,20133.0,105363.0,26226.0,359.8305002357936,161.13704088454378,225.78175694884578
105363,6929,105363.0,20135.0,105363.0,26226.0,362.4652712719178,162.03254426909984,227.39473006201206
105363,6929,105363.0,20157.0,105363.0,26237.0,365.05338454872776,162.92769072156048,229.00347402484272
105363,6952,105363.0,20165.0,105363.0,26244.0,367.595472929176,163.8227991768735,230.60894155330618
105363,6952,105363.0,20171.0,105363.0,26246.0,370.0923501730597,164.71817129060267,232.2118321059919
105363,6937,105363.0,20140.0,105363.0,26260.0,372.5451626264204,165.61432453502277,233.81274443056242
105374,6934,105374.0,20159.0,105374.0,26247.0,374.9553300132495,166.5119299496172,235.41230102211438
105374,6977,105374.0,20153.0,105374.0,26259.0,377.32435624376706,167.41161035623992,237.01120197554025
105374,6960,105374.0,20176.0,105374.0,26247.0,379.65387041786107,168.31389852927825,238.6101920225633
105374,6963,105374.0,20170.0,105374.0,26279.0,381.9458494077147,169.2193977998866,240.21003179922968
105374,6959,105374.0,20161.0,105374.0,26257.0,384.20265769892114,170.1289528234446,241.81157248291623
105374,6962,105374.0,20138.0,105374.0,26247.0,386.42689633286636,171.04359978642674,243.41580830467967
105384,6950,105384.0,20145.0,105384.0,26245.0,388.6212349169491,171.9642515054745,245.02369442094806
105384,6969,105384.0,20155.0,105384.0,26269.0,390.7882549551823,172.89137844870356,246.63587987052324
105384,6978,105384.0,20194.0,105384.0,26255.0,392.9303853655854,173.82501754284797,248.25265914706864
105384,6983,105384.0,20140.0,105384.0,26270.0,395.05001914691,174.7650783961167,249.87407963323471
105384,6966,105384.0,20171.0,105384.0,26275.0,397.14965326746847,175.71150576394825,251.5000288241165
105384,6982,105384.0,20142.0,105384.0,26260.0,399.23185135177573,176.6641201728056,253.13029729094205
105394,6982,105394.0,20167.0,105394.0,26280.0,401.2991221772228,177.62242002553967,254.7645870331139
105394,6990,105394.0,20199.0,105394.0,26285.0,403.35390008252364,178.58560625572719,256.40250772435763
105394,6989,105394.0,20206.0,105394.0,26287.0,405.3986009009237,179.5529550171267,258.0436883569271
105394,6990,105394.0,20170.0,105394.0,26293.0,407.43564406050325,180.52430165545007,259.6879334664017
105394,6986,105394.0,20169.0,105394.0,26271.0,409.4674043483594,181.50010981595193,261.33526812238927
105394,6975,105394.0,20133.0,105394.0,26268.0,411.4960770734647,182.48104271971323,262.98578872002855
105405,7002,105405.0,20160.0,105405.0,26278.0,413.5235010769435,183.46740491527578,264.63938028618986
105405,7010,105405.0,20176.0,105405.0,26292.0,415.55112975163,184.4588430449087,266.2955593367833
105405,7017,105405.0,20188.0,105405.0,26300.0,417.5802410803884,185.45450192023762,267.9535920466652
105405,7015,105405.0,20175.0,105405.0,26294.0,419.6121842743589,186.4534031909244,269.6127278742678
105405,7008,105405.0,20156.0,105405.0,26288.0,421.64845452616737,187.45459939017067,271.2723058176919
105405,7011,105405.0,20170.0,105405.0,26283.0,423.69059178770647,188.45698803566415,272.9316523776561
105415,7007,105415.0,20197.0,105415.0,26309.0,425.7400107838174,189.45913592100177,274.5899250528391
105415,7017,105415.0,20196.0,105415.0,26303.0,427.7978654254623,190.4594536188032,276.24612602404414
105415,7033,105415.0,20211.0,105415.0,26315.0,429.8650244813193,191.4565886989727,277.8992779603763
105415,7019,105415.0,20180.0,105415.0,26294.0,431.9421685911394,192.44968760710103,279.5485434179646
105415,7022,105415.0,20148.0,105415.0,26295.0,434.02985074404694,193.43827732759033,281.1931441788936
105415,7013,105415.0,20179.0,105415.0,26314.0,436.1283825887266,194.42178102756313,282.8321756738378
105425,7029,105425.0,20189.0,105425.0,26321.0,438.2376497699886,195.39914934654706,284.46457959888386
105425,7056,105425.0,20210.0,105425.0,26326.0,440.35708294111123,196.36900805045934,286.0893455869157
105425,7044,105425.0,20189.0,105425.0,26326.0,442.4858795718568,197.33006304787963,287.70573150019015
105425,7056,105425.0,20185.0,105425.0,26307.0,444.6232701509264,198.28129128422364,289.3133202409197
105425,7043,105425.0,20181.0,105425.0,26306.0,446.76859405659377,199.2218062494516,290.91185846387566
105425,7041,105425.0,20202.0,105425.0,26306.0,448.92119321562484,200.15066324022908,292.50096827455116
105436,7060,105436.0,20205.0,105436.0,26352.0,451.0802490448077,201.06688367986618,294.08001524512076
105436,7075,105436.0,20205.0,105436.0,26316.0,453.2447610235214,201.96966614751886,295.64830275451595
105436,7064,105436.0,20193.0,105436.0,26322.0,455.4137337079642,202.85853320614981,297.20529113891524
105436,7055,105436.0,20192.0,105436.0,26316.0,457.58630104168526,203.7332723939662,298.7505118089234
105436,7052,105436.0,20160.0,105436.0,26310.0,459.7615734816078,204.59369770440466,300.2833240833679
105436,7073,105436.0,20179.0,105436.0,26321.0,461.9383880811182,205.43929430059865,301.8027353433027
105446,7070,105446.0,20187.0,105446.0,26333.0,464.11524083559084,206.26894277570923,303.3073492890748
105446,7074,105446.0,20228.0,105446.0,26334.0,466.290383117215,207.08101237025048,304.79548280831
105446,7094,105446.0,20191.0,105446.0,26344.0,468.4619223750965,207.87378068378527,306.26536245584686
105446,7085,105446.0,20199.0,105446.0,26316.0,470.6279332281298,208.64572864152805,307.7152265592156
105446,7086,105446.0,20208.0,105446.0,26346.0,472.7865567507646,209.39550030203648,309.1432601527642
105446,7092,105446.0,20202.0,105446.0,26355.0,474.9359827811403,210.12182301697314,310.5475469562637
105456,7100,105456.0,20205.0,105456.0,26360.0,477.07439626155667,210.82354381350626,311.9262590418118
105456,7098,105456.0,20221.0,105456.0,26340.0,479.2000030231093,211.49968287897042,313.277902115365
105456,7097,105456.0,20193.0,105456.0,26332.0,481.3110622208315,212.14949406599092,314.6012825577371
105456,7097,105456.0,20194.0,105456.0,26327.0,483.4058344114686,212.77242924027297,315.8952003219975
105456,7092,105456.0,20189.0,105456.0,26348.0,485.48246354568505,213.3679154295037,317.15815509734784
105456,7112,105456.0,20192.0,105456.0,26345.0,487.5388698348386,213.93512288083434,318.38829850953334
105467,7130,105467.0,20202.0,105467.0,26379.0,489.57279116715523,214.47288594587383,319.583632407783
105467,7108,105467.0,20241.0,105467.0,26357.0,491.581993378176,214.979847651161,320.74231973096954
105467,7126,105467.0,20205.0,105467.0,26352.0,493.5644066020244,215.4548259661277,321.86288540591295
105467,7103,105467.0,20199.0,105467.0,26341.0,495.5180521866325,215.89705980096406,322.9441150826897
105467,7118,105467.0,20190.0,105467.0,26344.0,497.44087356956766,216.30603121337128,323.98476306056796
105467,7130,105467.0,20207.0,105467.0,26359.0,499.3306148652767,216.68113300456966,324.98335074390064
105477,7138,105477.0,20226.0,105477.0,26357.0,501.18487877402237,217.02160670452162,325.93818518902003
105477,7130,105477.0,20198.0,105477.0,26351.0,503.00130924565394,217.32675501479957,326.84748041534897
105477,7126,105477.0,20166.0,105477.0,26346.0,504.77765815314734,217.59599565772106,327.709369045268
105477,7126,105477.0,20175.0,105477.0,26348.0,506.5116611750579,217.82846524058013,328.52177599883214
105477,7135,105477.0,20208.0,105477.0,26380.0,508.2008767640585,218.02257992460434,329.2823566767046
105477,7132,105477.0,20221.0,105477.0,26351.0,509.8426238665372,218.1761215946009,329.9886413590425
105487,7150,105487.0,20243.0,105487.0,26379.0,511.43401645045196,218.28679696303317,330.638226021759
105487,7147,105487.0,20217.0,105487.0,26379.0,512.9720625493335,218.35280826705122,331.22888620152565
105487,7150,105487.0,20207.0,105487.0,26356.0,514.4537833935922,218.37306528600192,331.75867874427
105487,7151,105487.0,20208.0,105487.0,26372.0,515.8762697530896,218.3470002838194,332.225936393923
105487,7163,105487.0,20221.0,105487.0,26392.0,517.2366917768663,218.2743218496554,332.62919778245293
105487,7168,105487.0,20225.0,105487.0,26369.0,518.5323676574275,218.15501526189428,332.96731572096894
105498,7164,105498.0,20203.0,105498.0,26375.0,519.7608891870944,217.9894861763895,333.23959610745953
105498,7160,105498.0,20184.0,105498.0,26360.0,520.9201767986262,217.77851170229684,333.44572059444107
105498,7154,105498.0,20180.0,105498.0,26359.0,522.0083892908362,217.5228835021418,333.58554208348664
105498,7149,105498.0,20197.0,105498.0,26351.0,523.0237348538328,217.2230241916273,333.65887448263715
105498,7158,105498.0,20198.0,105498.0,26356.0,523.9642785712131,216.8788967648375,333.66531316174917
105498,7184,105498.0,20211.0,105498.0,26386.0,524.8278962149993,216.49019286672262,333.60419944229636
105508,7190,105508.0,20214.0,105508.0,26369.0,525.612501890569,216.0566056356691,333.47482424948737
105508,7172,105508.0,20194.0,105508.0,26364.0,526.3163897246704,215.57803534375432,333.2766726219919
105508,7165,105508.0,20195.0,105508.0,26354.0,526.9383294398428,215.05459630077928,333.00941566144735
105508,7171,105508.0,20214.0,105508.0,26379.0,527.4773612294249,214.48649585468775,332.6727511238071
105508,7186,105508.0,20217.0,105508.0,26376.0,527.9326157930062,213.8740768999428,332.2664144347259
105508,7179,105508.0,20228.0,105508.0,26370.0,528.3033639607655,213.21809066857654,331.79036823343154
105519,7177,105519.0,20183.0,105519.0,26360.0,528.589138085594,212.51991646995577,331.2448952270967
105519,7162,105519.0,20183.0,105519.0,26360.0,528.789702617652,211.78142479575723,330.63048912280505
105519,7177,105519.0,20167.0,105519.0,26340.0,528.904883995864,211.00452624547597,329.9476589809176
105519,7175,105519.0,20181.0,105519.0,26367.0,528.9344500951413,210.1907623908764,329.1967522095623
105519,7171,105519.0,20189.0,105519.0,26350.0,528.8781201853485,209.34118541585303,328.3779014192687
105519,7181,105519.0,20169.0,105519.0,26375.0,528.7356001770634,208.45645970143102,327.4911315539146
105529,7175,105529.0,20192.0,105529.0,26363.0,528.506600665115,207.5369627127584,326.53654027277304
105529,7167,105529.0,20163.0,105529.0,26346.0,528.19084385047,206.58280219290572,325.51442003912115
105529,7178,105529.0,20180.0,105529.0,26345.0,527.7880107810238,205.59379012501148,324.42517620357637
105529,7185,105529.0,20195.0,105529.0,26368.0,527.2977118931454,204.5694463127886,323.2691503539262
105529,7199,105529.0,20213.0,105529.0,26361.0,526.7196245478649,203.50921776604434,322.046658547713
105529,7191,105529.0,20205.0,105529.0,26375.0,526.0537469795921,202.41291390302368,320.7582423920287
105539,7179,105539.0,20192.0,105539.0,26354.0,525.3005602223716,201.28103581144455,319.40488404063103
105539,7158,105539.0,20152.0,105539.0,26349.0,524.4609239726642,200.11471625041247,317.9880333094776
105539,7178,105539.0,20144.0,105539.0,26339.0,523.5357731570018,198.9152420459454,316.50944080707393
105539,7160,105539.0,20156.0,105539.0,26363.0,522.5258863578529,197.6834563352995,314.9709751212643
105539,7184,105539.0,20204.0,105539.0,26327.0,521.4318515407307,196.41955667229533,313.3745939994433
105539,7184,105539.0,20195.0,105539.0,26339.0,520.2541784652789,195.12351764782574,311.72233387396744
105550,7175,105550.0,20167.0,105550.0,26345.0,518.9934869297699,193.7956786314465,310.01621446036955
105550,7178,105550.0,20184.0,105550.0,26315.0,517.6506210753103,192.43690975111636,308.25818990446214
105550,7163,105550.0,20149.0,105550.0,26343.0,516.2266087795896,191.04841883202283,306.4501221290651
105550,7190,105550.0,20154.0,105550.0,26354.0,514.7225875355214,189.63149675349877,304.5938026252944
105550,7170,105550.0,20195.0,105550.0,26334.0,513.1398384417432,188.18735499027784,302.69117642905906
105550,7168,105550.0,20168.0,105550.0,26343.0,511.47986755630035,186.71727385855888,300.74456585037217
105560,7166,105560.0,20151.0,105560.0,26302.0,509.7443686267935,185.22287726799533,298.7566328309048
105560,7151,105560.0,20125.0,105560.0,26317.0,507.93508536189546,183.70601788901163,296.7301183051712
105560,7153,105560.0,20156.0,105560.0,26315.0,506.05365616318517,182.16834958517947,294.6675669245293
105560,7158,105560.0,20133.0,105560.0,26321.0,504.1014837607994,180.61108691197705,292.57126573774315
105560,7161,105560.0,20170.0,105560.0,26317.0,502.0797288630715,179.03508924374378,290.4433744855724
105560,7168,105560.0,20157.0,105560.0,26309.0,499.9894459878435,177.44111771007638,288.286041015189
105570,7142,105570.0,20159.0,105570.0,26307.0,497.831721799695,175.83012527378253,286.10140662803997
105570,7161,105570.0,20141.0,105570.0,26310.0,495.60767830452573,174.20339778745998,283.8915579548546
105570,7161,105570.0,20155.0,105570.0,26320.0,493.3184319324064,172.56249742619576,281.6585548057988
105570,7180,105570.0,20158.0,105570.0,26323.0,490.9652270325611,170.909220944243,279.4046027331964
105570,7153,105570.0,20144.0,105570.0,26305.0,488.549699220195,169.24569210386804,277.13226500433404
105570,7147,105570.0,20121.0,105570.0,26286.0,486.07397914050415,167.5743838221869,274.84448523046507
105581,7130,105581.0,20112.0,105581.0,26286.0,483.54050303029965,165.89786557252424,272.5443436675047
105581,7125,105581.0,20098.0,105581.0,26276.0,480.9516817884833,164.2183852438032,270.2347514905111
105581,7141,105581.0,20134.0,105581.0,26293.0,478.3096551360275,162.53757477076482,267.9182994829201
105581,7138,105581.0,20119.0,105581.0,26273.0,475.61627852110803,160.85649195532142,265.59728128518464
105581,7150,105581.0,20146.0,105581.0,26277.0,472.8733184152399,159.17592961927764,263.2737514825311
105581,7137,105581.0,20103.0,105581.0,26280.0,470.08268392171703,157.49669861166717,260.94952536560163
105591,7125,105591.0,20111.0,105591.0,26276.0,467.2465307147668,155.81964584301755,258.62620326882677
105591,7119,105591.0,20102.0,105591.0,26269.0,464.3671664155802,154.14543767513518,256.30523966367986
105591,7123,105591.0,20129.0,105591.0,26283.0,461.44686661620244,152.4744162448713,253.98798612378306
105591,7124,105591.0,20134.0,105591.0,26280.0,458.4877977779969,150.8067674991599,251.67577489552133
105591,7122,105591.0,20093.0,105591.0,26256.0,455.49208335812,149.14282081745074,249.3700389811121
105591,7092,105591.0,20094.0,105591.0,26228.0,452.4618471483133,147.48305118506758,247.07221167804337
105601,7105,105601.0,20067.0,105601.0,26236.0,449.3990779305724,145.82770093445697,244.7833164864776
105601,7100,105601.0,20098.0,105601.0,26252.0,446.3054368044538,144.17638531116907,242.50361161084484
105601,7104,105601.0,20094.0,105601.0,26257.0,443.18222770752527,142.5280036314132,240.23263912811632
105601,7124,105601.0,20131.0,105601.0,26250.0,440.0305472643916,140.88101270827383,237.96954120120543
105601,7097,105601.0,20109.0,105601.0,26266.0,436.8515208283621,139.233900680941,235.7133296723959
105601,7084,105601.0,20098.0,105601.0,26246.0,433.64641825774834,137.5855374963157,233.46305037211272
105612,7084,105612.0,20079.0,105612.0,26238.0,430.41648749126495,135.93514305158322,231.21784014798024
105612,7115,105612.0,20117.0,105612.0,26254.0,427.1627790830471,134.28204504913336,228.9768543825743
105612,7103,105612.0,20104.0,105612.0,26256.0,423.8863117593938,132.62566775980946,226.7392613275369
105612,7074,105612.0,20113.0,105612.0,26248.0,420.5883664706543,130.9658023084177,224.5044186317784
105612,7077,105612.0,20084.0,105612.0,26218.0,417.27046368473106,129.3028043471069,222.2719730530409
105612,7063,105612.0,20044.0,105612.0,26202.0,413.9340744726058,127.63743175375893,220.04162433718386
105622,7063,105622.0,20050.0,105622.0,26220.0,410.5803871090373,125.97030008518622,217.81269493890795
105622,7054,105622.0,20070.0,105622.0,26233.0,407.21018783088704,124.30134229610732,215.5839366485655
105622,7081,105622.0,20096.0,105622.0,26226.0,403.8238395257386,122.62978673280678,213.35373806930477
105622,7061,105622.0,20102.0,105622.0,26240.0,400.4214271304648,120.95466352192015,211.12045573337394
105622,7075,105622.0,20072.0,105622.0,26227.0,397.00298472890034,119.27535570537269,208.88264629622495
105622,7058,105622.0,20064.0,105622.0,26210.0,393.5686383973454,117.59173778645007,206.63915533553032
105632,7062,105632.0,20044.0,105632.0,26208.0,390.1186465799216,115.90388146707032,204.38900613586517
105632,7071,105632.0,20077.0,105632.0,26244.0,386.6534250070445,114.21170701695762,202.13126253577198
105632,7063,105632.0,20044.0,105632.0,26213.0,383.17365126103044,112.51488990401764,199.8651593072762
105632,7037,105632.0,20084.0,105632.0,26228.0,379.680363976889,110.81297209677041,197.5903584358
105632,7038,105632.0,20043.0,105632.0,26191.0,376.17484821197826,109.105504008442,195.30699740918965
105632,7034,105632.0,20055.0,105632.0,26195.0,372.6583838521765,107.3920976961016,193.01549309843756
105643,7032,105643.0,20048.0,105643.0,26195.0,369.1321059311985,105.6723447826941,190.71627526641885
105643,7045,105643.0,20061.0,105643.0,26186.0,365.5970334861982,103.94575696402086,188.4096399225243
105643,7048,105643.0,20081.0,105643.0,26207.0,362.0542385792204,102.21191731867259,186.09576905600156
105643,7022,105643.0,20064.0,105643.0,26198.0,358.50506438072597,100.47081005426445,183.77487423923316
105643,7028,105643.0,20050.0,105643.0,26184.0,354.95117776297616,98.7230656160964,181.44737100155325
105643,7001,105643.0,20035.0,105643.0,26186.0,351.39441183602133,96.9698762859372,179.1139058769039
105653,7004,105653.0,20047.0,105653.0,26180.0,347.8365359852504,95.21270974455935,176.77525432393276
105653,7024,105653.0,20073.0,105653.0,26197.0,344.2791031074485,93.4532070906121,174.43229389214648
105653,7021,105653.0,20060.0,105653.0,26188.0,340.72355005121346,91.69344133156557,172.0861335566907
105653,6998,105653.0,20027.0,105653.0,26171.0,337.1714540706,89.93620642491001,169.73826360200061
105653,6988,105653.0,20005.0,105653.0,26153.0,333.62457287833365,88.18486122695805,167.3904932891418
105653,6987,105653.0,20011.0,105653.0,26163.0,330.0846136053922,86.4427889715835,165.04467625854792
105663,6971,105663.0,20030.0,105663.0,26148.0,326.55299369361444,84.71300238849818,162.70248264700544
105663,6985,105663.0,20030.0,105663.0,26159.0,323.03071509057713,82.9982039837752,160.36533725995312
105663,6984,105663.0,20024.0,105663.0,26162.0,319.5183678908945,81.30108687075528,158.03447315241573
105663,6983,105663.0,20026.0,105663.0,26156.0,316.01627350836964,79.62453405247163,155.71107223863362
105663,6985,105663.0,19994.0,105663.0,26143.0,312.5246641470555,77.97161285547648,153.39638158344673
105663,6977,105663.0,19998.0,105663.0,26140.0,309.0438054659387,76.34537656325048,151.09167176975944
105674,6975,105674.0,20036.0,105674.0,26144.0,305.57405635496343,74.74866540430023,148.79811622566373
105674,6964,105674.0,19992.0,105674.0,26165.0,302.11586176375283,73.18419416422907,146.51680800732393
105674,6971,105674.0,20023.0,105674.0,26162.0,298.6697069016733,71.65476240782888,144.249017206923
105674,6952,105674.0,19934.0,105674.0,26123.0,295.23608338646113,70.16318045467602,141.99646431412455
105674,6951,105674.0,19981.0,105674.0,26101.0,291.81543899267933,68.71181388029916,139.76119664874057
105674,6934,105674.0,19959.0,105674.0,26126.0,288.408052295772,67.30207227470285,137.54510018910884
105684,6941,105684.0,19999.0,105684.0,26110.0,285.0138706478524,65.93429549878519,135.34957492314774
105684,6963,105684.0,20012.0,105684.0,26128.0,281.6324713496333,64.60810619990755,133.1755821066576
105684,6952,105684.0,20008.0,105684.0,26109.0,278.26327553606063,63.322977629953016,131.0238083948954
105684,6941,105684.0,19978.0,105684.0,26114.0,274.9058387218921,62.07864440672401,128.8947545607747
105684,6931,105684.0,19981.0,105684.0,26110.0,271.5599124402569,60.875068862429515,126.78874270363943
105684,6932,105684.0,19978.0,105684.0,26133.0,268.22529924650325,59.712153215681866,124.70596537707584
105694,6949,105694.0,20016.0,105694.0,26127.0,264.9017742958314,58.58964076319944,122.64670411664588
105694,6923,105694.0,19987.0,105694.0,26102.0,261.5891908753374,57.507353825438514,120.61157772105193
105694,6912,105694.0,19979.0,105694.0,26110.0,258.2875533578899,56.465446681051276,118.60155111986205
105694,6912,105694.0,19948.0,105694.0,26093.0,254.99686330404248,55.46428696373343,116.61774932790783
105694,6913,105694.0,19937.0,105694.0,26083.0,251.71692286942576,54.50398575450649,114.66127073239102
105694,6914,105694.0,19942.0,105694.0,26079.0,248.44731407881122,53.58387587252881,112.73299360702009
105705,6904,105705.0,19993.0,105705.0,26092.0,245.18748718946182,52.70231072985743,110.83341426986044
105705,6914,105705.0,19984.0,105705.0,26092.0,241.93683066062826,51.85702257114815,108.96267470672305
105705,6906,105705.0,19975.0,105705.0,26103.0,238.69473488615623,51.04572242368883,107.12077559492303
105705,6890,105705.0,19949.0,105705.0,26071.0,235.46064768327653,50.26634078065803,105.30778246633301
105705,6898,105705.0,19960.0,105705.0,26077.0,232.23403453526146,49.516811949394906,103.52382263479586
105705,6905,105705.0,19984.0,105705.0,26093.0,229.0143285999891,48.79485544376138,101.76894978526622
105715,6902,105715.0,19959.0,105715.0,26084.0,225.80104251533757,48.09807423546087,100.04317370597482
105715,6901,105715.0,19987.0,105715.0,26088.0,222.5939691626366,47.424185778621364,98.34665516004773
105715,6877,105715.0,19980.0,105715.0,26056.0,219.39327105204995,46.77119565266358,96.67978662080586
105715,6883,105715.0,19947.0,105715.0,26065.0,216.19938547980945,46.137507822593165,95.04303946453075
105715,6866,105715.0,19952.0,105715.0,26068.0,213.01284258930798,45.521805634972566,93.43674760021523
105715,6880,105715.0,19940.0,105715.0,26078.0,209.8341420293964,44.92271372091918,91.8610885809513
105726,6870,105726.0,19991.0,105726.0,26062.0,206.66374890378012,44.33862940439778,90.31625409048931
105726,6862,105726.0,19944.0,105726.0,26058.0,203.50215030591568,43.76791389034989,88.80255278468127
105726,6854,105726.0,19947.0,105726.0,26049.0,200.34984088064192,43.20909520366811,87.32032810397709
105726,6846,105726.0,19933.0,105726.0,26038.0,197.20720096826705,42.66072675614777,85.86978008991494
105726,6856,105726.0,19963.0,105726.0,26066.0,194.074378618617,42.12113836379996,84.45083285528838
105726,6858,105726.0,19968.0,105726.0,26063.0,190.95130497956364,41.588492600073266,83.06321364605287
105736,6847,105736.0,19967.0,105736.0,26051.0,187.83783698174403,41.061124276531785,81.7067090918683
105736,6847,105736.0,19938.0,105736.0,26028.0,184.73386542099263,40.53779276640083,80.38126069017514
105736,6830,105736.0,19934.0,105736.0,26020.0,181.63929130146897,40.01757199640667,79.08671941830809
105736,6825,105736.0,19908.0,105736.0,26023.0,178.55390079679609,39.49945909601624,77.82247399069564
105736,6817,105736.0,19940.0,105736.0,26024.0,175.47718740115755,38.98198708180908,76.58723811282599
105736,6834,105736.0,19931.0,105736.0,26035.0,172.40823055795693,38.46310267255865,75.37907365466697
105746,6841,105746.0,19959.0,105746.0,26037.0,169.34578255998343,37.94036392358393,74.19557085897799
105746,6821,105746.0,19942.0,105746.0,26021.0,166.28852327321482,37.41127358587093,73.03404600754175
105746,6820,105746.0,19934.0,105746.0,26042.0,163.235209518401,36.87350137089524,71.89163519660002
105746,6814,105746.0,19931.0,105746.0,26050.0,160.18460986857133,36.32485960950149,70.76538953808185
105746,6819,105746.0,19942.0,105746.0,26017.0,157.13541310595906,35.763167967818504,69.65246699052727
105746,6827,105746.0,19942.0,105746.0,26043.0,154.08627025003642,35.186252160630914,68.55021651672277
105757,6805,105757.0,19949.0,105757.0,26028.0,151.03593174585598,34.59209696880205,67.45612834916415
105757,6798,105757.0,19924.0,105757.0,26027.0,147.98328760008724,33.97898161320859,66.36783865311267
105757,6791,105757.0,19911.0,105757.0,26018.0,144.92721134085338,33.34540529537358,65.28312795589787
105757,6802,105757.0,19905.0,105757.0,26003.0,141.86638592347964,32.68977058173962,64.19980009034771
105757,6802,105757.0,19938.0,105757.0,26016.0,138.7993139895044,32.01010395538148,63.115502435880586
105757,6810,105757.0,19960.0,105757.0,26010.0,135.72450442435417,31.304187975708714,62.0276251416781
105767,6803,105767.0,19948.0,105767.0,26002.0,132.64070573985668,30.57009094103077,60.9333178588567
105767,6782,105767.0,19920.0,105767.0,26009.0,129.5470345460555,29.80658616691096,59.82950466584714
105767,6778,105767.0,19905.0,105767.0,25995.0,126.44288582110909,29.013046075873774,58.71285680373302
105767,6796,105767.0,19927.0,105767.0,26023.0,123.32775047661409,28.18902565163313,57.57980831564106
105767,6788,105767.0,19933.0,105767.0,26033.0,120.20122153336905,27.334073589146072,56.426738142281806
105767,6786,105767.0,19939.0,105767.0,26003.0,117.06317880312457,26.447937100587723,55.25029652399553
105777,6763,105777.0,19916.0,105777.0,26001.0,113.91387686053935,25.53084064271033,54.04754393255428
105777,6768,105777.0,19872.0,105777.0,25990.0,110.7538270255103,24.583433827532673,52.81575288352144
105777,6756,105777.0,19879.0,105777.0,26001.0,107.58361298272786,23.606289110676983,51.552162115653175
105777,6733,105777.0,19915.0,105777.0,25993.0,104.40372906551164,22.5993823159653,50.25390785938475
105777,6765,105777.0,19934.0,105777.0,25991.0,101.21441892454823,21.562165119976783,48.91806550126444
105777,6762,105777.0,19927.0,105777.0,26019.0,98.01567443834739,20.494170807925144,47.54173090537921
105788,6757,105788.0,19900.0,105788.0,26007.0,94.80749199296679,19.395501675364187,46.12222850297587
105788,6744,105788.0,19914.0,105788.0,25983.0,91.5900947114618,18.266843934009273,44.657347078094915
105788,6745,105788.0,19891.0,105788.0,25985.0,88.363922304308,17.10925296154909,43.145301798790115
105788,6759,105788.0,19889.0,105788.0,25999.0,85.12957673575067,15.923965886230121,41.58452374991987
105788,6726,105788.0,19910.0,105788.0,26016.0,81.88787951553388,14.71227385331585,39.97369188645655
105788,6712,105788.0,19909.0,105788.0,25980.0,78.63984227025799,13.475575356759748,38.312015551014895
105798,6712,105798.0,19843.0,105798.0,25958.0,75.38638259848835,12.215495241413748,36.59930416424834
105798,6700,105798.0,19890.0,105798.0,25956.0,72.1280057627514,10.933668634441204,34.835597456476876
105798,6704,105798.0,19872.0,105798.0,25987.0,68.86465051435937,9.631388078773199,33.02077313407028
105798,6702,105798.0,19892.0,105798.0,25981.0,65.59565856076739,8.309603556687364,31.15459743607704
105798,6736,105798.0,19914.0,105798.0,25974.0,62.31989398364806,6.969228815569437,29.23706680492097
105798,6713,105798.0,19857.0,105798.0,25980.0,59.03607131210117,5.611468617061178,27.268627836454982
105808,6704,105808.0,19896.0,105808.0,25968.0,55.74307169636057,4.237901768667712,25.25022288804928
105808,6693,105808.0,19871.0,105808.0,25951.0,52.4399558028461,2.850346204670984,23.183256442240065
105808,6698,105808.0,19823.0,105808.0,25950.0,49.125774649316554,1.4506902235531243,21.06943969669544
105808,6710,105808.0,19903.0,105808.0,25968.0,45.79949815631613,0.040637208502744215,18.91062463979614
105808,6703,105808.0,19882.0,105808.0,25969.0,42.46016870065074,-1.3783205290808382,16.708876473193243
105808,6679,105808.0,19831.0,105808.0,25944.0,39.10707732901602,-2.804567298128859,14.466707417970554
105819,6681,105819.0,19887.0,105819.0,25943.0,35.739713741995445,-4.236292323685177,12.187129826544037
105819,6674,105819.0,19778.0,105819.0,25940.0,32.35756292309088,-5.671808337687764,9.873486018738674
105819,6660,105819.0,19817.0,105819.0,25940.0,28.95995484791075,-7.110054101341149,7.529315803658164
105819,6689,105819.0,19887.0,105819.0,25948.0,25.54601181166646,-8.551034014749547,5.158383001971174
105819,6668,105819.0,19885.0,105819.0,25919.0,22.114737916561467,-9.995474403530238,2.7647616905967425
105819,6680,105819.0,19878.0,105819.0,25920.0,18.665218364359248,-11.443832076941504,0.35280193560174666
105829,6661,105829.0,19882.0,105829.0,25919.0,15.19675049484107,-12.895644741807388,-2.073043332976283
105829,6653,105829.0,19851.0,105829.0,25912.0,11.708829694454039,-14.349443852589332,-4.508338192006761
105829,6657,105829.0,19873.0,105829.0,25916.0,8.20103876462207,-15.802896003829119,-6.948665727011246
105829,6676,105829.0,19879.0,105829.0,25899.0,4.673014803839351,-17.25289364013679,-9.38961147136456
105829,6654,105829.0,19794.0,105829.0,25879.0,1.1246271796169935,-18.69557694525193,-11.826841755007194
105829,6637,105829.0,19832.0,105829.0,25889.0,-2.4438641054836694,-20.126679609991726,-14.256323651054572
105839,6633,105839.0,19811.0,105839.0,25858.0,-6.031934759649403,-21.54212574590062,-16.674569283629523
105839,6627,105839.0,19804.0,105839.0,25873.0,-9.639061561602887,-22.938351911211072,-19.078821653220132
105839,6626,105839.0,19827.0,105839.0,25884.0,-13.264877834011713,-24.312360447886647,-21.467137569520332
105839,6638,105839.0,19824.0,105839.0,25898.0,-16.909170478487567,-25.661641857045765,-23.838209932159373
105839,6627,105839.0,19835.0,105839.0,25883.0,-20.571746918399924,-26.983921790371227,-26.190984066644944
105839,6617,105839.0,19792.0,105839.0,25874.0,-24.252291359488822,-28.276949280237886,-28.524400052818635
105850,6604,105850.0,19792.0,105850.0,25858.0,-27.95038239405801,-29.538615675907607,-30.837437147791775
105850,6608,105850.0,19773.0,105850.0,25862.0,-31.665647676695755,-30.767359836334265,-33.12933082134521
105850,6624,105850.0,19839.0,105850.0,25854.0,-35.39783105401864,-31.96244275920219,-35.399747922300946
105850,6600,105850.0,19829.0,105850.0,25867.0,-39.1466588344835,-33.123680881512314,-37.64881881400731
105850,6604,105850.0,19803.0,105850.0,25867.0,-42.91169543925656,-34.25086271186376,-39.877024466964656
105850,6591,105850.0,19782.0,105850.0,25848.0,-46.692360462552756,-35.343559130674606,-42.08502957428152
105860,6577,105860.0,19779.0,105860.0,25849.0,-50.488044422915266,-36.40149533636668,-44.273641788099724
105860,6594,105860.0,19797.0,105860.0,25834.0,-54.29823013441734,-37.424958283623596,-46.44393550794763
105860,6582,105860.0,19762.0,105860.0,25888.0,-58.1225144854327,-38.414915824194,-48.59730342102495
105860,6606,105860.0,19765.0,105860.0,25878.0,-61.96045779045187,-39.373078242198716,-50.73515041800704
105860,6570,105860.0,19805.0,105860.0,25843.0,-65.81136596545025,-40.30201547987511,-52.85840793159059
105860,6570,105860.0,19795.0,105860.0,25851.0,-69.67422005952722,-41.20500215736692,-54.96741506144244
105870,6551,105870.0,19792.0,105870.0,25837.0,-73.5478482829194,-42.08560447271776,-57.062178601001335
105870,6568,105870.0,19809.0,105870.0,25836.0,-77.43115438329988,-42.94740148202547,-59.14259506942744
105870,6556,105870.0,19813.0,105870.0,25830.0,-81.32317372853919,-43.79381636519372,-61.20854772710527
105870,6562,105870.0,19806.0,105870.0,25822.0,-85.2229712988622,-44.62787745551131,-63.25998178674499
105870,6539,105870.0,19776.0,105870.0,25807.0,-89.12955161475725,-45.45209713120721,-65.29701044031296
105870,6536,105870.0,19781.0,105870.0,25814.0,-93.04190610438519,-46.268664773108924,-67.32007194038533
105881,6527,105881.0,19757.0,105881.0,25821.0,-96.95917568361153,-47.07981002184388,-69.330020356196
105881,6518,105881.0,19784.0,105881.0,25831.0,-100.88081727739274,-47.88808127196722,-71.32800428361128
105881,6539,105881.0,19788.0,105881.0,25817.0,-104.80667919597897,-48.69637338361525,-73.31520633798331
105881,6546,105881.0,19811.0,105881.0,25825.0,-108.73687003358202,-49.50764786582485,-75.29265183974161
105881,6526,105881.0,19782.0,105881.0,25821.0,-112.67144335966412,-50.324529600197735,-77.26113118047462
105881,6514,105881.0,19791.0,105881.0,25799.0,-116.61021188081486,-51.14909976152211,-79.221177151424
105891,6502,105891.0,19796.0,105891.0,25829.0,-120.55287725756426,-51.98291318639775,-81.17309923436693
105891,6521,105891.0,19797.0,105891.0,25804.0,-124.49924690398535,-52.82697704162351,-83.1169797243517
105891,6533,105891.0,19775.0,105891.0,25799.0,-128.44920386753148,-53.68165431657101,-85.05261346236986
105891,6497,105891.0,19786.0,105891.0,25800.0,-132.40243789302082,-54.54669043218388,-86.97955712133401
105891,6498,105891.0,19763.0,105891.0,25785.0,-136.35832420855775,-55.42136093167446,-88.89725972077107
105891,6487,105891.0,19754.0,105891.0,25786.0,-140.31610384920737,-56.30465931138096,-90.80516712747726
105901,6489,105901.0,19742.0,105901.0,25777.0,-144.27508829070274,-57.195569534545,-92.70282282044744
105901,6492,105901.0,19763.0,105901.0,25791.0,-148.23470021236233,-58.09333421415275,-94.58992648738561
105901,6492,105901.0,19764.0,105901.0,25779.0,-152.19437672132858,-58.99748779191734,-96.4662836857332
105901,6473,105901.0,19768.0,105901.0,25783.0,-156.1534423169457,-59.907640572450475,-98.33170324381584
105901,6476,105901.0,19753.0,105901.0,25765.0,-160.11109327712575,-60.82325850002161,-100.18595978621747
105901,6467,105901.0,19729.0,105901.0,25760.0,-164.06648134887507,-61.7436734445063,-102.02887805518765
105912,6462,105912.0,19778.0,105912.0,25772.0,-168.01877939517618,-62.66826532714839,-103.86046820573952
105912,6458,105912.0,19771.0,105912.0,25785.0,-171.9672189083734,-63.596423507117834,-105.68090970891643
105912,6464,105912.0,19739.0,105912.0,25762.0,-175.91110346590972,-64.52723685786844,-107.49033327191145
105912,6442,105912.0,19718.0,105912.0,25763.0,-179.84977791834666,-65.45947110095756,-109.28866992661767
105912,6432,105912.0,19740.0,105912.0,25728.0,-183.78266261490256,-66.39197913469516,-111.07577370383947
105912,6429,105912.0,19721.0,105912.0,25754.0,-187.70943363758755,-67.32402834738218,-112.85171063850521
105922,6431,105922.0,19744.0,105922.0,25739.0,-191.6301972842632,-68.25531424562035,-114.61695304944004
105922,6451,105922.0,19747.0,105922.0,25758.0,-195.54546251128477,-69.1858020812306,-116.37233945421292
105922,6440,105922.0,19748.0,105922.0,25751.0,-199.4558890742269,-70.11546934330079,-118.11888914869354
105922,6426,105922.0,19694.0,105922.0,25744.0,-203.36201979794947,-71.04416161035061,-119.85762320606494
105922,6416,105922.0,19717.0,105922.0,25735.0,-207.26424992405856,-71.97183901374396,-121.58951328888634
105922,6413,105922.0,19713.0,105922.0,25739.0,-211.16300114165062,-72.89897856463926,-123.31556229038534
105933,6425,105933.0,19756.0,105933.0,25734.0,-215.05884732496344,-73.82661427192565,-125.03687511449465
105933,6428,105933.0,19742.0,105933.0,25740.0,-218.95242602076075,-74.75592801666733,-126.75463861397634
105933,6400,105933.0,19742.0,105933.0,25745.0,-222.8442388793278,-75.68776554199019,-128.47002279472485
105933,6404,105933.0,19701.0,105933.0,25702.0,-226.7346121900464,-76.62248834061512,-130.1841003884216
105933,6393,105933.0,19703.0,105933.0,25710.0,-230.62384786362685,-77.56026664830296,-131.89799319960304
105933,6390,105933.0,19687.0,105933.0,25724.0,-234.5123604561083,-78.50156056471661,-133.61316221952575
105943,6396,105943.0,19725.0,105943.0,25708.0,-238.40071725288055,-79.4474189513449,-135.33148124772543
105943,6386,105943.0,19716.0,105943.0,25717.0,-242.2895975904052,-80.39938966985272,-137.05511421115
105943,6382,105943.0,19700.0,105943.0,25734.0,-246.17972603999056,-81.35922730978967,-138.7863863513931
105943,6374,105943.0,19700.0,105943.0,25715.0,-250.07187050145728,-82.32879500680951,-140.52759052598975
105943,6378,105943.0,19701.0,105943.0,25713.0,-253.96688697197504,-83.3101906526037,-142.2808115244781
105943,6387,105943.0,19733.0,105943.0,25727.0,-257.8656895443576,-84.30575947627165,-144.0479018936353
105953,6373,105953.0,19718.0,105953.0,25724.0,-261.7691010881498,-85.31782293884228,-145.83043111994903
105953,6349,105953.0,19726.0,105953.0,25698.0,-265.67776065054386,-86.3483242166485,-147.62955954246627
105953,6361,105953.0,19679.0,105953.0,25692.0,-269.59225349765774,-87.39871602110779,-149.44610002991806
105953,6348,105953.0,19709.0,105953.0,25694.0,-273.51329783173634,-88.47017569009492,-151.28078559797615
105953,6334,105953.0,19669.0,105953.0,25686.0,-277.4418262679987,-89.56391477516291,-153.13446973722853
105953,6346,105953.0,19725.0,105953.0,25689.0,-281.3790551389125,-90.6813240482802,-155.0081724068076
105964,6367,105964.0,19714.0,105964.0,25707.0,-285.32646671950437,-91.82381425154904,-156.90302225902218
105964,6346,105964.0,19720.0,105964.0,25682.0,-289.2855464877009,-92.99240921195744,-158.82009506402164
105964,6344,105964.0,19675.0,105964.0,25668.0,-293.25750405637484,-94.18748185746315,-160.76032638763502
105964,6324,105964.0,19672.0,105964.0,25673.0,-297.24326105389054,-95.4089589225164,-162.7246745521379
105964,6339,105964.0,19683.0,105964.0,25684.0,-301.2436047309286,-96.65677374457672,-164.71430112246816
105964,6336,105964.0,19696.0,105964.0,25672.0,-305.2592441817287,-97.93106931640469,-166.73051592191712
105974,6326,105974.0,19705.0,105974.0,25689.0,-309.29070844410256,-99.23198565001823,-168.7745998691936
105974,6310,105974.0,19690.0,105974.0,25668.0,-313.33828478172944,-100.55930465172281,-170.84766142347956
105974,6303,105974.0,19678.0,105974.0,25654.0,-317.4021468884702,-101.91228642115243,-172.95060754762483
105974,6293,105974.0,19654.0,105974.0,25653.0,-321.4825819385211,-103.28982447801937,-175.0843040320783
105974,6289,105974.0,19669.0,105974.0,25661.0,-325.58018291050064,-104.69078435061277,-177.2497753946226
105974,6310,105974.0,19668.0,105974.0,25675.0,-329.6959171319088,-106.11422807254715,-179.4481812442969
105984,6313,105984.0,19696.0,105984.0,25659.0,-333.83096174547427,-107.559326298727,-181.68057514888102
105984,6296,105984.0,19671.0,105984.0,25658.0,-337.9863789237947,-109.02504509212088,-183.94770298360254
105984,6293,105984.0,19643.0,105984.0,25641.0,-342.1629282855726,-110.50996560943744,-186.25000869866534
105984,6282,105984.0,19628.0,105984.0,25639.0,-346.3611196926813,-112.01254230192919,-188.58778677126855
105984,6280,105984.0,19672.0,105984.0,25650.0,-350.58134046066573,-113.53154266343316,-190.96131943001393
105984,6289,105984.0,19668.0,105984.0,25652.0,-354.82391125917445,-115.06607967146871,-193.3708428157609
105995,6275,105995.0,19659.0,105995.0,25641.0,-359.08902616907596,-116.61522684299064,-195.816364332141
105995,6273,105995.0,19628.0,105995.0,25624.0,-363.3766639077834,-118.17779674309267,-198.29756997896857
105995,6244,105995.0,19622.0,105995.0,25610.0,-367.68662806841365,-119.75257641794593,-200.81397749590838
105995,6245,105995.0,19643.0,105995.0,25624.0,-372.0187629196603,-121.3387101605573,-203.3652037844082
105995,6249,105995.0,19638.0,105995.0,25627.0,-376.3731970405036,-122.93580061791585,-205.95106532532895
105995,6256,105995.0,19693.0,105995.0,25629.0,-380.75038611396985,-124.5436129151536,-208.5714164899412
106004,6252,106004.0,19639.0,106004.0,25640.0,-385.15092856854335,-126.16155990080807,-211.22587753156245
106004,6248,106004.0,19626.0,106004.0,25599.0,-389.5753483325157,-127.78841374444329,-213.9136384485526
106004,6224,106004.0,19611.0,106004.0,25603.0,-394.0240207491356,-129.42257984565737,-216.63351277353638
106004,6236,106004.0,19626.0,106004.0,25609.0,-398.49726997019485,-131.06258906082635,-219.38418262775525
106004,6239,106004.0,19643.0,106004.0,25617.0,-402.99545770617726,-132.7072558206973,-222.1642789040455
106004,6227,106004.0,19641.0,106004.0,25605.0,-407.51889940259747,-134.35542730755444,-224.97220150672518
106014,6222,106014.0,19629.0,106014.0,25594.0,-412.06774544542503,-136.00564347987162,-227.8059670622893
106014,6210,106014.0,19608.0,106014.0,25582.0,-416.6420014272529,-137.65604999390843,-230.66327236054815
106014,6200,106014.0,19579.0,106014.0,25573.0,-421.24165509117086,-139.30467132755982,-233.54170478423242
106014,6199,106014.0,19592.0,106014.0,25572.0,-425.8668269796663,-140.94989238498727,-236.43895611625078
106014,6206,106014.0,19623.0,106014.0,25605.0,-430.5178496738524,-142.59075401651026,-239.35287183264842
106014,6203,106014.0,19627.0,106014.0,25581.0,-435.1951906236404,-144.22673061447952,-242.28122060492416
106025,6200,106025.0,19604.0,106025.0,25567.0,-439.8992812954856,-145.85723873578766,-245.22142085932876
106025,6190,106025.0,19601.0,106025.0,25546.0,-444.6303983332858,-147.48142115270863,-248.1706008794519
106025,6171,106025.0,19587.0,106025.0,25550.0,-449.38868374092624,-149.09830146899904,-251.12593587170159
106025,6181,106025.0,19611.0,106025.0,25556.0,-454.17428384142374,-150.70698148700615,-254.08489781550202
106025,6186,106025.0,19600.0,106025.0,25557.0,-458.98742892118395,-152.30662839188773,-257.04523200560647
106025,6176,106025.0,19595.0,106025.0,25559.0,-463.8283179664403,-153.89632058849696,-260.00475953097055
106035,6160,106035.0,19576.0,106035.0,25537.0,-468.69698050228544,-155.47501327867704,-262.9612142086035
106035,6152,106035.0,19561.0,106035.0,25534.0,-473.5933340912113,-157.04174320828082,-265.9122597528932
106035,6138,106035.0,19584.0,106035.0,25524.0,-478.5173929689808,-158.59591678969818,-268.8556609461289
106035,6158,106035.0,19583.0,106035.0,25530.0,-483.4694375901112,-160.13739223736866,-271.78944091634025
106035,6147,106035.0,19585.0,106035.0,25517.0,-488.44999127947045,-161.66628490488804,-274.7119274552742
106035,6154,106035.0,19575.0,106035.0,25527.0,-493.45963029046084,-163.1827487948718,-277.6217309381579
106045,6135,106045.0,19568.0,106045.0,25513.0,-498.4988134377409,-164.68693054097332,-280.5177004456047
106045,6128,106045.0,19555.0,106045.0,25516.0,-503.56786080659526,-166.17908169232558,-283.3988824184134
106045,6134,106045.0,19570.0,106045.0,25525.0,-508.66704105141065,-167.6597179905134,-286.26447378904874
106045,6146,106045.0,19595.0,106045.0,25512.0,-513.7965689495377,-169.12960504515846,-289.11371295832384
106045,6140,106045.0,19603.0,106045.0,25518.0,-518.9563877332394,-170.58940040089453,-291.9457491197208
106045,6133,106045.0,19567.0,106045.0,25495.0,-524.145896069799,-172.03918672673277,-294.7596012623693
106056,6101,106056.0,19540.0,106056.0,25494.0,-529.3638767072757,-173.47841215876863,-297.55424330819284
106056,6096,106056.0,19541.0,106056.0,25500.0,-534.6087178740811,-174.90635314599515,-300.328740537007
106056,6094,106056.0,19560.0,106056.0,25467.0,-539.8787574779694,-176.32259590779407,-303.0823381698014
106056,6105,106056.0,19553.0,106056.0,25486.0,-545.1724526675386,-177.72710142290902,-305.8145567794734
106056,6090,106056.0,19560.0,106056.0,25504.0,-550.488291836263,-179.11998955068188,-308.5252419360863
106056,6092,106056.0,19570.0,106056.0,25481.0,-555.824645420459,-180.5013175132349,-311.21437585015985
106066,6073,106066.0,19557.0,106066.0,25482.0,-561.1797255343782,-181.87088511801898,-313.88184327425273
106066,6075,106066.0,19536.0,106066.0,25477.0,-566.5516504491476,-183.22814564657796,-316.52741677280216
106066,6079,106066.0,19556.0,106066.0,25483.0,-571.9385046931654,-184.572325626771,-319.1508116106257
106066,6083,106066.0,19568.0,106066.0,25456.0,-577.3382632938215,-185.90250661260745,-321.7516807499358
106066,6045,106066.0,19536.0,106066.0,25479.0,-582.7486490303909,-187.2174747202273,-324.3296430559718
106066,6059,106066.0,19503.0,106066.0,25472.0,-588.1671656109609,-188.5157103138938,-326.88429210610354
106076,6047,106076.0,19513.0,106076.0,25438.0,-593.5912683968261,-189.7958153660472,-329.41514109354284
106076,6006,106076.0,19508.0,106076.0,25449.0,-599.0185128804285,-191.05700819633523,-331.9217224000102
106076,6045,106076.0,19515.0,106076.0,25480.0,-604.4467558743552,-192.2992910049479,-334.4037528089498
106076,6054,106076.0,19486.0,106076.0,25471.0,-609.8742273545163,-193.5234298585692,-336.860951536563
106076,6030,106076.0,19559.0,106076.0,25454.0,-615.2992281580997,-194.73090902576544,-339.29264668125865
106076,6033,106076.0,19516.0,106076.0,25448.0,-620.7198158418237,-195.92366536241934,-341.69765781973604
106087,6015,106087.0,19523.0,106087.0,25442.0,-626.1337964824379,-197.10368972282467,-344.07447096333993
106087,6022,106087.0,19535.0,106087.0,25436.0,-631.5388363021762,-198.2728697255835,-346.42142663916667
106087,6023,106087.0,19559.0,106087.0,25455.0,-636.9324867709811,-199.43289370290427,-348.7367855541708
106087,6032,106087.0,19576.0,106087.0,25483.0,-642.3120544550872,-200.58484138884288,-351.0185524965257
106087,6017,106087.0,19535.0,106087.0,25468.0,-647.6743683099079,-201.72866164520053,-353.2640119886062
106087,5998,106087.0,19511.0,106087.0,25425.0,-653.0156509262022,-202.86306336159086,-355.4693582436742
106097,5997,106097.0,19520.0,106097.0,25418.0,-658.3316253752207,-203.9859389317778,-357.6298789011581
106097,5998,106097.0,19516.0,106097.0,25423.0,-663.6176999247355,-205.09482453399846,-359.7404943379022
106097,6013,106097.0,19514.0,106097.0,25409.0,-668.8689717275902,-206.18704110444781,-361.79611641811005
106097,6000,106097.0,19521.0,106097.0,25436.0,-674.0800132048621,-207.25965774078273,-363.7916993474141
106097,5974,106097.0,19511.0,106097.0,25431.0,-679.2446902014124,-208.30943142446912,-365.7220860039795
106097,5979,106097.0,19485.0,106097.0,25417.0,-684.3562468422065,-209.33281827208387,-367.5817652637352
106107,5971,106107.0,19511.0,106107.0,25403.0,-689.407523722211,-210.32613939229293,-369.36479952466766
106107,5987,106107.0,19491.0,106107.0,25408.0,-694.3910202555394,-211.2857334932311,-371.0650015343983
106107,5972,106107.0,19527.0,106107.0,25417.0,-699.2987609405354,-212.2079020815617,-372.6760895341146
106107,5971,106107.0,19509.0,106107.0,25407.0,-704.1221378005255,-213.08868177558062,-374.1916387835131
106107,5957,106107.0,19538.0,106107.0,25412.0,-708.8518769912848,-213.92354706478696,-375.6049571641452
106107,5951,106107.0,19478.0,106107.0,25388.0,-713.4781298543253,-214.70720959274547,-376.9090611335026
106118,5941,106118.0,19476.0,106118.0,25395.0,-717.9906178850244,-215.43377517076058,-378.09679069714343
106118,5941,106118.0,19510.0,106118.0,25396.0,-722.3787732445294,-216.09716964815433,-379.1609583905435
106118,5951,106118.0,19501.0,106118.0,25371.0,-726.6317921739021,-216.69128337578132,-380.09443131487745
106118,5938,106118.0,19486.0,106118.0,25384.0,-730.7385530826473,-217.20975148532452,-380.8902314535388
106118,5927,106118.0,19477.0,106118.0,25404.0,-734.6875271557776,-217.64588623002948,-381.54162009569046
106118,5915,106118.0,19468.0,106118.0,25368.0,-738.4668579027867,-217.99291134808786,-382.0420046950374
106128,5906,106128.0,19483.0,106128.0,25379.0,-742.0645897831289,-218.24421331927837,-382.38486872998783
106128,5937,106128.0,19446.0,106128.0,25400.0,-745.468839870251,-218.39347009457342,-382.56385227295124
106128,5933,106128.0,19487.0,106128.0,25389.0,-748.6676903306692,-218.4347425062597,-382.5726900413064
106128,5916,106128.0,19477.0,106128.0,25394.0,-751.6488891233488,-218.36247796914824,-382.4049929708393
106128,5910,106128.0,19468.0,106128.0,25367.0,-754.3997357183941,-218.1713538117495,-382.05418314445495
106128,5898,106128.0,19434.0,106128.0,25346.0,-756.9072574656192,-217.85625992767984,-381.5137259667248
106139,5905,106139.0,19437.0,106139.0,25369.0,-759.1584463185745,-217.41265566944384,-380.77755456076295
106139,5895,106139.0,19470.0,106139.0,25394.0,-761.1403944333525,-216.83696925682466,-379.8402939933067
106139,5908,106139.0,19497.0,106139.0,25397.0,-762.840325013055,-216.12652177224987,-378.6970022021477
106139,5873,106139.0,19451.0,106139.0,25340.0,-764.2456078575993,-215.27903859464368,-377.34282444959365
106139,5883,106139.0,19459.0,106139.0,25362.0,-765.3439016907857,-214.29240202252322,-375.7731422701561
106139,5875,106139.0,19461.0,106139.0,25369.0,-766.1234095045534,-213.16485765257175,-373.9840227913014
106149,5899,106149.0,19478.0,106149.0,25390.0,-766.5730206602752,-211.895190913741,-371.9723391974828
106149,5906,106149.0,19487.0,106149.0,25377.0,-766.6821903718612,-210.48258644472347,-369.73551794088917
106149,5889,106149.0,19495.0,106149.0,25382.0,-766.4406824010346,-208.92631606284633,-367.27132361571046
106149,5881,106149.0,19458.0,106149.0,25372.0,-765.8384829123556,-207.2255184370996,-364.57786573920293
106149,5881,106149.0,19444.0,106149.0,25352.0,-764.8660011708964,-205.37934773952588,-361.6537829899288
106149,5883,106149.0,19449.0,106149.0,25361.0,-763.5143327714657,-203.38747308689256,-358.49856246314806
106159,5884,106159.0,19475.0,106159.0,25388.0,-761.7753995238778,-201.250473458547,-355.11280172997
106159,5908,106159.0,19463.0,106159.0,25391.0,-759.6419561606895,-198.96981846778675,-351.4981405121391
106159,5902,106159.0,19498.0,106159.0,25409.0,-757.1074641277019,-196.54761103036762,-347.6569307595979
106159,5897,106159.0,19462.0,106159.0,25383.0,-754.1659439963646,-193.98635092035175,-343.5919688750856
106159,5888,106159.0,19468.0,106159.0,25401.0,-750.8120212234854,-191.28888711625083,-339.3064782176965
106159,5902,106159.0,19475.0,106159.0,25405.0,-747.0411553313359,-188.45859123610018,-334.8042325146741
106170,5908,106170.0,19523.0,106170.0,25406.0,-742.8498138801597,-185.49941400780602,-330.089597466997
106170,5923,106170.0,19505.0,106170.0,25427.0,-738.2354578115048,-182.4155393220978,-325.16746614087685
106170,5927,106170.0,19502.0,106170.0,25413.0,-733.196409105234,-179.2109554905685,-320.0431709760264
106170,5927,106170.0,19472.0,106170.0,25418.0,-727.7317384449501,-175.8894312924652,-314.72245724858124
106170,5926,106170.0,19485.0,106170.0,25419.0,-721.8412781791023,-172.4548966811157,-309.2115866216173
106170,5944,106170.0,19481.0,106170.0,25427.0,-715.5257383453841,-168.91185363629174,-303.51747750456116
106180,5944,106180.0,19500.0,106180.0,25444.0,-708.7867861249409,-165.26554787579204,-297.6477423802388
106180,5967,106180.0,19524.0,106180.0,25462.0,-701.6270239419724,-161.5218608031642,-291.61056521043065
106180,5963,106180.0,19507.0,106180.0,25451.0,-694.0499167460963,-157.6870186608566,-285.414477362154
106180,5966,106180.0,19503.0,106180.0,25450.0,-686.0597655304723,-153.76739797379275,-279.0682543999233
106180,5972,106180.0,19505.0,106180.0,25456.0,-677.6618099440593,-149.76962743105298,-272.5810488196206
106180,6000,106180.0,19545.0,106180.0,25490.0,-668.8623627175975,-145.7007310105938,-265.9625257110878
106190,6012,106190.0,19546.0,106190.0,25486.0,-659.6687733593735,-141.5679498866899,-259.2227460634815
106190,6027,106190.0,19551.0,106190.0,25495.0,-650.0892229388465,-137.37833800921663,-252.37191882358005
106190,6023,106190.0,19519.0,106190.0,25495.0,-640.1325561394088,-133.13855610406992,-245.42029053716726
106190,6027,106190.0,19514.0,106190.0,25477.0,-629.8083122124501,-128.85510266628384,-238.378241049588
106190,6044,106190.0,19504.0,106190.0,25495.0,-619.1269160936016,-124.53483399553511,-231.25653636255066
106190,6058,106190.0,19543.0,106190.0,25520.0,-608.0998330680043,-120.18539057489853,-224.0665440304887
106201,6085,106201.0,19560.0,106201.0,25542.0,-596.739549030746,-115.81518958129779,-216.82012742511935
106201,6096,106201.0,19585.0,106201.0,25545.0,-585.0594043013908,-111.43297113771604,-209.52926504603838
106201,6109,106201.0,19567.0,106201.0,25547.0,-573.0734040348499,-107.04724814211622,-202.20573448067353
106201,6120,106201.0,19554.0,106201.0,25549.0,-560.7961221724421,-102.66607628139829,-194.8610468106079
106201,6124,106201.0,19580.0,106201.0,25567.0,-548.2427247872517,-98.29720669281859,-187.50652180306088
106201,6169,106201.0,19594.0,106201.0,25569.0,-535.4290172353095,-93.94821829206069,-180.153313284509
106211,6179,106211.0,19610.0,106211.0,25593.0,-522.3713365327278,-89.62631584030095,-172.81232766491416
106211,6193,106211.0,19611.0,106211.0,25588.0,-509.0862904702532,-85.337961475155,-165.49408786798492
106211,6194,106211.0,19595.0,106211.0,25584.0,-495.5906060196838,-81.08865517516739,-158.20865969032263
106211,6196,106211.0,19554.0,106211.0,25580.0,-481.90124029607216,-76.88309263031672,-150.96577583714657
106211,6215,106211.0,19572.0,106211.0,25590.0,-468.03565234485035,-72.72572866910718,-143.77510873668746
106211,6252,106211.0,19598.0,106211.0,25614.0,-454.01199235371155,-68.62131705552177,-136.64645099203665
106221,6284,106221.0,19628.0,106221.0,25617.0,-439.848972968972,-64.57489629201349,-129.58965137559906
106221,6298,106221.0,19605.0,106221.0,25639.0,-425.5654646262111,-60.59132448322741,-122.61439711571833
106221,6297,106221.0,19596.0,106221.0,25630.0,-411.18015225189936,-56.67498033378918,-115.73001619752368
106221,6320,106221.0,19610.0,106221.0,25651.0,-396.71149152517853,-52.82989725599501,-108.94537829099346
106221,6341,106221.0,19637.0,106221.0,25659.0,-382.17781636268967,-49.05993379712564,-102.26884138845176
106221,6358,106221.0,19635.0,106221.0,25675.0,-367.597340014382,-45.368609914669406,-95.70813256038889
106232,6379,106232.0,19648.0,106232.0,25673.0,-352.9880431030712,-41.758772896710965,-89.270174702166
106232,6383,106232.0,19592.0,106232.0,25664.0,-338.36758158174433,-38.23247934561883,-82.96101687196364
106232,6396,106232.0,19594.0,106232.0,25662.0,-323.75330306834786,-34.79134204976012,-76.78598334696596
106232,6410,106232.0,19615.0,106232.0,25668.0,-309.1623709835817,-31.437141323855712,-70.74996025030228
106232,6428,106232.0,19610.0,106232.0,25680.0,-294.61189271657315,-28.172156379071637,-64.85760910556394
106232,6461,106232.0,19666.0,106232.0,25697.0,-280.11893388325876,-24.999020360150396,-59.11337763903151
106242,6474,106242.0,19644.0,106242.0,25684.0,-265.70037562299296,-21.920281110772265,-53.52137445975879
106242,6495,106242.0,19637.0,106242.0,25702.0,-251.37269937604782,-18.937991381056193,-48.085293655065385
106242,6514,106242.0,19629.0,106242.0,25709.0,-237.1518220422014,-16.053682548808325,-42.80841750041091
106242,6524,106242.0,19626.0,106242.0,25709.0,-223.0529971764147,-13.26865905313727,-37.69357371707301
106242,6561,106242.0,19648.0,106242.0,25724.0,-209.09073111262825,-10.58424719521257,-32.74305728935451
106242,6540,106242.0,19658.0,106242.0,25727.0,-195.27870340195864,-8.001779699441741,-27.958561271528595
106252,6582,106252.0,19639.0,106252.0,25720.0,-181.62977406606456,-5.522390868704363,-23.34111651018293
106252,6572,106252.0,19646.0,106252.0,25714.0,-168.1560853147907,-3.1469238252333724,-18.891143435885112
106252,6587,106252.0,19616.0,106252.0,25731.0,-154.86917838292328,-0.8760975314741586,-14.60863207856815
106252,6611,106252.0,19639.0,106252.0,25736.0,-141.78012306463347,1.2891939327523403,-10.493247918593738
106252,6634,106252.0,19660.0,106252.0,25739.0,-128.89956040567228,3.3477129470230125,-6.544266433289778
106252,6652,106252.0,19684.0,106252.0,25748.0,-116.23755093519293,5.298099847232237,-2.7604638431143655
106263,6670,106263.0,19671.0,106263.0,25739.0,-103.80334546722628,7.13937712346133,0.8599347333523326
106263,6660,106263.0,19670.0,106263.0,25743.0,-91.60525623292159,8.871309353747051,4.319225391633182
106263,6666,106263.0,19655.0,106263.0,25744.0,-79.6507575604117,10.49440641140869,7.620125907290202
106263,6708,106263.0,19708.0,106263.0,25745.0,-67.9467267858629,12.009806727264476,10.765681360803939
106263,6732,106263.0,19687.0,106263.0,25766.0,-56.49945480934991,13.41941700149215,13.759247689408
106263,6744,106263.0,19682.0,106263.0,25765.0,-45.314308695203636,14.726225354784447,16.604599613807665
106273,6742,106273.0,19660.0,106273.0,25758.0,-34.39540633503839,15.934336566648085,19.306089977103483
106273,6746,106273.0,19637.0,106273.0,25746.0,-23.74560251029868,17.048603834517067,21.868649907116094
106273,6744,106273.0,19629.0,106273.0,25737.0,-13.366733602208228,18.074059297610916,24.297548714049555
106273,6751,106273.0,19639.0,106273.0,25748.0,-3.259948835200248,19.015388046206397,26.598069194042324
106273,6795,106273.0,19667.0,106273.0,25749.0,6.574062241846832,19.876726757278092,28.77531268678959
106273,6798,106273.0,19697.0,106273.0,25766.0,16.135140355710405,20.66195275226599,30.834216692317426
106283,6791,106283.0,19661.0,106283.0,25760.0,25.423893673463567,21.375252873717102,32.77970595805874
106283,6792,106283.0,19636.0,106283.0,25765.0,34.44169881875689,22.021389220098058,34.61683723951279
106283,6817,106283.0,19668.0,106283.0,25756.0,43.19044548572799,22.605422802408697,36.35083841219671
106283,6840,106283.0,19673.0,106283.0,25769.0,51.672413163868896,23.13244946815975,37.98706200877817
106283,6823,106283.0,19688.0,106283.0,25772.0,59.89039526847546,23.607787077270217,39.53097241232024
106283,6857,106283.0,19644.0,106283.0,25766.0,67.84779740365195,24.03728187504184,40.988213078804705
106294,6850,106294.0,19624.0,106294.0,25748.0,75.5486206255955,24.427205699062966,42.36460790539667
106294,6847,106294.0,19585.0,106294.0,25772.0,82.99742066554279,24.7836203870241,43.6660075197625
106294,6856,106294.0,19617.0,106294.0,25769.0,90.19916608547499,25.111567388635223,44.89818469945618
106294,6875,106294.0,19652.0,106294.0,25761.0,97.15904176924857,25.414683439022156,46.06689813322038
106294,6897,106294.0,19678.0,106294.0,25788.0,103.8824424622768,25.69558009546546,47.17797660697721
106294,6897,106294.0,19655.0,106294.0,25763.0,110.37518047911522,25.95662477125468,48.23738902473531
106304,6884,106304.0,19625.0,106304.0,25752.0,116.6436382510808,26.20037035237334,49.25125353044186
106304,6889,106304.0,19650.0,106304.0,25757.0,122.6946368474454,26.429378327313273,50.22563578445292
106304,6916,106304.0,19652.0,106304.0,25770.0,128.53517204611762,26.645941276593902,51.16631428658775
106304,6922,106304.0,19675.0,106304.0,25763.0,134.1723617694597,26.852174143178615,52.078773612076304
106304,6928,106304.0,19667.0,106304.0,25764.0,139.61361680448272,27.050364928766783,52.96830799956152
106304,6929,106304.0,19645.0,106304.0,25753.0,144.86676744798945,27.243226546645047,53.84002060045111
106314,6912,106314.0,19629.0,106314.0,25730.0,149.9399940596021,27.433794767070253,54.698653460717935
106314,6924,106314.0,19629.0,106314.0,25763.0,154.84157341511076,27.62502883303705,55.54831283218277
106314,6938,106314.0,19647.0,106314.0,25764.0,159.57961059311253,27.819474874393123,56.39235679415319
106314,6947,106314.0,19650.0,106314.0,25771.0,164.16197874128574,28.01925915932307,57.23359480923503
106314,6943,106314.0,19656.0,106314.0,25789.0,168.59641991829102,28.22632610576177,58.074598755852776
106314,6960,106314.0,19629.0,106314.0,25772.0,172.8906023633345,28.442629567337036,58.91795939881408
106325,6944,106325.0,19644.0,106325.0,25759.0,177.0520914466332,28.670093171353727,59.76638500259355
106325,6958,106325.0,19637.0,106325.0,25778.0,181.08825833999902,28.910459045071235,60.62257319711179
106325,6977,106325.0,19669.0,106325.0,25782.0,185.0061889014737,29.16528592884805,61.489098855615396
106325,6986,106325.0,19657.0,106325.0,25791.0,188.81275645936205,29.436179591993124,62.36854050770387
106325,6977,106325.0,19629.0,106325.0,25758.0,192.51481779359278,29.72501467702476,63.26364688001735
106325,6985,106325.0,19639.0,106325.0,25752.0,196.11928115200504,30.03384031432745,64.17722171074007
106335,6976,106335.0,19644.0,106335.0,25763.0,199.63299144106492,30.364611107808145,65.11176115459347
106335,6981,106335.0,19644.0,106335.0,25786.0,203.06254974649414,30.719109720320162,66.06925045892311
106335,7000,106335.0,19650.0,106335.0,25760.0,206.41417220024124,31.099054926264614,67.05129792012514
106335,7004,106335.0,19669.0,106335.0,25796.0,209.693701312256,31.506259484254528,68.05933487882632
106335,7005,106335.0,19631.0,106335.0,25774.0,212.9067412362839,31.94279932179593,69.09473599279815
106335,7018,106335.0,19642.0,106335.0,25754.0,216.05875488458844,32.41101588514273,70.15885366921185
106345,6993,106345.0,19604.0,106345.0,25795.0,219.15505390513505,32.9132402839283,71.25288971147108
106345,7020,106345.0,19645.0,106345.0,25782.0,222.20067932334092,33.45143950629911,72.37783079462395
106345,7029,106345.0,19649.0,106345.0,25786.0,225.2002981503893,34.027112475312194,73.53461974728441
106345,7021,106345.0,19644.0,106345.0,25788.0,228.1582696005276,34.64152897532,74.72430154859887
106345,7030,106345.0,19626.0,106345.0,25786.0,231.07873506095035,35.29595927220329,75.94803675205026
106345,7027,106345.0,19633.0,106345.0,25762.0,233.96557584899108,35.99159892232288,77.20704099044156
106356,7029,106356.0,19601.0,106356.0,25763.0,236.82231755006552,36.72931015301475,78.50236553091534
106356,7035,106356.0,19632.0,106356.0,25770.0,239.6520415257889,37.50935381908765,79.83458765100764
106356,7055,106356.0,19633.0,106356.0,25796.0,242.4573560982398,38.331271784789664,81.20370424474717
106356,7068,106356.0,19662.0,106356.0,25805.0,245.24053254604468,39.19408162141613,82.6093743493559
106356,7050,106356.0,19635.0,106356.0,25782.0,248.00373499843005,40.0966500683853,84.0512879823967
106356,7064,106356.0,19636.0,106356.0,25775.0,250.74910130792995,41.037893159605815,85.52926667314225
106366,7063,106366.0,19634.0,106366.0,25762.0,253.47864852465028,42.01668162690146,87.04299248880952
106366,7070,106366.0,19633.0,106366.0,25790.0,256.19419718223094,43.03166613011409,88.59167114579304
106366,7061,106366.0,19654.0,106366.0,25800.0,258.89734266564665,44.08123079531373,90.17398134712087
106366,7078,106366.0,19651.0,106366.0,25804.0,261.5893906328532,45.16361962735908,91.78834680016385
106366,7056,106366.0,19637.0,106366.0,25778.0,264.27126453682,46.27711442546182,93.43319906666585
106366,7083,106366.0,19624.0,106366.0,25792.0,266.9433993753837,47.42001331700233,95.10694190313754
106377,7076,106377.0,19641.0,106377.0,25796.0,269.605668188242,48.59039377638068,96.80776892173097
106377,7089,106377.0,19658.0,106377.0,25811.0,272.2574060489749,49.78599207568374,98.53365234853442
106377,7103,106377.0,19674.0,106377.0,25815.0,274.8975032262538,51.004429934033666,100.28253936555245
106377,7110,106377.0,19672.0,106377.0,25803.0,277.5245594416964,52.24364070530072,102.05255980056253
106377,7092,106377.0,19635.0,106377.0,25804.0,280.13703652526544,53.50212686090242,103.84206511917236
106377,7103,106377.0,19624.0,106377.0,25808.0,282.7332314274191,54.778759441138234,105.64951699340577
106387,7113,106387.0,19642.0,106387.0,25825.0,285.3111242804715,56.07227332883481,107.47343192049493
106387,7149,106387.0,19689.0,106387.0,25812.0,287.86840714816844,57.38105133552591,109.31247908126971
106387,7137,106387.0,19675.0,106387.0,25819.0,290.40279876318493,58.703510819100316,111.16558375520708
106387,7139,106387.0,19666.0,106387.0,25816.0,292.9123660533204,60.038645640990154,113.03191895952202
106387,7138,106387.0,19635.0,106387.0,25807.0,295.3955793272396,61.38611639487685,114.9108298697472
106387,7136,106387.0,19636.0,106387.0,25798.0,297.85117606067024,62.74585251183997,116.80168902680165
106397,7144,106397.0,19651.0,106397.0,25821.0,300.2780174939029,64.11759123744204,118.70370259212595
106397,7163,106397.0,19678.0,106397.0,25822.0,302.6750412948079,65.50077442129239,120.6158619506443
106397,7163,106397.0,19678.0,106397.0,25822.0,305.04137306189,66.89487193556997,122.53709128149242
106397,7153,106397.0,19645.0,106397.0,25825.0,307.3764773035995,68.29974318478588,124.46638470990993
106397,7166,106397.0,19641.0,106397.0,25834.0,309.6801536463105,69.71558745632893,126.40285414927769
106397,7158,106397.0,19651.0,106397.0,25804.0,311.95242483561253,71.1425620420583,128.34573036378163
106408,7165,106408.0,19686.0,106408.0,25837.0,314.19344605825665,72.58059429395408,130.29427073599365
106408,7176,106408.0,19649.0,106408.0,25848.0,316.40345582456996,74.02958795878871,132.24771340222327
106408,7172,106408.0,19658.0,106408.0,25826.0,318.58278864615113,75.4896150031845,134.20544777221585
106408,7166,106408.0,19638.0,106408.0,25817.0,320.73189081550277,76.96077723179212,136.16710801907067
106408,7167,106408.0,19627.0,106408.0,25832.0,322.8512158326183,78.44287733440439,138.1323689746188
106408,7175,106408.0,19650.0,106408.0,25836.0,324.941054107705,79.93510578216629,140.1007601440649
106418,7177,106418.0,19650.0,106418.0,25823.0,327.0014466841236,81.43592369441399,142.07168605856396
106418,7228,106418.0,19690.0,106418.0,25849.0,329.03228820802065,82.94326717412784,144.04447489551848
106418,7204,106418.0,19686.0,106418.0,25856.0,331.0336737835871,84.45500030570133,146.01845740960556
106418,7205,106418.0,19668.0,106418.0,25832.0,333.0062509166452,85.96935176973503,147.99314297797255
106418,7193,106418.0,19656.0,106418.0,25827.0,334.95122239156956,87.48499313144984,149.96823374515057
106418,7213,106418.0,19674.0,106418.0,25860.0,336.8701052950096,89.0007811199714,151.94341819672033
106428,7222,106428.0,19698.0,106428.0,25848.0,338.7646205382965,90.5156253503906,153.91832260794746
106428,7211,106428.0,19691.0,106428.0,25860.0,340.636787710064,92.02872639620077,155.8926993034982
106428,7205,106428.0,19673.0,106428.0,25851.0,342.4889681933349,93.53986854625671,157.8665663957613
106428,7209,106428.0,19638.0,106428.0,25824.0,344.3237026813117,95.04932205303439,159.84014520690317
106428,7208,106428.0,19622.0,106428.0,25845.0,346.1434968212758,96.55727393291039,161.8135973994097
106428,7200,106428.0,19652.0,106428.0,25840.0,347.95067430806694,98.0631475386021,163.78675811220066
106439,7234,106439.0,19675.0,106439.0,25875.0,349.7472892553142,99.56535123774319,165.75913425461974
106439,7227,106439.0,19701.0,106439.0,25845.0,351.53519086268125,101.06165454365842,167.73013153769355
106439,7225,106439.0,19671.0,106439.0,25851.0,353.31620995772687,102.54980116934863,169.69920062903225
106439,7239,106439.0,19676.0,106439.0,25856.0,355.092246767519,104.02781266749653,171.6657547186
106439,7226,106439.0,19675.0,106439.0,25852.0,356.86524771875975,105.49389368192996,173.62905279064165
