c_ts,c_val,d_ts,d_val,e_ts,e_val,c_val_filtered,d_val_filtered,e_val_filtered
138023.0,3859.0,138023.0,14548.0,138023.0,37428.0,-70.77481476035334,-25.802713251899323,-66.07568893306257
138023.0,3875.0,138023.0,14569.0,138023.0,37427.0,-75.51534754959404,-27.37497652911121,-71.88999994368933
138023.0,3866.0,138023.0,14580.0,138023.0,37428.0,-80.37806434477125,-29.004536486502605,-77.80842242790595
138023.0,3850.0,138023.0,14576.0,138023.0,37401.0,-85.3585271707927,-30.691566429241018,-83.8235001940606
138033.0,3824.0,138033.0,14535.0,138033.0,37380.0,-90.45175532046862,-32.43525148095,-89.92779783123808
138033.0,3836.0,138033.0,14511.0,138033.0,37381.0,-95.65250122610959,-34.23403606319224,-96.1142083046995
138033.0,3826.0,138033.0,14530.0,138033.0,37388.0,-100.95548838625037,-36.08623586916269,-102.37621727493371
138033.0,3832.0,138033.0,14558.0,138033.0,37396.0,-106.35542533314921,-37.99040523749443,-108.70785521373324
138033.0,3801.0,138033.0,14543.0,138033.0,37387.0,-111.84694151859497,-39.94513213479918,-115.10341038300184
138033.0,3804.0,138033.0,14534.0,138033.0,37336.0,-117.42465777951283,-41.94867565636626,-121.5572570222292
138043.0,3786.0,138043.0,14511.0,138043.0,37338.0,-123.08338548530007,-43.9989439276,-128.06410046473837
138043.0,3804.0,138043.0,14493.0,138043.0,37316.0,-128.81827442849573,-46.09383067634732,-134.61948555943866
138043.0,3791.0,138043.0,14511.0,138043.0,37359.0,-134.6247841550543,-48.23164543327839,-141.22009703903885
138043.0,3792.0,138043.0,14519.0,138043.0,37347.0,-140.4985396030851,-50.411311605356936,-147.86359091632684
138043.0,3787.0,138043.0,14552.0,138043.0,37341.0,-146.43521083518786,-52.63214426959609,-154.54815534204437
138043.0,3771.0,138043.0,14488.0,138043.0,37342.0,-152.43046962451288,-54.893440451404594,-161.27219765331523
138054.0,3768.0,138054.0,14496.0,138054.0,37316.0,-158.48002910680083,-57.19441212669285,-168.03426898031833
138054.0,3756.0,138054.0,14534.0,138054.0,37336.0,-164.57974842478546,-59.534470066382326,-174.83309087618443
138054.0,3769.0,138054.0,14547.0,138054.0,37331.0,-170.72570131714048,-61.91317453258319,-181.6675180730635
138054.0,3745.0,138054.0,14527.0,138054.0,37340.0,-176.914142002927,-64.32970309223293,-188.53632003183816
138054.0,3738.0,138054.0,14464.0,138054.0,37256.0,-183.14147776940817,-66.78258636507523,-195.43802214705303
138054.0,3729.0,138054.0,14477.0,138054.0,37268.0,-189.4043718310533,-69.27017921229088,-202.37124376952121
138064.0,3708.0,138064.0,14483.0,138064.0,37259.0,-195.6999280057053,-71.79136957478484,-209.335367145475
138064.0,3720.0,138064.0,14477.0,138064.0,37273.0,-202.02586624648265,-74.34585920452035,-216.33088769747917
138064.0,3720.0,138064.0,14509.0,138064.0,37280.0,-208.3805818642454,-76.93402036776297,-223.3592574573454
138064.0,3717.0,138064.0,14510.0,138064.0,37299.0,-214.76300756551694,-79.55655518701259,-230.4224563871705
138064.0,3719.0,138064.0,14492.0,138064.0,37290.0,-221.17239168757285,-82.21409320317781,-237.5224635633335
138064.0,3701.0,138064.0,14503.0,138064.0,37253.0,-227.6081424230362,-84.9069760572942,-244.6608750599845
138074.0,3696.0,138074.0,14472.0,138074.0,37261.0,-234.06979472463973,-87.63529605705797,-251.83891334231888
138074.0,3703.0,138074.0,14511.0,138074.0,37252.0,-240.55705538850611,-90.39899636470867,-259.05764800817235
138074.0,3695.0,138074.0,14522.0,138074.0,37294.0,-247.0697745526084,-93.19777376754008,-266.31798666786915
138074.0,3685.0,138074.0,14479.0,138074.0,37255.0,-253.6078314782491,-96.03074760784405,-273.62031450537165
138074.0,3671.0,138074.0,14441.0,138074.0,37190.0,-260.17110258869917,-98.89641295541828,-280.9642681864573
138074.0,3664.0,138074.0,14450.0,138074.0,37191.0,-266.7595684331828,-101.79319779705794,-288.3491905046621
138085.0,3662.0,138085.0,14461.0,138085.0,37196.0,-273.373448274846,-104.72006776425079,-295.7749095980639
138085.0,3649.0,138085.0,14455.0,138085.0,37201.0,-280.01326718714813,-107.67664620622513,-303.24205754838863
138085.0,3675.0,138085.0,14476.0,138085.0,37214.0,-286.6798232712447,-110.66300141754151,-310.75184134387985
138085.0,3662.0,138085.0,14477.0,138085.0,37214.0,-293.37399629052766,-113.67934995139561,-318.3056081949981
138085.0,3654.0,138085.0,14450.0,138085.0,37186.0,-300.0964665054709,-116.72578327736726,-325.9044662284566
138085.0,3632.0,138085.0,14461.0,138085.0,37191.0,-306.847600695157,-119.8022019380301,-333.54915682160515
138095.0,3638.0,138095.0,14490.0,138095.0,37171.0,-313.6275701037747,-122.90835196984976,-341.24013806900643
138095.0,3641.0,138095.0,14485.0,138095.0,37194.0,-320.436455430154,-126.04358920583826,-348.97763448781353
138095.0,3628.0,138095.0,14450.0,138095.0,37143.0,-327.27417088566415,-129.20650908372897,-356.76158009294574
138095.0,3597.0,138095.0,14423.0,138095.0,37142.0,-334.14039147600573,-132.3949924337643,-364.59167137185807
138095.0,3593.0,138095.0,14401.0,138095.0,37153.0,-341.0347324262773,-135.60677859438442,-372.4675908710961
138095.0,3591.0,138095.0,14417.0,138095.0,37112.0,-347.95705933461704,-138.84013486631488,-380.3891423669236
138105.0,3577.0,138105.0,14388.0,138105.0,37123.0,-354.9076558617932,-142.0942439347264,-388.3562996514693
138105.0,3596.0,138105.0,14453.0,138105.0,37129.0,-361.8872145552774,-145.3692465744582,-396.3692761961995
138105.0,3593.0,138105.0,14462.0,138105.0,37132.0,-368.89667913045633,-148.66586478686568,-404.4284052270702
138105.0,3578.0,138105.0,14428.0,138105.0,37120.0,-375.9369806866978,-151.9847106023443,-412.53381806406264
138105.0,3562.0,138105.0,14409.0,138105.0,37103.0,-383.00889651026637,-155.32592205011656,-420.6852242746815
138105.0,3557.0,138105.0,14429.0,138105.0,37102.0,-390.11315083450165,-158.68938329155895,-428.8819150628089
138116.0,3553.0,138116.0,14461.0,138116.0,37103.0,-397.2505774206377,-162.0748833475329,-437.12281991085433
138116.0,3557.0,138116.0,14428.0,138116.0,37083.0,-404.4221557285231,-165.48180058524508,-445.4064647193171
138116.0,3548.0,138116.0,14413.0,138116.0,37089.0,-411.6289085071599,-168.9087844993439,-453.73090230826364
138116.0,3550.0,138116.0,14391.0,138116.0,37046.0,-418.8717538650773,-172.35391847736418,-462.0937367517013
138116.0,3518.0,138116.0,14385.0,138116.0,37045.0,-426.15142714058635,-175.81518955205905,-470.49230838909386
138116.0,3530.0,138116.0,14365.0,138116.0,37042.0,-433.4685433727443,-179.29092723632624,-478.923968758924
138126.0,3513.0,138126.0,14403.0,138126.0,37042.0,-440.82371130491003,-182.78006376835776,-487.3861986435927
138126.0,3545.0,138126.0,14395.0,138126.0,37061.0,-448.21750057582335,-186.28207213370797,-495.8764458631949
138126.0,3527.0,138126.0,14421.0,138126.0,37043.0,-455.6501770831094,-189.79658392335037,-504.3917780162071
138126.0,3512.0,138126.0,14370.0,138126.0,37019.0,-463.121386614215,-193.32300477217598,-512.928595122713
138126.0,3491.0,138126.0,14390.0,138126.0,37018.0,-470.63009434375914,-196.8604511883991,-521.4826329717259
138126.0,3521.0,138126.0,14440.0,138126.0,37047.0,-478.17473771152316,-200.40780439985093,-530.04905289443
138136.0,3516.0,138136.0,14397.0,138136.0,37036.0,-485.75318594724615,-203.96340162695674,-538.6222133588641
138136.0,3489.0,138136.0,14400.0,138136.0,36995.0,-493.3624496293033,-207.52460362037175,-547.195287465785
138136.0,3458.0,138136.0,14377.0,138136.0,36988.0,-500.99859973106925,-211.08778492373236,-555.760250673181
138136.0,3451.0,138136.0,14355.0,138136.0,36966.0,-508.65711683618866,-214.64866599873005,-564.3082511123607
138136.0,3459.0,138136.0,14366.0,138136.0,36978.0,-516.33331244826,-218.20270198204895,-572.8299438421243
138136.0,3450.0,138136.0,14362.0,138136.0,36968.0,-524.0224481487382,-221.74534000178463,-581.3155626669935
138147.0,3459.0,138147.0,14396.0,138147.0,36958.0,-531.7195871552717,-225.27196508639133,-589.7548107681287
138147.0,3459.0,138147.0,14402.0,138147.0,36961.0,-539.4193544978417,-228.7775085060233,-598.1367485503413
138147.0,3446.0,138147.0,14360.0,138147.0,36953.0,-547.1156849001934,-232.25597368832064,-606.4497093951758
138147.0,3435.0,138147.0,14328.0,138147.0,36948.0,-554.8016698476624,-235.70039390073006,-614.6811870111022
138147.0,3409.0,138147.0,14365.0,138147.0,36943.0,-562.4696133195112,-239.1033028420292,-622.8177291626974
138147.0,3435.0,138147.0,14359.0,138147.0,36960.0,-570.11120331747,-242.45705863333944,-630.8448159238196
138157.0,3413.0,138157.0,14370.0,138157.0,36949.0,-577.7175525443056,-245.75366122559151,-638.7466176590015
138157.0,3425.0,138157.0,14343.0,138157.0,36906.0,-585.2790457652991,-248.98445404821317,-646.5057748654369
138157.0,3388.0,138157.0,14341.0,138157.0,36894.0,-592.7852046071788,-252.14008657130032,-654.1035403728786
138157.0,3390.0,138157.0,14305.0,138157.0,36887.0,-600.2247421219433,-255.2107562751396,-661.520235891503
138157.0,3377.0,138157.0,14319.0,138157.0,36870.0,-607.5857507894058,-258.18659676104755,-668.7356329316979
138157.0,3386.0,138157.0,14337.0,138157.0,36884.0,-614.85582397333,-261.05794316170784,-675.7291109952646
138167.0,3390.0,138167.0,14381.0,138167.0,36906.0,-622.0219776493866,-263.81513315988116,-682.4795734526381
138167.0,3395.0,138167.0,14307.0,138167.0,36860.0,-629.0703889965675,-266.44795523486175,-688.965137963502
138167.0,3359.0,138167.0,14298.0,138167.0,36864.0,-635.9861263141836,-268.9454750149022,-695.1629562760766
138167.0,3345.0,138167.0,14292.0,138167.0,36827.0,-642.7531540338235,-271.2965476715286,-701.049419101919
138167.0,3358.0,138167.0,14314.0,138167.0,36847.0,-649.3546092611934,-273.49036709217387,-706.6005140757284
138167.0,3357.0,138167.0,14345.0,138167.0,36843.0,-655.7729557393534,-275.5164511427867,-711.7920117413313
138178.0,3332.0,138178.0,14289.0,138178.0,36819.0,-661.9898822113123,-277.36423943217017,-716.5994358157488
138178.0,3318.0,138178.0,14292.0,138178.0,36815.0,-667.9862857324458,-279.02293936630053,-720.9980795727299
138178.0,3309.0,138178.0,14277.0,138178.0,36797.0,-673.742512539503,-280.48186368091,-724.9632229382454
138178.0,3314.0,138178.0,14276.0,138178.0,36785.0,-679.2386263874503,-281.7308611261894,-728.4704316944326
138178.0,3308.0,138178.0,14297.0,138178.0,36808.0,-684.454492496073,-282.76051280220116,-731.4957999509386
138178.0,3306.0,138178.0,14310.0,138178.0,36796.0,-689.3697182232941,-283.56202971144353,-734.0159950099617
138188.0,3295.0,138188.0,14306.0,138188.0,36805.0,-693.9635988471283,-284.1269125456254,-736.0081134918988
138188.0,3306.0,138188.0,14312.0,138188.0,36784.0,-698.2151136375755,-284.44662695911666,-737.4495741089652
138188.0,3283.0,138188.0,14288.0,138188.0,36793.0,-702.1029222949566,-284.51249293178876,-738.3181672270211
138188.0,3284.0,138188.0,14247.0,138188.0,36756.0,-705.6053968369088,-284.31589170758093,-738.5922376600765
138188.0,3282.0,138188.0,14320.0,138188.0,36793.0,-708.7007300971336,-283.84870559034624,-738.2509447482912
138188.0,3266.0,138188.0,14279.0,138188.0,36794.0,-711.3670486796125,-283.1035031556926,-737.2743919734048
138198.0,3264.0,138198.0,14287.0,138198.0,36758.0,-713.5825351184635,-282.07337097654937,-735.6435559529864
138198.0,3260.0,138198.0,14259.0,138198.0,36766.0,-715.3256004221914,-280.7519263628016,-733.3403777001365
138198.0,3244.0,138198.0,14269.0,138198.0,36759.0,-716.5750611592186,-279.13365097336725,-730.3481402071927
138198.0,3260.0,138198.0,14287.0,138198.0,36771.0,-717.3103035658803,-277.21418123472904,-726.6517889008036
138198.0,3245.0,138198.0,14277.0,138198.0,36773.0,-717.5114009555327,-274.99033110805635,-722.2380417011384
138198.0,3267.0,138198.0,14316.0,138198.0,36784.0,-717.1591365237215,-272.4599201983622,-717.0953863068391
138209.0,3259.0,138209.0,14337.0,138209.0,36806.0,-716.2349463584482,-269.6214498086754,-711.2140035841762
138209.0,3249.0,138209.0,14288.0,138209.0,36777.0,-714.7208642250307,-266.473691772736,-704.5856619541606
138209.0,3248.0,138209.0,14290.0,138209.0,36771.0,-712.599610384952,-263.01562926424253,-697.2038158209017
138209.0,3245.0,138209.0,14319.0,138209.0,36830.0,-709.8548230034307,-259.2468366417505,-689.0639224702447
138209.0,3254.0,138209.0,14349.0,138209.0,36812.0,-706.47126877962,-255.1676325568028,-680.1635243337887
138209.0,3261.0,138209.0,14315.0,138209.0,36821.0,-702.4349361861131,-250.77876551502965,-670.5020522405741
138219.0,3247.0,138219.0,14320.0,138219.0,36832.0,-697.7330603764049,-246.08121471067278,-660.0807929279268
138219.0,3252.0,138219.0,14318.0,138219.0,36805.0,-692.3542319893336,-241.07641371554195,-648.9031058239987
138219.0,3247.0,138219.0,14292.0,138219.0,36847.0,-686.2886408525986,-235.76663188106053,-636.974745371491
138219.0,3247.0,138219.0,14298.0,138219.0,36849.0,-679.5283557872837,-230.15539400138138,-624.3041208090506
138219.0,3290.0,138219.0,14362.0,138219.0,36893.0,-672.0675092836874,-224.24780256826455,-610.9022847760691
138219.0,3290.0,138219.0,14365.0,138219.0,36909.0,-663.9022254038402,-218.05034359085278,-596.7826666560627
138229.0,3299.0,138229.0,14355.0,138229.0,36912.0,-655.0303578818848,-211.57030735802377,-581.960756720488
138229.0,3304.0,138229.0,14369.0,138229.0,36946.0,-645.4513502001348,-204.81548164529576,-566.4539369400625
138229.0,3312.0,138229.0,14345.0,138229.0,36963.0,-635.166296634744,-197.7942709356895,-550.2814174882858
138229.0,3332.0,138229.0,14372.0,138229.0,37017.0,-624.1780403657314,-190.51596617578417,-533.4640436234382
138229.0,3351.0,138229.0,14382.0,138229.0,37021.0,-612.4911770713028,-182.99093813472683,-516.0239075689562
138229.0,3355.0,138229.0,14404.0,138229.0,37020.0,-600.1119578408573,-175.230592164938,-497.984021731533
138240.0,3347.0,138240.0,14391.0,138240.0,37038.0,-587.0482693429321,-167.24717509505155,-479.3683560996748
138240.0,3379.0,138240.0,14392.0,138240.0,37024.0,-573.3098185368664,-159.05373339603727,-460.2021965767689
138240.0,3376.0,138240.0,14424.0,138240.0,37091.0,-558.9083557236869,-150.66426472126778,-440.5125280033619
138240.0,3401.0,138240.0,14463.0,138240.0,37108.0,-543.8577878854405,-142.09370015178118,-420.3281253433917
138240.0,3455.0,138240.0,14506.0,138240.0,37151.0,-528.174153596292,-133.35740908977397,-399.6792509712787
138240.0,3459.0,138240.0,14458.0,138240.0,37163.0,-511.8753477492351,-124.47049750005081,-378.5972364015098
138250.0,3477.0,138250.0,14452.0,138250.0,37169.0,-494.980735216484,-115.44759516601245,-357.1142672299152
138250.0,3482.0,138250.0,14480.0,138250.0,37217.0,-477.51101308692444,-106.3032974170925,-335.2634127707937
138250.0,3516.0,138250.0,14531.0,138250.0,37272.0,-459.4883147820658,-97.05250802803965,-313.0785856703835
138250.0,3545.0,138250.0,14539.0,138250.0,37292.0,-440.93625384416094,-87.71011819759096,-290.59412889202554
138250.0,3559.0,138250.0,14544.0,138250.0,37305.0,-421.8797812068003,-78.2904036079738,-267.84429813147176
138250.0,3558.0,138250.0,14475.0,138250.0,37300.0,-402.34506362439754,-68.806865601215,-244.86313031568034
138261.0,3594.0,138261.0,14498.0,138261.0,37320.0,-382.35958886960293,-59.27282563807819,-221.6847699286209
138261.0,3625.0,138261.0,14530.0,138261.0,37368.0,-361.95231066618885,-49.70226868956448,-198.34388981091735
138261.0,3637.0,138261.0,14569.0,138261.0,37399.0,-341.15358961780584,-40.110089206925494,-174.87578236424883
138261.0,3691.0,138261.0,14587.0,138261.0,37435.0,-319.9950081176537,-30.511619813717715,-151.31607753545268
138261.0,3738.0,138261.0,14593.0,138261.0,37477.0,-298.5090683746709,-20.922010904760157,-127.70034142614537
138261.0,3735.0,138261.0,14626.0,138261.0,37483.0,-276.7287138482265,-11.35583302587608,-104.06372234500611
138271.0,3757.0,138271.0,14566.0,138271.0,37492.0,-254.6869988600085,-1.8269501179950112,-80.44080505025931
138271.0,3787.0,138271.0,14608.0,138271.0,37539.0,-232.41712792620956,7.651249825981978,-56.86574287338078
138271.0,3812.0,138271.0,14621.0,138271.0,37571.0,-209.95256422807807,17.06545737344615,-33.37235494884396
138271.0,3829.0,138271.0,14643.0,138271.0,37592.0,-187.32700377066755,26.402369734466532,-9.993952689811692
138271.0,3871.0,138271.0,14660.0,138271.0,37622.0,-164.57431532888444,35.64896903196737,13.236897143733188
138271.0,3887.0,138271.0,14637.0,138271.0,37629.0,-141.7284572300137,44.79276263603256,36.28846137331112
138281.0,3897.0,138281.0,14644.0,138281.0,37673.0,-118.82339213516394,53.82171682859891,59.12981273834515
138281.0,3950.0,138281.0,14670.0,138281.0,37695.0,-95.89309585623954,62.72396717699303,81.73083440177174
138281.0,3966.0,138281.0,14678.0,138281.0,37737.0,-72.97152756489487,71.48768039698979,104.0623750038568
138281.0,4022.0,138281.0,14726.0,138281.0,37760.0,-50.09239839455938,80.1012482024687,126.09652083694766
138281.0,4050.0,138281.0,14725.0,138281.0,37779.0,-27.28878590558037,88.55370626651217,147.80685454274243
138281.0,4052.0,138281.0,14703.0,138281.0,37779.0,-4.592753197726836,96.83509736946064,169.16853933846858
138292.0,4073.0,138292.0,14693.0,138292.0,37820.0,17.964771387518113,104.93638648567119,190.15818105987933
138292.0,4101.0,138292.0,14774.0,138292.0,37910.0,40.35382465857225,112.84909205389297,210.7538310734048
138292.0,4135.0,138292.0,14770.0,138292.0,37864.0,62.54527588271867,120.56536428777352,230.93545865757324
138292.0,4179.0,138292.0,14756.0,138292.0,37900.0,84.51095459513459,128.07852091943482,250.68538965770267
138292.0,4181.0,138292.0,14752.0,138292.0,37861.0,106.22394878552416,135.3832574495861,269.98809887581615
138292.0,4200.0,138292.0,14740.0,138292.0,37912.0,127.65878903050975,142.47530343973,288.8295854529547
138302.0,4221.0,138302.0,14739.0,138302.0,37910.0,148.79136564175406,149.35091155218242,307.1968619697619
138302.0,4246.0,138302.0,14796.0,138302.0,37935.0,169.59876583954104,156.0065235150962,325.0777358155168
138302.0,4299.0,138302.0,14785.0,138302.0,37989.0,190.05928672472504,162.4388640795238,342.4608164704389
138302.0,4293.0,138302.0,14798.0,138302.0,38013.0,210.15266526778038,168.6453173766272,359.3357936201238
138302.0,4309.0,138302.0,14788.0,138302.0,38008.0,229.86026293551663,174.6241243716479,375.6938933787552
138302.0,4334.0,138302.0,14762.0,138302.0,38015.0,249.1649769330429,180.3742274587686,391.52806571205997
138312.0,4350.0,138312.0,14822.0,138312.0,38015.0,268.0510648496154,185.89494439059655,406.83273537621017
138312.0,4377.0,138312.0,14827.0,138312.0,38069.0,286.50409980413815,191.18590263168335,421.60347277958397
138312.0,4397.0,138312.0,14825.0,138312.0,38063.0,304.51102220078394,196.24738998534195,435.8369512462806
138312.0,4426.0,138312.0,14829.0,138312.0,38099.0,322.0602460661404,201.080664144246,449.5311442828049
138312.0,4397.0,138312.0,14823.0,138312.0,38100.0,339.1417212304907,205.68794188040647,462.6855039212717
138312.0,4438.0,138312.0,14779.0,138312.0,38116.0,355.7467574546946,210.07214271195778,475.3010372325406
138323.0,4451.0,138323.0,14809.0,138323.0,38118.0,371.8677282086269,214.23639507495886,487.3802870994433
138323.0,4486.0,138323.0,14842.0,138323.0,38122.0,387.4980065145478,218.18362465969346,498.92720507827744
138323.0,4491.0,138323.0,14866.0,138323.0,38140.0,402.6321432247471,221.91672669626183,509.9469668633709
138323.0,4515.0,138323.0,14859.0,138323.0,38134.0,417.266039032442,225.43916829139215,520.445811180351
138323.0,4521.0,138323.0,14826.0,138323.0,38152.0,431.3970071835031,228.75535896293923,530.430908016825
138323.0,4529.0,138323.0,14833.0,138323.0,38137.0,445.0237432131403,231.87045534367263,539.9101973056215
138333.0,4549.0,138333.0,14873.0,138333.0,38196.0,458.14622608217337,234.78997834816136,548.8922524734671
138333.0,4573.0,138333.0,14839.0,138333.0,38217.0,470.76565801576953,237.51976678202954,557.3864276367702
138333.0,4574.0,138333.0,14840.0,138333.0,38193.0,482.88453209190425,240.06608103575724,565.4033023326186
138333.0,4578.0,138333.0,14853.0,138333.0,38149.0,494.50668588298925,242.43547014579661,572.954808271647
138333.0,4578.0,138333.0,14831.0,138333.0,38165.0,505.6371650095316,244.6345639196088,580.0536269586565
138333.0,4578.0,138333.0,14801.0,138333.0,38180.0,516.2819288656466,246.66985062784,586.712402182873
138343.0,4601.0,138343.0,14828.0,138343.0,38178.0,526.4475481144367,248.54725387269292,592.9434004013845
138343.0,4622.0,138343.0,14846.0,138343.0,38228.0,536.1410738773824,250.2718018671082,598.758586234887
138343.0,4643.0,138343.0,14881.0,138343.0,38253.0,545.3701775710667,251.84781998781824,604.1699892335643
138343.0,4612.0,138343.0,14863.0,138343.0,38193.0,554.143362840273,253.27949465950672,609.1902016493902
138343.0,4633.0,138343.0,14854.0,138343.0,38191.0,562.4699073322614,254.5712802350145,613.832401732277
138343.0,4635.0,138343.0,14844.0,138343.0,38217.0,570.3595664195293,255.7278573170151,618.1097867928013
138354.0,4663.0,138354.0,14894.0,138354.0,38210.0,577.8224008207778,256.75392367308217,622.0351441494105
138354.0,4665.0,138354.0,14869.0,138354.0,38241.0,584.868861373817,257.6542769773791,625.62088131052
138354.0,4643.0,138354.0,14864.0,138354.0,38243.0,591.5098958860748,258.43407387519335,628.8792599924351
138354.0,4659.0,138354.0,14834.0,138354.0,38230.0,597.7568085723983,259.09877749895236,631.8226271518682
138354.0,4658.0,138354.0,14830.0,138354.0,38212.0,603.6209567257758,259.65371636962396,634.4634139556116
138354.0,4665.0,138354.0,14879.0,138354.0,38223.0,609.1135534147189,260.103671397298,636.8138233652737
138364.0,4660.0,138364.0,14873.0,138364.0,38216.0,614.2455758449898,260.4529380542133,638.8854852125177
138364.0,4697.0,138364.0,14910.0,138364.0,38247.0,619.0277102204083,260.7058372569532,640.6893333637119
138364.0,4693.0,138364.0,14852.0,138364.0,38235.0,623.470450125187,260.8671992408278,642.2357187672375
138364.0,4698.0,138364.0,14846.0,138364.0,38254.0,627.5843217742033,260.94237101720296,643.5346204175343
138364.0,4684.0,138364.0,14851.0,138364.0,38237.0,631.3799727084905,260.9367533289966,644.5957920028252
138364.0,4698.0,138364.0,14872.0,138364.0,38259.0,634.8680365765559,260.8554113155197,645.4288095098901
138374.0,4707.0,138374.0,14880.0,138374.0,38266.0,638.0589841261497,260.7031533408024,646.0431388694175
138374.0,4703.0,138374.0,14855.0,138374.0,38244.0,640.9631219628997,260.4848289052624,646.4482759487067
138374.0,4698.0,138374.0,14844.0,138374.0,38231.0,643.5906213640156,260.2053840763557,646.6537380011611
138374.0,4706.0,138374.0,14834.0,138374.0,38249.0,645.9514331319106,259.8695609535118,646.6688030576938
138374.0,4703.0,138374.0,14849.0,138374.0,38218.0,648.0551670861549,259.48153444958916,646.502251944591
138374.0,4699.0,138374.0,14806.0,138374.0,38234.0,649.9110127761613,259.04469468313306,646.1622057231667
138385.0,4701.0,138385.0,14870.0,138385.0,38256.0,651.5276424191835,258.5615181866466,645.656036010655
138385.0,4719.0,138385.0,14862.0,138385.0,38262.0,652.9131281487757,258.0336613880894,644.9905341027994
138385.0,4719.0,138385.0,14858.0,138385.0,38248.0,654.0750028130674,257.46236127996707,644.172269852314
138385.0,4714.0,138385.0,14832.0,138385.0,38221.0,655.0204134697068,256.8487000253273,643.2077171249686
138385.0,4712.0,138385.0,14870.0,138385.0,38196.0,655.7561710336021,256.19350477833746,642.1029230125605
138385.0,4744.0,138385.0,14866.0,138385.0,38259.0,656.2887262025188,255.49730159309019,640.863024155286
138395.0,4726.0,138395.0,14851.0,138395.0,38241.0,656.624285954623,254.7605156468228,639.4921948372933
138395.0,4734.0,138395.0,14845.0,138395.0,38260.0,656.7690117214704,253.98356563339448,637.9940772836109
138395.0,4722.0,138395.0,14841.0,138395.0,38241.0,656.7290683317119,253.1666924395247,636.372171902294
138395.0,4723.0,138395.0,14814.0,138395.0,38221.0,656.5105235268018,252.30969410825816,634.6298939117395
138395.0,4720.0,138395.0,14856.0,138395.0,38228.0,656.119217250766,251.41169053241018,632.7703549275001
138395.0,4709.0,138395.0,14879.0,138395.0,38228.0,655.5606369478755,250.47116478055176,630.7961081997138
138405.0,4745.0,138405.0,14878.0,138405.0,38251.0,654.8398452278109,249.48645916963594,628.7091306055581
138405.0,4733.0,138405.0,14859.0,138405.0,38259.0,653.9615932876746,248.45632340870196,626.5110959555881
138405.0,4706.0,138405.0,14833.0,138405.0,38224.0,652.9305187413731,247.37999881456506,624.2037209865041
138405.0,4717.0,138405.0,14843.0,138405.0,38233.0,651.7510856948294,246.25686899438665,621.7888460231742
138405.0,4722.0,138405.0,14883.0,138405.0,38256.0,650.427349891065,245.0861849752807,619.2683069177879
138405.0,4737.0,138405.0,14865.0,138405.0,38246.0,648.9629434078391,243.86726145148992,616.6440130686494
138416.0,4724.0,138416.0,14880.0,138416.0,38245.0,647.3612929440267,242.59991346832732,613.9182193168118
138416.0,4719.0,138416.0,14838.0,138416.0,38239.0,645.6257821852603,241.28465798803848,611.0936658388437
138416.0,4709.0,138416.0,14812.0,138416.0,38195.0,643.7597023113424,239.92247999391373,608.1734746577725
138416.0,4701.0,138416.0,14856.0,138416.0,38176.0,641.766061367475,238.51432906367202,605.1607379274764
138416.0,4707.0,138416.0,14848.0,138416.0,38224.0,639.6473900088197,237.0608786225623,602.0579638405146
138416.0,4725.0,138416.0,14854.0,138416.0,38264.0,637.4056892318932,235.5627583147118,598.867037772791
138426.0,4742.0,138426.0,14879.0,138426.0,38224.0,635.0426535772486,234.02090734302837,595.589898931557
138426.0,4718.0,138426.0,14863.0,138426.0,38240.0,632.5600705746161,232.43689090288177,592.2291816419498
138426.0,4723.0,138426.0,14818.0,138426.0,38201.0,629.9600644828768,230.81306634684393,588.7883011074879
138426.0,4708.0,138426.0,14841.0,138426.0,38182.0,627.2450567707524,229.15233796958532,585.2711535498526
138426.0,4734.0,138426.0,14874.0,138426.0,38206.0,624.417669925777,227.45783829917906,581.6816916803809
138426.0,4718.0,138426.0,14824.0,138426.0,38227.0,621.4807910519378,225.733031613421,578.0237558409382
138436.0,4715.0,138436.0,14843.0,138436.0,38203.0,618.4377202939029,223.98189959605162,574.301365083596
138436.0,4694.0,138436.0,14797.0,138436.0,38195.0,615.2921732906423,222.20876582679927,570.5190309404347
138436.0,4691.0,138436.0,14797.0,138436.0,38198.0,612.0480788650226,220.4178743303964,566.6817416247441
138436.0,4698.0,138436.0,14808.0,138436.0,38179.0,608.7093478953136,218.61296489590256,562.7948168646071
138436.0,4711.0,138436.0,14819.0,138436.0,38169.0,605.279837876997,216.7971101409925,558.8637768933048
138436.0,4695.0,138436.0,14851.0,138436.0,38200.0,601.7635413814097,214.9729700280674,554.8942234030599
138447.0,4705.0,138447.0,14805.0,138447.0,38192.0,598.1647857951413,213.14324112122745,550.8919285848895
138447.0,4687.0,138447.0,14829.0,138447.0,38152.0,594.4883065965419,211.31089372644644,546.8630713611349
138447.0,4666.0,138447.0,14777.0,138447.0,38154.0,590.7391839101608,209.47904504610955,542.8141774291511
138447.0,4683.0,138447.0,14843.0,138447.0,38167.0,586.9226462348706,207.65071716931837,538.7518013677661
138447.0,4700.0,138447.0,14859.0,138447.0,38182.0,583.043973910807,205.82893513427695,534.6824747398953
138447.0,4669.0,138447.0,14807.0,138447.0,38155.0,579.1086883386888,204.0172418640177,530.6129948570779
138457.0,4666.0,138457.0,14797.0,138457.0,38104.0,575.122713103984,202.2199418100949,526.5505237797736
138457.0,4650.0,138457.0,14789.0,138457.0,38128.0,571.0922316013986,200.4416967767956,522.5021735394406
138457.0,4638.0,138457.0,14760.0,138457.0,38116.0,567.0234008432243,198.6869534106736,518.4744982877095
138457.0,4647.0,138457.0,14766.0,138457.0,38109.0,562.9221135082271,196.95949767442565,514.4733363415744
138457.0,4654.0,138457.0,14808.0,138457.0,38123.0,558.793927434475,195.26221104531712,510.50385620871134
138457.0,4664.0,138457.0,14787.0,138457.0,38146.0,554.6442473623811,193.59724890315357,506.5707112889221
138467.0,4656.0,138467.0,14780.0,138467.0,38133.0,550.4786494654267,191.96641435679732,502.6784164095057
138467.0,4634.0,138467.0,14772.0,138467.0,38110.0,546.3030955257473,190.37123972082208,498.8317011695596
138467.0,4620.0,138467.0,14779.0,138467.0,38090.0,542.1238524138475,188.81282212773021,495.03546555639076
138467.0,4647.0,138467.0,14798.0,138467.0,38141.0,537.9472502454028,187.29177749527497,491.294507672565
138467.0,4615.0,138467.0,14794.0,138467.0,38132.0,533.7796007852291,185.80844637848503,487.61358600889116
138467.0,4630.0,138467.0,14750.0,138467.0,38077.0,529.627267800177,184.3630966963879,483.9977675380432
138478.0,4600.0,138478.0,14778.0,138478.0,38067.0,525.4966584534444,182.95579547906155,480.45234507802365
138478.0,4598.0,138478.0,14756.0,138478.0,38077.0,521.3940829182939,181.58611354831913,476.98225698044166
138478.0,4602.0,138478.0,14764.0,138478.0,38086.0,517.3255670016376,180.2529889507307,473.5917172777326
138478.0,4602.0,138478.0,14789.0,138478.0,38096.0,513.2967754251966,178.95476130115463,470.2843515957953
138478.0,4602.0,138478.0,14808.0,138478.0,38072.0,509.3131103289386,177.68943575794583,467.0635108534014
138478.0,4597.0,138478.0,14834.0,138478.0,38083.0,505.3798552948302,176.4552596509251,463.9324226435075
138488.0,4583.0,138488.0,14768.0,138488.0,38079.0,501.5022392440906,175.25129409587242,460.8941862564198
138488.0,4584.0,138488.0,14766.0,138488.0,38028.0,497.6853876565717,174.07744031403539,457.95170028307837
138488.0,4584.0,138488.0,14798.0,138488.0,38104.0,493.93424189188084,172.93397937391404,455.10749639087965
138488.0,4581.0,138488.0,14826.0,138488.0,38103.0,490.2535617986153,171.8214247285245,452.3638211864216
138488.0,4580.0,138488.0,14807.0,138488.0,38072.0,486.6479972856892,170.7409910967969,449.7231623807836
138488.0,4579.0,138488.0,14756.0,138488.0,38040.0,483.1221598944667,169.69497339220436,447.18852504557043
138499.0,4552.0,138499.0,14763.0,138499.0,38032.0,479.6806375561637,168.68644877897557,444.7630146831692
138499.0,4543.0,138499.0,14720.0,138499.0,38021.0,476.3278431048505,167.71856891506405,442.4491944959191
138499.0,4544.0,138499.0,14741.0,138499.0,38014.0,473.0677146131022,166.79392595851579,440.2486457886364
138499.0,4539.0,138499.0,14728.0,138499.0,38047.0,469.9034900194491,165.91416426001516,438.1617941630035
138499.0,4564.0,138499.0,14781.0,138499.0,38059.0,466.83770567757847,165.0799388488735,436.1880864505828
138499.0,4554.0,138499.0,14775.0,138499.0,38033.0,463.87240860373197,164.29129148926228,434.32642932426376
138509.0,4535.0,138509.0,14724.0,138509.0,38017.0,461.0094002031591,163.5481123917721,432.57541402834727
138509.0,4535.0,138509.0,14776.0,138509.0,38018.0,458.2502483237079,162.85019378761774,430.9331026273612
138509.0,4543.0,138509.0,14791.0,138509.0,38063.0,455.59613435990883,162.1971505915313,429.3968088946625
138509.0,4549.0,138509.0,14750.0,138509.0,38035.0,453.0478449855459,161.58869384986144,427.96329483687384
138509.0,4532.0,138509.0,14713.0,138509.0,38023.0,450.6059307369847,161.02475105583247,426.62909759520846
138509.0,4513.0,138509.0,14723.0,138509.0,38011.0,448.2707501240755,160.50494157913727,425.3904869678832
138519.0,4518.0,138519.0,14715.0,138519.0,38010.0,446.042263661581,160.02791516991448,424.2431346140136
138519.0,4514.0,138519.0,14740.0,138519.0,38030.0,443.91978625385775,159.59109995976806,423.1818937339937
138519.0,4524.0,138519.0,14770.0,138519.0,38072.0,441.9019205450094,159.19089643393372,422.20095649830984
138519.0,4526.0,138519.0,14782.0,138519.0,38060.0,439.9866651862107,158.82322436401836,421.29442176735546
138519.0,4510.0,138519.0,14797.0,138519.0,38027.0,438.1715644987693,158.48422043840952,420.45684020801804
138519.0,4519.0,138519.0,14745.0,138519.0,38029.0,436.4537579355788,158.1707123256581,419.68322296785885
138530.0,4522.0,138530.0,14744.0,138530.0,38040.0,434.8299617983933,157.88015359020545,418.9687022868603
138530.0,4520.0,138530.0,14764.0,138530.0,38038.0,433.2965310336351,157.61018753124705,418.3083825181482
138530.0,4527.0,138530.0,14786.0,138530.0,38054.0,431.8495890692725,157.35846738188351,417.69747075973777
138530.0,4517.0,138530.0,14755.0,138530.0,38003.0,430.4851347414245,157.12291710440977,417.13140191092623
138530.0,4518.0,138530.0,14760.0,138530.0,38013.0,429.1990879835421,156.9019329984241,416.60567498707167
138530.0,4519.0,138530.0,14739.0,138530.0,38011.0,427.98727845371707,156.6942388194027,416.11546357711956
138540.0,4515.0,138540.0,14734.0,138540.0,38020.0,426.8454359191554,156.49857457123971,415.65538509889063
138540.0,4498.0,138540.0,14745.0,138540.0,38015.0,425.76916634271726,156.31341531792302,415.21954233840825
138540.0,4504.0,138540.0,14755.0,138540.0,38020.0,424.7538288139133,156.1368738606977,414.80163102842295
138540.0,4501.0,138540.0,14744.0,138540.0,38044.0,423.794380250118,155.96682375794722,414.39506103794855
138540.0,4528.0,138540.0,14763.0,138540.0,38026.0,422.885370153349,155.801062636845,413.99317636968914
138540.0,4508.0,138540.0,14747.0,138540.0,38037.0,422.02113213038797,155.63741670107348,413.589477036394
138550.0,4511.0,138550.0,14731.0,138550.0,38002.0,421.1959780733181,155.47375412456458,413.1776467278466
138550.0,4510.0,138550.0,14760.0,138550.0,38022.0,420.4042231652328,155.30786490317573,412.7513702878739
138550.0,4516.0,138550.0,14760.0,138550.0,38006.0,419.64015117403085,155.13742377105646,412.3041152463095
138550.0,4514.0,138550.0,14723.0,138550.0,38030.0,418.8980618773026,154.96011922525201,411.82905772240235
138550.0,4494.0,138550.0,14732.0,138550.0,38006.0,418.1723158062432,154.77358851205398,411.31915088780767
138550.0,4502.0,138550.0,14734.0,138550.0,38006.0,417.4572409033919,154.57511817645133,410.76716014532576
138561.0,4511.0,138561.0,14718.0,138561.0,38013.0,416.7469984151818,154.36145226138942,410.1655762074022
138561.0,4497.0,138561.0,14750.0,138561.0,38021.0,416.03558831377046,154.1287649109954,409.5065722521922
138561.0,4503.0,138561.0,14774.0,138561.0,38068.0,415.31691146434156,153.87282379128027,408.7822320548686
138561.0,4513.0,138561.0,14762.0,138561.0,38051.0,414.5847875449949,153.5894395630609,407.98508374558605
138561.0,4513.0,138561.0,14729.0,138561.0,38011.0,413.83304426650915,153.27483726977232,407.1085670792055
138561.0,4516.0,138561.0,14768.0,138561.0,38022.0,413.0556963029843,152.92559966857905,406.1469609033343
138571.0,4496.0,138571.0,14775.0,138571.0,38074.0,412.2470542566799,152.53856713104813,405.09509078217604
138571.0,4512.0,138571.0,14757.0,138571.0,38016.0,411.40168492364126,152.11106051536657,403.94845240767745
138571.0,4503.0,138571.0,14769.0,138571.0,38024.0,410.5143383949413,151.64111545796058,402.7034453831691
138571.0,4505.0,138571.0,14736.0,138571.0,38002.0,409.57995347324766,151.12745294323656,401.3571832624129
138571.0,4481.0,138571.0,14708.0,138571.0,38000.0,408.59364241202536,150.5691943097923,399.90709852246937
138571.0,4492.0,138571.0,14726.0,138571.0,37989.0,407.55054181296043,149.965357165163,398.350642076869
138581.0,4500.0,138581.0,14731.0,138581.0,37958.0,406.4456654292403,149.3144560376842,396.685006586304
138581.0,4488.0,138581.0,14757.0,138581.0,38021.0,405.2739310481554,148.61454980898404,394.9068736521222
138581.0,4498.0,138581.0,14752.0,138581.0,38028.0,404.03026649874863,147.86362264646792,393.01253711091164
138581.0,4520.0,138581.0,14751.0,138581.0,38011.0,402.7097241165406,147.05996660448628,390.99848955328224
138581.0,4478.0,138581.0,14744.0,138581.0,37990.0,401.30766453753665,146.20235346384854,388.861850898967
138581.0,4491.0,138581.0,14719.0,138581.0,37989.0,399.819819749383,145.2899634822554,386.6002546298806
138592.0,4500.0,138592.0,14758.0,138592.0,38020.0,398.2421606705436,144.3221965656145,384.21160865746344
138592.0,4503.0,138592.0,14720.0,138592.0,38001.0,396.57089723647306,143.298588496485,381.69418016560115
138592.0,4478.0,138592.0,14734.0,138592.0,37981.0,394.80264350115635,142.21883021614386,379.0468203368208
138592.0,4473.0,138592.0,14712.0,138592.0,37982.0,392.93440586685955,141.08268375654526,376.2689202246894
138592.0,4461.0,138592.0,14685.0,138592.0,37950.0,390.96332574462355,139.8897361455273,373.36012209316465
138592.0,4482.0,138592.0,14702.0,138592.0,37964.0,388.88643982664394,138.63903177029096,370.3200068293751
138602.0,4462.0,138602.0,14721.0,138602.0,37954.0,386.7006482936655,137.32881999114142,367.14787684325785
138602.0,4500.0,138602.0,14780.0,138602.0,38002.0,384.4028566494805,135.95682278044632,363.8428004133941
138602.0,4484.0,138602.0,14760.0,138602.0,37981.0,381.9902366391476,134.52103862809375,360.40400451826036
138602.0,4459.0,138602.0,14717.0,138602.0,37967.0,379.4604748047261,133.0204534018299,356.8313308330487
138602.0,4474.0,138602.0,14709.0,138602.0,37959.0,376.8117638964933,131.45500658250666,353.12534814355865
138602.0,4482.0,138602.0,14731.0,138602.0,37987.0,374.0426788723956,129.82506586990894,349.28723450620896
138612.0,4477.0,138612.0,14728.0,138612.0,37949.0,371.15227752689077,128.13117512868897,345.3188116157077
138612.0,4462.0,138612.0,14751.0,138612.0,37950.0,368.14030032254755,126.37425577548208,341.22262813135626
138612.0,4456.0,138612.0,14739.0,138612.0,37904.0,365.00717803680504,124.55596005379753,337.00177013075654
138612.0,4435.0,138612.0,14678.0,138612.0,37934.0,361.753845206898,122.67881796487947,332.65946134462706
138612.0,4426.0,138612.0,14686.0,138612.0,37908.0,358.3814625692634,120.74586412392672,328.19878091753685
138612.0,4417.0,138612.0,14676.0,138612.0,37905.0,354.8911112008493,118.7599630249518,323.6225997777969
138623.0,4439.0,138623.0,14694.0,138623.0,37925.0,351.2835959398497,116.72341747646786,318.9335938570519
138623.0,4443.0,138623.0,14730.0,138623.0,37923.0,347.5595341145894,114.63808272816601,314.13438263319546
138623.0,4429.0,138623.0,14683.0,138623.0,37914.0,343.71966681655283,112.50579395956572,309.227831356493
138623.0,4424.0,138623.0,14667.0,138623.0,37890.0,339.7650790168226,110.32859506597379,304.2172355722641
138623.0,4423.0,138623.0,14687.0,138623.0,37861.0,335.6972030270427,108.10848738300848,299.1061611879041
138623.0,4423.0,138623.0,14729.0,138623.0,37899.0,331.5177874012811,105.84725682893215,293.898099850669
138633.0,4397.0,138633.0,14673.0,138633.0,37855.0,327.228910155579,103.5468023560076,288.5963078384377
138633.0,4402.0,138633.0,14679.0,138633.0,37868.0,322.8329107769997,101.20941924694884,283.2038425169687
138633.0,4374.0,138633.0,14658.0,138633.0,37844.0,318.33221059862433,98.83759197494317,277.72352507948807
138633.0,4379.0,138633.0,14676.0,138633.0,37853.0,313.7291044376972,96.43365272718307,272.15783756292984
138633.0,4381.0,138633.0,14649.0,138633.0,37842.0,309.02561448671804,93.9996414509501,266.50889570850666
138633.0,4381.0,138633.0,14666.0,138633.0,37830.0,304.22351566366245,91.5372722340815,260.7784773475315
138643.0,4384.0,138643.0,14687.0,138643.0,37882.0,299.32451818768357,89.04797964538136,254.968124454981
138643.0,4369.0,138643.0,14648.0,138643.0,37850.0,294.33045958764046,86.53312592598787,249.07948880047428
138643.0,4337.0,138643.0,14662.0,138643.0,37844.0,289.24333406830533,83.99414434996947,243.11478150368097
138643.0,4351.0,138643.0,14637.0,138643.0,37790.0,284.06508227164966,81.4324264551162,237.07683467142508
138643.0,4337.0,138643.0,14692.0,138643.0,37822.0,278.79735385895924,78.8492222509633,230.96871635431992
138643.0,4353.0,138643.0,14659.0,138643.0,37849.0,273.44149176837993,76.24584477308635,224.79349168060335
138654.0,4351.0,138654.0,14633.0,138654.0,37776.0,267.99872392683557,73.62394014198166,218.55445183832407
138654.0,4325.0,138654.0,14655.0,138654.0,37784.0,262.47039440042056,70.9854122670444,212.25523809278812
138654.0,4326.0,138654.0,14626.0,138654.0,37752.0,256.85802549633695,68.33216808635929,205.8994620590558
138654.0,4312.0,138654.0,14623.0,138654.0,37753.0,251.1631945802323,65.66596457863251,199.49023495112579
138654.0,4289.0,138654.0,14611.0,138654.0,37769.0,245.3873712662831,62.98823201759451,193.0299638916204
138654.0,4320.0,138654.0,14631.0,138654.0,37769.0,239.53178171177993,60.29988960350687,186.5204799411514
138664.0,4309.0,138664.0,14657.0,138664.0,37779.0,233.59745174652832,57.60143067496216,179.9634269353872
138664.0,4311.0,138664.0,14625.0,138664.0,37735.0,227.58549152945483,54.89330782449417,173.36061762516425
138664.0,4285.0,138664.0,14631.0,138664.0,37735.0,221.49734039775083,52.176239462390384,166.7140656451611
138664.0,4285.0,138664.0,14602.0,138664.0,37729.0,215.33476747256879,49.451162584512275,160.0257559845166
138664.0,4287.0,138664.0,14642.0,138664.0,37733.0,209.09976963178855,46.7190462333279,153.297506020149
138664.0,4269.0,138664.0,14626.0,138664.0,37701.0,202.79456309137106,43.98091572459154,146.5310101388348
138674.0,4256.0,138674.0,14603.0,138674.0,37731.0,196.42160377016177,41.238041061825044,139.72788170560386
138674.0,4237.0,138674.0,14591.0,138674.0,37709.0,189.9834643491539,38.49189892671501,132.8897246998468
138674.0,4228.0,138674.0,14586.0,138674.0,37653.0,183.48258818261235,35.74383939808919,126.01819853700101
138674.0,4233.0,138674.0,14566.0,138674.0,37651.0,176.92108187584415,32.99474269833277,119.11471580119519
138674.0,4235.0,138674.0,14600.0,138674.0,37688.0,170.30070025318753,30.24482377703984,112.1799489001067
138674.0,4237.0,138674.0,14609.0,138674.0,37713.0,163.62304793053545,27.493720293727733,105.21390449078541
138685.0,4222.0,138685.0,14610.0,138685.0,37658.0,156.8898456523874,24.74091053557109,98.21658184064796
138685.0,4214.0,138685.0,14595.0,138685.0,37671.0,150.10307920171323,21.986137481593943,91.1884015820226
138685.0,4191.0,138685.0,14597.0,138685.0,37631.0,143.26496404009436,19.2295476092265,84.13008915310138
138685.0,4191.0,138685.0,14597.0,138685.0,37695.0,136.37778429964015,16.47165372833382,77.0424945528996
138685.0,4198.0,138685.0,14584.0,138685.0,37649.0,129.44377402271886,13.713316113167139,69.92677741225032
138685.0,4196.0,138685.0,14567.0,138685.0,37655.0,122.46521056634606,10.955691322477378,62.784779262343875
138695.0,4174.0,138695.0,14569.0,138695.0,37606.0,115.4446371233393,8.200047494616996,55.61910536078051
138695.0,4150.0,138695.0,14554.0,138695.0,37592.0,108.38491477257583,5.447541196366757,48.43278447137294
138695.0,4152.0,138695.0,14541.0,138695.0,37580.0,101.28901088260392,2.6990326877987627,41.22874733700746
138695.0,4137.0,138695.0,14557.0,138695.0,37581.0,94.15976055043774,-0.04508471660540181,34.00943338049757
138695.0,4143.0,138695.0,14552.0,138695.0,37608.0,86.99979323290091,-2.784938007785115,26.776752197128815
138695.0,4151.0,138695.0,14577.0,138695.0,37605.0,79.81163459617676,-5.521003319334369,19.53244023241706
138706.0,4133.0,138706.0,14558.0,138706.0,37575.0,72.59794302046498,-8.253797260995128,12.278545446341923
138706.0,4115.0,138706.0,14540.0,138706.0,37557.0,65.36169651488342,-10.983669535908831,5.0175906354704125
138706.0,4105.0,138706.0,14542.0,138706.0,37534.0,58.10613972314752,-13.710880986153938,-2.2476939382559635
138706.0,4110.0,138706.0,14582.0,138706.0,37562.0,50.83462043919644,-16.435726234230856,-9.514708472525228
138706.0,4106.0,138706.0,14549.0,138706.0,37553.0,43.55057456213882,-19.15833462068528,-16.781001613987883
138706.0,4096.0,138706.0,14568.0,138706.0,37557.0,36.25767354598429,-21.87833156574638,-24.043958479676007
138716.0,4063.0,138716.0,14518.0,138716.0,37509.0,28.95990554980665,-24.59475700306521,-31.30053520584977
138716.0,4050.0,138716.0,14519.0,138716.0,37490.0,21.66139589032673,-27.306321848060833,-38.54739426388534
138716.0,4058.0,138716.0,14512.0,138716.0,37498.0,14.366086066926755,-30.011832537613145,-45.78135159876433
138716.0,4037.0,138716.0,14513.0,138716.0,37496.0,7.0775687128107165,-32.710498334777895,-52.999668217988415
138716.0,4034.0,138716.0,14543.0,138716.0,37521.0,-0.20090546528325604,-35.401939299748705,-60.19991110773765
138716.0,4041.0,138716.0,14536.0,138716.0,37501.0,-7.466396607888214,-38.085899000919596,-67.3795313001529
138726.0,4017.0,138726.0,14506.0,138726.0,37446.0,-14.716200355135811,-40.76190280457203,-74.5355760622914
138726.0,4017.0,138726.0,14508.0,138726.0,37436.0,-21.947766779658252,-43.42923614307759,-81.66494206078875
138726.0,3991.0,138726.0,14549.0,138726.0,37460.0,-29.158737137129663,-46.087105166381775,-88.7649307989135
138726.0,4019.0,138726.0,14534.0,138726.0,37466.0,-36.347021617963776,-48.73446780130945,-95.83339407631604
138726.0,4001.0,138726.0,14494.0,138726.0,37427.0,-43.510717830948636,-51.369682978367024,-102.86841087143983
138726.0,3988.0,138726.0,14488.0,138726.0,37440.0,-50.64789842190817,-53.990593272174806,-109.86807652641113
138737.0,3978.0,138737.0,14495.0,138737.0,37411.0,-57.75652692875377,-56.594984344534396,-116.83058036451598
138737.0,3954.0,138737.0,14475.0,138737.0,37385.0,-64.83458086336941,-59.18089711429627,-123.7543876461175
138737.0,3952.0,138737.0,14459.0,138737.0,37388.0,-71.88026066436873,-61.74676843713587,-130.63851984957125
138737.0,3956.0,138737.0,14494.0,138737.0,37415.0,-78.89214494956389,-64.29159058539994,-137.482751191531
138737.0,3964.0,138737.0,14492.0,138737.0,37436.0,-85.86913022990478,-66.81487708809462,-144.2873328662779
138737.0,3933.0,138737.0,14467.0,138737.0,37395.0,-92.81019560820914,-69.31637830139275,-151.05236036909582
138747.0,3936.0,138747.0,14471.0,138747.0,37360.0,-99.71427379925183,-71.79595349526835,-157.77745173035498
138747.0,3926.0,138747.0,14476.0,138747.0,37377.0,-106.58030338562685,-74.25368243915543,-164.46202605399577
138747.0,3930.0,138747.0,14506.0,138747.0,37395.0,-113.40725390390662,-76.68982793917101,-171.10560156787415
138747.0,3909.0,138747.0,14475.0,138747.0,37374.0,-120.19405094398428,-79.10451980884068,-177.7076113235862
138747.0,3902.0,138747.0,14467.0,138747.0,37352.0,-126.93954295765144,-81.49751644253973,-184.26709273843937
138747.0,3886.0,138747.0,14446.0,138747.0,37335.0,-133.64259076210197,-83.86834350031887,-190.7827366939859
138757.0,3873.0,138757.0,14432.0,138757.0,37305.0,-140.30222918385033,-86.21668828829408,-197.25324967843073
138757.0,3873.0,138757.0,14457.0,138757.0,37296.0,-146.91782600252532,-88.54275438379923,-203.67780640434586
138757.0,3880.0,138757.0,14451.0,138757.0,37328.0,-153.48913096917067,-90.84733771351418,-210.05637033106012
138757.0,3875.0,138757.0,14464.0,138757.0,37316.0,-160.01612992538656,-93.13161193542254,-216.38961296280382
138757.0,3860.0,138757.0,14451.0,138757.0,37322.0,-166.4988214107844,-95.39685987637574,-222.6785128755467
138757.0,3857.0,138757.0,14442.0,138757.0,37303.0,-172.93711408793632,-97.64434931540671,-228.92402098660853
138768.0,3834.0,138768.0,14436.0,138768.0,37281.0,-179.3308733205671,-99.87539557189058,-235.12699036594233
138768.0,3843.0,138768.0,14468.0,138768.0,37308.0,-185.6800258427167,-102.09144693728962,-241.28827949491244
138768.0,3849.0,138768.0,14480.0,138768.0,37311.0,-191.98457884077533,-104.2938873282198,-247.40871122383015
138768.0,3820.0,138768.0,14449.0,138768.0,37258.0,-198.24448464670587,-106.48359456823312,-253.4888206213052
138768.0,3820.0,138768.0,14426.0,138768.0,37240.0,-204.45954936947822,-108.66076018737911,-259.52888750193233
138768.0,3801.0,138768.0,14399.0,138768.0,37260.0,-210.62953117653177,-110.8252601043736,-265.52938515752055
138778.0,3780.0,138778.0,14413.0,138778.0,37250.0,-216.75433514172397,-112.97726655339056,-271.4912604271849
138778.0,3783.0,138778.0,14420.0,138778.0,37247.0,-222.83424395546734,-115.11761353788765,-277.4158123626597
138778.0,3796.0,138778.0,14422.0,138778.0,37236.0,-228.8700549814971,-117.24774783340061,-283.30451753925524
138778.0,3783.0,138778.0,14454.0,138778.0,37253.0,-234.8629536599122,-119.36942133903008,-289.158945658035
138778.0,3780.0,138778.0,14430.0,138778.0,37237.0,-240.8142669177637,-121.48428865651167,-294.98061766456317
138778.0,3759.0,138778.0,14417.0,138778.0,37235.0,-246.72535963628178,-123.59362638368344,-300.770814432482
138788.0,3773.0,138788.0,14408.0,138788.0,37198.0,-252.5976761592451,-125.6984027525915,-306.53053429057263
138788.0,3763.0,138788.0,14437.0,138788.0,37205.0,-258.4327385952589,-127.79949722386644,-312.2606863739526
138788.0,3751.0,138788.0,14409.0,138788.0,37210.0,-264.23204520555964,-129.89770371295617,-317.9623113242585
138788.0,3759.0,138788.0,14406.0,138788.0,37187.0,-269.9969902539266,-131.9936287241118,-323.63659658198935
138788.0,3733.0,138788.0,14400.0,138788.0,37173.0,-275.72883967646976,-134.08776971099036,-329.28484004042184
138788.0,3716.0,138788.0,14372.0,138788.0,37188.0,-281.4287868129735,-136.18074328815456,-334.9085502295287
138799.0,3729.0,138799.0,14389.0,138799.0,37179.0,-287.09813065766855,-138.2735499469997,-340.5094826415457
138799.0,3701.0,138799.0,14393.0,138799.0,37173.0,-292.73842076473943,-140.36774168821302,-346.089496799584
138799.0,3725.0,138799.0,14430.0,138799.0,37168.0,-298.35146150982473,-142.46526588153438,-351.6504262683469
138799.0,3708.0,138799.0,14400.0,138799.0,37166.0,-303.9392161333094,-144.56801566144304,-357.1940344041361
138799.0,3702.0,138799.0,14403.0,138799.0,37142.0,-309.5036611030356,-146.67746928355123,-362.7220031708889
138799.0,3687.0,138799.0,14361.0,138799.0,37134.0,-315.0467303726797,-148.79472598988096,-368.23601770205653
138809.0,3692.0,138809.0,14400.0,138809.0,37139.0,-320.57038590125273,-150.92081691307743,-373.7379364357747
138809.0,3696.0,138809.0,14431.0,138809.0,37143.0,-326.0766322385631,-153.05679112487118,-379.2298363025328
138809.0,3677.0,138809.0,14379.0,138809.0,37128.0,-331.5673941666164,-155.2033481162482,-384.71386207671685
138809.0,3680.0,138809.0,14408.0,138809.0,37132.0,-337.0444050662261,-157.36051046556216,-390.1920660095449
138809.0,3657.0,138809.0,14352.0,138809.0,37104.0,-342.50921725383284,-159.52772118154445,-395.6663712427819
138809.0,3644.0,138809.0,14322.0,138809.0,37073.0,-347.96332411556523,-161.7042807240045,-401.13872572116156
138819.0,3638.0,138819.0,14350.0,138819.0,37085.0,-353.40837172735166,-163.89000026795745,-406.6114667776086
138819.0,3651.0,138819.0,14389.0,138819.0,37115.0,-358.84632027558735,-166.0855713691455,-412.08755836538944
138819.0,3656.0,138819.0,14365.0,138819.0,37101.0,-364.27935487756724,-168.29223110145674,-417.57033861645107
138819.0,3631.0,138819.0,14382.0,138819.0,37092.0,-369.70961454735084,-170.5111982201462,-423.063052859392
138819.0,3612.0,138819.0,14348.0,138819.0,37074.0,-375.1390812482691,-172.74343886267187,-428.5686657815975
138819.0,3617.0,138819.0,14371.0,138819.0,37077.0,-380.5697625307645,-174.9897192543159,-434.0899627538005
138830.0,3618.0,138830.0,14371.0,138830.0,37071.0,-386.00387425313977,-177.25065802117203,-439.6296569023589
138830.0,3593.0,138830.0,14369.0,138830.0,37037.0,-391.44382904343377,-179.52660607066574,-445.1904330330285
138830.0,3615.0,138830.0,14338.0,138830.0,37068.0,-396.8921822102608,-181.81752198946538,-450.77504367016775
138830.0,3592.0,138830.0,14328.0,138830.0,37045.0,-402.3515876433074,-184.12313436328762,-456.3863579632215
138830.0,3583.0,138830.0,14315.0,138830.0,37044.0,-407.8247373149446,-186.44335459123064,-462.027258138978
138830.0,3590.0,138830.0,14322.0,138830.0,37028.0,-413.31437334253917,-188.77865687880168,-467.70057363846286
138840.0,3580.0,138840.0,14336.0,138840.0,37018.0,-418.8233037197982,-191.13020684698162,-473.40916212720356
138840.0,3566.0,138840.0,14361.0,138840.0,37032.0,-424.3543467526275,-193.49964969745517,-479.1560057468005
138840.0,3576.0,138840.0,14340.0,138840.0,37049.0,-429.91030731990134,-195.8886611090908,-484.9441100263133
138840.0,3585.0,138840.0,14366.0,138840.0,36979.0,-435.4939140401773,-198.29854413866192,-490.77624381010503
138840.0,3565.0,138840.0,14342.0,138840.0,37045.0,-441.10759785756613,-200.730001595594,-496.6548641400269
138840.0,3536.0,138840.0,14330.0,138840.0,37003.0,-446.7533487367439,-203.18306766306546,-502.5821410092299
138850.0,3551.0,138850.0,14346.0,138850.0,37026.0,-452.43286692843867,-205.65720481547854,-508.55977025870766
138850.0,3539.0,138850.0,14339.0,138850.0,37000.0,-458.1477578007298,-208.1513838967361,-514.5887445415252
138850.0,3537.0,138850.0,14307.0,138850.0,36963.0,-463.89952126386515,-210.66406440411725,-520.6693514574396
138850.0,3516.0,138850.0,14293.0,138850.0,36944.0,-469.6894875159196,-213.1933684487942,-526.8015101306511
138850.0,3510.0,138850.0,14270.0,138850.0,36942.0,-475.51888322015816,-215.73755974422056,-532.985324794859
138850.0,3505.0,138850.0,14289.0,138850.0,36928.0,-481.3889774786953,-218.29554030997687,-539.2214931376578
138861.0,3510.0,138861.0,14279.0,138861.0,36974.0,-487.3011497128691,-220.86707959755537,-545.5113589301526
138861.0,3493.0,138861.0,14322.0,138861.0,36975.0,-493.2568247694263,-223.45269714586664,-551.8565401136661
138861.0,3508.0,138861.0,14324.0,138861.0,36954.0,-499.2573602057248,-226.0532291318303,-558.2582982506611
138861.0,3492.0,138861.0,14289.0,138861.0,36911.0,-505.3039201138555,-228.6693074850924,-564.7172139121176
138861.0,3483.0,138861.0,14302.0,138861.0,36916.0,-511.3973536563244,-231.30116843148159,-571.2334512851536
138861.0,3479.0,138861.0,14331.0,138861.0,36936.0,-517.5381673217152,-233.94871354751902,-577.807138432313
138871.0,3476.0,138871.0,14288.0,138871.0,36921.0,-523.726554447802,-236.61138619774138,-584.4383350053818
138871.0,3461.0,138871.0,14295.0,138871.0,36915.0,-529.9623848586348,-239.28802120928006,-591.12673716509
138871.0,3429.0,138871.0,14273.0,138871.0,36877.0,-536.2452578195079,-241.97699564441464,-597.8715790911857
138871.0,3432.0,138871.0,14244.0,138871.0,36890.0,-542.5747478312552,-244.6765714266931,-604.6718322803008
138871.0,3435.0,138871.0,14287.0,138871.0,36888.0,-548.950667211794,-247.38524166360088,-611.5264071934322
138871.0,3436.0,138871.0,14257.0,138871.0,36881.0,-555.3730682281105,-250.10186013302774,-618.434106344502
138881.0,3442.0,138881.0,14293.0,138881.0,36891.0,-561.8420009753867,-252.82546898502466,-625.3934158863514
138881.0,3429.0,138881.0,14293.0,138881.0,36876.0,-568.3572212820158,-255.55498254785732,-632.4022875145076
138881.0,3415.0,138881.0,14281.0,138881.0,36891.0,-574.9180085171306,-258.28883048365964,-639.4579249083215
138881.0,3415.0,138881.0,14246.0,138881.0,36818.0,-581.5231560472454,-261.02479508440905,-646.5566800120725
138881.0,3415.0,138881.0,14233.0,138881.0,36875.0,-588.1710028256954,-263.7602937012093,-653.6942009085988
138881.0,3417.0,138881.0,14276.0,138881.0,36845.0,-594.8593361632406,-266.49281900842664,-660.865578438625
138892.0,3395.0,138892.0,14255.0,138892.0,36847.0,-601.5852143049224,-269.21999887434407,-668.0652043391927
138892.0,3372.0,138892.0,14258.0,138892.0,36833.0,-608.3449314958783,-271.93931436909395,-675.2865839073812
138892.0,3361.0,138892.0,14219.0,138892.0,36798.0,-615.1342409838271,-274.6479879884,-682.5223725270972
138892.0,3357.0,138892.0,14227.0,138892.0,36813.0,-621.9486681079949,-277.3432303810434,-689.7645917475268
138892.0,3346.0,138892.0,14207.0,138892.0,36782.0,-628.7836910002843,-280.0226088928954,-697.0048531335034
138892.0,3366.0,138892.0,14217.0,138892.0,36805.0,-635.6347344013888,-282.6843032624331,-704.2344403886013
138902.0,3359.0,138902.0,14276.0,138902.0,36809.0,-642.4969706679154,-285.3270643854883,-711.4441893109318
138902.0,3344.0,138902.0,14276.0,138902.0,36785.0,-649.3650212128892,-287.94966372010987,-718.6241941976709
138902.0,3333.0,138902.0,14233.0,138902.0,36759.0,-656.2328054332079,-290.55012681800014,-725.7636324137328
138902.0,3341.0,138902.0,14234.0,138902.0,36774.0,-663.0935717041878,-293.12548563907507,-732.85090779485
138902.0,3324.0,138902.0,14234.0,138902.0,36777.0,-669.9398961255821,-295.67207804905615,-739.8737772989294
138902.0,3318.0,138902.0,14225.0,138902.0,36773.0,-676.7636148352778,-298.18580771741097,-746.8191658184875
138912.0,3296.0,138912.0,14233.0,138912.0,36744.0,-683.5558419103766,-300.6621864441985,-753.6729083508983
138912.0,3275.0,138912.0,14207.0,138912.0,36732.0,-690.3071459734921,-303.0963371336951,-760.4197619599996
138912.0,3272.0,138912.0,14210.0,138912.0,36711.0,-697.0078392443653,-305.4830830296924,-767.0436859639215
138912.0,3289.0,138912.0,14212.0,138912.0,36717.0,-703.6481769675686,-307.81709908452575,-773.5281540649473
138912.0,3268.0,138912.0,14224.0,138912.0,36714.0,-710.2182793226899,-310.09294146997655,-779.8562925181648
138912.0,3267.0,138912.0,14223.0,138912.0,36681.0,-716.7079319592807,-312.3048704064454,-786.0108671324439
138923.0,3249.0,138923.0,14250.0,138923.0,36691.0,-723.1065245139921,-314.44655148503455,-791.9743402340467
138923.0,3270.0,138923.0,14196.0,138923.0,36678.0,-729.4030748256104,-316.5107753086838,-797.729014339469
138923.0,3248.0,138923.0,14191.0,138923.0,36677.0,-735.5861489632472,-318.4894810041295,-803.2570829934119
138923.0,3255.0,138923.0,14171.0,138923.0,36695.0,-741.6436976618003,-320.3741991887233,-808.540544822503
138923.0,3231.0,138923.0,14217.0,138923.0,36711.0,-747.5629653628453,-322.15648966817037,-813.5609287662036
138923.0,3237.0,138923.0,14241.0,138923.0,36684.0,-753.3305107030551,-323.82784189823633,-818.2988492854374
138933.0,3218.0,138933.0,14202.0,138933.0,36655.0,-758.9322680332864,-325.37910526744093,-822.7337685626994
138933.0,3211.0,138933.0,14174.0,138933.0,36654.0,-764.3536200470508,-326.80017397110976,-826.844227382669
138933.0,3223.0,138933.0,14137.0,138933.0,36613.0,-769.5794637592952,-328.08041449057214,-830.6083166758073
138933.0,3193.0,138933.0,14156.0,138933.0,36606.0,-774.5942095965867,-329.20947780210764,-834.0041779228858
138933.0,3206.0,138933.0,14191.0,138933.0,36642.0,-779.3817626565484,-330.1777782319465,-837.0104157465689
138933.0,3196.0,138933.0,14216.0,138933.0,36652.0,-783.9255412815005,-330.9762385912152,-839.6060813847828
138944.0,3191.0,138944.0,14173.0,138944.0,36631.0,-788.2084585899788,-331.5956297450269,-841.7702257147968
138944.0,3187.0,138944.0,14186.0,138944.0,36621.0,-792.2128857164697,-332.02623142956327,-843.4815931973332
138944.0,3173.0,138944.0,14155.0,138944.0,36615.0,-795.9206742137218,-332.2580088967631,-844.7187326469117
138944.0,3180.0,138944.0,14190.0,138944.0,36630.0,-799.3132199744781,-332.28090905232585,-845.460217911622
138944.0,3159.0,138944.0,14171.0,138944.0,36596.0,-802.3715267611578,-332.0849566618016,-845.6847383316522
138944.0,3158.0,138944.0,14152.0,138944.0,36604.0,-805.0762901815367,-331.66023594388025,-845.3712073988545
138954.0,3138.0,138954.0,14131.0,138954.0,36546.0,-807.4080593874558,-330.9970938086675,-844.4990987460037
138954.0,3150.0,138954.0,14130.0,138954.0,36576.0,-809.3474406919237,-330.0866298168547,-843.0490000239404
138954.0,3144.0,138954.0,14162.0,138954.0,36596.0,-810.875216237343,-328.9210987789097,-841.0030534340765
138954.0,3121.0,138954.0,14165.0,138954.0,36593.0,-811.9723803640961,-327.4938862935022,-838.3449233175147
138954.0,3150.0,138954.0,14183.0,138954.0,36584.0,-812.6202197702263,-325.79913842402414,-835.0595241046306
138954.0,3140.0,138954.0,14176.0,138954.0,36620.0,-812.8003530801652,-323.83137357291236,-831.1329078269711
138964.0,3129.0,138964.0,14155.0,138964.0,36586.0,-812.4946454316396,-321.58531959358646,-826.5522287088774
138964.0,3129.0,138964.0,14126.0,138964.0,36583.0,-811.6852111654816,-319.05613012109256,-821.3057812426641
138964.0,3125.0,138964.0,14174.0,138964.0,36594.0,-810.3545740107013,-316.23986088976164,-815.3832781050953
138964.0,3132.0,138964.0,14186.0,138964.0,36630.0,-808.4858072547049,-313.1336658577689,-808.7760849702806
138964.0,3124.0,138964.0,14191.0,138964.0,36600.0,-806.0625937503678,-309.73546637087,-801.4771292283942
138964.0,3111.0,138964.0,14183.0,138964.0,36617.0,-803.0693115388034,-306.04354272441935,-793.4807904931895
138975.0,3102.0,138975.0,14154.0,138975.0,36593.0,-799.4912710835011,-302.0565035303148,-784.7830868015907
138975.0,3110.0,138975.0,14134.0,138975.0,36603.0,-795.3150641428452,-297.7737037741134,-775.3820595454574
138975.0,3110.0,138975.0,14156.0,138975.0,36625.0,-790.5288324982135,-293.19588899264977,-765.2781326256538
138975.0,3111.0,138975.0,14169.0,138975.0,36641.0,-785.1223901842551,-288.325614296232,-754.4742333958611
138975.0,3127.0,138975.0,14211.0,138975.0,36693.0,-779.0872785266982,-283.1671467905833,-742.975574193769
138975.0,3130.0,138975.0,14232.0,138975.0,36677.0,-772.416764434053,-277.72593631230416,-730.7892097181168
138985.0,3130.0,138985.0,14175.0,138985.0,36684.0,-765.1057963819,-272.00805908831285,-717.9237080467162
138985.0,3142.0,138985.0,14234.0,138985.0,36698.0,-757.1510154450848,-266.0201056739828,-704.3891900576142
138985.0,3177.0,138985.0,14263.0,138985.0,36750.0,-748.5507547577765,-259.7692579878118,-690.1974556787764
138985.0,3175.0,138985.0,14238.0,138985.0,36755.0,-739.3048534704117,-253.26299263774467,-675.361785823203
138985.0,3188.0,138985.0,14250.0,138985.0,36730.0,-729.4143904917963,-246.50873815065495,-659.8966422363178
138985.0,3178.0,138985.0,14241.0,138985.0,36751.0,-718.8816031296578,-239.51394727211755,-643.817786944112
138995.0,3173.0,138995.0,14233.0,138995.0,36779.0,-707.7100735665063,-232.28639386590095,-627.1427034553494
138995.0,3201.0,138995.0,14258.0,138995.0,36771.0,-695.9050616717157,-224.83446751156941,-609.8908335100316
138995.0,3200.0,138995.0,14236.0,138995.0,36832.0,-683.4737452300067,-217.16738661855987,-592.0835883282541
138995.0,3236.0,138995.0,14276.0,138995.0,36877.0,-670.4252459884383,-209.29530752008122,-573.7441397991246
138995.0,3259.0,138995.0,14296.0,138995.0,36862.0,-656.7704777141903,-201.22928067698436,-554.8969200881322
138995.0,3260.0,138995.0,14284.0,138995.0,36878.0,-642.5218827508961,-192.98100104636413,-535.5672700863616
139005.0,3278.0,139005.0,14287.0,139005.0,36882.0,-627.6932489745966,-184.5626295076736,-515.7815961332103
139005.0,3296.0,139005.0,14288.0,139005.0,36934.0,-612.2997059092427,-175.98692781417634,-495.5676840869485
139005.0,3326.0,139005.0,14351.0,139005.0,36978.0,-596.3577133729591,-167.26740716484804,-474.95467205000097
139005.0,3335.0,139005.0,14364.0,139005.0,37000.0,-579.8849207414773,-158.4180488129945,-453.9725978757066
139005.0,3329.0,139005.0,14336.0,139005.0,36998.0,-562.9000642636751,-149.4527500792015,-432.6519191880052
139005.0,3359.0,139005.0,14343.0,139005.0,37020.0,-545.4230880383338,-140.38514493279746,-411.02342587733574
139015.0,3377.0,139015.0,14318.0,139015.0,37043.0,-527.475342335043,-131.2289868983226,-389.1184530190994
139015.0,3398.0,139015.0,14348.0,139015.0,37039.0,-509.079615764018,-121.99869112147354,-366.9690977515889
139015.0,3438.0,139015.0,14344.0,139015.0,37096.0,-490.2600046485393,-112.70969111002547,-344.608382429298
139015.0,3425.0,139015.0,14432.0,139015.0,37142.0,-471.0417382608421,-103.37840730596479,-322.0702253956377
139015.0,3476.0,139015.0,14448.0,139015.0,37142.0,-451.4510866354356,-94.02165092655113,-299.3890766448965
139015.0,3492.0,139015.0,14409.0,139015.0,37179.0,-431.51531776322537,-84.65577015425238,-276.59955118990905
139025.0,3512.0,139025.0,14443.0,139025.0,37210.0,-411.26255558420576,-75.29629298550898,-253.73630389156074
139025.0,3540.0,139025.0,14446.0,139025.0,37272.0,-390.7216147968075,-65.95810668789015,-230.83383905009103
139025.0,3562.0,139025.0,14474.0,139025.0,37263.0,-369.9218985931568,-56.65554196362015,-207.92608162203425
139025.0,3603.0,139025.0,14463.0,139025.0,37290.0,-348.8932572016693,-47.402229794449056,-185.04604893219863
139025.0,3592.0,139025.0,14476.0,139025.0,37278.0,-327.6658062851443,-38.21102394219534,-162.22593343579513
139025.0,3614.0,139025.0,14442.0,139025.0,37267.0,-306.2699086227009,-29.09415663135627,-139.49757319698244
139036.0,3653.0,139036.0,14496.0,139036.0,37350.0,-284.7363504778525,-20.063568306692105,-116.8930479738637
139036.0,3650.0,139036.0,14476.0,139036.0,37430.0,-263.0964526305942,-11.131127745031364,-94.44474823468795
139036.0,3713.0,139036.0,14518.0,139036.0,37392.0,-241.38202400605056,-2.3085863050226294,-72.18463274438005
139036.0,3782.0,139036.0,14543.0,139036.0,37446.0,-219.6250779596994,6.392657168966991,-50.143523637861676
139036.0,3747.0,139036.0,14527.0,139036.0,37467.0,-197.85721710126774,14.961906289375207,-28.350984354113905
139036.0,3773.0,139036.0,14513.0,139036.0,37475.0,-176.1092158387662,23.389338841746024,-6.835328146937343
139046.0,3799.0,139046.0,14563.0,139046.0,37527.0,-154.4111901986717,31.665818486037466,14.376470442317952
139046.0,3841.0,139046.0,14578.0,139046.0,37546.0,-132.79282371056632,39.782816264124904,35.25892361719974
139046.0,3862.0,139046.0,14567.0,139046.0,37533.0,-111.28322137381832,47.73271136398341,55.788218500325
139046.0,3873.0,139046.0,14549.0,139046.0,37567.0,-89.91063358968938,55.50896953445314,75.94218116858656
139046.0,3880.0,139046.0,14568.0,139046.0,37568.0,-68.70239112455869,63.10587560274706,95.69999911020693
139046.0,3902.0,139046.0,14557.0,139046.0,37607.0,-47.685096733509624,70.51814410413593,115.04201043132718
139056.0,3931.0,139056.0,14530.0,139056.0,37617.0,-26.88484792290393,77.74060046781688,133.94966977160186
139056.0,3961.0,139056.0,14581.0,139056.0,37658.0,-6.327265353639689,84.7678175851525,152.4056450235634
139056.0,3999.0,139056.0,14610.0,139056.0,37692.0,13.96270836561564,91.59398315822344,170.39405355145374
139056.0,4019.0,139056.0,14633.0,139056.0,37676.0,33.96114520973174,98.21334001334941,187.90077371096606
139056.0,4030.0,139056.0,14612.0,139056.0,37705.0,53.64543238262996,104.62082720015957,204.91356505248478
139056.0,4055.0,139056.0,14605.0,139056.0,37707.0,72.99438607141224,110.8123068472668,221.42191267004046
139067.0,4068.0,139067.0,14659.0,139067.0,37741.0,91.9882255869004,116.78440729126899,237.41686120216428
139067.0,4085.0,139067.0,14656.0,139067.0,37767.0,110.60853000136194,122.53455330074789,252.89104322421167
139067.0,4108.0,139067.0,14650.0,139067.0,37748.0,128.8382001875961,128.0613008796418,267.838829470611
139067.0,4132.0,139067.0,14617.0,139067.0,37743.0,146.661463285369,133.36443032894192,282.2562672143406
139067.0,4128.0,139067.0,14625.0,139067.0,37770.0,164.0639221747051,138.4445365550784,296.1406673537085
139067.0,4148.0,139067.0,14623.0,139067.0,37781.0,181.0325088089641,143.30247078767377,309.4902248468734
139077.0,4183.0,139077.0,14632.0,139077.0,37802.0,197.55535604276378,147.9390040350085,322.30395793191724
139077.0,4209.0,139077.0,14689.0,139077.0,37805.0,213.62185348730367,152.3548397492221,334.5818022738533
139077.0,4222.0,139077.0,14659.0,139077.0,37869.0,229.22293837122191,156.5509817480194,346.32475686245607
139077.0,4219.0,139077.0,14648.0,139077.0,37847.0,244.35132426364396,160.52909512209533,357.5351970136701
139077.0,4229.0,139077.0,14637.0,139077.0,37841.0,259.00144129655746,164.29138249674497,368.217156116658
139077.0,4248.0,139077.0,14659.0,139077.0,37866.0,273.1691974055757,167.84015772988158,378.37622999353925
139087.0,4270.0,139087.0,14666.0,139087.0,37892.0,286.8518359990986,171.1776411219725,388.0193728978837
139087.0,4271.0,139087.0,14719.0,139087.0,37869.0,300.0479731646285,174.30617236633321,397.15495126609187
139087.0,4260.0,139087.0,14682.0,139087.0,37848.0,312.7575918956841,177.22870557706437,405.79271703946927
139087.0,4306.0,139087.0,14678.0,139087.0,37881.0,324.98185779817106,179.94915323915552,413.9433987566849
139087.0,4268.0,139087.0,14673.0,139087.0,37883.0,336.72293234405083,182.4722511403603,421.61831282650724
139087.0,4294.0,139087.0,14640.0,139087.0,37830.0,347.9838038766567,184.80313034178704,428.82920105956987
139098.0,4316.0,139098.0,14682.0,139098.0,37913.0,358.7680614254763,186.94689352594355,435.5879783994536
139098.0,4332.0,139098.0,14660.0,139098.0,37876.0,369.07985206001433,188.90839388660567,441.9065442806208
139098.0,4341.0,139098.0,14714.0,139098.0,37915.0,378.92409047515275,190.69233782180004,447.7969344796488
139098.0,4349.0,139098.0,14687.0,139098.0,37894.0,388.3066494960889,192.30361818144416,453.27151356589525
139098.0,4342.0,139098.0,14690.0,139098.0,37882.0,397.2343856359864,193.74761483115816,458.3429404317659
139098.0,4366.0,139098.0,14686.0,139098.0,37958.0,405.7150399917874,195.0302316674452,463.0240420929223
139108.0,4373.0,139108.0,14694.0,139108.0,37914.0,413.75716603747446,196.15776907164945,467.32794747674495
139108.0,4365.0,139108.0,14694.0,139108.0,37912.0,421.37015692054,197.1368764822995,471.2683674559486
139108.0,4359.0,139108.0,14668.0,139108.0,37888.0,428.5641837817599,197.9745423855523,474.8594560865141
139108.0,4370.0,139108.0,14646.0,139108.0,37894.0,435.34994158811764,198.67787259373,478.1152829653263
139108.0,4373.0,139108.0,14662.0,139108.0,37901.0,441.7383984547697,199.25362623434756,481.04939183001034
139108.0,4378.0,139108.0,14681.0,139108.0,37922.0,447.74068977484933,199.7078917076235,483.6746776800085
139118.0,4392.0,139118.0,14693.0,139118.0,37946.0,453.36810418922846,200.04621809722465,486.00360424500536
139118.0,4385.0,139118.0,14691.0,139118.0,37917.0,458.6321063976893,200.27401767856787,488.04858734264485
139118.0,4388.0,139118.0,14669.0,139118.0,37902.0,463.54433168890216,200.39683459846088,489.82213897693657
139118.0,4373.0,139118.0,14643.0,139118.0,37910.0,468.11645872945155,200.42022658414857,491.3365896413096
139118.0,4387.0,139118.0,14693.0,139118.0,37913.0,472.35997642859104,200.34940116400418,492.60374257535193
139118.0,4400.0,139118.0,14674.0,139118.0,37946.0,476.2860144971097,200.18909191514223,493.6348420631774
139129.0,4394.0,139129.0,14676.0,139129.0,37926.0,479.90536482605785,199.94377170970995,494.4408392036155
139129.0,4398.0,139129.0,14683.0,139129.0,37913.0,483.2285658329329,199.61781830002462,495.0326208744525
139129.0,4395.0,139129.0,14668.0,139129.0,37899.0,486.26588348250664,199.2155288867648,495.4208898835433
139129.0,4383.0,139129.0,14673.0,139129.0,37908.0,489.02719269036413,198.74109078499845,495.61580726150885
139129.0,4399.0,139129.0,14655.0,139129.0,37879.0,491.52180937285164,198.1984857892267,495.62668776992723
139129.0,4416.0,139129.0,14685.0,139129.0,37936.0,493.7584144871769,197.59138274388675,495.46185353497947
139139.0,4414.0,139139.0,14687.0,139139.0,37934.0,495.74520939833826,196.92320234965044,495.1287932392722
139139.0,4423.0,139139.0,14682.0,139139.0,37907.0,497.490168726354,196.1973803942928,494.63458207942506
139139.0,4411.0,139139.0,14674.0,139139.0,37918.0,499.00118196418657,195.41757228332315,493.98608464773747
139139.0,4407.0,139139.0,14665.0,139139.0,37894.0,500.28603099104805,194.5876186466675,493.18979277663334
139139.0,4421.0,139139.0,14705.0,139139.0,37942.0,501.35227203333864,193.71145403737486,492.25167048876847
139139.0,4432.0,139139.0,14671.0,139139.0,37925.0,502.2072140763669,192.79321358656213,491.1772871414355
139150.0,4419.0,139150.0,14652.0,139150.0,37898.0,502.858072408373,191.8373533289085,489.97207667483315
139150.0,4413.0,139150.0,14645.0,139150.0,37902.0,503.31207445169696,190.84841372558074,488.64130589809383
139150.0,4405.0,139150.0,14630.0,139150.0,37896.0,503.5763456323009,189.83054766680803,487.18977592340275
139150.0,4395.0,139150.0,14656.0,139150.0,37918.0,503.65766612344737,188.78718517650077,485.62166739540646
139150.0,4404.0,139150.0,14638.0,139150.0,37889.0,503.56223989726425,187.720972302152,483.94062245447844
139150.0,4419.0,139150.0,14672.0,139150.0,37917.0,503.29560943408,186.63391729812525,482.14985485703085
139160.0,4422.0,139160.0,14682.0,139160.0,37914.0,502.8628110053303,185.5276913983902,480.25224968367286
139160.0,4413.0,139160.0,14653.0,139160.0,37895.0,502.2686367848278,184.4040153033129,478.2505193132041
139160.0,4411.0,139160.0,14647.0,139160.0,37900.0,501.51776077790635,183.26481764643543,476.1472637895024
139160.0,4415.0,139160.0,14644.0,139160.0,37905.0,500.61470817533836,182.1120237241565,473.9448990672231
139160.0,4418.0,139160.0,14666.0,139160.0,37917.0,499.5638399971042,180.9473346488116,471.64570196959176
139160.0,4414.0,139160.0,14642.0,139160.0,37911.0,498.3694257341706,179.7722599481412,469.25204058643385
139170.0,4415.0,139170.0,14643.0,139170.0,37913.0,497.0357249225666,178.58820320930784,466.76661195005806
139170.0,4397.0,139170.0,14632.0,139170.0,37879.0,495.5669945393872,177.39637608639856,464.1925128708849
139170.0,4402.0,139170.0,14648.0,139170.0,37882.0,493.96739577561846,176.19765193138235,461.5330628972696
139170.0,4385.0,139170.0,14604.0,139170.0,37852.0,492.24084254820764,174.9924804342182,458.79145417998404
139170.0,4396.0,139170.0,14646.0,139170.0,37878.0,490.390868520817,173.78077217877168,455.97042443970236
139170.0,4403.0,139170.0,14650.0,139170.0,37900.0,488.42059750517774,172.5618684533347,453.0722038795335
139181.0,4405.0,139181.0,14687.0,139181.0,37913.0,486.33288391226847,171.3348836852344,450.0989018993069
139181.0,4392.0,139181.0,14637.0,139181.0,37863.0,484.1305199419311,170.09925254822272,447.05303402584565
139181.0,4401.0,139181.0,14629.0,139181.0,37850.0,481.81633335384083,168.85492524435,443.9375879434366
139181.0,4385.0,139181.0,14663.0,139181.0,37903.0,479.3931858472339,167.6021219327521,440.75567913528556
139181.0,4399.0,139181.0,14669.0,139181.0,37870.0,476.8639690964445,166.34124330368297,437.51049017572154
139181.0,4387.0,139181.0,14612.0,139181.0,37884.0,474.231638824549,165.07310121232626,434.2055846407839
139191.0,4376.0,139191.0,14635.0,139191.0,37839.0,471.49925039505183,163.79888652935446,430.8450491297849
139191.0,4374.0,139191.0,14596.0,139191.0,37863.0,468.6699007120572,162.51975276049794,427.4333074557722
139191.0,4372.0,139191.0,14615.0,139191.0,37846.0,465.7466087109281,161.23642014417,423.97490233687796
139191.0,4381.0,139191.0,14632.0,139191.0,37839.0,462.73228611955847,159.94901268529512,420.47442253542494
139191.0,4392.0,139191.0,14678.0,139191.0,37865.0,459.6298793417968,158.65730214330532,416.9365206594693
139191.0,4401.0,139191.0,14631.0,139191.0,37847.0,456.44267831974196,157.36131849249796,413.36603969200024
139201.0,4365.0,139201.0,14640.0,139201.0,37833.0,453.1746344262486,156.06177438142893,409.76819143178835
139201.0,4356.0,139201.0,14642.0,139201.0,37830.0,449.83038574485204,154.76003038372508,406.14854384243284
139201.0,4358.0,139201.0,14630.0,139201.0,37845.0,446.41496734858396,153.45796123717858,402.51289404239486
139201.0,4362.0,139201.0,14632.0,139201.0,37834.0,442.93357677049863,152.1579173048949,398.8673121004349
139201.0,4370.0,139201.0,14640.0,139201.0,37817.0,439.39162723309306,150.86269822672352,395.2182785477058
139201.0,4343.0,139201.0,14628.0,139201.0,37836.0,435.7949326428465,149.5755771358354,391.5726988721464
139212.0,4337.0,139212.0,14583.0,139212.0,37818.0,432.14974085365003,148.30025392729524,387.9378878757773
139212.0,4331.0,139212.0,14605.0,139212.0,37761.0,428.4625502523201,147.04051081880135,384.321511529789
139212.0,4320.0,139212.0,14575.0,139212.0,37796.0,424.7398976717228,145.79975424643806,380.7312290816938
139212.0,4341.0,139212.0,14595.0,139212.0,37795.0,420.98827122643104,144.58074248865387,377.17430634868634
139212.0,4336.0,139212.0,14625.0,139212.0,37827.0,417.2142126195805,143.3855818844464,373.6577301661211
139212.0,4314.0,139212.0,14626.0,139212.0,37794.0,413.4245237140494,142.2160664336788,370.1886861425653
139222.0,4320.0,139222.0,14614.0,139222.0,37767.0,409.62632621395875,141.07417654889665,366.7748166612239
139222.0,4288.0,139222.0,14588.0,139222.0,37757.0,405.82691959565614,139.96227346447387,363.4239654542084
139222.0,4299.0,139222.0,14653.0,139222.0,37796.0,402.03356860093646,138.88299125967592,360.1437707496228
139222.0,4299.0,139222.0,14588.0,139222.0,37771.0,398.25334755319125,137.83926758822196,356.9416470729754
139222.0,4293.0,139222.0,14600.0,139222.0,37765.0,394.4931545914628,136.83444219909322,353.8250299867784
139222.0,4275.0,139222.0,14557.0,139222.0,37744.0,390.7597903608148,135.87199615044938,350.80139581177923
139232.0,4274.0,139232.0,14557.0,139232.0,37717.0,387.0598985642879,134.95499839506118,347.8779569277764
139232.0,4271.0,139232.0,14569.0,139232.0,37748.0,383.39982279743947,134.08561580527714,345.06126514275263
139232.0,4273.0,139232.0,14575.0,139232.0,37737.0,379.78555349134285,133.26493950904631,342.35704062494364
139232.0,4283.0,139232.0,14642.0,139232.0,37751.0,376.2228193996991,132.49326710519713,339.77033344487904
139232.0,4271.0,139232.0,14620.0,139232.0,37751.0,372.71727688959356,131.7708083388719,337.3058030272401
139232.0,4243.0,139232.0,14596.0,139232.0,37731.0,369.2746207853111,131.0983811435027,334.9679210689387
139243.0,4253.0,139243.0,14535.0,139243.0,37701.0,365.90044861302914,130.47741604331264,332.76093587342575
139243.0,4255.0,139243.0,14600.0,139243.0,37729.0,362.60005817388213,129.9092931742063,330.6885635537958
139243.0,4251.0,139243.0,14588.0,139243.0,37721.0,359.378453491195,129.3948962458235,328.75376012065965
139243.0,4236.0,139243.0,14595.0,139243.0,37720.0,356.2404557514505,128.9348063612211,326.95879492163704
139243.0,4230.0,139243.0,14581.0,139243.0,37738.0,353.19068027823386,128.529615570727,325.305427012814
139243.0,4227.0,139243.0,14543.0,139243.0,37700.0,350.2333915256726,128.1798825420139,323.79502856069337
139253.0,4216.0,139253.0,14554.0,139253.0,37697.0,347.37237153244746,127.88573437534386,322.42853581727036
139253.0,4212.0,139253.0,14526.0,139253.0,37715.0,344.6108219374394,127.6463614440896,321.20620941114885
139253.0,4232.0,139253.0,14578.0,139253.0,37682.0,341.951313602061,127.45971489117662,320.12746700982854
139253.0,4234.0,139253.0,14618.0,139253.0,37737.0,339.395917300799,127.32270024948049,319.19090167476253
139253.0,4221.0,139253.0,14601.0,139253.0,37724.0,336.946487062738,127.23191177080201,318.39449199878254
139253.0,4244.0,139253.0,14611.0,139253.0,37717.0,334.60488157980205,127.18438138880843,317.73596764137903
139263.0,4206.0,139263.0,14576.0,139263.0,37692.0,332.37307100173007,127.17782636968136,317.21296605465676
139263.0,4211.0,139263.0,14597.0,139263.0,37723.0,330.2531128661554,127.21048680916742,316.82285297764383
139263.0,4200.0,139263.0,14591.0,139263.0,37723.0,328.2469606736156,127.28091731904979,316.5626216373771
139263.0,4211.0,139263.0,14582.0,139263.0,37715.0,326.3562851534318,127.38792319145514,316.4290670427912
139263.0,4194.0,139263.0,14550.0,139263.0,37728.0,324.5824437480731,127.53045895542867,316.4189744081498
139263.0,4185.0,139263.0,14544.0,139263.0,37670.0,322.92646065041583,127.70725056901381,316.52909515181534
139274.0,4191.0,139274.0,14574.0,139274.0,37699.0,321.38890402270226,127.91634163332472,316.7558478397869
139274.0,4181.0,139274.0,14564.0,139274.0,37685.0,319.96976357469646,128.15497246517833,317.09492429365275
139274.0,4193.0,139274.0,14602.0,139274.0,37730.0,318.6684296695906,128.41983256750763,317.54118751222006
139274.0,4201.0,139274.0,14596.0,139274.0,37718.0,317.4837820528895,128.70747004649405,318.08896678050496
139274.0,4181.0,139274.0,14578.0,139274.0,37699.0,316.41435381941335,129.01465165807036,318.7324182399642
139274.0,4174.0,139274.0,14565.0,139274.0,37711.0,315.45838851846474,129.33840848450455,319.465586831056
139284.0,4180.0,139284.0,14587.0,139284.0,37714.0,314.6136973531,129.67578758187116,320.2822709810347
139284.0,4197.0,139284.0,14605.0,139284.0,37705.0,313.8775634242287,130.02375288946826,321.1759917638507
139284.0,4186.0,139284.0,14607.0,139284.0,37707.0,313.24688129604215,130.37946215299598,322.1400120927847
139284.0,4156.0,139284.0,14597.0,139284.0,37707.0,312.71829317119455,130.7406346130031,323.16728270943304
139284.0,4167.0,139284.0,14564.0,139284.0,37695.0,312.2880263130536,131.10561896974127,324.2503637565184
139284.0,4173.0,139284.0,14558.0,139284.0,37701.0,311.9516139593271,131.4730463459814,325.3813241872483
139294.0,4161.0,139294.0,14546.0,139294.0,37692.0,311.7038236459143,131.84128079544053,326.55161520633374
139294.0,4194.0,139294.0,14593.0,139294.0,37724.0,311.5387607071284,132.20805798467998,327.7520212096764
139294.0,4182.0,139294.0,14586.0,139294.0,37759.0,311.45006617152615,132.57059137810444,328.9728868231895
139294.0,4184.0,139294.0,14591.0,139294.0,37744.0,311.4311667428134,132.92598814861032,330.20467902219775
139294.0,4190.0,139294.0,14541.0,139294.0,37722.0,311.475425289517,133.27146087653819,331.43846775186034
139294.0,4173.0,139294.0,14583.0,139294.0,37702.0,311.57617181635374,133.60410847217386,332.6658538261214
139305.0,4190.0,139305.0,14598.0,139305.0,37771.0,311.72668596084884,133.92070758268827,333.87860950025254
139305.0,4194.0,139305.0,14618.0,139305.0,37756.0,311.92020813173065,134.21799217461424,335.06873624294815
139305.0,4200.0,139305.0,14597.0,139305.0,37711.0,312.1500827148848,134.49319676037132,336.2288650961602
139305.0,4171.0,139305.0,14553.0,139305.0,37714.0,312.4099161881507,134.74425018345795,337.35221670125253
139305.0,4170.0,139305.0,14569.0,139305.0,37713.0,312.6934953707446,134.96939339370752,338.43207873262133
139305.0,4175.0,139305.0,14572.0,139305.0,37706.0,312.99450851290385,135.16665638181638,339.46141010090537
139315.0,4168.0,139315.0,14554.0,139315.0,37734.0,313.3063507256453,135.33364764783235,340.43274821105615
139315.0,4181.0,139315.0,14630.0,139315.0,37749.0,313.6221009768538,135.46764615202218,341.33836688803206
139315.0,4188.0,139315.0,14588.0,139315.0,37742.0,313.9346081325222,135.56597761045788,342.1706548530933
139315.0,4188.0,139315.0,14568.0,139315.0,37757.0,314.23667209935627,135.62642630154147,342.92247619695104
139315.0,4164.0,139315.0,14589.0,139315.0,37736.0,314.52118470861546,135.647194750623,343.5873370278617
139315.0,4159.0,139315.0,14559.0,139315.0,37735.0,314.7810221299665,135.62659552177,344.1593666169603
139325.0,4190.0,139325.0,14628.0,139325.0,37740.0,315.00880439771595,135.5629689632367,344.6331719383346
139325.0,4199.0,139325.0,14567.0,139325.0,37734.0,315.19692500025843,135.45489779185513,345.0037175732108
139325.0,4181.0,139325.0,14572.0,139325.0,37738.0,315.3378912446239,135.30137656049118,345.2663019839541
139325.0,4161.0,139325.0,14560.0,139325.0,37732.0,315.4245061370401,135.10160214027655,345.4165534196277
139325.0,4171.0,139325.0,14565.0,139325.0,37721.0,315.4496633400045,134.8546119080439,345.4503828701126
139325.0,4181.0,139325.0,14547.0,139325.0,37667.0,315.4060994710462,134.5590792971006,345.3637505273076
139336.0,4193.0,139336.0,14570.0,139336.0,37723.0,315.2864459824202,134.2132100817428,345.1521892251542
139336.0,4187.0,139336.0,14586.0,139336.0,37749.0,315.0835019308793,133.81478193759295,344.81057877992777
139336.0,4194.0,139336.0,14595.0,139336.0,37736.0,314.79047490803504,133.36146089924904,344.33358016624254
139336.0,4180.0,139336.0,14556.0,139336.0,37738.0,314.40108512718007,132.85116610327765,343.71622780838806
139336.0,4174.0,139336.0,14584.0,139336.0,37724.0,313.90953490774547,132.28212469030518,342.9541216073536
139336.0,4198.0,139336.0,14572.0,139336.0,37710.0,313.310420661118,131.65273633086707,342.04329980841646
139346.0,4194.0,139346.0,14606.0,139346.0,37739.0,312.5987879127616,130.961619795602,340.9800518870706
139346.0,4175.0,139346.0,14580.0,139346.0,37728.0,311.7703194153455,130.20787197600794,339.7609043096016
139346.0,4178.0,139346.0,14549.0,139346.0,37738.0,310.8213691435183,129.39120346116613,338.38281976184
139346.0,4160.0,139346.0,14557.0,139346.0,37694.0,309.7487876686915,128.51167749709845,336.84332461220026
139346.0,4168.0,139346.0,14550.0,139346.0,37709.0,308.54972319081793,127.56928304414313,335.14034209711264
139346.0,4147.0,139346.0,14569.0,139346.0,37718.0,307.22147118475436,126.56375274854133,333.2719296335261
139357.0,4169.0,139357.0,14558.0,139357.0,37732.0,305.7613707313561,125.49465618666716,331.23630483262673
139357.0,4189.0,139357.0,14599.0,139357.0,37692.0,304.1668649963777,124.36163077678435,329.0321036126994
139357.0,4178.0,139357.0,14573.0,139357.0,37704.0,302.435827126577,123.1647159651517,326.6584434621391
139357.0,4139.0,139357.0,14550.0,139357.0,37703.0,300.5668480840335,121.90459439310021,324.1147595155235
139357.0,4142.0,139357.0,14566.0,139357.0,37700.0,298.55908174125227,120.58248505286856,321.4007413128885
139357.0,4170.0,139357.0,14577.0,139357.0,37744.0,296.4118901285503,119.1999433979651,318.51650787233524
139367.0,4159.0,139367.0,14555.0,139367.0,37695.0,294.12483728942516,117.75891847199694,315.4629563234788
139367.0,4147.0,139367.0,14525.0,139367.0,37667.0,291.6979568866277,116.26178975690121,312.24193399063154
139367.0,4129.0,139367.0,14543.0,139367.0,37678.0,289.1318179973361,114.71107607343474,308.855912123889
139367.0,4127.0,139367.0,14515.0,139367.0,37684.0,286.4273020749976,113.10906740035809,305.3075679867845
139367.0,4140.0,139367.0,14507.0,139367.0,37639.0,283.5853844988816,111.45757785912186,301.5996840143113
139367.0,4133.0,139367.0,14523.0,139367.0,37648.0,280.60714531631487,109.75772467933882,297.7350462335521
139377.0,4146.0,139377.0,14599.0,139377.0,37712.0,277.49396259954074,108.0099921234301,293.7163155492321
139377.0,4106.0,139377.0,14533.0,139377.0,37640.0,274.2476758891058,106.21485555635186,289.54630690112975
139377.0,4114.0,139377.0,14527.0,139377.0,37641.0,270.87053349466913,104.37334233349888,285.22832205320185
139377.0,4107.0,139377.0,14532.0,139377.0,37647.0,267.36498025702826,102.4869122522555,280.7659915408168
139377.0,4112.0,139377.0,14552.0,139377.0,37644.0,263.73354675856274,100.55715941381773,276.16304052929667
139377.0,4111.0,139377.0,14539.0,139377.0,37655.0,259.9789269227659,98.5859020891542,271.4233913045943
139388.0,4075.0,139388.0,14519.0,139388.0,37621.0,256.104061785157,96.57538531193396,266.55137157012535
139388.0,4081.0,139388.0,14517.0,139388.0,37614.0,252.1120229280392,94.52820758461961,261.5517248627113
139388.0,4071.0,139388.0,14504.0,139388.0,37592.0,248.00575821932378,92.44705055015157,256.4293622350509
139388.0,4069.0,139388.0,14489.0,139388.0,37564.0,243.78794260322286,90.33441189548978,251.1889764758269
139388.0,4075.0,139388.0,14497.0,139388.0,37599.0,239.4609884885132,88.19236771213458,245.8346846571887
139388.0,4084.0,139388.0,14537.0,139388.0,37645.0,235.0271832670526,86.02250994264196,240.37006717609734
139398.0,4085.0,139398.0,14460.0,139398.0,37577.0,230.48896804684887,83.82614788930897,234.79875493197224
139398.0,4054.0,139398.0,14522.0,139398.0,37597.0,225.84920776576342,81.60441553417286,229.12490681024696
139398.0,4040.0,139398.0,14488.0,139398.0,37590.0,221.11118344857582,79.35819558266118,223.3531806993778
139398.0,4052.0,139398.0,14498.0,139398.0,37577.0,216.278330797896,77.08816172662449,217.4886451441313
139398.0,4039.0,139398.0,14487.0,139398.0,37588.0,211.3540730925397,74.79485814876398,211.53684802064203
139398.0,4040.0,139398.0,14484.0,139398.0,37538.0,206.34187172938948,72.47866446701747,205.50384576735263
139408.0,4025.0,139408.0,14525.0,139408.0,37541.0,201.24530204389822,70.13982216345599,199.39603716523408
139408.0,4014.0,139408.0,14479.0,139408.0,37484.0,196.06803084866698,67.77865807247056,193.21974885603925
139408.0,4001.0,139408.0,14462.0,139408.0,37517.0,190.8136935496008,65.3957195740974,186.98071810343555
139408.0,3998.0,139408.0,14482.0,139408.0,37481.0,185.485725361506,62.9915361368877,180.68374377519348
139408.0,4007.0,139408.0,14452.0,139408.0,37526.0,180.08727602375916,60.56631682248615,174.3326591664715
139408.0,3999.0,139408.0,14491.0,139408.0,37527.0,174.62130301883786,58.11989134197353,167.93064269729948
139419.0,4003.0,139419.0,14531.0,139419.0,37488.0,169.0907764065955,55.65196346341493,161.4807004099633
139419.0,3973.0,139419.0,14461.0,139419.0,37459.0,163.4988251826904,53.162658558138546,154.98582839424017
139419.0,3966.0,139419.0,14444.0,139419.0,37505.0,157.84868947306978,50.652758174827525,148.44873159305337
139419.0,3975.0,139419.0,14470.0,139419.0,37480.0,152.1435432210279,48.12326343743791,141.8717161241466
139419.0,3981.0,139419.0,14490.0,139419.0,37496.0,146.38647058180322,45.5750501842989,135.2570019222852
139419.0,3953.0,139419.0,14482.0,139419.0,37495.0,140.58066270307214,43.00914805481138,128.60709944877917
139429.0,3941.0,139429.0,14432.0,139429.0,37436.0,134.72951301798616,40.427091019327676,121.92500754460752
139429.0,3903.0,139429.0,14416.0,139429.0,37429.0,128.83638631334117,37.830695774826154,115.21402997075452
139429.0,3943.0,139429.0,14422.0,139429.0,37419.0,122.90424966966049,35.221411642676074,108.47724899033332
139429.0,3912.0,139429.0,14458.0,139429.0,37422.0,116.93553753012239,32.599925931192146,101.7171294392362
139429.0,3924.0,139429.0,14455.0,139429.0,37458.0,110.93229937183492,29.96639101219661,94.93556281688447
139429.0,3919.0,139429.0,14455.0,139429.0,37447.0,104.89637895751835,27.320953339785447,88.1343229831503
139439.0,3893.0,139439.0,14472.0,139439.0,37413.0,98.82951986424376,24.664155372142474,81.31559543288165
139439.0,3890.0,139439.0,14406.0,139439.0,37382.0,92.73334663372768,21.997088962270894,74.48204987013892
139439.0,3884.0,139439.0,14430.0,139439.0,37416.0,86.60922148650093,19.3212111540019,67.63647624561762
139439.0,3918.0,139439.0,14437.0,139439.0,37369.0,80.45823355846503,16.637990317647294,60.78153866999094
139439.0,3912.0,139439.0,14442.0,139439.0,37423.0,74.28153917432499,13.948866248288326,53.91984543798577
139439.0,3879.0,139439.0,14419.0,139439.0,37367.0,68.08083253192765,11.255491799878882,47.054163059553105
139450.0,3838.0,139450.0,14397.0,139450.0,37338.0,61.858414516931276,8.559770315200325,40.18749696124806
139450.0,3839.0,139450.0,14397.0,139450.0,37353.0,55.61671185994351,5.863555232491407,33.322797944591684
139450.0,3850.0,139450.0,14366.0,139450.0,37342.0,49.357760588505585,3.1682465608611636,26.462614052494416
139450.0,3843.0,139450.0,14405.0,139450.0,37344.0,43.083125225020126,0.4744966592613338,19.60908844532969
139450.0,3836.0,139450.0,14408.0,139450.0,37335.0,36.79411807633633,-2.2177865178413185,12.76413523542658
139450.0,3851.0,139450.0,14401.0,139450.0,37342.0,30.49201095630343,-4.909104326943762,5.9295948830179555
139460.0,3817.0,139460.0,14399.0,139460.0,37308.0,24.178200843467266,-7.600036431991342,-0.8926450782523716
139460.0,3797.0,139460.0,14394.0,139460.0,37295.0,17.85423836182389,-10.291146606535364,-7.700687495307534
139460.0,3800.0,139460.0,14418.0,139460.0,37304.0,11.521599638875784,-12.982947239048457,-14.492839504633594
139460.0,3810.0,139460.0,14410.0,139460.0,37305.0,5.1814767165589615,-15.6757100355739,-21.267709518807237
139460.0,3789.0,139460.0,14391.0,139460.0,37300.0,-1.1651443783881632,-18.369220044535695,-28.024027472877037
139460.0,3779.0,139460.0,14388.0,139460.0,37275.0,-7.517334482304705,-21.062746199546766,-34.76043122446839
139470.0,3778.0,139470.0,14358.0,139470.0,37256.0,-13.874237869927526,-23.755270886013932,-41.47549640130501
139470.0,3761.0,139470.0,14335.0,139470.0,37238.0,-20.235151379674505,-26.445883438162113,-48.168023907159125
139470.0,3750.0,139470.0,14369.0,139470.0,37253.0,-26.599585168757926,-29.13422224254343,-54.837354427167156
139470.0,3766.0,139470.0,14381.0,139470.0,37259.0,-32.96731928739695,-31.820601204484674,-61.483414507178736
139470.0,3748.0,139470.0,14375.0,139470.0,37247.0,-39.338348832371196,-34.50565666774513,-68.10645173147753
139470.0,3753.0,139470.0,14384.0,139470.0,37264.0,-45.71271364208809,-37.18990131098184,-74.70669780424242
139481.0,3749.0,139481.0,14381.0,139481.0,37230.0,-52.0903420546494,-39.87346225558677,-81.28412547731182
139481.0,3737.0,139481.0,14362.0,139481.0,37193.0,-58.470924921354424,-42.55595682802226,-87.83843693423353
139481.0,3734.0,139481.0,14375.0,139481.0,37237.0,-64.85382797636652,-45.23649383297331,-94.36933422567341
139481.0,3740.0,139481.0,14349.0,139481.0,37222.0,-71.23803650443108,-47.91375582884446,-100.87664476174302
139481.0,3706.0,139481.0,14328.0,139481.0,37198.0,-77.62208173704403,-50.586152315260705,-107.36008735785217
139481.0,3684.0,139481.0,14346.0,139481.0,37184.0,-84.0041007904228,-53.252100537058,-113.81915846274245
139491.0,3679.0,139491.0,14347.0,139491.0,37173.0,-90.38215971043655,-55.91021539242473,-120.25335511729514
139491.0,3674.0,139491.0,14301.0,139491.0,37155.0,-96.75459886043546,-58.55929719028009,-126.66245943503566
139491.0,3673.0,139491.0,14329.0,139491.0,37166.0,-103.12014774763955,-61.198430976623115,-133.04672272097338
139491.0,3696.0,139491.0,14342.0,139491.0,37170.0,-109.47779719928906,-63.82714687508465,-139.40687031016142
139491.0,3669.0,139491.0,14368.0,139491.0,37187.0,-115.82649571550388,-66.44519220725707,-145.74383605261545
139491.0,3648.0,139491.0,14316.0,139491.0,37150.0,-122.16491490608641,-69.05203481076902,-152.05836606238978
139501.0,3639.0,139501.0,14298.0,139501.0,37121.0,-128.49154713205007,-71.64674313332469,-158.3508843071096
139501.0,3664.0,139501.0,14357.0,139501.0,37146.0,-134.80492088229084,-74.2283078809983,-164.6217495343492
139501.0,3651.0,139501.0,14322.0,139501.0,37148.0,-141.10352514417315,-76.79572325834431,-170.8714360430384
139501.0,3624.0,139501.0,14325.0,139501.0,37118.0,-147.38554805097323,-79.34770033895009,-177.10035496856392
139501.0,3607.0,139501.0,14270.0,139501.0,37100.0,-153.64887102817363,-81.88263995232336,-183.30873700058157
139501.0,3588.0,139501.0,14279.0,139501.0,37088.0,-159.8913953995795,-84.39908976092394,-189.49687198464022
139512.0,3591.0,139512.0,14262.0,139512.0,37100.0,-166.11141010478786,-86.89632332940556,-195.66541196051975
139512.0,3598.0,139512.0,14272.0,139512.0,37105.0,-172.3077456048734,-89.37469112367779,-201.81538954753603
139512.0,3593.0,139512.0,14331.0,139512.0,37097.0,-178.47964927216407,-91.83556941972233,-207.94795570439106
139512.0,3586.0,139512.0,14323.0,139512.0,37079.0,-184.62654015432304,-94.28080187962226,-214.0641221778452
139512.0,3576.0,139512.0,14273.0,139512.0,37059.0,-190.74785563137448,-96.71200814501148,-220.16475550044618
139512.0,3562.0,139512.0,14276.0,139512.0,37060.0,-196.84304462840214,-99.13048793317651,-226.25078607941361
139522.0,3551.0,139522.0,14303.0,139522.0,37060.0,-202.91166490592178,-101.5376011870012,-232.32338140738153
139522.0,3554.0,139522.0,14287.0,139522.0,37074.0,-208.95350552118504,-103.93487343714801,-238.3838809932488
139522.0,3539.0,139522.0,14298.0,139522.0,37034.0,-214.96863531271822,-106.32375954909804,-244.4335739258491
139522.0,3525.0,139522.0,14274.0,139522.0,37043.0,-220.95740979479467,-108.70548066916697,-250.47361044535188
139522.0,3526.0,139522.0,14276.0,139522.0,37017.0,-226.92053966976567,-111.08106384266236,-256.50513247891763
139522.0,3511.0,139522.0,14247.0,139522.0,36995.0,-232.8591764255513,-113.45152760077244,-262.5294935858383
139532.0,3522.0,139532.0,14261.0,139532.0,37002.0,-238.77492190490335,-115.81814467457994,-268.54852577490874
139532.0,3507.0,139532.0,14267.0,139532.0,37021.0,-244.66975169186372,-118.182609784768,-274.56468315633697
139532.0,3529.0,139532.0,14294.0,139532.0,37026.0,-250.5458583372377,-120.54690604577775,-280.58080333378234
139532.0,3500.0,139532.0,14275.0,139532.0,37018.0,-256.4054366237341,-122.91290635899318,-286.59962002664486
139532.0,3482.0,139532.0,14248.0,139532.0,36987.0,-262.25056865344163,-125.28208614643995,-292.62344169912353
139532.0,3479.0,139532.0,14254.0,139532.0,36969.0,-268.08336249120106,-127.6556387828339,-298.65423693467227
139543.0,3497.0,139543.0,14278.0,139543.0,36986.0,-273.90613180666037,-130.0347144057825,-304.69395648994214
139543.0,3488.0,139543.0,14291.0,139543.0,36986.0,-279.7212926526145,-132.4202923258883,-310.7446609117065
139543.0,3482.0,139543.0,14260.0,139543.0,36986.0,-285.5310744454125,-134.81276187914924,-316.80830187490744
139543.0,3464.0,139543.0,14243.0,139543.0,36945.0,-291.3373587491595,-137.21175202595253,-322.8864829963835
139543.0,3450.0,139543.0,14196.0,139543.0,36937.0,-297.1417469805481,-139.61649502947554,-328.980552190199
139543.0,3439.0,139543.0,14237.0,139543.0,36924.0,-302.94576590688484,-142.02646316237048,-335.0919688489176
139553.0,3442.0,139553.0,14241.0,139553.0,36931.0,-308.7510631530092,-144.44170777241058,-341.222601772709
139553.0,3443.0,139553.0,14234.0,139553.0,36934.0,-314.5594489827806,-146.86266596957134,-347.37474935405453
139553.0,3440.0,139553.0,14239.0,139553.0,36938.0,-320.3727600178497,-149.28982955859857,-353.5509204084643
139553.0,3428.0,139553.0,14220.0,139553.0,36920.0,-326.1926784029095,-151.72362023830618,-359.7535475966043
139553.0,3420.0,139553.0,14227.0,139553.0,36905.0,-332.02065206866683,-154.16442450892495,-365.9848519220095
139553.0,3402.0,139553.0,14198.0,139553.0,36912.0,-337.8579484197777,-156.612707325596,-372.24690477425094
139563.0,3419.0,139563.0,14272.0,139563.0,36908.0,-343.7057503344495,-159.0690628248485,-378.54167293304613
139563.0,3391.0,139563.0,14235.0,139563.0,36901.0,-349.5651669409399,-161.53393093234075,-384.8709108785346
139563.0,3398.0,139563.0,14202.0,139563.0,36875.0,-355.437185441702,-164.0071923264742,-391.23606426672137
139563.0,3362.0,139563.0,14215.0,139563.0,36887.0,-361.32270965777076,-166.48822457715553,-397.63833022255835
139563.0,3371.0,139563.0,14188.0,139563.0,36854.0,-367.22272371221374,-168.97630815934158,-404.0787772660418
139563.0,3359.0,139563.0,14183.0,139563.0,36829.0,-373.1384634469948,-171.47094523545792,-410.5585106658071
139574.0,3366.0,139574.0,14204.0,139574.0,36881.0,-379.0714498329832,-173.97205277478625,-417.0788933022909
139574.0,3389.0,139574.0,14214.0,139574.0,36866.0,-385.02331350395536,-176.47993086176405,-423.64146785402005
139574.0,3363.0,139574.0,14180.0,139574.0,36874.0,-390.99543667730717,-178.99499607822713,-430.247464913966
139574.0,3346.0,139574.0,14183.0,139574.0,36839.0,-396.9886674020576,-181.51767457666094,-436.89738470750405
139574.0,3323.0,139574.0,14179.0,139574.0,36818.0,-403.003399531956,-184.04858030267522,-443.5910045038696
139574.0,3334.0,139574.0,14197.0,139574.0,36823.0,-409.03988685513923,-186.58863432078832,-450.3276902838261
139584.0,3327.0,139584.0,14230.0,139584.0,36818.0,-415.0984169783127,-189.13884999835457,-457.10664839961635
139584.0,3317.0,139584.0,14176.0,139584.0,36843.0,-421.17925388866325,-191.69988723050355,-463.92685416326606
139584.0,3312.0,139584.0,14156.0,139584.0,36799.0,-427.2825495326183,-194.27189577249916,-470.7867585759923
139584.0,3295.0,139584.0,14152.0,139584.0,36760.0,-433.4083518984995,-196.85494109802048,-477.6842063098144
139584.0,3286.0,139584.0,14165.0,139584.0,36745.0,-439.5566934092137,-199.4495270830579,-484.61687866780335
139584.0,3291.0,139584.0,14178.0,139584.0,36754.0,-445.7276968880234,-202.0566873185858,-491.58292969882916
139595.0,3285.0,139595.0,14168.0,139595.0,36788.0,-451.9215796968995,-204.67771788779189,-498.5811841368836
139595.0,3276.0,139595.0,14211.0,139595.0,36784.0,-458.13854187827974,-207.3138187078009,-505.6107130653602
139595.0,3272.0,139595.0,14175.0,139595.0,36777.0,-464.378671860143,-209.965710182198,-512.6701759025898
139595.0,3275.0,139595.0,14156.0,139595.0,36754.0,-470.6418940046359,-212.63339714672236,-519.7574286050908
139595.0,3251.0,139595.0,14179.0,139595.0,36747.0,-476.92789931151435,-215.31628650657967,-526.869521584506
139595.0,3275.0,139595.0,14191.0,139595.0,36764.0,-483.2360774940015,-218.01331251024385,-534.0028142084678
139605.0,3257.0,139605.0,14180.0,139605.0,36765.0,-489.56540591732426,-220.72270945798005,-541.1528680210563
139605.0,3233.0,139605.0,14148.0,139605.0,36692.0,-495.9143116117631,-223.44177186559807,-548.3142301067356
139605.0,3225.0,139605.0,14146.0,139605.0,36709.0,-502.28072495610604,-226.16700688532075,-555.4806005291099
139605.0,3206.0,139605.0,14130.0,139605.0,36676.0,-508.66234127179496,-228.89453538618577,-562.6453516394482
139605.0,3216.0,139605.0,14102.0,139605.0,36670.0,-515.0568515940977,-231.62048276669287,-569.8019360231699
139605.0,3207.0,139605.0,14132.0,139605.0,36710.0,-521.4619929376867,-234.34131914507478,-576.9440112777687
139615.0,3218.0,139615.0,14165.0,139615.0,36712.0,-527.8754161073817,-237.05392239247197,-584.0651644577359
139615.0,3213.0,139615.0,14177.0,139615.0,36693.0,-534.2944419595614,-239.75508080403645,-591.1583112738921
139615.0,3203.0,139615.0,14129.0,139615.0,36661.0,-540.7158094035902,-242.4408058548393,-598.2153267830167
139615.0,3173.0,139615.0,14100.0,139615.0,36673.0,-547.1355751070696,-245.1062059498113,-605.2271627902327
139615.0,3193.0,139615.0,14121.0,139615.0,36652.0,-553.549223699946,-247.74599819966824,-612.1840818878771
139615.0,3181.0,139615.0,14131.0,139615.0,36678.0,-559.9517538541525,-250.35493591097008,-619.0756785565818
139626.0,3170.0,139626.0,14138.0,139626.0,36634.0,-566.3375865825067,-252.92769257383097,-625.8907341889674
139626.0,3158.0,139626.0,14099.0,139626.0,36627.0,-572.7004922198411,-255.45855464352985,-632.6171735043332
139626.0,3145.0,139626.0,14076.0,139626.0,36609.0,-579.0336738802949,-257.94147981187,-639.2422825908377
139626.0,3133.0,139626.0,14099.0,139626.0,36583.0,-585.3299266432944,-260.37053916572967,-645.7530574222925
139626.0,3142.0,139626.0,14071.0,139626.0,36595.0,-591.5817654296661,-262.7402759458905,-652.1365193354943
139626.0,3151.0,139626.0,14109.0,139626.0,36634.0,-597.7813821638129,-265.0457503900593,-658.3797833717906
139636.0,3133.0,139636.0,14128.0,139636.0,36602.0,-603.9203980622196,-267.28230523907297,-664.4696815789218
139636.0,3130.0,139636.0,14116.0,139636.0,36620.0,-609.9896339126541,-269.4450682596074,-670.3922452521799
139636.0,3123.0,139636.0,14105.0,139636.0,36589.0,-615.9790544443603,-271.5285056162264,-676.1324533137747
139636.0,3105.0,139636.0,14085.0,139636.0,36568.0,-621.8778061393224,-273.5263844532039,-681.6742756186617
139636.0,3116.0,139636.0,14109.0,139636.0,36580.0,-627.6742698845786,-275.4319991592124,-687.0009084636125
139636.0,3088.0,139636.0,14129.0,139636.0,36606.0,-633.3560964369368,-277.23821629824806,-692.0948952115525
139646.0,3099.0,139646.0,14066.0,139646.0,36531.0,-638.9102270994556,-278.9372594986487,-696.9379625823303
139646.0,3053.0,139646.0,14064.0,139646.0,36540.0,-644.3229789336251,-280.52075665005816,-701.5110548187488
139646.0,3062.0,139646.0,14048.0,139646.0,36532.0,-649.580267781975,-281.98027631398656,-705.794776784108
139646.0,3059.0,139646.0,14068.0,139646.0,36515.0,-654.6678703789877,-283.3078476844619,-709.7697710304519
139646.0,3063.0,139646.0,14084.0,139646.0,36549.0,-659.571489228719,-284.4960454566111,-713.4168048280854
139646.0,3089.0,139646.0,14074.0,139646.0,36518.0,-664.2765377366349,-285.53771676045983,-716.716662895552
139657.0,3049.0,139657.0,14103.0,139657.0,36512.0,-668.7677877211322,-286.42562967571234,-719.6500144214319
139657.0,3038.0,139657.0,14086.0,139657.0,36523.0,-673.0291995276747,-287.1521791527366,-722.1974492774793
139657.0,3037.0,139657.0,14049.0,139657.0,36491.0,-677.0441133270191,-287.70925581104325,-724.3395950051196
139657.0,3027.0,139657.0,14110.0,139657.0,36495.0,-680.7955228424541,-288.08837904861764,-726.0572443717308
139657.0,3036.0,139657.0,14075.0,139657.0,36558.0,-684.2661689593198,-288.28077295345,-727.3314192443689
139657.0,3033.0,139657.0,14066.0,139657.0,36490.0,-687.4384820974481,-288.27723756009357,-728.1431123673586
139667.0,3004.0,139667.0,14052.0,139667.0,36498.0,-690.2945054466342,-288.0682386911812,-728.4730294306216
139667.0,2996.0,139667.0,14029.0,139667.0,36456.0,-692.8160060526021,-287.64432596009476,-728.3018723764862
139667.0,2991.0,139667.0,14010.0,139667.0,36444.0,-694.9847945696897,-286.99666674759004,-727.6110006446587
139667.0,2984.0,139667.0,14041.0,139667.0,36476.0,-696.7830154679721,-286.11755074279404,-726.3830338487252
139667.0,2995.0,139667.0,14078.0,139667.0,36507.0,-698.193274714158,-285.00051927282584,-724.6020038789245
139667.0,2999.0,139667.0,14065.0,139667.0,36508.0,-699.1986055018008,-283.6399334876045,-722.2529173552639
139677.0,2984.0,139677.0,14054.0,139677.0,36495.0,-699.7823333050867,-282.0304652806544,-719.3212025007938
139677.0,2985.0,139677.0,14043.0,139677.0,36464.0,-699.9280188930452,-280.16703729930487,-715.7926075654877
139677.0,2972.0,139677.0,14043.0,139677.0,36465.0,-699.6195648398913,-278.0451171033079,-711.6536140083517
139677.0,2997.0,139677.0,14077.0,139677.0,36462.0,-698.8413464258526,-275.6609467245337,-706.8920107432714
139677.0,2975.0,139677.0,14116.0,139677.0,36507.0,-697.578223763922,-273.0113576697546,-701.4972089460146
139677.0,2976.0,139677.0,14053.0,139677.0,36510.0,-695.8155226767356,-270.0932585099947,-695.4600994886544
139688.0,2959.0,139688.0,14068.0,139688.0,36502.0,-693.5391730177214,-266.90344072825525,-688.7726779765418
139688.0,2964.0,139688.0,14025.0,139688.0,36479.0,-690.7359887189517,-263.43900850761804,-681.4279395664898
139688.0,2984.0,139688.0,14086.0,139688.0,36470.0,-687.3938835981473,-259.697944843709,-673.4202644091871
139688.0,2975.0,139688.0,14060.0,139688.0,36499.0,-683.5018735933352,-255.67930004502205,-664.7459903802389
139688.0,3015.0,139688.0,14065.0,139688.0,36517.0,-679.049908313299,-251.38307958355531,-655.4036956769746
139688.0,2967.0,139688.0,14044.0,139688.0,36514.0,-674.0286880863837,-246.8102745188915,-645.3940902089088
139698.0,2992.0,139698.0,14076.0,139698.0,36533.0,-668.4296732527525,-241.96312151376426,-634.7198517630193
139698.0,2969.0,139698.0,14090.0,139698.0,36545.0,-662.2453487348282,-236.84522004287248,-623.3855870319001
139698.0,3000.0,139698.0,14114.0,139698.0,36565.0,-655.4695134548678,-231.4612881601204,-611.397779805492
139698.0,3011.0,139698.0,14118.0,139698.0,36571.0,-648.0973621113242,-225.81672872590977,-598.7646735605122
139698.0,2995.0,139698.0,14124.0,139698.0,36591.0,-640.125387844144,-219.91727914811884,-585.4961752572924
139698.0,3009.0,139698.0,14086.0,139698.0,36599.0,-631.5513649789962,-213.76894076612638,-571.6038104328954
139708.0,3019.0,139708.0,14090.0,139708.0,36579.0,-622.3744969585787,-207.37830506744953,-557.1007798615066
139708.0,3017.0,139708.0,14110.0,139708.0,36634.0,-612.5955352538888,-200.75307416643838,-542.0021720464667
139708.0,3032.0,139708.0,14106.0,139708.0,36626.0,-602.2168409461801,-193.90235034489604,-526.3251246939694
139708.0,3038.0,139708.0,14154.0,139708.0,36640.0,-591.2424638299724,-186.83657702506343,-510.08881122959974
139708.0,3064.0,139708.0,14165.0,139708.0,36715.0,-579.6781721758045,-179.5672178998542,-493.31435905783184
139708.0,3077.0,139708.0,14170.0,139708.0,36729.0,-567.5313621901123,-172.10628519035063,-476.0245066914753
139719.0,3086.0,139719.0,14161.0,139719.0,36742.0,-554.8108955543614,-164.46602831669432,-458.24298288145746
139719.0,3078.0,139719.0,14178.0,139719.0,36754.0,-541.5270368199115,-156.65895663624573,-439.99411496829066
139719.0,3106.0,139719.0,14202.0,139719.0,36774.0,-527.6915875089451,-148.69793681730877,-421.3028275880062
139719.0,3141.0,139719.0,14215.0,139719.0,36771.0,-513.3179980254504,-140.59607100411682,-402.19478202766953
139719.0,3138.0,139719.0,14208.0,139719.0,36788.0,-498.42122628859,-132.3664423769915,-382.6965886370143
139719.0,3148.0,139719.0,14208.0,139719.0,36819.0,-483.01755311878816,-124.02203731340857,-362.83605908115516
139729.0,3166.0,139729.0,14194.0,139729.0,36842.0,-467.12462506982075,-115.57596110171677,-342.64230126725005
139729.0,3173.0,139729.0,14262.0,139729.0,36826.0,-450.76160680262745,-107.04170393837138,-322.1456843735098
139729.0,3220.0,139729.0,14250.0,139729.0,36893.0,-433.9492319601728,-98.43306215716144,-301.37790576230685
139729.0,3243.0,139729.0,14263.0,139729.0,36916.0,-416.70963656922345,-89.76376282304571,-280.3719948713757
139729.0,3250.0,139729.0,14263.0,139729.0,36957.0,-399.06602084383115,-81.04725062982669,-259.16196973628763
139729.0,3259.0,139729.0,14257.0,139729.0,36948.0,-381.04244020931304,-72.29677224806838,-237.78239804121043
139739.0,3283.0,139739.0,14276.0,139739.0,36993.0,-362.66387050376466,-63.52557757614761,-216.26822991586556
139739.0,3327.0,139739.0,14305.0,139739.0,37077.0,-343.95627742281397,-54.7470269963752,-194.65467065784583
139739.0,3338.0,139739.0,14341.0,139739.0,37067.0,-324.94643643308046,-45.97437552619658,-172.9766450103703
139739.0,3362.0,139739.0,14315.0,139739.0,37108.0,-305.66163587906334,-37.220314382704416,-151.26811292000738
139739.0,3375.0,139739.0,14304.0,139739.0,37096.0,-286.12951538238156,-28.496767368956554,-129.5617982422016
139739.0,3379.0,139739.0,14307.0,139739.0,37117.0,-266.37808924308433,-19.815212849923725,-107.88934346324086
139750.0,3405.0,139750.0,14304.0,139750.0,37115.0,-246.4359013295561,-11.18720915713152,-86.28166474360626
139750.0,3435.0,139750.0,14318.0,139750.0,37169.0,-226.33217293366744,-2.624766869343887,-64.76930388012119
139750.0,3486.0,139750.0,14378.0,139750.0,37190.0,-206.09670993676298,5.8595821659247065,-43.38251107292507
139750.0,3513.0,139750.0,14404.0,139750.0,37228.0,-185.75948536804987,14.253207665150939,-22.150996793987076
139750.0,3508.0,139750.0,14380.0,139750.0,37246.0,-165.35015340541742,22.544113862326128,-1.1035764107675732
139750.0,3530.0,139750.0,14405.0,139750.0,37246.0,-144.89788442883753,30.72136372783413,19.7320444777514
139760.0,3545.0,139760.0,14356.0,139760.0,37261.0,-124.43153838018469,38.77496413289498,40.329203264989644
139760.0,3589.0,139760.0,14434.0,139760.0,37324.0,-103.97981728469813,46.695534085148125,60.66209289338974
139760.0,3616.0,139760.0,14414.0,139760.0,37334.0,-83.57114910335548,54.474203603537944,80.70585935260902
139760.0,3626.0,139760.0,14386.0,139760.0,37346.0,-63.23339305333724,62.10274960976568,100.43695055261321
139760.0,3631.0,139760.0,14406.0,139760.0,37345.0,-42.99367712919883,69.57345712516474,119.83323977855093
139760.0,3654.0,139760.0,14428.0,139760.0,37374.0,-22.87852274845494,76.87874449260948,138.87380711537446
139770.0,3694.0,139770.0,14426.0,139770.0,37388.0,-2.9140188658895454,84.01108106670037,157.53869526181808
139770.0,3710.0,139770.0,14426.0,139770.0,37445.0,16.874240649154103,90.96311667162186,175.80890552217215
139770.0,3745.0,139770.0,14477.0,139770.0,37456.0,36.461410673068826,97.72775796411568,193.6666953352597
139770.0,3768.0,139770.0,14495.0,139770.0,37458.0,55.82366631398929,104.2984307359942,211.09595939278904
139770.0,3765.0,139770.0,14454.0,139770.0,37489.0,74.93840195894569,110.66954861946823,228.08236910138976
139770.0,3797.0,139770.0,14459.0,139770.0,37486.0,93.78425746721933,116.83661974065205,244.61329721741265
139781.0,3815.0,139781.0,14472.0,139781.0,37512.0,112.34103295453417,122.79586805525989,260.6777264446206
139781.0,3835.0,139781.0,14508.0,139781.0,37521.0,130.58969320971386,128.54398674829,276.2661768099399
139781.0,3841.0,139781.0,14502.0,139781.0,37541.0,148.51243002053712,134.0783496409301,291.3706683667227
139781.0,3857.0,139781.0,14474.0,139781.0,37530.0,166.09262315355107,139.39728203948835,305.9846851320618
139781.0,3877.0,139781.0,14463.0,139781.0,37544.0,183.3147187804047,144.49988720559054,320.1030089781707
139781.0,3888.0,139781.0,14467.0,139781.0,37559.0,200.1641452912915,149.38548719280095,333.72145202531306
139791.0,3903.0,139791.0,14519.0,139791.0,37584.0,216.62727712095716,154.0532325831074,346.83670829497703
139791.0,3928.0,139791.0,14532.0,139791.0,37591.0,232.69140658757118,158.50230410626222,359.4464178535576
139791.0,3960.0,139791.0,14523.0,139791.0,37624.0,248.3448071598874,162.73249974917076,371.5493342743416
139791.0,3970.0,139791.0,14514.0,139791.0,37591.0,263.5769573709557,166.74459621456833,383.1454497865967
139791.0,3969.0,139791.0,14487.0,139791.0,37618.0,278.3787517179219,170.54019534084767,394.23591423200253
139791.0,3986.0,139791.0,14525.0,139791.0,37627.0,292.7424823508022,174.12130640015,404.82279235308386
139802.0,4011.0,139802.0,14550.0,139802.0,37659.0,306.66169910354324,177.49017217988023,414.9089851984264
139802.0,4031.0,139802.0,14532.0,139802.0,37669.0,320.1312233447238,180.64955329852273,424.4984430739531
139802.0,4041.0,139802.0,14524.0,139802.0,37640.0,333.1473360954178,183.60302344077627,433.5963926974018
139802.0,4016.0,139802.0,14519.0,139802.0,37634.0,345.7078694044561,186.35486258296396,442.20919392227734
139802.0,4034.0,139802.0,14516.0,139802.0,37639.0,357.8119703996732,188.9097322523491,450.34381574759266
139802.0,4044.0,139802.0,14500.0,139802.0,37649.0,369.45969593981306,191.27237755572872,458.00734627672216
139812.0,4059.0,139812.0,14516.0,139812.0,37661.0,380.65178598003797,193.4473639266007,465.2068035379997
139812.0,4083.0,139812.0,14578.0,139812.0,37718.0,391.3896905316557,195.43903664649838,471.9492651556783
139812.0,4096.0,139812.0,14565.0,139812.0,37709.0,401.67574496084274,197.25199440718865,478.24233080925194
139812.0,4093.0,139812.0,14531.0,139812.0,37682.0,411.51337215610886,198.89171047561285,484.0946015483214
139812.0,4077.0,139812.0,14496.0,139812.0,37669.0,420.9070929273702,200.36451408257824,489.5156232397061
139812.0,4107.0,139812.0,14586.0,139812.0,37743.0,429.8622736976979,201.67705328102113,494.5154719565578
139822.0,4130.0,139822.0,14529.0,139822.0,37716.0,438.3849371633387,202.8361436735098,499.1047439447276
139822.0,4112.0,139822.0,14541.0,139822.0,37722.0,446.48186847885665,203.849039223379,503.29494174677575
139822.0,4114.0,139822.0,14491.0,139822.0,37680.0,454.160705121953,204.7233660361149,507.09854986350933
139822.0,4107.0,139822.0,14516.0,139822.0,37679.0,461.42972285255905,205.46661162151918,510.52857697301124
139822.0,4095.0,139822.0,14484.0,139822.0,37670.0,468.2974490646542,206.08561866051303,513.5979063178718
139822.0,4129.0,139822.0,14515.0,139822.0,37730.0,474.7723117121003,206.58629755542722,516.3189091842826
139833.0,4133.0,139833.0,14558.0,139833.0,37717.0,480.86251983881164,206.97366682727403,518.703618547835
139833.0,4132.0,139833.0,14524.0,139833.0,37731.0,486.5762037756582,207.25229402179372,520.764233805487
139833.0,4140.0,139833.0,14537.0,139833.0,37704.0,491.92154356126866,207.42675245140873,522.5134280105443
139833.0,4134.0,139833.0,14520.0,139833.0,37706.0,496.9067436636294,207.50169090131357,523.9642690074414
139833.0,4139.0,139833.0,14522.0,139833.0,37701.0,501.53993671128603,207.48167399976973,525.1299442867086
139833.0,4159.0,139833.0,14549.0,139833.0,37701.0,505.8291110855239,207.3710905894635,526.0235238919807
139843.0,4159.0,139843.0,14563.0,139843.0,37713.0,509.7821693690328,207.17432422954136,526.6578641660551
139843.0,4154.0,139843.0,14537.0,139843.0,37697.0,513.407068823917,206.89613711495463,527.0456235836149
139843.0,4158.0,139843.0,14494.0,139843.0,37663.0,516.7118513904459,206.5417815766006,527.199195979555
139843.0,4145.0,139843.0,14459.0,139843.0,37665.0,519.7045305704262,206.11645247923974,527.1303462526811
139843.0,4140.0,139843.0,14503.0,139843.0,37677.0,522.3928956490574,205.6244102200369,526.8497444496892
139843.0,4175.0,139843.0,14558.0,139843.0,37712.0,524.7843281142578,205.0686463901746,526.3668693797815
139853.0,4177.0,139853.0,14539.0,139853.0,37705.0,526.8858627513257,204.45148051842025,525.6903967681773
139853.0,4183.0,139853.0,14535.0,139853.0,37708.0,528.7045154349225,203.775379494219,524.8287073696164
139853.0,4172.0,139853.0,14512.0,139853.0,37673.0,530.2475576412951,203.04321236179436,523.7901019181877
139853.0,4162.0,139853.0,14508.0,139853.0,37678.0,531.5225269851688,202.25799706516602,522.5826234781226
139853.0,4179.0,139853.0,14546.0,139853.0,37705.0,532.5370686608784,201.4226287918265,521.2137884621845
139853.0,4179.0,139853.0,14521.0,139853.0,37707.0,533.2988524154116,200.53992980424974,519.690649016709
139864.0,4176.0,139864.0,14527.0,139864.0,37673.0,533.8156558749237,199.6128790056424,518.0200995101267
139864.0,4181.0,139864.0,14493.0,139864.0,37670.0,534.0954621982993,198.6446265230803,516.208914895865
139864.0,4156.0,139864.0,14485.0,139864.0,37672.0,534.1464503831855,197.63819000261898,514.2634600152683
139864.0,4135.0,139864.0,14466.0,139864.0,37635.0,533.9767970190245,196.59597822629956,512.1893994902434
139864.0,4157.0,139864.0,14488.0,139864.0,37653.0,533.5942993449314,195.51936456856902,509.9914464554712
139864.0,4165.0,139864.0,14522.0,139864.0,37706.0,533.0061471946589,194.40861377681924,507.6732612550584
139874.0,4174.0,139874.0,14520.0,139874.0,37705.0,532.2190844014622,193.26329559737607,505.23789052820996
139874.0,4152.0,139874.0,14535.0,139874.0,37672.0,531.2397084891415,192.0828978660216,502.6884996670507
139874.0,4150.0,139874.0,14509.0,139874.0,37660.0,530.0745522551064,190.86723837403602,500.0286315531415
139874.0,4158.0,139874.0,14487.0,139874.0,37658.0,528.7299571498869,189.6164933865235,497.26190444755764
139874.0,4186.0,139874.0,14525.0,139874.0,37675.0,527.2120681080404,188.3309480512822,494.3917196092947
139874.0,4148.0,139874.0,14530.0,139874.0,37685.0,525.5270831904181,187.0109179588248,491.4213387495976
139884.0,4159.0,139884.0,14515.0,139884.0,37662.0,523.6814380904085,185.65704219239993,488.3541956231022
139884.0,4135.0,139884.0,14502.0,139884.0,37641.0,521.6817026938361,184.27051275699222,485.19403690504134
139884.0,4123.0,139884.0,14488.0,139884.0,37628.0,519.534325074635,182.8529307364571,481.9446797525012
139884.0,4128.0,139884.0,14495.0,139884.0,37655.0,517.2453502116944,181.40599353665868,478.6096611567156
139884.0,4144.0,139884.0,14487.0,139884.0,37658.0,514.8202650010345,179.93128636795757,475.19221204113404
139884.0,4137.0,139884.0,14526.0,139884.0,37658.0,512.2641231721705,178.43029933773255,471.6955883710446
139895.0,4150.0,139895.0,14480.0,139895.0,37656.0,509.5818244599619,176.9046397459513,468.12342525391176
139895.0,4130.0,139895.0,14489.0,139895.0,37620.0,506.77833739922187,175.35616026108457,464.47985893316445
139895.0,4140.0,139895.0,14478.0,139895.0,37641.0,503.85879879816696,173.78681067057875,460.76939429522344
139895.0,4139.0,139895.0,14496.0,139895.0,37639.0,500.82855246352705,172.19846206385176,456.9967545316811
139895.0,4126.0,139895.0,14516.0,139895.0,37634.0,497.69321605382225,170.59300087202791,453.16695363402926
139895.0,4127.0,139895.0,14480.0,139895.0,37645.0,494.4587252945468,168.9726279438123,449.285492405793
139905.0,4099.0,139905.0,14463.0,139905.0,37606.0,491.1312622827736,167.33996189843648,445.3584774800731
139905.0,4103.0,139905.0,14470.0,139905.0,37569.0,487.7170676905287,165.69774026500548,441.3924648396461
139905.0,4079.0,139905.0,14452.0,139905.0,37553.0,484.2221953576094,164.048446168301,437.3938799144588
139905.0,4092.0,139905.0,14493.0,139905.0,37600.0,480.6523001427544,162.39418427100043,433.3683884387895
139905.0,4095.0,139905.0,14489.0,139905.0,37593.0,477.01256812089724,160.73687267613516,429.3208391472169
139905.0,4090.0,139905.0,14485.0,139905.0,37591.0,473.3078395374468,159.0786333437657,425.2557194397172
139915.0,4102.0,139915.0,14466.0,139915.0,37578.0,469.54282518848566,157.4220328764862,421.17752685899563
139915.0,4095.0,139915.0,14455.0,139915.0,37585.0,465.72232095290127,155.76997325451447,417.0908437401554
139915.0,4073.0,139915.0,14446.0,139915.0,37560.0,461.851361633272,154.12537814568043,413.0003071374846
139915.0,4073.0,139915.0,14490.0,139915.0,37596.0,457.9351905020552,152.49097825685635,408.91060744518535
139915.0,4080.0,139915.0,14473.0,139915.0,37585.0,453.97912129147556,150.86946074080055,404.8266369839051
139915.0,4084.0,139915.0,14450.0,139915.0,37591.0,449.98855958856836,149.2637882919941,400.7538147070605
139926.0,4048.0,139926.0,14441.0,139926.0,37545.0,445.96915310759147,147.67719000822865,396.6983015211046
139926.0,4058.0,139926.0,14430.0,139926.0,37518.0,441.92677722547535,146.11280166141205,392.66678224808385
139926.0,4036.0,139926.0,14427.0,139926.0,37529.0,437.86733333706087,144.57330335574065,388.66588891157
139926.0,4039.0,139926.0,14444.0,139926.0,37521.0,433.7965682846481,143.060738634512,384.7017366616445
139926.0,4049.0,139926.0,14479.0,139926.0,37532.0,429.72001383523155,141.57664042126606,380.779853426243
139926.0,4043.0,139926.0,14466.0,139926.0,37541.0,425.64308851811643,140.122508248423,376.9053735749996
139936.0,4026.0,139936.0,14435.0,139936.0,37511.0,421.5712705755292,138.70025625978454,373.08328899541556
139936.0,4025.0,139936.0,14433.0,139936.0,37501.0,417.51012733539625,137.3121765977034,369.3185145666177
139936.0,4029.0,139936.0,14444.0,139936.0,37538.0,413.4652352313823,135.96059215196874,365.61575774916406
139936.0,4024.0,139936.0,14456.0,139936.0,37525.0,409.4421946851725,134.64772476452083,361.97958877965937
139936.0,4018.0,139936.0,14444.0,139936.0,37517.0,405.44673764644875,133.37587797829877,358.4147679799033
139936.0,3994.0,139936.0,14421.0,139936.0,37489.0,401.484753568874,132.14757808337356,354.92638481250253
139946.0,4000.0,139946.0,14388.0,139946.0,37466.0,397.56215471154655,130.96534756719382,351.51959401360534
139946.0,3970.0,139946.0,14391.0,139946.0,37467.0,393.6846655727962,129.83114326985338,348.19913482269675
139946.0,3971.0,139946.0,14423.0,139946.0,37476.0,389.85759900294573,128.7458841494331,344.9689670611031
139946.0,3976.0,139946.0,14430.0,139946.0,37497.0,386.0856592882033,127.70949560287123,341.83228496900097
139946.0,3994.0,139946.0,14461.0,139946.0,37501.0,382.3729480988265,126.72142174292497,338.7918924826153
139946.0,3974.0,139946.0,14437.0,139946.0,37500.0,378.72322374152117,125.78122314520627,335.85068687867755
139957.0,3961.0,139957.0,14403.0,139957.0,37461.0,375.1401181181361,124.88885533282992,333.0119289185518
139957.0,3972.0,139957.0,14428.0,139957.0,37459.0,371.62710889488517,124.04446004081262,330.2791030939505
139957.0,3961.0,139957.0,14434.0,139957.0,37477.0,368.18744306387816,123.24807602925588,327.65557833597865
139957.0,3963.0,139957.0,14404.0,139957.0,37462.0,364.82417772898464,122.49964585401419,325.1444920334471
139957.0,3955.0,139957.0,14427.0,139957.0,37448.0,361.54024491957307,121.79906360668961,322.74883094491236
139957.0,3939.0,139957.0,14392.0,139957.0,37445.0,358.3384452177004,121.14606125450561,320.4713749898294
