c_ts,c_val,d_ts,d_val,e_ts,e_val,c_val_filtered,d_val_filtered,e_val_filtered
69423,2026,69423,17310,69423,29575,-39.356633127282464,208.58569439543635,318.1905337427311
69423,2017,69423,17357,69423,29609,-41.07289740576807,210.82266689942477,321.0694423089622
69433,2017,69433,17366,69433,29589,-42.811187555419714,213.02545337485085,323.9058344442777
69433,2018,69433,17331,69433,29597,-44.56740205779386,215.1879976607529,326.69274219575345
69433,2015,69433,17299,69433,29575,-46.33749455298786,217.3055042753278,329.4238165934997
69433,2019,69433,17290,69433,29584,-48.1174471881944,219.37387906276516,332.093150427986
69433,2005,69433,17308,69433,29593,-49.90324557662338,221.38901559671942,334.69510707829534
69433,2001,69433,17370,69433,29614,-51.69092430321014,223.34660542459798,337.2243660496284
69444,2004,69444,17349,69444,29601,-53.476687153776766,225.2426584687921,339.6761894482907
69444,2006,69444,17336,69444,29599,-55.25698279561149,227.07416910210208,342.04664647975056
69444,2007,69444,17288,69444,29588,-57.02846115413179,228.83918126867798,344.3325957719224
69444,2000,69444,17301,69444,29578,-58.78788952576748,230.5362102483113,346.53148231397785
69444,1998,69444,17332,69444,29580,-60.53212972205349,232.16366872122776,348.6410806553814
69444,1992,69444,17322,69444,29614,-62.25819051589296,233.7198314477357,350.6593645605655
69454,1989,69454,17367,69454,29615,-63.963312992979255,235.20322326297318,352.58470758651896
69454,1990,69454,17307,69454,29590,-65.6450484297701,236.61301355279247,354.416254771885
69454,1992,69454,17290,69454,29563,-67.30128831199985,237.94902262931518,356.15396562855244
69454,1992,69454,17308,69454,29564,-68.93022633549228,239.21123682336963,357.7981827548716
69454,1992,69454,17326,69454,29592,-70.53028686108047,240.39939287262877,359.34918343473635
69454,1991,69454,17355,69454,29598,-72.1000644047391,241.51314765620074,360.8071796692394
69464,1992,69464,17321,69464,29581,-73.63828230970448,242.55258234154516,362.1726472323306
69464,1997,69464,17291,69464,29578,-75.1437443385833,243.51841157414626,363.446508166787
69464,1995,69464,17277,69464,29552,-76.61525291939523,244.41158402919004,364.6299805202996
69464,1987,69464,17302,69464,29561,-78.05153455962792,245.23265476401087,365.72425516556547
69464,1979,69464,17349,69464,29582,-79.45126353489678,245.9816194328227,366.73027084520817
69464,1975,69464,17344,69464,29595,-80.81320008263476,246.6584349786416,367.64884036830347
69475,1984,69475,17302,69475,29591,-82.1363338614758,247.26366218021082,368.4810631662459
69475,1992,69475,17278,69475,29539,-83.41988903115637,247.79847317891134,369.2285769353249
69475,1981,69475,17276,69475,29541,-84.66318693810217,248.26402599041094,369.89328608205636
69475,1985,69475,17296,69475,29564,-85.86553237765224,248.6608778417139,370.47683607394373
69475,1974,69475,17335,69475,29576,-87.02622261812675,248.98895537293905,370.98047110766316
69475,1973,69475,17341,69475,29553,-88.14463266385671,249.24809585124757,371.40532968235243
69485,1979,69485,17286,69485,29541,-89.22030594885277,249.43865346383592,371.75262758428977
69485,1976,69485,17274,69485,29529,-90.25297762648054,249.56149881508838,372.0234611128023
69485,1976,69485,17273,69485,29538,-91.24253046946853,249.6174217339803,372.2184834728917
69485,1976,69485,17296,69485,29553,-92.1889602901613,249.606635549978,372.33778416634823
69485,1981,69485,17326,69485,29554,-93.09235493269821,249.5288502944395,372.38106849860065
69485,1974,69485,17320,69485,29546,-93.95285243452386,249.38379946729538,372.34795101328194
69496,1985,69496,17262,69496,29530,-94.77059454459157,249.17167396914147,372.2380835867357
69496,1980,69496,17255,69496,29504,-95.54567357072892,248.89290870459033,372.0509906980803
69496,1980,69496,17258,69496,29525,-96.27806850491095,248.54749589166505,371.7857231909561
69496,1974,69496,17304,69496,29532,-96.96762708806381,248.13459408059092,371.44066243372436
69496,1976,69496,17312,69496,29545,-97.61411405227719,247.65283965183676,371.0136995415476
69496,1962,69496,17306,69496,29522,-98.21729316519082,247.10103095105114,370.502583290525
69506,1982,69506,17248,69506,29504,-98.77701272716405,246.47850310482013,369.90504418654496
69506,1974,69506,17260,69506,29493,-99.29321560292458,245.78483535366652,369.2185591699281
69506,1978,69506,17263,69506,29520,-99.76585355527048,245.01928757324364,368.440034278982
69506,1971,69506,17280,69506,29518,-100.19482528240862,244.1805953772157,367.5657918848762
69506,1975,69506,17318,69506,29533,-100.5799948250321,243.26727560572579,366.5918889047848
69506,1974,69506,17266,69506,29510,-100.92122558745828,242.27816093962883,365.5144686210571
69516,1973,69516,17233,69516,29482,-101.21838747874166,241.21259704176654,364.32984671875556
69516,1984,69516,17227,69516,29478,-101.47133515420252,240.06995620559766,363.0342264305725
69516,1968,69516,17254,69516,29494,-101.67986343286421,238.84898358336247,361.62331813505995
69516,1980,69516,17276,69516,29515,-101.84369048864086,237.54770253311324,360.0923087501991
69516,1975,69516,17265,69516,29513,-101.96248096422013,236.16387305445724,358.43625593694753
69516,1978,69516,17267,69516,29493,-102.03584628140291,234.69547315820216,356.6505348990436
69527,1981,69527,17228,69527,29462,-102.06331608745319,233.14083087200655,354.7309230707983
69527,1976,69527,17224,69527,29471,-102.04431120584928,231.49837861239712,352.673286412894
69527,1971,69527,17260,69527,29495,-101.97815250985593,229.76631532218946,350.47329850483834
69527,1969,69527,17277,69527,29504,-101.86414621139158,227.94267628301614,348.1266155246028
69527,1969,69527,17275,69527,29490,-101.70170713521188,226.02589970196476,345.6293716627947
69527,1968,69527,17234,69527,29462,-101.49044916905294,224.01532753591096,342.97848512869456
69537,1979,69537,17203,69537,29455,-101.2302125514405,221.9111103845479,340.17152797483027
69537,1977,69537,17218,69537,29448,-100.92101181936597,219.7136237299736,337.20638447096576
69537,1966,69537,17254,69537,29469,-100.56296715641832,217.42306941932551,334.0810664237811
69537,1975,69537,17243,69537,29456,-100.15633246915408,215.03971569297568,330.79383324204724
69537,1971,69537,17227,69537,29461,-99.70157971304552,212.56439731416438,327.34346098261943
69537,1978,69537,17210,69537,29431,-99.19942410708799,209.99866867085103,323.72940544060754
69547,1982,69547,17178,69547,29432,-98.6507821262985,207.34452279978944,319.9517500386953
69547,1981,69547,17205,69547,29427,-98.05669665232604,204.60396365158704,316.01104983575556
69547,1985,69547,17218,69547,29448,-97.41826770380943,201.77883020734618,311.9083144968542
69547,1980,69547,17235,69547,29434,-96.73662514021724,198.87111118043248,307.64524353227
69547,1993,69547,17212,69547,29435,-96.01292509038927,195.883491203425,303.2245437759268
69547,1991,69547,17159,69547,29396,-95.24831138157923,192.81956988345343,298.65006595938394
69558,1994,69558,17160,69558,29389,-94.44383383707977,189.68346829196443,293.9266388673377
69558,1982,69558,17157,69558,29398,-93.6004124493774,186.47918704388098,289.0597648703626
69558,1995,69558,17210,69558,29399,-92.7188979877057,183.21037961639618,284.0555288057009
69558,1984,69558,17201,69558,29400,-91.80015210820102,179.88078362455548,278.92081918872526
69558,1996,69558,17171,69558,29392,-90.84508420270876,176.49486673582723,273.6636328737668
69558,1990,69558,17142,69558,29347,-89.85465912335582,173.05799903172817,268.2932039000954
69568,1994,69568,17143,69568,29332,-88.829895990032,169.5760525059965,262.8197721028061
69568,1991,69568,17157,69568,29361,-87.77188233368665,166.0549880964347,257.2541652295886
69568,1990,69568,17162,69568,29334,-86.68181973150361,162.5008611142056,251.60767385408525
69568,1984,69568,17162,69568,29333,-85.56110494508891,158.92014773829192,245.8922308770831
69568,2003,69568,17121,69568,29304,-84.41141414185685,155.3200058449579,240.12048443312477
69568,2001,69568,17097,69568,29285,-83.23468694382152,151.70813199832858,234.3056181059419
69578,2008,69578,17079,69578,29274,-82.03299608351033,148.09221234745803,228.46102732378944
69578,2003,69578,17125,69578,29281,-80.80843212296656,144.47941645014092,222.6000457862444
69578,2014,69578,17135,69578,29267,-79.56306388134725,140.87646399162546,216.73589755293622
69578,2013,69578,17110,69578,29262,-78.29890974519533,137.29018928635156,210.88180150768363
69578,2014,69578,17084,69578,29236,-77.0178874152541,133.727913251718,205.05101325316207
69578,2017,69578,17057,69578,29214,-75.72178452268534,130.1972178843328,199.25668055916447
69589,2009,69589,17071,69589,29209,-74.41227636084864,126.70542655927514,193.51154026699282
69589,2007,69589,17095,69589,29218,-73.09100484001961,123.2593444085104,187.827676810537
69589,2016,69589,17103,69589,29221,-71.75970039582448,119.86553376752968,182.21657669261685
69589,2012,69589,17069,69589,29214,-70.42025370551042,116.5308249558193,176.68942792948093
69589,2024,69589,17030,69589,29164,-69.0747007278256,113.2624449393198,171.2573241020391
69589,2024,69589,17008,69589,29167,-67.72515945550293,110.06751878191474,165.93108325636797
69599,2026,69599,17053,69599,29160,-66.37374867060417,106.95240911023856,160.72085735686278
69599,2027,69599,17057,69599,29186,-65.02253518024565,103.9225935714804,155.63599942109875
69599,2028,69599,17053,69599,29154,-63.673529701585224,100.9831326949325,150.68529728744556
69599,2042,69599,17040,69599,29145,-62.328676688824814,98.13913097818653,145.87720741589789
69599,2040,69599,16986,69599,29119,-60.98977530207972,95.39574581035794,141.2197788048705
69599,2042,69599,16981,69599,29109,-59.658365858981334,92.75770359124095,136.7203436495003
69609,2039,69609,17016,69609,29126,-58.335682897345656,90.22870334184498,132.38524970700627
69609,2036,69609,17037,69609,29133,-57.02270313123243,87.81135727003976,128.21988912027808
69609,2031,69609,17035,69609,29107,-55.72025790366938,85.50776733239167,124.22899718284611
69609,2045,69609,16992,69609,29104,-54.42915546219219,83.32008201672895,120.41685457322097
69609,2042,69609,16981,69609,29062,-53.150217913822445,81.25047067721022,116.78716422078821
69609,2044,69609,16988,69609,29078,-51.884230808582956,79.30067724745587,113.34271599170796
69620,2039,69620,17006,69620,29108,-50.63192270011652,77.47174823574005,110.08518917838614
69620,2051,69620,17028,69620,29091,-49.39400501341566,75.76424862261854,107.01540232949367
69620,2049,69620,16990,69620,29081,-48.17118112835086,74.178728848708,104.13375132556024
69620,2048,69620,16963,69620,29064,-46.96410644204402,72.71589848884355,101.44034390410337
69620,2051,69620,16937,69620,29040,-45.77337831195228,71.37621315338839,98.93479014266211
69620,2055,69620,16968,69620,29064,-44.5995578818649,70.15923684170079,96.61590388378465
69630,2053,69630,17002,69630,29058,-43.4431671069788,69.06344756361497,94.48159843521762
69630,2048,69630,17013,69630,29084,-42.304693338743846,68.08673920761251,92.5291101474188
69630,2057,69630,16949,69630,29060,-41.18464597352054,67.22708139000488,90.75538398592505
69630,2065,69630,16935,69630,29023,-40.08358419978015,66.48252988335139,89.1572650076252
69630,2060,69630,16929,69630,29022,-39.00204499682515,65.85056340361487,87.73124287121499
69630,2062,69630,16959,69630,29015,-37.94046648169539,65.32750774048131,86.4729720928716
69640,2068,69640,16989,69640,29049,-36.899183488383144,64.90859776745901,85.37705183124552
69640,2058,69640,16984,69640,29052,-35.878444772201256,64.58856816801219,84.43726164243532
69640,2065,69640,16963,69640,29024,-34.87844575660904,64.36223269206263,83.64700041078606
69640,2076,69640,16937,69640,29009,-33.899362647536165,64.22456843714934,82.99943891082273
69640,2064,69640,16930,69640,29007,-32.94131505452645,64.17031746134214,82.48725466834844
69640,2065,69640,16946,69640,29037,-32.00433401387672,64.19352480190372,82.1023763450076
69651,2076,69651,16983,69651,29041,-31.08841635806653,64.28746031417424,81.83613048327453
69651,2078,69651,16979,69651,29030,-30.193535912122478,64.44504796895896,81.67966337501673
69651,2076,69651,16951,69651,29030,-29.31955485267008,64.65939200591382,81.62422953692135
69651,2077,69651,16934,69651,28996,-28.466162724795673,64.9238476908381,81.66116898630469
69651,2093,69651,16912,69651,28986,-27.632861335017836,65.23158832838837,81.78161407233534
69651,2083,69651,16968,69651,29023,-26.818894345030436,65.57514432103429,81.9761285155023
69661,2073,69661,16982,69661,29018,-26.02318836522118,65.94646697193801,82.2346776152097
69661,2076,69661,16976,69661,29020,-25.2444553269753,66.33753953171129,82.54696635566165
69661,2078,69661,16945,69661,28986,-24.48137117084127,66.74088612920971,82.90267825125079
69661,2085,69661,16904,69661,28982,-23.732646731899237,67.14943243615721,83.2913218214286
69661,2089,69661,16936,69661,29001,-22.996970626540175,67.5558822281408,83.7018995414432
69661,2074,69661,16965,69661,29030,-22.27293548651984,67.95231432813623,84.12286911058482
69671,2088,69671,16983,69671,29024,-21.55905686344144,68.33048788614201,84.54256333564479
69671,2089,69671,16959,69671,28993,-20.853828184759948,68.68250816772567,84.94964401622286
69671,2084,69671,16934,69671,29004,-20.155700504302203,69.00114076227072,85.33314093749004
69671,2084,69671,16915,69671,28983,-19.46306197296518,69.27952554418673,85.68219978018277
69671,2085,69671,16930,69671,29007,-18.7742939803032,69.5106346538102,85.98589952362119
69671,2084,69671,16980,69671,29023,-18.087837235596737,69.68705755366682,86.23331980315226
69682,2086,69682,16999,69682,29002,-17.40222736518389,69.80146753749332,86.41384238212419
69682,2093,69682,16944,69682,29002,-16.716102099180617,69.84740160864243,86.51739971874707
69682,2097,69682,16911,69682,28984,-16.028151762551772,69.81946352127787,86.53443621517027
69682,2093,69682,16922,69682,28975,-15.33702930457703,69.71271746269014,86.45568365803899
69682,2089,69682,16950,69682,28986,-14.641315024136134,69.52208001711185,86.27192924668589
69682,2082,69682,16961,69682,29013,-13.939598769309256,69.24238042477927,85.97398697527115
69692,2095,69692,16966,69692,28991,-13.230616920639974,68.86888085656042,85.55298194494276
69692,2089,69692,16935,69692,28982,-12.513318731386363,68.39769831931812,85.00064231693386
69692,2097,69692,16883,69692,28971,-11.786839803388261,67.82571954875115,84.30927134662778
69692,2096,69692,16905,69692,28967,-11.050455585805949,67.14997865944218,83.47151511520588
69692,2100,69692,16944,69692,28979,-10.30354123313208,66.3671128670025,82.48020548027193
69692,2100,69692,16943,69692,28994,-9.54553379866428,65.47353385195004,81.328438355836
69702,2094,69702,16944,69702,28990,-8.775923091940413,64.46604571707752,80.00988957359687
69702,2099,69702,16899,69702,28962,-7.994295502443919,63.3421912279951,78.51911355456048
69702,2096,69702,16894,69702,28944,-7.20040044933819,62.100045138178416,76.8514991719158
69702,2105,69702,16876,69702,28938,-6.3941807816517695,60.73768538179894,75.00289714548927
69702,2105,69702,16939,69702,28957,-5.575744875291889,59.25284408185584,72.96928945797993
69702,2102,69702,16934,69702,28979,-4.745314831646965,57.643153298822796,70.7468510306802
69713,2101,69713,16917,69713,28939,-3.9032236279177397,55.90677916973732,68.33233700279641
69713,2122,69713,16875,69713,28931,-3.049936927094336,54.04271596910482,65.72330194553962
69713,2116,69713,16855,69713,28906,-2.1859700189136646,52.050394091187854,62.917871838787676
69713,2117,69713,16882,69713,28930,-1.3117322568326557,49.929026968379844,59.91437649320039
69713,2107,69713,16935,69713,28937,-0.4274831333258362,47.67743560464132,56.711277578003205
69713,2113,69713,16921,69713,28929,0.4665656165703638,45.29465025850459,53.30745706528484
69723,2123,69723,16893,69723,28915,1.370153671786909,42.780686238659,49.70253424591181
69723,2119,69723,16849,69723,28884,2.2829989255284886,40.136670181907505,45.896885529113774
69723,2117,69723,16840,69723,28879,3.2048705371383477,37.364252050585065,41.8913569163272
69723,2122,69723,16851,69723,28901,4.1355868217789435,34.46490183677895,37.68696257619064
69723,2123,69723,16879,69723,28892,5.074980483710263,31.43967375606303,33.284911500987846
69723,2122,69723,16881,69723,28900,6.022900006033595,28.289553236196525,28.686927805671587
69734,2125,69734,16856,69734,28857,6.979214823540261,25.015981918455964,23.8955064268373
69734,2128,69734,16809,69734,28840,7.943810118078616,21.620985897697807,18.91382488778953
69734,2126,69734,16822,69734,28840,8.916595525684087,18.106747277895494,13.745361640136935
69734,2134,69734,16856,69734,28843,9.89752168845807,14.47516942996694,8.393601338620613
69734,2136,69734,16871,69734,28852,10.886612749155574,10.728073352936377,2.862096091104206
69734,2128,69734,16815,69734,28852,11.8840107426593,6.867796393311437,-2.8452105233398015
69744,2134,69744,16805,69744,28803,12.889965101135147,2.8973736522556806,-8.723694275666446
69744,2130,69744,16786,69744,28780,13.904765245230962,-1.1798963227611807,-14.768154278029044
69744,2133,69744,16787,69744,28797,14.928683037050376,-5.36096942105894,-20.97327589288784
69744,2129,69744,16829,69744,28795,15.961929134368958,-9.643206240995454,-27.333902276406945
69744,2133,69744,16833,69744,28797,17.004600977759594,-14.024001047878812,-33.844849621509695
69744,2135,69744,16789,69744,28768,18.05664264217772,-18.500170805733575,-40.50060220811332
69754,2144,69754,16769,69754,28730,19.11785702507359,-23.067770177395403,-47.29529622427515
69754,2150,69754,16751,69754,28744,20.18799465757624,-27.722512710358274,-54.22304920347506
69754,2143,69754,16767,69754,28752,21.26687664642536,-32.46027823962311,-61.278228501147
69754,2139,69754,16786,69754,28739,22.354434378446612,-37.2772148798839,-68.45531092231897
69754,2144,69754,16779,69754,28738,23.450623495434158,-42.16938919561653,-75.74855427153494
69754,2142,69754,16759,69754,28715,24.55532142354545,-47.132355018988676,-83.15181087563673
69765,2149,69765,16721,69765,28698,25.668293456321933,-52.16108424281785,-90.658539934803
69765,2152,69765,16696,69765,28682,26.789217277835085,-57.25037711031217,-98.2619784295241
69765,2146,69765,16745,69765,28707,27.917727483290975,-62.39539194044602,-105.95529878041913
69765,2155,69765,16729,69765,28681,29.053427491012187,-67.59171971884089,-113.73151873062784
69765,2142,69765,16733,69765,28670,30.195854691997653,-72.83497537976368,-121.58327295601373
69765,2154,69765,16725,69765,28653,31.3444190879909,-78.12041387996669,-129.50275828607397
69775,2167,69775,16657,69775,28607,32.49838221672829,-83.44289703067281,-137.48193170210357
69775,2161,69775,16655,69775,28600,33.656961379826384,-88.79732659480973,-145.51291684337446
69775,2163,69775,16687,69775,28624,34.81946610567725,-94.17925846851307,-153.58840071799955
69775,2170,69775,16704,69775,28615,35.9853373539369,-99.58497968920435,-161.70161815282592
69775,2163,69775,16684,69775,28604,37.154144123826626,-105.01095532439962,-169.84597279110682
69775,2167,69775,16648,69775,28584,38.32557593521619,-110.45337997648545,-178.01476234128376
69785,2167,69785,16627,69785,28542,39.499402865218244,-115.90832983440532,-186.20124911835217
69785,2172,69785,16648,69785,28523,40.67544362552316,-121.37223207630305,-194.39905383566565
69785,2164,69785,16681,69785,28558,41.8535599022464,-126.84199201709453,-202.60259763805516
69785,2160,69785,16659,69785,28562,43.03360411139312,-132.3145352720677,-210.80708665251564
69785,2174,69785,16637,69785,28524,44.21531045722479,-137.7862790664783,-219.00803519264724
69785,2171,69785,16589,69785,28503,45.39825072273456,-143.25314193584848,-227.20098750971113
69796,2175,69796,16575,69796,28472,46.581891228669605,-148.71111621891964,-235.38177417756162
69796,2175,69796,16573,69796,28481,47.765645741946685,-154.15696837182242,-243.54696529572254
69796,2186,69796,16596,69796,28501,48.948902089598846,-159.5885896296158,-251.69404709432246
69796,2185,69796,16625,69796,28483,50.13108725577614,-165.00476439013346,-259.821148013322
69796,2172,69796,16582,69796,28476,51.31172645954409,-170.40456685905275,-267.92661385252563
69796,2184,69796,16559,69796,28435,52.49039099896925,-175.78700121289768,-276.00885501643523
69806,2190,69806,16537,69806,28410,53.666615826283035,-181.15125363147934,-284.0665893585624
69806,2182,69806,16552,69806,28426,54.83992245791349,-186.49718993939894,-292.0992742574781
69806,2192,69806,16579,69806,28424,56.00987033379526,-191.82550188411648,-300.10730298408
69806,2191,69806,16570,69806,28428,57.17606378774154,-197.13733206325122,-308.0917771725973
69806,2193,69806,16545,69806,28400,58.338169283455926,-202.43377615600218,-316.0541508494664
69806,2198,69806,16517,69806,28378,59.49594697656778,-207.71578657060462,-323.9961122830465
69816,2201,69816,16509,69816,28372,60.6492864948971,-212.9845219970374,-331.9197622988769
69816,2192,69816,16531,69816,28375,61.798240873451306,-218.24171380514332,-339.8278198528892
69816,2189,69816,16523,69816,28392,62.94298174689098,-223.48966474260527,-347.72354921450324
69816,2200,69816,16517,69816,28374,64.08367579888808,-228.73096689775588,-355.61039450928524
69816,2189,69816,16489,69816,28355,65.22040186374794,-233.96832943356827,-363.49162507928645
69816,2202,69816,16487,69816,28316,66.35313296108777,-239.20469005171435,-371.37032344512636
69827,2207,69827,16488,69827,28330,67.481754929892,-244.44342189451862,-379.24969552946686
69827,2202,69827,16512,69827,28321,68.60614189995044,-249.68832818491092,-387.1333205595631
69827,2204,69827,16519,69827,28332,69.72621777395503,-254.94328283768778,-395.0250673433743
69827,2197,69827,16493,69827,28311,70.84191872820297,-260.21171929661716,-402.9288043004701
69827,2214,69827,16449,69827,28274,71.95311947018062,-265.4964369809629,-410.8482370404379
69827,2210,69827,16441,69827,28260,73.05963860777892,-270.79997212679507,-418.7871020470362
69837,2211,69837,16443,69837,28266,74.16131706339394,-276.1251767561389,-426.7495463560791
69837,2213,69837,16488,69837,28286,75.2580602579334,-281.47540464414385,-434.74023169796703
69837,2212,69837,16470,69837,28301,76.34982180884488,-286.85409979641906,-442.76393833997497
69837,2214,69837,16455,69837,28257,77.4365793384701,-292.2642123137336,-450.8249497807909
69837,2216,69837,16419,69837,28233,78.51831656091089,-297.7080284175275,-458.92678074427783
69837,2221,69837,16409,69837,28217,79.5950258147305,-303.1875035878971,-467.0724547579614
69847,2216,69847,16414,69847,28234,80.66673306605122,-308.7047122086882,-475.26489408029033
69847,2217,69847,16438,69847,28222,81.73349681338283,-314.2619846255173,-483.5069604702429
69847,2223,69847,16434,69847,28236,82.79536875150312,-319.86159596061447,-491.801170990488
69847,2215,69847,16392,69847,28187,83.85236476237552,-325.50535266874465,-500.14939838480666
69847,2230,69847,16357,69847,28160,84.90445837447696,-331.1946272159321,-508.5528878425689
69847,2227,69847,16371,69847,28167,85.95160680899669,-336.93088534483735,-517.0126386601281
69858,2222,69858,16402,69858,28155,86.99380354258798,-342.7160603137543,-525.5297379194108
69858,2227,69858,16419,69858,28180,88.03107441570334,-348.55224182314777,-534.1053081892937
69858,2234,69858,16394,69858,28146,89.06343550047183,-354.44094467859964,-542.7401845685936
69858,2224,69858,16343,69858,28119,90.09090177123457,-360.3827018585065,-551.4346893554608
69858,2235,69858,16315,69858,28090,91.1135020559508,-366.37740894675613,-560.1888078772278
69858,2235,69858,16327,69858,28115,92.13127193620922,-372.4250839740654,-569.0025873833554
69868,2226,69868,16362,69868,28098,93.14426102203214,-378.52627162939297,-577.8762692612914
69868,2229,69868,16361,69868,28097,94.15249388940414,-384.6817134030322,-586.8100736251952
69868,2237,69868,16341,69868,28073,95.15588265616846,-390.89169648576643,-595.8039762571625
69868,2236,69868,16290,69868,28038,96.15421261942186,-397.1557876843118,-604.8577288384527
69868,2240,69868,16282,69868,28034,97.14720500519186,-403.47320531213967,-613.9711386625883
69868,2244,69868,16287,69868,28038,98.13457588850268,-409.84341825310884,-623.1443670148258
69878,2238,69878,16301,69878,28040,99.11607307887157,-416.2663873644126,-632.377924452261
69878,2249,69878,16332,69878,28024,100.09148895641411,-422.74225495773624,-641.672391312993
69878,2256,69878,16284,69878,27998,101.0606917645742,-429.27075354227424,-651.0281993786663
69878,2248,69878,16239,69878,27972,102.02371988745107,-435.8509409466979,-660.4457114500816
69878,2249,69878,16237,69878,27968,102.98084197697038,-442.4816261006166,-669.9255259688243
69878,2252,69878,16243,69878,27969,103.93251412205423,-449.1619977877904,-679.4687091853228
69889,2244,69889,16263,69889,27976,104.87931095276997,-455.89177238871565,-689.0767261733758
69889,2242,69889,16277,69889,27975,105.82184685568332,-462.67078778418687,-698.7510989908994
69889,2251,69889,16233,69889,27932,106.76066907002254,-469.49844008242894,-708.4930550279943
69889,2261,69889,16186,69889,27906,107.69622990300965,-476.3735379168388,-718.3035176244081
69889,2254,69889,16174,69889,27904,108.62899268732016,-483.2948333712684,-728.1834712975093
69889,2249,69889,16224,69889,27925,109.55951766309836,-490.261660903036,-738.134234070756
69899,2252,69899,16217,69899,27903,110.48840432247377,-497.27390516895383,-748.1572847433772
69899,2254,69899,16200,69899,27885,111.41618531364394,-504.331419199393,-758.2539202862049
69899,2255,69899,16164,69899,27858,112.34328926185007,-511.43368015506803,-768.4251844899397
69899,2265,69899,16158,69899,27840,113.27007046711601,-518.5799943279426,-778.6721022291113
69899,2271,69899,16122,69899,27825,114.19689939348447,-525.7699458215125,-788.9959966979483
69899,2268,69899,16137,69899,27852,115.12430179481197,-533.003793465677,-799.3986507839302
69909,2250,69909,16160,69909,27837,116.05301694604648,-540.282597414094,-809.8821202828733
69909,2264,69909,16172,69909,27820,116.98387580076772,-547.6078649491365,-820.4483365136383
69909,2267,69909,16116,69909,27796,117.91765285465509,-554.9809724768513,-831.0989009903268
69909,2263,69909,16090,69909,27774,118.85506370534927,-562.4030416137649,-841.8352097054963
69909,2266,69909,16107,69909,27803,119.79681519348054,-569.8753826509728,-852.6586418663452
69909,2267,69909,16155,69909,27775,120.74359882108486,-577.3997343216879,-863.5704851964794
69920,2268,69920,16155,69920,27790,121.69607396995652,-584.977721047343,-874.5716119266475
69920,2267,69920,16092,69920,27757,122.65486518243118,-592.6100396122495,-885.662176614942
69920,2275,69920,16061,69920,27731,123.62055931750822,-600.2963344632373,-896.841521954602
69920,2279,69920,16069,69920,27722,124.59373898895093,-608.0358243490745,-908.1083411355442
69920,2274,69920,16075,69920,27730,125.5750583370658,-615.8278343934577,-919.4608822663093
69920,2270,69920,16101,69920,27733,126.56526802385824,-623.6716973373727,-930.8968569376661
69930,2264,69930,16100,69930,27724,127.56512062418561,-631.5661899183251,-942.4130529866112
69930,2266,69930,16056,69930,27683,128.57520698284856,-639.5089678455731,-954.0049955711892
69930,2277,69930,16031,69930,27672,129.5958408907979,-647.4964790382297,-965.6669561742656
69930,2280,69930,15995,69930,27650,130.6270831299588,-655.5244442467049,-977.3922348043385
69930,2275,69930,16060,69930,27663,131.66885428363972,-663.5883931681385,-989.1733776163178
69930,2276,69930,16042,69930,27672,132.72098655478146,-671.6836166957,-1001.0020731556244
69940,2279,69940,16055,69940,27647,133.78318423832678,-679.8045516370848,-1012.8687517534264
69940,2287,69940,16003,69940,27620,134.85500213383574,-687.9442577921436,-1024.7622505917616
69940,2296,69940,15994,69940,27598,135.93592285649157,-696.0944246983242,-1036.6698584280114
69940,2290,69940,15989,69940,27592,137.02550068046935,-704.2457281590337,-1048.5775946329563
69940,2276,69940,15998,69940,27598,138.1234241988237,-712.3880673191784,-1060.47035868302
69940,2282,69940,16013,69940,27614,139.22939055708463,-720.5104114097603,-1072.33173199702
69951,2282,69951,15991,69951,27578,140.34291269493966,-728.6003839844101,-1084.1435196288137
69951,2292,69951,15931,69951,27536,141.4632457896697,-736.6440302264762,-1095.885475545914
69951,2290,69951,15934,69951,27521,142.5894430368607,-744.6261380688387,-1107.535550045933
69951,2283,69951,15939,69951,27525,143.72041734572292,-752.530795851588,-1119.0703564068249
69951,2293,69951,15972,69951,27532,144.85491993576667,-760.3414969181712,-1130.4653070297786
69951,2286,69951,15973,69951,27538,145.9914844392651,-768.0406277434029,-1141.6942943599347
69961,2291,69961,15930,69961,27510,147.12839928566115,-775.6088238009856,-1152.7292087992323
69961,2304,69961,15891,69961,27477,148.26371448695755,-783.0248352650447,-1163.539697181092
69961,2300,69961,15873,69961,27461,149.39532132975668,-790.266058999732,-1174.0933489012698
69961,2305,69961,15920,69961,27457,150.52107265653447,-797.3091465946859,-1184.3560658162162
69961,2295,69961,15936,69961,27466,151.63882845137852,-804.1299565874654,-1194.292220305842
69961,2293,69961,15888,69961,27443,152.7463843011688,-810.7029265063679,-1203.8645095114532
69971,2302,69971,15879,69971,27412,153.84134351373177,-817.000699290852,-1213.033806412091
69971,2298,69971,15818,69971,27393,154.92104629374518,-822.994444066492,-1221.7593226229687
69971,2315,69971,15814,69971,27363,155.98260462398355,-828.6545989545862,-1229.9990396579833
69971,2306,69971,15858,69971,27394,157.02300246334,-833.9515106746319,-1237.7101043899706
69971,2311,69971,15830,69971,27372,158.03918647642462,-838.8554922681576,-1244.848906743634
69971,2303,69971,15864,69971,27363,159.02807251383845,-843.3364112062937,-1251.3709017174208
69982,2313,69982,15809,69982,27328,159.98648615512778,-847.3633390585329,-1257.230569746855
69982,2315,69982,15793,69982,27320,160.91113657662981,-850.9045895196546,-1262.3817010082644
69982,2315,69982,15795,69982,27300,161.7986643213813,-853.9281437711431,-1266.777825021371
69982,2313,69982,15797,69982,27316,162.6456922471541,-856.4020675495956,-1270.3725441945794
69982,2310,69982,15833,69982,27325,163.44880690715172,-858.2945222817714,-1273.1195947249876
69982,2312,69982,15810,69982,27284,164.20448666250707,-859.5734138169871,-1274.9726970643583
69992,2314,69992,15715,69992,27270,164.9090393729628,-860.2062342873037,-1275.8856021906827
69992,2322,69992,15721,69992,27244,165.55860239691697,-860.1607436976469,-1275.8125638601402
69992,2316,69992,15752,69992,27253,166.14920299653483,-859.406087545757,-1274.708959056819
69992,2312,69992,15785,69992,27279,166.67679427633522,-857.913206080706,-1272.5316513453154
69992,2313,69992,15772,69992,27277,167.137197977224,-855.6543682239392,-1269.2389245252482
69992,2321,69992,15732,69992,27226,167.52602711110035,-852.602725577066,-1264.7903117761969
70002,2323,70002,15710,70002,27205,167.83870392348126,-848.7325653609739,-1259.1469287558461
70002,2327,70002,15699,70002,27184,168.07056523091074,-844.0201174436875,-1252.2723888551418
70002,2330,70002,15719,70002,27208,168.2169783787548,-838.4443294012103,-1244.1337554528757
70002,2326,70002,15739,70002,27220,168.27342749422422,-831.9871934843122,-1234.7020506890838
70002,2329,70002,15761,70002,27209,168.23555196970176,-824.633595810737,-1223.9523420505523
70002,2332,70002,15717,70002,27204,168.09915553508193,-816.3710384676012,-1211.8638266097141
70012,2336,70012,15698,70012,27188,167.86024677103643,-807.1897874874495,-1198.4202172762846
70012,2330,70012,15688,70012,27190,167.51511322190493,-797.0836150661377,-1183.6103629207175
70012,2331,70012,15745,70012,27220,167.0603584063752,-786.0505899242601,-1167.428841826854
70012,2336,70012,15766,70012,27244,166.49289375050995,-774.0932502010152,-1149.8762434806404
70012,2336,70012,15765,70012,27259,165.80996245368254,-761.2182054838163,-1130.9590983894082
70012,2331,70012,15762,70012,27237,165.0092014578859,-747.4358276234827,-1110.6898100593062
70022,2322,70022,15746,70022,27255,164.08864447063303,-732.760436888685,-1089.0869511608755
70022,2327,70022,15772,70022,27296,163.04663171467502,-717.2108131279236,-1066.1757676485572
70022,2330,70022,15845,70022,27340,161.88173372564103,-700.8105194683554,-1041.9883660826476
70022,2326,70022,15864,70022,27381,160.59277627151474,-683.5875826030747,-1016.5633971498501
70022,2321,70022,15884,70022,27411,159.17889156248955,-665.5737515144945,-989.9455237346394
70022,2320,70022,15886,70022,27421,157.63950067402249,-646.8040015585282,-962.185024419992
70033,2318,70033,15899,70033,27472,155.9742575666798,-627.3165176371891,-933.3376665629734
70033,2321,70033,15943,70033,27514,154.18302555170922,-607.1528699832195,-903.4646408984182
70033,2320,70033,16014,70033,27579,152.26590847430663,-586.3579178873716,-872.6322442127189
70033,2313,70033,16051,70033,27649,150.2233022151956,-564.9791567033535,-840.9112170416684
70033,2314,70033,16061,70033,27696,148.05590781854818,-543.065814289261,-808.3758293674077
70033,2319,70033,16059,70033,27735,145.76472646988702,-520.6683409214335,-775.1029690456859
70043,2315,70043,16080,70043,27766,143.35111320169796,-497.8385157239202,-741.1715300782897
70043,2314,70043,16164,70043,27825,140.81686905602976,-474.62968835835767,-706.6621063423243
70043,2298,70043,16204,70043,27904,138.16427047316847,-451.09648646944066,-671.6566482413548
70043,2296,70043,16241,70043,27947,135.39598120718614,-427.293970971373,-636.2377902812468
70043,2296,70043,16250,70043,27989,132.51490943048108,-403.2768607184928,-600.4880351291471
70043,2295,70043,16251,70043,28013,129.5241374362487,-379.09927404955454,-564.4892144435532
70053,2299,70053,16296,70053,28072,126.42696431950853,-354.81490651134254,-528.322298686368
70053,2284,70053,16355,70053,28130,123.22698665872315,-330.4771593389386,-492.06723352165767
70053,2283,70053,16414,70053,28185,119.92811388057757,-306.1387454266508,-455.8025188836188
70053,2286,70053,16447,70053,28232,116.5345161670645,-281.8508398704126,-419.60459693424434
70053,2275,70053,16422,70053,28226,113.05060596383495,-257.66235621270005,-383.54738635737283
70053,2272,70053,16434,70053,28290,109.48104890722581,-233.61990326062067,-347.7022256229309
70064,2264,70064,16466,70064,28344,105.83072307831273,-209.7683136353702,-312.13797998081543
70064,2267,70064,16523,70064,28394,102.10465476494451,-186.15102816558147,-276.92082620391
70064,2255,70064,16580,70064,28425,98.3079912854733,-162.80984695172054,-242.11376141914286
70064,2261,70064,16601,70064,28471,94.44600059286486,-139.7842055690462,-207.77621232046636
70064,2261,70064,16585,70064,28482,90.52410356315447,-117.11056598624725,-173.96386414885035
70064,2249,70064,16581,70064,28498,86.54795498626895,-94.82245923531553,-140.72872775099302
70074,2243,70074,16621,70074,28553,82.52348403894439,-72.95107139255964,-108.11941255342344
70074,2239,70074,16667,70074,28605,78.45683132066274,-51.525675619064145,-76.18126377747262
70074,2231,70074,16717,70074,28652,74.35425916186988,-30.57343771849912,-44.95607090197245
70074,2226,70074,16717,70074,28657,70.22208559915111,-10.118822943523242,-14.481590774438928
70074,2232,70074,16683,70074,28657,66.06664586255994,9.816724952301456,15.208595886701346
70074,2220,70074,16689,70074,28692,61.8943155735667,29.21436370733568,44.08472583170055
70084,2208,70084,16742,70084,28736,57.71153878391341,48.05705858341196,72.12041044073771
70084,2211,70084,16783,70084,28771,53.524763510177976,66.3292710880495,99.29257310946593
70084,2198,70084,16821,70084,28787,49.34034324330135,84.01738795680558,125.58168474632726
70084,2192,70084,16804,70084,28802,45.16446898386131,101.11034854191621,150.97190553029372
70084,2197,70084,16784,70084,28799,41.00310731347487,117.5998011946158,175.45092512134977
70084,2193,70084,16774,70084,28826,36.8619948949283,133.4795582969923,199.00956255408755
70095,2190,70095,16845,70095,28858,32.74671956291384,148.74482781914128,221.64138323352643
70095,2185,70095,16852,70095,28883,28.66279877482515,163.39197645818206,243.34258832688647
70095,2177,70095,16875,70095,28896,24.615696551466243,177.418885231692,264.1121201015999
70095,2173,70095,16871,70095,28897,20.610788846708175,190.82529862378578,283.9516919210787
70095,2174,70095,16851,70095,28898,16.653319666944512,203.61278284553464,302.8655587788826
70095,2168,70095,16863,70095,28924,12.74840240642746,215.784311434502,320.8601112948123
70105,2158,70105,16934,70105,28964,8.90104194366306,227.3438687265359,337.94360874325423
70105,2157,70105,16953,70105,28980,5.116104479066195,238.29664989148154,354.126285664232
70105,2147,70105,16931,70105,28978,1.398245070265574,248.6497197912455,369.4206294214117
70105,2142,70105,16932,70105,28967,-2.2481668178250658,258.41231695485146,383.8413953021063
70105,2138,70105,16909,70105,28974,-5.819125921950956,267.5955150734294,397.40522924141317
70105,2141,70105,16921,70105,29001,-9.311043733700728,276.2116221799797,410.1302012577373
70115,2134,70115,16959,70115,29014,-12.720732628541981,284.2737461926042,422.03560929101616
70115,2130,70115,16974,70115,29035,-16.04536418550029,291.7958198689553,433.14208322081424
70115,2119,70115,16977,70115,29028,-19.282482750052964,298.7929835642599,443.47175166790225
70115,2134,70115,16923,70115,29016,-22.430056118822705,305.2817748905784,453.048221996541
70115,2124,70115,16926,70115,29019,-25.48645009793745,311.2797099270915,461.89627161965086
70115,2128,70115,16931,70115,29031,-28.450314859600965,316.8045104416342,470.04143198407803
70126,2120,70126,17003,70126,29047,-31.320492432154836,321.8737051042083,477.5097619282575
70126,2109,70126,16993,70126,29064,-34.096010127903696,326.5049926784702,484.3278986355175
70126,2117,70126,16966,70126,29046,-36.7761457809097,330.7168667651564,490.5232193980763
70126,2112,70126,16939,70126,29055,-39.3604737591117,334.5286677507545,496.1238583433649
70126,2116,70126,16945,70126,29025,-41.848818920624396,337.9599804158278,501.1584740303326
70126,2095,70126,16985,70126,29050,-44.24120150112411,341.03007678999325,505.6558783154479
70136,2098,70136,16996,70136,29070,-46.537896385325396,343.7579540779012,509.6447926985602
70136,2087,70136,16980,70136,29069,-48.73958652443878,346.1627747819082,513.1539457354593
70136,2103,70136,16952,70136,29050,-50.84747085323683,348.264064863684,516.21228595755
70136,2102,70136,16948,70136,29039,-52.863217403414325,350.0813799335509,518.8488965328356
70136,2100,70136,16961,70136,29037,-54.78879597867518,351.63378691985076,521.0926087115627
70136,2092,70136,16986,70136,29064,-56.62635021332463,352.9396564028308,522.971669296008
70146,2099,70146,16997,70146,29068,-58.37818585391352,354.016908684074,524.5137465515631
70146,2085,70146,16981,70146,29047,-60.04679829450852,354.8834316999196,525.7461522251649
70146,2099,70146,16957,70146,29035,-61.634884651004896,355.5572330739461,526.6958639155232
70146,2093,70146,16948,70146,29023,-63.14531803327486,356.05614764300094,527.3891991830687
70146,2094,70146,16951,70146,29035,-64.58107178652853,356.39735284325,527.8514076632168
70146,2083,70146,16998,70146,29060,-65.9451725350066,356.5971386271327,528.1065142513769
70157,2092,70157,16995,70157,29061,-67.24073252560129,356.6711883708797,528.1775359935452
70157,2092,70157,16952,70157,29045,-68.47097010671234,356.63504037897417,528.0868290595263
70157,2089,70157,16947,70157,29035,-69.6391514595345,356.5040798633663,527.8561785234547
70157,2086,70157,16936,70157,29026,-70.74853037973477,356.29302851713794,527.5065695180344
70157,2097,70157,16949,70157,29043,-71.802330526686,356.0154735470138,527.0579102398833
70157,2089,70157,16996,70157,29053,-72.80369718237782,355.68381615379906,526.5289813574263
70167,2083,70167,16992,70167,29045,-73.75563663020205,355.30971390048137,525.9376314173267
70167,2075,70167,16972,70167,29027,-74.66106245174092,354.9046745552538,525.3009363462559
70167,2086,70167,16929,70167,29015,-75.52292233578919,354.4801797472926,524.635069507194
70167,2089,70167,16927,70167,29007,-76.34423531262652,354.0471680713367,523.9549485444716
70167,2090,70167,16954,70167,29037,-77.1279806305545,353.6153973712677,523.2739478917566
70167,2085,70167,16973,70167,29043,-77.87696364882376,353.1933051137511,522.6039476435249
70177,2082,70177,16972,70177,29040,-78.59377805160901,352.78840094293844,521.9556758610919
70177,2079,70177,16951,70177,29040,-79.28085822215732,352.4076771177897,521.3390079907416
70177,2086,70177,16923,70177,29023,-79.94054074460652,352.0575933928661,520.7630287688352
70177,2082,70177,16933,70177,29025,-80.57506412448558,351.74366040259156,520.2359089120474
70177,2082,70177,16949,70177,29044,-81.18652486601891,351.4700544207325,519.7647683177275
70177,2072,70177,17000,70177,29045,-81.77687483046142,351.2397146103857,519.3557380035516
70188,2082,70188,16971,70188,29035,-82.34798004507965,351.05492667674025,519.0141780594632
70188,2077,70188,16966,70188,29031,-82.90165995093886,350.9178565382598,518.7447741651266
70188,2086,70188,16912,70188,29019,-83.43965036518196,350.8305017012101,518.551419409708
70188,2078,70188,16959,70188,29040,-83.96352855027305,350.7941634787445,518.4370431628709
70188,2076,70188,16977,70188,29040,-84.47467521266273,350.80911389309824,518.4035912702072
70188,2068,70188,17020,70188,29040,-84.97432397342271,350.8749550567676,518.4521817652341
70198,2075,70198,16961,70198,29035,-85.4636658865112,350.9913391322466,518.5832437830235
70198,2090,70198,16921,70198,29015,-85.94387539901146,351.1581726095211,518.7964797667395
70198,2080,70198,16927,70198,29008,-86.41597676665069,351.37497099973336,519.0906266716166
70198,2071,70198,16947,70198,29039,-86.88070469058101,351.6400682087658,519.4631740309842
70198,2074,70198,16964,70198,29043,-87.33854127821172,351.950437485723,519.9103586771992
70198,2066,70198,17008,70198,29063,-87.78985240337659,352.302121980856,520.4275070306122
70208,2074,70208,16971,70208,29037,-88.23497774177,352.69088847817204,521.009417472191
70208,2080,70208,16931,70208,29019,-88.6742299472663,353.11254992690215,521.6504368938116
70208,2076,70208,16944,70208,29043,-89.10780093481151,353.5625987096213,522.3442012399627
70208,2078,70208,16964,70208,29036,-89.53565418609384,354.035644573524,523.0834085442701
70208,2073,70208,16998,70208,29080,-89.95748806943479,354.5253919856025,523.8599241806446
70208,2069,70208,17011,70208,29067,-90.3727661286348,355.02519553828165,524.665161902277
70219,2065,70219,16970,70219,29061,-90.78079613710005,355.5286694626441,525.4904697513349
70219,2065,70219,16960,70219,29041,-91.18083364924738,356.02979493734813,526.3272013681384
70219,2073,70219,16965,70219,29037,-91.57214328808331,356.52251123372025,527.1664325066296
70219,2069,70219,17027,70219,29084,-91.95396922353768,357.00044050857707,527.998681238187
70219,2058,70219,17023,70219,29105,-92.32548771951778,357.45726451473365,528.814083424939
70219,2064,70219,17023,70219,29092,-92.68585510264083,357.8874518990991,529.6030096028692
70229,2064,70229,16963,70229,29079,-93.03429653889899,358.2865875121944,530.3565367118704
70229,2070,70229,16962,70229,29068,-93.37010612746133,358.6509659455486,531.0664046411607
70229,2062,70229,16989,70229,29078,-93.69257655035392,358.9768906151129,531.7247047732984
70229,2071,70229,17013,70229,29093,-94.00094936899606,359.2604333644475,532.3237055416391
70229,2053,70229,17013,70229,29118,-94.29441634715857,359.4978186324515,532.8560115612449
70229,2057,70229,16995,70229,29098,-94.5721900385384,359.68588793150775,533.3149493263992
70240,2067,70240,16958,70240,29065,-94.8336031902154,359.8221226364492,533.6947688979008
70240,2075,70240,16959,70240,29077,-95.07808116103445,359.90417257107936,533.9903784761293
70240,2063,70240,17020,70240,29096,-95.30497523503976,359.92939033721893,534.1969581053648
70240,2055,70240,17013,70240,29119,-95.51348148264202,359.8949866767348,534.3099909870458
70240,2065,70240,17007,70240,29117,-95.70273828247036,359.7986369598212,534.3257024407527
70240,2054,70240,16990,70240,29073,-95.871938608687,359.638812371459,534.2414108462062
70250,2073,70250,16972,70250,29059,-96.02034175903708,359.4146051648875,534.0553454696887
70250,2066,70250,16983,70250,29069,-96.14719669207312,359.12534349597206,533.7660547120851
70250,2052,70250,16979,70250,29090,-96.25165997088988,358.7703135966513,533.3720079104313
70250,2048,70250,17010,70250,29115,-96.33286618813781,358.34875525815494,532.8717469198467
70250,2052,70250,17004,70250,29110,-96.39013673283063,357.86011850600767,532.2644013434448
70250,2058,70250,16979,70250,29079,-96.42310836388424,357.3043467385954,531.5500979515532
70260,2067,70260,16976,70260,29080,-96.43167637796299,356.68185647970444,530.7299182597094
70260,2061,70260,16976,70260,29072,-96.41583535640052,355.99324410370565,529.8055499701493
70260,2056,70260,17024,70260,29098,-96.3755712988573,355.23915462165587,528.7790552026213
70260,2057,70260,17003,70260,29115,-96.31088811770138,354.42057761715586,527.6529962856688
70260,2058,70260,17014,70260,29087,-96.22188956895977,353.5393031781884,526.4308057134411
70260,2060,70260,16974,70260,29065,-96.10880936232077,352.59809257169496,525.1169549655381
70271,2071,70271,16958,70271,29062,-95.97196516213623,351.60041384681557,523.7166630432608
70271,2058,70271,16977,70271,29058,-95.81166480466003,350.54994465281084,522.2354501625501
70271,2057,70271,16983,70271,29065,-95.6281659081353,349.4502772643556,520.6788966621826
70271,2051,70271,16991,70271,29073,-95.42176576735365,348.3050402131922,519.0526494512858
70271,2055,70271,16980,70271,29046,-95.19294259865774,347.118173327134,517.3625321335471
70271,2064,70271,16936,70271,29033,-94.94241860666845,345.8939735752307,515.6145016142599
70281,2068,70281,16938,70281,29045,-94.67108819272607,344.6367274344811,513.8143761262762
70281,2065,70281,16960,70281,29040,-94.37986997041348,343.35020689289604,511.96762185342516
70281,2069,70281,16971,70281,29059,-94.06960196026992,342.03755916920585,510.0793983139521
70281,2048,70281,16991,70281,29038,-93.7410467180396,340.7016750250157,508.1547429287622
70281,2060,70281,16932,70281,29037,-93.3950144642263,339.3455923711273,506.19867806914
70281,2077,70281,16930,70281,29010,-93.0324706240116,337.9724372374106,504.21610280815526
70291,2064,70291,16931,70291,28994,-92.65445168755227,336.5849242702405,502.2114651683428
70291,2068,70291,16931,70291,29030,-92.26191280680516,335.1849509224768,500.1883948228834
70291,2061,70291,16984,70291,29034,-91.85571756309545,333.77362928483547,498.14965633214615
70291,2055,70291,16983,70291,29040,-91.436741542968,332.35176561567386,496.0975158900144
70291,2066,70291,16954,70291,29023,-91.00599053136504,330.92048801789576,494.03413293433175
70291,2076,70291,16918,70291,29025,-90.56462603572801,329.48140499762866,491.96167501068055
70302,2069,70302,16942,70302,29018,-90.11384144449494,328.03615927798836,489.8822408140229
70302,2066,70302,16936,70302,28993,-89.65474056226408,326.5859859581687,487.7977228806536
70302,2073,70302,16964,70302,29035,-89.18834395467955,325.13171209219104,485.709658434374
70302,2072,70302,16964,70302,29019,-88.71562188215542,323.67408229668274,483.61925248562125
70302,2070,70302,16898,70302,29009,-88.23747486454843,322.2140157338579,481.52759337110285
70302,2079,70302,16918,70302,29000,-87.75470839096404,320.7523775589689,479.43572070992855
70312,2071,70312,16918,70312,28992,-87.26800984087302,319.289446939807,477.3444425315572
70312,2065,70312,16966,70312,29014,-86.77794985167107,317.8247737357675,475.25416462690947
70312,2074,70312,16975,70312,29034,-86.2850566793775,316.3576646507738,473.1649911338133
70312,2073,70312,16958,70312,29025,-85.7898805610582,314.8878961501469,471.07712467433345
70312,2072,70312,16915,70312,28984,-85.29297520760035,313.4160389468144,468.99118760216066
70312,2078,70312,16905,70312,28983,-84.79486116790537,311.9431046695676,466.90805758442195
70322,2077,70322,16912,70322,28979,-84.29599735540079,310.46988908604345,464.8283935629729
70322,2072,70322,16941,70322,29017,-83.79675262573971,308.996635159082,462.75239038007277
70322,2073,70322,16957,70322,29006,-83.29742596023429,307.5232688794115,460.6799968009182
70322,2083,70322,16917,70322,28991,-82.79829095840135,306.04988811802417,458.6112953918704
70322,2076,70322,16896,70322,28977,-82.29957558631928,304.57689131084896,456.54659094070837
70322,2085,70322,16906,70322,28959,-81.80139740937396,303.10458205071535,454.4861386091505
70333,2074,70333,16936,70333,28984,-81.30373120383962,301.63281621717005,452.4298072732405
70333,2072,70333,16954,70333,28994,-80.80644537072835,300.16120363720245,450.37701196009084
70333,2071,70333,16941,70333,29005,-80.30941119958203,298.6896821450668,448.3270185954421
70333,2088,70333,16897,70333,28981,-79.81258784700367,297.2188569337383,446.27934382896655
70333,2091,70333,16881,70333,28967,-79.3159454209176,295.74971259615546,444.23386949855285
70333,2082,70333,16880,70333,28972,-78.81928081316954,294.28293056736,442.1906292498787
70343,2074,70343,16921,70343,28969,-78.32215091550101,292.81843929473365,440.1495728978131
70343,2071,70343,16954,70343,28972,-77.82401024584293,291.35563424161995,438.11051899780387
70343,2080,70343,16948,70343,28967,-77.32439717190945,289.894142253527,436.0732167052033
70343,2088,70343,16882,70343,28962,-76.82298054235464,288.43442199794094,434.03738943431375
70343,2083,70343,16858,70343,28949,-76.31945257378685,286.9775103973788,432.00269758975156
70343,2080,70343,16878,70343,28944,-75.81342787865958,285.5241376523182,429.9686001428259
70353,2087,70353,16925,70353,28942,-75.30444780712631,284.0741984019012,427.93417375349503
70353,2078,70353,16926,70353,28974,-74.79201928564669,282.62710112286425,425.89805742581876
70353,2093,70353,16896,70353,28970,-74.27562340806959,281.1824513881462,423.8586846239097
70353,2076,70353,16876,70353,28931,-73.7547039135296,279.74025344084987,421.81460658949015
70353,2085,70353,16856,70353,28910,-73.22868008961973,278.3004985522929,419.76441312284066
70353,2087,70353,16858,70353,28942,-72.69699018973513,276.86257526674126,417.70625897014287
70364,2078,70364,16909,70364,28984,-72.15910871899415,275.424975089287,415.63770214284807
70364,2079,70364,16909,70364,28943,-71.61457200957261,273.98557898334,413.5561739764782
70364,2085,70364,16894,70364,28942,-71.06305055240703,272.542273782764,411.4594455573538
70364,2088,70364,16847,70364,28916,-70.50436893761926,271.09320444683664,409.3455482402174
70364,2084,70364,16867,70364,28917,-69.93844508213186,269.63640723561787,407.21238105594426
70364,2093,70364,16887,70364,28931,-69.36523577035206,268.16937229527457,405.05741589099165
70374,2091,70374,16901,70374,28948,-68.78469862994382,266.6891185503117,402.8777210948077
70374,2083,70374,16919,70374,28937,-68.1967604261537,265.19270610558993,400.67027931211203
70374,2095,70374,16867,70374,28917,-67.60133619799325,263.6777025811223,398.43225762355337
70374,2100,70374,16845,70374,28912,-66.99833650350638,262.1421440863569,396.160946769474
70374,2091,70374,16851,70374,28906,-66.38758789967048,260.58396662877374,393.8534909713297
70374,2090,70374,16888,70374,28927,-65.76878605957133,259.0005333536022,391.50671806911873
70384,2093,70384,16906,70384,28928,-65.14156248128782,257.38881623104214,389.11724006090253
70384,2093,70384,16900,70384,28932,-64.50555551723393,255.74604002136954,386.68174926798804
70384,2090,70384,16853,70384,28895,-63.86042704728048,254.07012685426255,384.1972309593257
70384,2096,70384,16838,70384,28884,-63.20587337590408,252.3594922425965,381.66082743324216
70384,2099,70384,16852,70384,28906,-62.541622269257005,250.61242937430865,379.06946698327977
70384,2093,70384,16889,70384,28908,-61.86739388123783,248.8267839683288,376.41971115578315
70395,2095,70395,16903,70395,28928,-61.182888312719335,247.00029818725972,373.7080065814487
70395,2092,70395,16862,70395,28891,-60.48783421609243,245.13123714339136,370.93104602688607
70395,2097,70395,16841,70395,28873,-59.78204381396898,243.21857762223235,368.08583201061174
70395,2102,70395,16820,70395,28862,-59.06541767615971,241.26155265862593,365.16932369046765
70395,2111,70395,16838,70395,28895,-58.337868905301185,239.25902757579954,362.17803746244556
70395,2105,70395,16854,70395,28911,-57.59919101991773,237.2092397559023,359.1080951589016
70405,2100,70405,16882,70405,28900,-56.84898084346082,235.11006205516344,355.9557118627622
70405,2095,70405,16852,70405,28888,-56.08670342641388,232.9595389768102,352.7176296712733
70405,2103,70405,16823,70405,28853,-55.31183223114026,230.75616545126204,349.3911231390239
70405,2106,70405,16801,70405,28852,-54.52391686409732,228.4985784183727,345.9736250739933
70405,2103,70405,16847,70405,28857,-53.72254396830023,226.18501136561227,342.46230062014195
70405,2107,70405,16850,70405,28892,-52.90728842890392,223.81318981533812,338.85395826698925
70415,2100,70415,16860,70415,28872,-52.07771764076716,221.3807791232752,335.1453970401912
70415,2102,70415,16826,70415,28852,-51.23344075677132,218.88584432527236,331.3337933242957
70415,2116,70415,16790,70415,28854,-50.374150313694756,216.32682629272875,327.41672267363754
70415,2112,70415,16794,70415,28831,-49.4995692282733,213.70202009331143,323.3919280055029
70415,2107,70415,16849,70415,28844,-48.60934971929767,211.00911618116464,319.257117575444
70415,2102,70415,16844,70415,28866,-47.70308403881141,208.245415637122,315.0099506592274
70426,2107,70426,16842,70426,28843,-46.78042904705993,205.40850704080665,310.6482879158262
70426,2110,70426,16799,70426,28824,-45.84119893561403,202.49665223297274,306.1704393735023
70426,2112,70426,16775,70426,28809,-44.88535730222776,199.5085349859538,301.5750559553925
70426,2119,70426,16790,70426,28794,-43.9129510812197,196.4426498894601,296.8607597142926
70426,2116,70426,16826,70426,28824,-42.92403287664853,193.296956827945,292.02585887874153
70426,2114,70426,16824,70426,28830,-41.918614195671864,190.0691754883606,287.068422982386
70436,2113,70436,16806,70436,28819,-40.896692078746995,186.75735164508222,281.98668777380897
70436,2116,70436,16784,70436,28765,-39.858318770196234,183.36007603273646,276.77931236785594
70436,2126,70436,16753,70436,28777,-38.8036253849941,179.8761959935749,271.4451163291874
70436,2115,70436,16759,70436,28767,-37.73277326142691,176.30427695932815,265.98260231395125
70436,2125,70436,16804,70436,28796,-36.64591394413509,172.64227116988795,260.3898026196285
70436,2118,70436,16798,70436,28794,-35.543204337995356,168.88777008886515,254.6645630206067
70446,2133,70446,16790,70446,28764,-34.42481631642963,165.03859773309082,248.80495229716774
70446,2127,70446,16738,70446,28760,-33.29089018616745,161.0930731143546,242.80939682687324
70446,2122,70446,16732,70446,28739,-32.14148461977811,157.04965449298075,236.67648363402066
70446,2126,70446,16766,70446,28747,-30.976612095028745,152.90638643309956,230.4047152687411
70446,2120,70446,16773,70446,28743,-29.796335553983575,148.66081753984784,223.9924270296064
70446,2135,70446,16783,70446,28749,-28.600829141964162,144.31047798538614,217.43789895781768
70457,2126,70457,16761,70457,28740,-27.390364572812363,139.8534089451347,210.73957765845378
70457,2134,70457,16719,70457,28699,-26.165265612647538,135.2882947528622,203.89619955841576
70457,2137,70457,16716,70457,28712,-24.925877219059313,130.61409664985953,196.9066436335224
70457,2136,70457,16742,70457,28716,-23.672529088550775,125.82956863238293,189.76971804104227
70457,2138,70457,16763,70457,28714,-22.40549764889071,120.9332483830974,182.48423282062146
70457,2135,70457,16755,70457,28704,-21.125008983904458,115.92397998993829,175.0492757282563
70467,2142,70467,16720,70467,28684,-19.83126851561878,110.80140387734394,167.46437149096755
70467,2129,70467,16698,70467,28666,-18.52449517503573,105.56592424237814,159.72940510965248
70467,2148,70467,16709,70467,28659,-17.20496612527677,100.2182794767776,151.84439017374177
70467,2139,70467,16712,70467,28666,-15.873031555029023,94.75924780191043,143.8092865879646
70467,2151,70467,16735,70467,28684,-14.529067153663107,89.18978355750887,135.6240882963252
70467,2141,70467,16699,70467,28642,-13.173422944650568,83.51139591153408,127.28914659908756
70478,2147,70478,16654,70478,28629,-11.80642512947593,77.72628021712255,118.80534050544914
70478,2154,70478,16644,70478,28606,-10.428400574937527,71.83688019605442,110.17385530967665
70478,2144,70478,16656,70478,28622,-9.039669292709448,65.84523503197688,101.39585268313292
70478,2143,70478,16685,70478,28622,-7.640559540513735,59.752775078763406,92.47242079897526
70478,2152,70478,16683,70478,28631,-6.231496126689979,53.56072801665532,83.40486921003469
70478,2156,70478,16656,70478,28588,-4.813044531134729,47.27068209307416,74.1950972625209
70488,2164,70488,16631,70488,28570,-3.385827856114382,40.884759998396035,64.84565553967553
70488,2162,70488,16614,70488,28541,-1.9503934905370244,34.405308207654826,55.359401110218954
70488,2159,70488,16630,70488,28561,-0.5071347020404033,27.834480156154058,45.73906827229786
70488,2149,70488,16651,70488,28574,0.943666077521101,21.174162441032024,35.98718980228591
70488,2159,70488,16645,70488,28566,2.401692523852816,14.426359330570307,26.106479923672225
70488,2164,70488,16631,70488,28522,3.8664878964595246,7.593689459805091,16.100268094860667
70498,2167,70498,16578,70498,28515,5.337487916664401,0.6795210920818988,5.972507949466888
70498,2175,70498,16582,70498,28503,6.814134374451257,-6.312395800441209,-4.272541582304882
70498,2159,70498,16580,70498,28512,8.295956153368621,-13.378438498405984,-14.630513833147575
70498,2168,70498,16611,70498,28502,9.782540789709834,-20.51523953756478,-25.096830665294704
70498,2169,70498,16603,70498,28495,11.273437055941905,-27.71931446932564,-35.66645341386479
70498,2166,70498,16569,70498,28467,12.768103934583337,-34.9865881650085,-46.333719362427416
70509,2173,70509,16536,70509,28429,14.265903974454332,-42.31234594795896,-57.09243998014688
70509,2175,70509,16549,70509,28435,15.766104620439876,-49.69164611380339,-67.93625705600496
70509,2177,70509,16566,70509,28436,17.26791182201641,-57.11962734867345,-78.8589351571012
70509,2177,70509,16530,70509,28430,18.770511659458613,-64.5913752665551,-89.85429515277093
70509,2175,70509,16551,70509,28409,20.273071444058168,-72.10167808980015,-100.91595697604961
70509,2183,70509,16497,70509,28391,21.774710437400266,-79.64498935804227,-112.03723181006913
70519,2191,70519,16461,70519,28365,23.274511046923344,-87.21568890250177,-123.21125295195287
70519,2186,70519,16497,70519,28378,24.771604929234293,-94.80860785874864,-134.43118974458423
70519,2186,70519,16507,70519,28372,26.265240939325913,-102.41929577685701,-145.69028576246995
70519,2179,70519,16524,70519,28375,27.754741862534658,-110.04361513359501,-156.98161624073947
70519,2184,70519,16492,70519,28335,29.239384357399366,-117.67707420990263,-168.2977896022863
70519,2197,70519,16440,70519,28297,30.71832153195237,-125.31457641986137,-179.63095757989578
70529,2204,70529,16428,70529,28273,32.19065745827833,-132.9508412279846,-190.97326773810238
70529,2193,70529,16438,70529,28297,33.65561698803421,-140.5810819547683,-202.3174105657621
70529,2197,70529,16472,70529,28287,35.11261661984045,-148.20123233503722,-213.65674736528337
70529,2195,70529,16475,70529,28295,36.56119394490116,-155.80749127905085,-224.98497667646456
70529,2195,70529,16419,70529,28251,38.00091711324637,-163.3956878546191,-236.29575633940289
70529,2206,70529,16392,70529,28230,39.43134516682106,-170.96120325230754,-247.58265984014952
70540,2210,70540,16386,70540,28205,40.85206960976166,-178.49953486636434,-258.83950964418665
70540,2206,70540,16405,70540,28231,42.26282103999095,-186.00682873935096,-270.0607457155778
70540,2211,70540,16419,70540,28225,43.663537644935886,-193.479850298067,-281.24141455778243
70540,2204,70540,16427,70540,28216,45.054351047655416,-200.91547647870192,-292.37679109969037
70540,2208,70540,16365,70540,28176,46.43552795613428,-208.31019504357147,-303.46207273803105
70540,2208,70540,16346,70540,28173,47.80740403923359,-215.66014748082762,-314.4924431795369
70550,2208,70550,16316,70550,28161,49.17034037743788,-222.96175607493905,-325.46332208141325
70550,2203,70550,16360,70550,28164,50.524686288748555,-230.21234838940063,-336.37046673192964
70550,2206,70550,16395,70550,28148,51.87070804472603,-237.41012965940405,-347.20986520783146
70550,2216,70550,16338,70550,28128,53.208527988127145,-244.55351937169212,-357.97760935290046
70550,2224,70550,16325,70550,28104,54.53817320611198,-251.64067777208157,-368.669937938884
70550,2222,70550,16285,70550,28077,55.85972768329668,-258.6697728074235,-379.28349263324094
70560,2226,70560,16327,70560,28088,57.17346448555064,-265.6395302009631,-389.8156432094162
70560,2223,70560,16350,70560,28094,58.479889163891286,-272.5493179418797,-400.26459473816533
70560,2213,70560,16338,70560,28071,59.77970044018011,-279.3985911910528,-410.629167564255
70560,2222,70560,16296,70560,28068,61.073676253823905,-286.1863047440633,-420.90853344958896
70560,2227,70560,16242,70560,28023,62.36257621547368,-292.9110074464737,-431.1021932682547
70560,2225,70560,16228,70560,28017,63.647157581992914,-299.5716408549549,-441.210220565948
70571,2224,70571,16260,70571,28022,64.92822782723604,-306.16838245161364,-451.23357672128805
70571,2224,70571,16282,70571,28027,66.20662855080073,-312.70281097063156,-461.17416581498924
70571,2220,70571,16292,70571,28009,67.48316688861696,-319.1773209759402,-471.03457453568797
70571,2237,70571,16257,70571,28003,68.75856320524386,-325.5943957835314,-480.81780871601416
70571,2226,70571,16201,70571,27982,70.03347373010007,-331.9564226748226,-490.5272227193534
70571,2232,70571,16224,70571,27971,71.30854561625463,-338.2661838885787,-500.1665930130258
70581,2233,70581,16247,70581,27991,72.58442142791523,-344.5273534607819,-509.7401820171374
70581,2236,70581,16267,70581,28007,73.86172946232914,-350.74430366083203,-519.2525371200488
70581,2225,70581,16243,70581,27973,75.14108214628524,-356.9214293501053,-528.7079984179832
70581,2236,70581,16218,70581,27954,76.42302379958537,-363.06270854732503,-538.1103602549556
70581,2238,70581,16180,70581,27936,77.70797429176562,-369.17185726141383,-547.4629879602988
70581,2238,70581,16185,70581,27952,78.99625357097017,-375.25287811427495,-556.7690901515076
70591,2228,70591,16238,70591,27928,80.28811015034194,-381.31041979807355,-566.0317660333507
70591,2231,70591,16277,70591,27933,81.5836422374945,-387.3493623817005,-575.2538680631053
70591,2242,70591,16211,70591,27934,82.88268435369282,-393.3738246221321,-584.4378478516942
70591,2243,70591,16181,70591,27909,84.18481121920139,-399.3866434410483,-593.5855912823696
70591,2242,70591,16160,70591,27877,85.48943867313592,-405.3898354152954,-602.6983743113892
70591,2255,70591,16191,70591,27876,86.79590628891879,-411.3853217674382,-611.7771033106682
70602,2250,70602,16224,70602,27895,88.10354777407298,-417.375040516079,-620.8225687313502
70602,2251,70602,16215,70602,27888,89.41176131688536,-423.3603506080943,-629.8353235040956
70602,2253,70602,16197,70602,27892,90.72002121301158,-429.3413310434625,-638.8152711483384
70602,2256,70602,16149,70602,27827,92.0278550758061,-435.31660230820853,-647.7613966520302
70602,2253,70602,16129,70602,27836,93.33484128779295,-441.2837793959866,-656.6719436851024
70602,2256,70602,16151,70602,27844,94.64060242421323,-447.2401355254396,-665.5447973561395
70612,2259,70612,16179,70612,27852,95.94478454390872,-453.182835106024,-674.3775140210256
70612,2254,70612,16176,70612,27832,97.24704664456878,-459.10850533471654,-683.166961785008
70612,2258,70612,16133,70612,27820,98.54704005695189,-465.0126706615903,-691.9090311639179
70612,2255,70612,16110,70612,27789,99.84436159984777,-470.8897140173784,-700.5986629025198
70612,2265,70612,16100,70612,27788,101.13852098189982,-476.73337506710385,-709.2300999922991
70612,2264,70612,16111,70612,27801,102.4289629379428,-482.53724533482824,-717.7970928721518
70622,2264,70622,16139,70622,27795,103.7151218546316,-488.29482125057996,-726.2928050321673
70622,2259,70622,16114,70622,27765,104.99643200173253,-493.99912746827573,-734.7095487414008
70622,2274,70622,16075,70622,27738,106.27228731609394,-499.6423963600607,-743.0387680079343
70622,2267,70622,16047,70622,27740,107.5420438476077,-505.216303772759,-751.271358063349
70622,2270,70622,16040,70622,27729,108.80506893413212,-510.7126398718254,-759.3979755900423
70622,2272,70622,16096,70622,27727,110.06075415356362,-516.1237717936528,-767.4091113024409
70633,2266,70633,16107,70633,27744,111.30848802589965,-521.442374225321,-775.2949717284798
70633,2268,70633,16082,70633,27734,112.54760467501856,-526.6606426756136,-783.0452028801084
70633,2277,70633,16026,70633,27715,113.77732668410076,-531.7698578557713,-790.6485775562838
70633,2270,70633,16038,70633,27691,114.99676287822112,-536.7607405731012,-798.092925889539
70633,2271,70633,16050,70633,27697,116.20492665631187,-541.6240186346645,-805.3653398558528
70633,2272,70633,16079,70633,27707,117.40069800027506,-546.3504613291439,-812.4523202508939
70643,2278,70643,16076,70643,27730,118.58277776261129,-550.9303575019044,-819.3395650158828
70643,2288,70643,16061,70643,27685,119.74972331245847,-555.3529373848543,-826.0115147042222
70643,2284,70643,16004,70643,27665,120.9000655814345,-559.6062322882634,-832.4511533898067
70643,2289,70643,16004,70643,27643,122.03242053479046,-563.6775344013114,-838.6403306285958
70643,2289,70643,16023,70643,27670,123.14553642614936,-567.5540341271001,-844.5602286097787
70643,2284,70643,16054,70643,27670,124.2382950931144,-571.2229574122473,-850.1914549842328
70653,2283,70653,16040,70653,27665,125.30966531045149,-574.6710962267841,-855.5137437640913
70653,2289,70653,16008,70653,27643,126.35862037992482,-577.8843316313619,-860.5056757371411
70653,2285,70653,16002,70653,27627,127.38409082100617,-580.8476679345703,-865.1447145167563
70653,2292,70653,15981,70653,27619,128.38496636228012,-583.5456529268988,-869.4074901135383
70653,2281,70653,15998,70653,27632,129.36009465172015,-585.9627718339771,-873.2700616003693
70653,2287,70653,16040,70653,27656,130.30823624761967,-588.0834997847503,-876.7078884462138
70664,2283,70664,16047,70664,27649,131.22798807028866,-589.8918392569769,-879.6954566533918
70664,2286,70664,16014,70664,27615,132.11772392463462,-591.3706506124248,-882.2059045274902
70664,2294,70664,15962,70664,27563,132.9755824954118,-592.5015007357197,-884.2111629317917
70664,2279,70664,15990,70664,27605,133.7994887019081,-593.2652327038475,-885.6826230347664
70664,2294,70664,16015,70664,27606,134.5871477607402,-593.6425305637058,-886.5916423648126
70664,2290,70664,16024,70664,27621,135.33602011867143,-593.6138160533669,-886.9094307084792
70674,2288,70674,15989,70674,27600,136.04333601738875,-593.1588037096192,-886.606687118029
70674,2300,70674,15970,70674,27591,136.70612144020703,-592.25644960634,-885.6534948909533
70674,2298,70674,15948,70674,27578,137.32124160087702,-590.8854603241773,-884.0195543950099
70674,2297,70674,15972,70674,27594,137.88548230693343,-589.0249418935161,-881.6745280476161
70674,2299,70674,16016,70674,27608,138.39559442053968,-586.65464703623,-878.5882009392925
70674,2293,70674,16001,70674,27590,138.84827521183308,-583.7546291260365,-874.7304014157813
70684,2299,70684,15999,70684,27596,139.24012718412501,-580.3047548134377,-870.0709537731923
70684,2292,70684,15965,70684,27555,139.56761876278722,-576.2846547471661,-864.5799028393704
70684,2299,70684,15939,70684,27568,139.82705707674492,-571.6742142289332,-858.2280073659701
70684,2302,70684,15939,70684,27561,140.01459116047238,-566.4543676787249,-850.9873048686043
70684,2291,70684,15998,70684,27574,140.12624569576366,-560.6077179302763,-842.8315019592982
70684,2292,70684,15991,70684,27586,140.15790649274228,-554.1185155111579,-833.736134404947
70695,2299,70695,15987,70695,27581,140.10524367288724,-546.9722433380034,-823.6786090624928
70695,2309,70695,15960,70695,27567,139.96371637120774,-539.1555156385704,-812.6383227559909
70695,2304,70695,15935,70695,27567,139.72871576110418,-530.6565586998853,-800.5970308381565
70695,2295,70695,15998,70695,27564,139.39569072120355,-521.4659075765769,-787.53938919489
70695,2313,70695,16010,70695,27600,138.96015308221007,-511.576671542992,-773.453411238897
70695,2308,70695,15999,70695,27607,138.41769414147308,-500.9842431203108,-758.3306420568583
70705,2301,70705,15977,70705,27602,137.76407937224297,-489.6861409880088,-742.1661472311849
70705,2305,70705,15979,70705,27590,136.99528385669254,-477.6824301210138,-724.958688969763
70705,2310,70705,16004,70705,27616,136.10746655524093,-464.9763468632763,-706.7112171916915
70705,2309,70705,16058,70705,27653,135.09701508329493,-451.5745460975452,-687.4313052613492
70705,2302,70705,16063,70705,27675,133.9606307632024,-437.486784220394,-667.1311801653367
70705,2296,70705,16068,70705,27696,132.6953285970377,-422.7254343564743,-645.8274824724954
70716,2307,70716,16047,70716,27706,131.29836440893723,-407.30539002085095,-623.541105783341
70716,2299,70716,16062,70716,27726,129.7672167477502,-391.2444661087447,-600.2972486948362
70716,2304,70716,16121,70716,27760,128.09964792325323,-374.56385555507455,-576.1255612260092
70716,2311,70716,16137,70716,27793,126.29378759251654,-357.2881108676799,-551.0601804896065
70716,2294,70716,16156,70716,27849,124.3482268249451,-339.4447146051977,-525.1395291772436
70716,2295,70716,16184,70716,27864,122.26204985132132,-321.06371965128733,-498.40591825117457
70726,2291,70726,16174,70726,27873,120.03475699640737,-302.1776344616624,-470.9052217551051
70726,2293,70726,16202,70726,27915,117.6661921529945,-282.8215098132247,-442.68687331594913
70726,2290,70726,16240,70726,27979,115.15654969137672,-263.033096482593,-413.8039339331424
70726,2278,70726,16327,70726,28011,112.5063960502838,-242.85266595039232,-384.3128004260734
70726,2283,70726,16353,70726,28089,109.71663517259907,-222.32221971021815,-354.27257913185144
70726,2281,70726,16343,70726,28109,106.78846431284339,-201.4845250328937,-323.7443679028149
70736,2278,70736,16357,70736,28126,103.7233991118723,-180.38272865754954,-292.7906873432877
70736,2275,70736,16367,70736,28181,100.52332944881923,-159.06062595357628,-261.4752718027189
70736,2268,70736,16437,70736,28219,97.19053721396207,-137.56297299184368,-229.8630137073653
70736,2270,70736,16506,70736,28290,93.72768201169609,-115.93524917885608,-198.01967061402314
70736,2264,70736,16519,70736,28339,90.13779721727948,-94.22280222447898,-166.0112640806471
70736,2260,70736,16514,70736,28369,86.42430641936258,-72.47002156769264,-133.9033625071831
70747,2254,70747,16508,70747,28378,82.59102372269663,-50.72022888639458,-101.76059996579215
70747,2255,70747,16555,70747,28412,78.64213375229173,-29.016144618353593,-69.64665960453254
70747,2245,70747,16608,70747,28502,74.58218563833923,-7.4001843583062055,-37.62439573666819
70747,2243,70747,16665,70747,28550,70.41609072750474,14.085901947436412,-5.7554915088958865
70747,2245,70747,16650,70747,28565,66.14911577804145,35.4017802258403,25.900319528394448
70747,2239,70747,16676,70747,28580,61.78691802449862,56.508991274935795,57.28576366385295
70757,2223,70757,16657,70757,28617,57.335589561183895,77.37082639803862,88.34596138300645
70757,2220,70757,16726,70757,28647,52.80160158000855,97.95194673972293,119.02818232164105
70757,2214,70757,16775,70757,28708,48.19167255031104,118.21832225199245,149.2818172206325
70757,2211,70757,16786,70757,28744,43.51268155495273,138.13772821095955,179.0586556121272
70757,2205,70757,16802,70757,28774,38.771650850485926,157.68033290432845,208.31332719110458
70757,2198,70757,16781,70757,28787,33.97574278844416,176.81881695950602,237.00360892086167
70767,2198,70767,16788,70767,28800,29.13224658547682,195.5279746856612,265.09039899271215
70767,2185,70767,16843,70767,28845,24.248566852343707,213.78416663658777,292.53746829017575
70767,2179,70767,16926,70767,28886,19.332193408384647,231.5652819247095,319.31133263634445
70767,2185,70767,16919,70767,28932,14.390650117978325,248.85149437258542,345.3814777045452
70767,2171,70767,16909,70767,28936,9.431495360108201,265.62608467419085,370.72077173184164
70767,2171,70767,16889,70767,28926,4.4623657920751185,281.8754650750359,395.30562585207576
70778,2165,70778,16889,70778,28944,-0.5090096919218325,297.5884718724375,419.1156438930594
70778,2158,70778,16928,70778,29011,-5.474813913132209,312.75558793996345,442.1331226291802
70778,2141,70778,16966,70778,29021,-10.427173640761225,327.36865217034074,464.34300015302426
70778,2146,70778,16984,70778,29032,-15.358260831817503,341.4211532891014,485.7331638997571
70778,2136,70778,16954,70778,29045,-20.26038825508256,354.90862665877626,506.2945582436481
70778,2135,70778,16953,70778,29040,-25.126024874631668,367.8285674057415,526.0209483769154
70788,2127,70788,16982,70788,29068,-29.94777778725053,380.17991060996974,544.908549211794
70788,2118,70788,17008,70788,29107,-34.718401669512005,391.9626898071318,562.9557704554428
70788,2108,70788,17028,70788,29108,-39.43086228240013,403.1781794239869,580.1632601202053
70788,2105,70788,17056,70788,29141,-44.0784461727457,413.8292884192906,596.5340967682705
70788,2100,70788,17043,70788,29147,-48.65485406318804,423.9209177183395,612.0739078617729
70788,2103,70788,17004,70788,29131,-53.15422148333164,433.4599939768384,626.7908554316672
70798,2087,70798,17016,70798,29148,-57.571085059582046,442.454969051179,640.6953917480112
70798,2087,70798,17074,70798,29174,-61.90037762642672,450.9152119619396,653.7999061557541
70798,2078,70798,17086,70798,29186,-66.13748471590597,458.8510236451018,666.1186108226469
70798,2078,70798,17052,70798,29171,-70.27830187782405,466.27412241108607,677.6676164332083
70798,2080,70798,17038,70798,29167,-74.31923631599628,473.1977316029453,688.4648067949406
70798,2081,70798,17026,70798,29157,-78.2571286894532,479.63601206392264,698.5293924406856
70809,2071,70809,17077,70809,29194,-82.08912959964695,485.6034319418818,707.8814219285828
70809,2061,70809,17101,70809,29208,-85.8126462195342,491.11470073162036,716.5416124704359
70809,2059,70809,17098,70809,29213,-89.42541379812064,496.18526708903653,724.5315437656158
70809,2062,70809,17069,70809,29194,-92.92558689118195,500.83174651501315,731.8738420072008
70809,2060,70809,17047,70809,29186,-96.31172896827425,505.0717481927476,738.5920133783659
70809,2060,70809,17037,70809,29195,-99.58271664605951,508.9232077010628,744.7100113066966
70819,2047,70819,17043,70819,29200,-102.73766180533406,512.4036824023051,750.2518746825784
70819,2035,70819,17080,70819,29228,-105.7759467439135,515.5300015353077,755.2416467389979
70819,2043,70819,17096,70819,29218,-108.69736632289286,518.3184424663875,759.7035333434379
70819,2040,70819,17061,70819,29206,-111.50222332298969,520.7851755415924,763.6620489833945
70819,2049,70819,17025,70819,29187,-114.1912677365147,522.9463334692916,767.1418663426773
70819,2051,70819,17064,70819,29190,-116.76552653177299,524.8175084103506,770.1673848685097
70829,2032,70829,17095,70829,29221,-119.22613921986948,526.413382535165,772.7623716872599
70829,2038,70829,17104,70829,29227,-121.57432668707281,527.7480581866876,774.9499999024814
70829,2033,70829,17081,70829,29217,-123.81147099601364,528.8356621919368,776.7531701793049
70829,2040,70829,17058,70829,29200,-125.93914421904424,529.6905196079821,778.1946696464256
70829,2036,70829,17051,70829,29168,-127.95903971376856,530.3267851393074,779.296916433984
70829,2021,70829,17060,70829,29194,-129.87291102392254,530.757940557782,780.0814469639483
70840,2034,70840,17087,70840,29199,-131.6826053713953,530.9965947958884,780.5685702545745
70840,2022,70840,17097,70840,29228,-133.3901228765431,531.0547259163188,780.7774799618915
70840,2022,70840,17095,70840,29224,-134.99762859308416,530.9441480103183,780.7266879120446
70840,2026,70840,17056,70840,29204,-136.50746181446004,530.6767837237489,780.4344061359371
70840,2027,70840,17030,70840,29171,-137.9221223447393,530.2644222795041,779.91853277234
70840,2026,70840,17071,70840,29186,-139.24419318483652,529.7181427245876,779.1962250615608
70850,2018,70850,17084,70850,29228,-140.4762764554248,529.048061757496,778.2835688316017
70850,2024,70850,17104,70850,29212,-141.62100116168938,528.2637174322941,777.1958012846794
70850,2015,70850,17060,70850,29184,-142.6810581943989,527.3746128360232,775.9477364601634
70850,2025,70850,17025,70850,29166,-143.65921188935164,526.3902576715573,774.5537311237347
70850,2028,70850,17032,70850,29164,-144.5582577026513,525.319594110714,773.0272088181424
70850,2029,70850,17050,70850,29180,-145.38090567627384,524.1703934936734,771.3802617110747
70860,2013,70860,17078,70860,29203,-146.12967864854363,522.9492185642671,769.6236677714608
70860,2012,70860,17073,70860,29191,-146.80696273554994,521.6618943270126,767.7672662196294
70860,2018,70860,17053,70860,29172,-147.41516143240793,520.3139793567834,765.8203023460803
70860,2032,70860,17018,70860,29157,-147.9567387423437,518.9107901270265,763.7913953224559
70860,2024,70860,17021,70860,29148,-148.4340723309343,517.4569538921246,761.6881995361589
70860,2011,70860,17059,70860,29167,-148.84931292758412,515.955971600971,759.5170951107131
70871,2005,70871,17073,70871,29162,-149.2044603649393,514.4103269807285,757.2831502140632
70871,2018,70871,17059,70871,29180,-149.50156916637914,512.8220485858272,754.9903347126959
70871,2020,70871,17016,70871,29144,-149.74282457973482,511.1930569009109,752.6417603734642
70871,2019,70871,17016,70871,29145,-149.93043839713565,509.5249018047018,750.2397026134031
70871,2023,70871,17024,70871,29150,-150.06652638840905,507.8182384141846,747.7854138154112
70871,2020,70871,17070,70871,29176,-150.15304822676583,506.07267671052455,745.2790721694477
70881,2013,70881,17079,70881,29172,-150.19179972093585,504.28725182010464,742.7200805124481
70881,2011,70881,17048,70881,29160,-150.1844795513752,502.4611284286218,740.1074702889068
70881,2019,70881,17007,70881,29139,-150.1327920011614,500.5938371232652,737.4400382838601
70881,2021,70881,16995,70881,29116,-150.03846825030894,498.68478162877136,734.7161109254135
70881,2025,70881,17024,70881,29151,-149.9031798700351,496.73254514717024,731.9331770205539
70881,2008,70881,17059,70881,29155,-149.7284618372807,494.73473246008655,729.0878159861943
70891,2022,70891,17060,70891,29165,-149.5157482256666,492.6885056909336,726.1760592700995
70891,2022,70891,17032,70891,29140,-149.26643755092465,490.59125120652766,723.1938208002522
70891,2023,70891,17013,70891,29124,-148.98186023016976,488.4407503913236,720.1370039859904
70891,2028,70891,16996,70891,29116,-148.66319263187867,486.2348139020819,717.0012611173497
70891,2022,70891,17044,70891,29156,-148.31140064686846,483.97087124075324,713.781755399837
70891,2022,70891,17044,70891,29137,-147.92723298026883,481.6460297437178,710.4732940836401
70902,2021,70902,17037,70902,29158,-147.51126818086428,479.2575565245541,707.0707336801361
70902,2024,70902,17003,70902,29118,-147.06397086143878,476.80319860586366,703.5692769713146
70902,2032,70902,16978,70902,29115,-146.58569233210466,474.28096289093725,699.964459603437
70902,2027,70902,16986,70902,29107,-146.0766055131445,471.6885563982927,696.251893202758
70902,2023,70902,17006,70902,29112,-145.53665304157454,469.0229968058705,692.4270343144681
70902,2027,70902,17041,70902,29136,-144.96558142008706,466.2807718178004,688.4852160839769
70912,2021,70912,17024,70912,29128,-144.36301466458556,463.4584482861681,684.4219650876992
70912,2026,70912,16986,70912,29101,-143.72850877001252,460.5531665781825,680.2333504962977
70912,2024,70912,16975,70912,29082,-143.06158700583228,457.56253662670974,675.9159913243128
70912,2032,70912,16987,70912,29082,-142.3617439128249,454.48415634187165,671.4667198693339
70912,2025,70912,16998,70912,29093,-141.62841599290806,451.31536969813226,666.882304172487
70912,2023,70912,17032,70912,29119,-140.86097779628804,448.0535215886837,662.1595513757218
70922,2013,70922,17018,70922,29089,-140.05883020648707,444.6965334664896,657.295727320067
70922,2039,70922,16968,70922,29086,-139.22152225472274,441.24333844404543,652.288891787935
70922,2033,70922,16958,70922,29063,-138.34873446630579,437.69371045993745,647.1378803195316
70922,2029,70922,16975,70922,29094,-137.4401358961741,434.0476959906739,641.8421431312585
70922,2018,70922,16998,70922,29104,-136.49535366322846,430.30537685707753,636.401845916677
70922,2019,70922,17011,70922,29093,-135.5141379665148,426.4672433982703,630.818311470057
70933,2036,70933,16978,70933,29046,-134.4965323645572,422.5347692160392,625.0943649996423
70933,2035,70933,16935,70933,29038,-133.4428590950442,418.51057832929257,619.2341560801957
70933,2031,70933,16928,70933,29022,-132.3535801447896,414.3979800566384,613.2426352415407
70933,2030,70933,16957,70933,29035,-131.22924250319716,410.20035723794103,607.125168731721
70933,2023,70933,16988,70933,29062,-130.0705622251263,405.92111599329763,600.8875665236966
70933,2030,70933,16966,70933,29039,-128.87855419368898,401.56425559751824,594.536493035065
70943,2042,70943,16930,70943,29016,-127.65459423027598,397.1348723146788,588.0798657432715
70943,2037,70943,16912,70943,28992,-126.40034875938214,392.63903446498864,581.5268205429674
70943,2053,70943,16910,70943,28982,-125.11763876698106,388.0832430728724,574.887324537053
70943,2039,70943,16928,70943,28985,-123.80833311468292,383.4740627582503,568.1718184510225
70943,2039,70943,16934,70943,28988,-122.47432983976918,378.8182039605226,561.3911291734661
70943,2049,70943,16910,70943,28987,-121.11763347563078,374.1228579578841,554.5566460141134
70953,2056,70953,16880,70953,28937,-119.74038869429332,369.3958271015088,547.6805012910904
70953,2053,70953,16877,70953,28928,-118.34478520994652,364.64524158762435,540.775416916252
70953,2055,70953,16871,70953,28924,-116.9329613687907,359.879149884535,533.8542671799141
70953,2050,70953,16910,70953,28937,-115.50700754092955,355.1053953927038,526.9298106386389
70953,2056,70953,16904,70953,28940,-114.06903079453409,350.33193692737376,520.0148335369348
70953,2057,70953,16883,70953,28901,-112.62120590642084,345.56735170610796,513.1224574545918
70964,2068,70964,16832,70964,28875,-111.1657600235865,340.82096810360923,506.26615947377087
70964,2064,70964,16816,70964,28855,-109.70489292910221,336.10237088275545,499.459352661745
70964,2064,70964,16832,70964,28860,-108.24070771844366,331.4206772766246,492.71486237337547
70964,2058,70964,16862,70964,28880,-106.7752327641445,326.7842514440551,486.044726971412
70964,2068,70964,16849,70964,28862,-105.31051263944374,322.20105533022416,479.4604196892079
70964,2071,70964,16824,70964,28851,-103.84865460624212,317.6791256816362,472.973171495987
70974,2074,70974,16805,70974,28798,-102.39177798398181,313.2266204307352,466.593973656618
70974,2078,70974,16774,70974,28808,-100.94192906666922,308.8514220458998,460.3331726015477
70974,2080,70974,16802,70974,28821,-99.5010161606381,304.5606497127085,454.2000473311474
70974,2068,70974,16823,70974,28829,-98.07079098580796,300.3605111468567,448.20283650035805
70974,2076,70974,16799,70974,28819,-96.65291887655292,296.2566354689653,442.34914607559796
70974,2084,70974,16786,70974,28785,-95.24907094193337,292.2544295769857,436.64624957670804
70985,2086,70985,16748,70985,28776,-93.86090254157247,288.35898630417034,431.10098721439397
70985,2092,70985,16739,70985,28760,-92.48993826026276,284.5746008519019,425.719401299846
70985,2086,70985,16793,70985,28776,-91.1374807041648,280.904340553858,420.5064476915905
70985,2087,70985,16801,70985,28789,-89.80460175790006,277.3502000724365,415.466023907916
70985,2083,70985,16791,70985,28780,-88.49221221290645,273.91379335564494,410.6013056476807
70985,2095,70985,16749,70985,28742,-87.20114294879343,270.5968416021816,405.91504958053645
70995,2092,70995,16726,70995,28717,-85.9321546648575,267.4009735084495,401.40945553294824
70995,2095,70995,16727,70995,28747,-84.6858882766894,264.3270967778647,397.0857033326025
70995,2102,70995,16792,70995,28736,-83.46282071233985,261.37502486058145,392.94372481173997
70995,2090,70995,16785,70995,28761,-82.26324227741175,258.5438526827608,388.98242544591
70995,2098,70995,16748,70995,28734,-81.08727985820053,255.83269483685044,385.20006016447593
70995,2101,70995,16713,70995,28722,-79.93495381067572,253.24087355897092,381.5944294496898
71004,2101,71004,16721,71004,28698,-78.80618353448106,250.76738855043928,378.1627439982099
71004,2100,71004,16719,71004,28715,-77.70075589689783,248.41034661347408,374.90130372353366
71004,2095,71004,16743,71004,28719,-76.61834555259128,246.1668368302519,371.8053473650069
71004,2102,71004,16759,71004,28720,-75.55858918916539,244.0332270630598,368.869216506914
71004,2106,71004,16736,71004,28730,-74.52113073577497,242.0056349719935,366.08665809525735
71004,2098,71004,16709,71004,28701,-73.50560314261301,240.08016487087573,363.451057187489
71015,2110,71015,16693,71015,28697,-72.51161352505173,238.25264543694902,360.9554584728817
71015,2106,71015,16729,71015,28708,-71.53874382651176,236.5181780300602,358.5924091549151
71015,2101,71015,16745,71015,28719,-70.58654272806972,234.87108466017494,356.35392495348844
71015,2113,71015,16754,71015,28720,-69.65454726856395,233.305389325816,354.23173731592806
71015,2118,71015,16744,71015,28694,-68.74228157289625,231.8154018494112,352.2175731739603
71015,2112,71015,16689,71015,28680,-67.8491679447684,230.39591263242647,350.3031457393028
71025,2113,71025,16697,71025,28680,-66.9744616440852,229.04182042417386,348.47985862773714
71025,2114,71025,16712,71025,28718,-66.11728424554096,227.74756766284446,346.73860403913386
71025,2113,71025,16757,71025,28704,-65.27667870093728,226.50705340752074,345.0699729947089
71025,2109,71025,16771,71025,28702,-64.45165172954431,225.31422843528492,343.46466543214626
71025,2121,71025,16701,71025,28686,-63.64121773243184,224.16381617154155,341.9136714297118
71025,2118,71025,16686,71025,28668,-62.844395693043744,223.051344083976,340.4081348127261
71035,2113,71035,16690,71035,28686,-62.06016516679318,221.97244725881893,338.93909370980003
71035,2116,71035,16723,71035,28704,-61.287480553309784,220.9223084353971,337.49739785611314
71035,2117,71035,16726,71035,28692,-60.52533761273277,219.8957770004631,336.0739567345731
71035,2128,71035,16708,71035,28695,-59.77278500224145,218.8878190180334,334.6600618349563
71035,2130,71035,16692,71035,28661,-59.028836343368546,217.89370955514494,333.2474635729796
71035,2122,71035,16678,71035,28665,-58.29235368162604,216.9088055656914,331.8281646976359
71046,2115,71046,16671,71046,28676,-57.562042007470524,215.92814233202165,330.3941469915359
71046,2123,71046,16714,71046,28678,-56.83657915966146,214.94618550703657,328.9373290099561
71046,2121,71046,16725,71046,28699,-56.11473139647933,213.9570283097383,327.44980773307634
71046,2120,71046,16707,71046,28685,-55.3953777746744,212.95493893460497,325.9242083249417
71046,2129,71046,16681,71046,28642,-54.67750408648278,211.93468767150324,324.35386499994513
71046,2128,71046,16661,71046,28636,-53.960174485567244,210.89131190902486,322.73255395947274
71056,2127,71056,16692,71056,28652,-53.242474763748845,209.8196369143496,321.0539749159977
71056,2120,71056,16708,71056,28666,-52.52350623382668,208.71412931195903,319.3115520967069
71056,2127,71056,16700,71056,28676,-51.802460603402636,207.56923318372648,317.4987208754266
71056,2135,71056,16691,71056,28629,-51.07867265837314,206.3797538662995,315.60929752189656
71056,2135,71056,16648,71056,28642,-50.35155971442039,205.14085654553318,313.63749110553397
71056,2136,71056,16667,71056,28648,-49.62051059346436,203.84767981446055,311.57766096037057
71066,2128,71066,16698,71066,28643,-48.884845567591704,202.4950075472774,309.42425702019625
71066,2131,71066,16712,71066,28650,-48.14387764608744,201.0774808917165,307.17198367944445
71066,2134,71066,16681,71066,28642,-47.397002372909,199.59016233940304,304.81596474715695
71066,2138,71066,16660,71066,28609,-46.64372306468452,198.02877409629724,302.3517821673262
71066,2142,71066,16654,71066,28584,-45.88359734210332,196.38939032402914,299.77522474051034
71066,2142,71066,16663,71066,28619,-45.11615758757062,194.66800634797755,297.0818259160641
71077,2134,71077,16679,71077,28614,-44.340872126576805,192.86041803705618,294.2666744615001
71077,2141,71077,16688,71077,28634,-43.55718762224895,190.96247017266361,291.3246985010579
71077,2147,71077,16680,71077,28615,-42.76458186961488,188.97045335351655,288.25109321176404
71077,2138,71077,16630,71077,28578,-41.96254605814638,186.88128327254526,285.0415017573413
71077,2157,71077,16617,71077,28563,-41.150539017155474,184.69216904449357,281.6917472397506
71077,2149,71077,16639,71077,28606,-40.32792965051339,182.39999329506654,278.197380916629
71087,2146,71087,16658,71087,28595,-39.4939316261724,180.00104764804598,274.5536377460147
71087,2146,71087,16683,71087,28600,-38.64762343194086,177.49139893752684,270.7558378512
71087,2148,71087,16666,71087,28583,-37.78804168005077,174.86754425190165,266.79973621987557
71087,2144,71087,16629,71087,28561,-36.91424852699062,172.12680852468188,262.68156377084597
71087,2145,71087,16621,71087,28555,-36.025379309424395,169.26717515088586,258.3978186098424
71087,2143,71087,16631,71087,28564,-35.12070685206426,166.2868208927972,253.94501603895705
71097,2143,71097,16656,71097,28577,-34.1997103318314,163.1839359490997,249.31968277667488
71097,2151,71097,16648,71097,28563,-33.26212038850132,159.957015428257,244.5186359731042
71097,2152,71097,16607,71097,28542,-32.30790407090531,156.60520741906538,239.5392374990942
71097,2157,71097,16591,71097,28542,-31.337191650950345,153.12820570283998,234.37937469025107
71097,2157,71097,16597,71097,28526,-30.350197923605577,149.5257559406051,229.0372890511577
71097,2165,71097,16625,71097,28531,-29.347160250232506,145.79735817806363,223.51146750096956
71108,2150,71108,16643,71108,28549,-28.328301433717826,141.94253399353715,217.8006974016754
71108,2163,71108,16637,71108,28545,-27.293857891983905,137.9614640234351,211.90435624418717
71108,2166,71108,16593,71108,28513,-26.24412657661967,133.85545958728633,205.8227680567905
71108,2171,71108,16563,71108,28500,-25.179419324120218,129.62683127709042,199.55725823376514
71108,2161,71108,16561,71108,28491,-24.099973199334414,125.278255653988,193.10988450943927
71108,2164,71108,16600,71108,28501,-23.00595645758552,120.8122693575801,186.48320425562076
71118,2176,71118,16608,71118,28501,-21.897537738020247,116.23141266310975,179.6803269524852
71118,2160,71118,16588,71118,28475,-20.77489908271353,111.53882205347998,172.70514044279088
71118,2177,71118,16541,71118,28451,-19.638225154687035,106.73855734520035,165.56237695150622
71118,2173,71118,16513,71118,28427,-18.487709122776266,101.83524435294976,158.25734267888902
71118,2172,71118,16502,71118,28426,-17.323530685371182,96.83329199924279,150.7954929488796
71118,2169,71118,16554,71118,28432,-16.14585884300179,91.73633333902038,143.18217653761224
71128,2169,71128,16559,71128,28434,-14.95493202976904,86.54739021822218,135.42271697426952
71128,2172,71128,16533,71128,28407,-13.75115083792096,81.2695388368773,127.52267885932025
71128,2177,71128,16498,71128,28379,-12.535116543723177,75.90628281446547,119.48795677772284
71128,2189,71128,16474,71128,28367,-11.307583041345097,70.46124914639998,111.32452270294732
71128,2176,71128,16501,71128,28385,-10.069348473799053,64.93762382407911,103.0381129968763
71128,2186,71128,16538,71128,28377,-8.82119581781275,59.33802113856996,94.63423729461903
71139,2177,71139,16530,71139,28378,-7.56392894252204,53.66503548047763,86.11849087218877
71139,2192,71139,16484,71139,28337,-6.298423167465941,47.92191092725426,77.49681818642813
71139,2187,71139,16444,71139,28319,-5.0256174393084905,42.11255546662096,68.77544610432147
71139,2194,71139,16449,71139,28322,-3.746460240850311,36.240891653974586,59.960559480721486
71139,2184,71139,16454,71139,28312,-2.4618800319952925,30.310247834734923,51.05808112835388
71139,2191,71139,16479,71139,28323,-1.1728267371834136,24.32330990417347,42.07374823233528
71149,2200,71149,16520,71149,28288,0.1196784866800158,18.282645638158613,33.01332716464549
71149,2207,71149,16418,71149,28273,1.4145985611681056,12.191404851518257,23.882691282774488
71149,2197,71149,16412,71149,28250,2.7110125769128786,6.053414138170524,14.687632004876832
71149,2213,71149,16422,71149,28259,4.008189107570175,-0.12748366648213505,5.433585104755423
71149,2204,71149,16440,71149,28250,5.30560077622367,-6.347902370274369,-3.8744466644537283
71149,2207,71149,16442,71149,28248,6.602934738107592,-12.604669588252591,-13.231736344998637
71159,2201,71159,16411,71159,28239,7.900054575494735,-18.894358037602046,-22.6336070587123
71159,2205,71159,16393,71159,28212,9.196905521131399,-25.21315366527,-32.07529378532445
71159,2210,71159,16357,71159,28193,10.493439917308464,-31.557167979630435,-41.55199802390251
71159,2213,71159,16362,71159,28188,11.789619577679673,-37.92295388579089,-51.05910918547772
71159,2205,71159,16394,71159,28193,13.085454579686498,-44.30781433232386,-60.59235407447403
71159,2204,71159,16419,71159,28189,14.380971232356003,-50.709527469109446,-70.14768438044501
71170,2204,71170,16378,71170,28173,15.67609100675962,-57.12563816401854,-79.72100957939318
71170,2211,71170,16334,71170,28137,16.9705236395329,-63.55307282884206,-89.3080667961176
71170,2215,71170,16306,71170,28132,18.263757385991156,-69.98854916493758,-98.90458763747961
71170,2213,71170,16349,71170,28137,19.555120124680485,-76.42929725834512,-108.50655166959712
71170,2221,71170,16355,71170,28135,20.84383442865102,-82.87324418918126,-118.11018264621305
71170,2216,71170,16354,71170,28123,22.129044363994012,-89.31852665577776,-127.71168964497514
71180,2226,71180,16312,71180,28092,23.409834277852667,-95.76298534667535,-137.3070689386049
71180,2223,71180,16284,71180,28056,24.68525376965985,-102.20420372040894,-146.8922277873457
71180,2225,71180,16265,71180,28062,25.95434482785592,-108.64004471904008,-156.4633898089997
71180,2236,71180,16309,71180,28063,27.216165091734652,-115.06916337151432,-166.01740564652494
71180,2228,71180,16318,71180,28073,28.46983155392273,-121.49094085483966,-175.55165537903366
71180,2219,71180,16320,71180,28041,29.714532117419424,-127.90485017813774,-185.06369456035043
71190,2233,71190,16269,71190,28015,30.949428135310384,-134.30988289347766,-194.55107502711888
71190,2240,71190,16240,71190,27993,32.17358152583637,-140.7046014749091,-204.01155709754983
71190,2237,71190,16213,71190,28004,33.38603803230333,-147.0877809727158,-213.44347241859606
71190,2231,71190,16275,71190,27994,34.58592297432534,-153.45903084616884,-222.84585100357492
71190,2238,71190,16269,71190,28003,35.77240786092979,-159.8187393027181,-232.21823561420177
71190,2245,71190,16239,71190,27959,36.94465110366646,-166.16747574705767,-241.5604304158329
71201,2259,71201,16214,71201,27954,38.101866659367346,-172.5056790337004,-250.8724733171366
71201,2252,71201,16186,71201,27937,39.243506463168615,-178.8339735173147,-260.15485021683594
71201,2247,71201,16227,71201,27938,40.369388707330685,-185.15364136048441,-269.408688074151
71201,2248,71201,16221,71201,27969,41.47965663083703,-191.46667634105341,-278.63567989481714
71201,2242,71201,16250,71201,27939,42.57464068004252,-197.77532400444454,-287.8376910074627
71201,2250,71201,16235,71201,27914,43.65473938944599,-204.08144606405114,-297.0163643059374
71211,2251,71211,16177,71211,27897,44.72036754310204,-210.3861440852736,-306.1731311704466
71211,2246,71211,16144,71211,27884,45.771961486460924,-216.69002690445052,-315.30952278426344
71211,2250,71211,16173,71211,27888,46.80996872221624,-222.9939578244099,-324.42740134078383
71211,2248,71211,16193,71211,27864,47.83479749212937,-229.2994518382623,-333.52898764440806
71211,2250,71211,16198,71211,27883,48.846772876727385,-235.60830798961803,-342.61677408983076
71211,2255,71211,16165,71211,27866,49.84611963777756,-241.921996919579,-351.6933573548232
71222,2257,71222,16123,71222,27830,50.832981912192665,-248.24150375522936,-360.7612716790302
71222,2265,71222,16129,71222,27790,51.807487844961216,-254.56774771848922,-369.82313025285805
71222,2269,71222,16154,71222,27845,52.76985106094722,-260.90202189985934,-378.88204225526135
71222,2253,71222,16167,71222,27827,53.72045433015815,-267.24587033535346,-387.9416841746199
71222,2266,71222,16144,71222,27813,54.65982435193149,-273.6005338891066,-397.00587151179434
71222,2263,71222,16106,71222,27788,55.58854621529149,-279.9666124873239,-406.07824596155353
71232,2269,71232,16072,71232,27763,56.507249060906744,-286.3443362689926,-415.16240174864936
71232,2266,71232,16077,71232,27775,57.41664673664597,-292.7342230237435,-424.26218589595544
71232,2268,71232,16121,71232,27775,58.31755450166338,-299.137486457596,-433.3818039917129
71232,2271,71232,16118,71232,27782,59.21087973225083,-305.55574802635226,-442.52558157783824
71232,2268,71232,16091,71232,27756,60.09761493544259,-311.9903801435485,-451.6975813759494
71232,2269,71232,16061,71232,27725,60.97882494661111,-318.4422254454452,-460.90143441504506
71242,2270,71242,16032,71242,27702,61.85561208986944,-324.9119308717688,-470.1405630200833
71242,2269,71242,16033,71242,27707,62.72907950473284,-331.40053833548706,-479.4185951959546
71242,2268,71242,16070,71242,27725,63.600298675390846,-337.9098199557797,-488.73953519530573
71242,2266,71242,16061,71242,27723,64.4702588670094,-344.4420481898825,-498.10747361590586
71242,2273,71242,16017,71242,27689,65.33981057772515,-350.9995266278989,-507.52612224691586
71242,2277,71242,16017,71242,27649,66.20965963925558,-357.58452087630025,-516.9986997041711
71253,2271,71253,15985,71253,27650,67.08041801011848,-364.1996218373506,-526.5283053500507
71253,2268,71253,16010,71253,27627,67.95261410034446,-370.8480940682502,-536.1183806965144
71253,2272,71253,16038,71253,27652,68.82661403914965,-377.5338590311926,-545.7728817767292
71253,2281,71253,16042,71253,27652,69.7025591026299,-384.26097956586034,-555.4960834486875
71253,2283,71253,15994,71253,27621,70.58041845239785,-391.03300973379186,-565.292175380379
71253,2288,71253,15975,71253,27591,71.46011468230026,-397.85285749990015,-575.1650684933572
71263,2291,71263,15948,71263,27560,72.34163920063598,-404.72324715898355,-585.1186748154
71263,2287,71263,15973,71263,27586,73.22512709328504,-411.64725726768665,-595.1573671761844
71263,2283,71263,15975,71263,27589,74.11086111155745,-418.6284503212362,-605.2860884034051
71263,2290,71263,15968,71263,27572,74.99920275692993,-425.67057990851777,-615.5099985741898
71263,2289,71263,15940,71263,27534,75.89053545045618,-432.77728604793595,-625.8341438344582
71263,2294,71263,15906,71263,27524,76.78527441635265,-439.95216106860846,-636.2635493431986
71273,2293,71273,15932,71273,27534,77.68390481710614,-447.1991150895958,-646.8035054763888
71273,2278,71273,15941,71273,27551,78.58697324930672,-454.52254921619135,-657.4595452466199
71273,2292,71273,15940,71273,27552,79.49498401602946,-461.92704693550706,-668.2369670624176
71273,2286,71273,15953,71273,27516,80.40828313186758,-469.4168486801185,-679.1402547820442
71273,2296,71273,15901,71273,27490,81.3270393264051,-476.99547975868575,-690.1728704714468
71273,2293,71273,15877,71273,27473,82.25129167996377,-484.66579055745615,-701.33750876909
71284,2294,71284,15884,71284,27482,83.18099103232039,-492.4304008040863,-712.6364322869092
71284,2300,71284,15929,71284,27470,84.11601492570703,-500.2919710399226,-724.0715196421056
71284,2298,71284,15903,71284,27487,85.05618239182355,-508.2528357608288,-735.6440118814927
71284,2309,71284,15915,71284,27432,86.00129691870386,-516.3143624139292,-747.3541919926071
71284,2300,71284,15853,71284,27409,86.95120546061378,-524.4766412733816,-759.2013435214297
71284,2310,71284,15828,71284,27406,87.90583706998989,-532.7387328116341,-771.1840874509869
71294,2304,71294,15843,71294,27393,88.86520901375728,-541.0992661424515,-783.300708808995
71294,2303,71294,15866,71294,27410,89.82940847127529,-549.556767280454,-795.549143181572
71294,2306,71294,15864,71294,27392,90.79854171907188,-558.1093347772232,-807.9266818774837
71294,2296,71294,15824,71294,27368,91.77265889540313,-566.7540958603075,-820.4296447313304
71294,2313,71294,15792,71294,27330,92.75168469818719,-575.4871089447514,-833.0533282427452
71294,2313,71294,15785,71294,27315,93.73541775082957,-584.3037955843778,-845.7923121447412
71304,2310,71304,15789,71304,27331,94.72361685193557,-593.1994061769692,-858.640802780702
71304,2320,71304,15812,71304,27317,95.71607495278046,-602.1690642315181,-871.5926289576204
71304,2309,71304,15807,71304,27328,96.7126363478733,-611.2073589958646,-884.6408924878739
71304,2322,71304,15753,71304,27272,97.7131914882078,-620.3078913505187,-897.7776156319687
71304,2312,71304,15735,71304,27242,98.71766358843864,-629.4633053859187,-910.9937519626005
71304,2313,71304,15734,71304,27243,99.72597893711773,-638.6657755148728,-924.2795932883379
71315,2318,71315,15748,71315,27255,100.73800674723037,-647.9073402163908,-937.6250771168203
71315,2317,71315,15747,71315,27249,101.75351509574077,-657.1797447010658,-951.0195882034437
71315,2309,71315,15744,71315,27234,102.77215509948854,-666.4740153662037,-964.4514852173811
71315,2326,71315,15689,71315,27201,103.79342071909475,-675.7801811746342,-977.9078021393444
71315,2328,71315,15669,71315,27167,104.8166550325929,-685.0874599741288,-991.3743291675265
71315,2327,71315,15671,71315,27163,105.84116370634665,-694.3847947266863,-1004.8359683184199
71325,2324,71325,15720,71325,27186,106.86630616580801,-703.6611166878806,-1018.2769675315573
71325,2321,71325,15709,71325,27176,107.89146330212627,-712.9049048416506,-1031.6806836632072
71325,2334,71325,15662,71325,27148,108.91595863673564,-722.1034851474416,-1045.0290813011202
71325,2327,71325,15634,71325,27118,109.9390462927669,-731.2428875605453,-1058.3025042292143
71325,2341,71325,15629,71325,27109,110.95996984292466,-740.3083320682227,-1071.4798536947512
71325,2331,71325,15649,71325,27101,111.97802932235643,-749.2846621983387,-1084.5388341296846
71335,2330,71335,15682,71335,27096,112.99259774264506,-758.1561922146143,-1097.4559857110785
71335,2327,71335,15645,71335,27095,114.00304463167147,-766.9060656296363,-1110.2065105532536
71335,2330,71335,15613,71335,27071,115.00861316617569,-775.5157670680163,-1122.7640309062037
71335,2330,71335,15573,71335,27039,116.00833996247424,-783.9653081253024,-1135.1004805138805
71335,2347,71335,15559,71335,27028,117.00106004899982,-792.2339097332544,-1147.1862655764967
71335,2341,71335,15590,71335,27041,117.98551121780456,-800.3005866990096,-1158.9904898053194
71346,2341,71346,15618,71346,27015,118.96045886671433,-808.144119037056,-1170.480928826765
71346,2337,71346,15605,71346,27017,119.92471387775879,-815.7423966080709,-1181.6238277899552
71346,2336,71346,15554,71346,26985,120.87704559534467,-823.0717995131826,-1192.3837883294937
71346,2343,71346,15525,71346,26974,121.81608910562217,-830.1072807679152,-1202.7238269260488
71346,2345,71346,15533,71346,26954,122.74032375917486,-836.823004288717,-1212.6055592647758
71346,2348,71346,15572,71346,26978,123.64812702906109,-843.1927537957404,-1221.9893458420402
71356,2335,71356,15596,71356,26981,124.53781470965794,-849.1895812275357,-1230.8341470977448
71356,2342,71356,15554,71356,26958,125.40758048902244,-854.7850011012148,-1239.0971136431085
71356,2349,71356,15528,71356,26906,126.2554017325208,-859.9485553505398,-1246.733380394459
71356,2349,71356,15478,71356,26889,127.07904712589577,-864.6481705013116,-1253.6964403883496
71356,2352,71356,15495,71356,26892,127.87616398243972,-868.8509580633894,-1259.9388204530258
71356,2342,71356,15525,71356,26914,128.6443198155256,-872.5237569394445,-1265.4124409773608
71366,2348,71366,15537,71366,26902,129.38095170684022,-875.6329716676081,-1270.0684467953593
71366,2347,71366,15503,71366,26886,130.08328426101787,-878.1440151768171,-1273.8568831063299
71366,2351,71366,15465,71366,26866,130.74829717912522,-880.0211281820125,-1276.726657160792
71366,2361,71366,15439,71366,26845,131.37276480211673,-881.2279041813792,-1278.625848040359
71366,2356,71366,15456,71366,26827,131.9533515317979,-881.7281083688554,-1279.5021982126989
71366,2353,71366,15480,71366,26837,132.4866903788443,-881.4861359469003,-1279.3036084241144
71377,2358,71377,15462,71377,26825,132.969371891288,-880.4669106580159,-1277.9784635743376
71377,2354,71377,15442,71377,26795,133.3978961889246,-878.6356941878614,-1275.4758458939211
71377,2357,71377,15404,71377,26781,133.7686509495786,-875.9583398119786,-1271.7459325517325
71377,2363,71377,15385,71377,26765,134.0779134371748,-872.402029856288,-1266.7406461155065
71377,2359,71377,15420,71377,26784,134.32188680700887,-867.93609737091,-1260.4142862670908
71377,2357,71377,15455,71377,26793,134.49673640516966,-862.5323583338761,-1252.7238711174023
71387,2357,71387,15454,71387,26759,134.59856547329713,-856.1647732380736,-1243.6292482813085
71387,2370,71387,15393,71387,26752,134.62338502316592,-848.8090764448959,-1233.0933858888861
71387,2376,71387,15377,71387,26730,134.5671974061741,-840.4431593495935,-1221.0830532682892
71387,2359,71387,15387,71387,26733,134.42615727880448,-831.0480887381134,-1207.5696597607598
71387,2372,71387,15408,71387,26763,134.19663402863006,-820.608937386376,-1192.5299350069945
71387,2367,71387,15433,71387,26755,133.87517376055342,-809.1149924041442,-1175.9462796030425
71397,2363,71397,15429,71397,26787,133.45848440726581,-796.5595886939257,-1157.8068921042454
71397,2367,71397,15405,71397,26762,132.9434258625551,-782.94006165676,-1138.1059299533842
71397,2365,71397,15388,71397,26755,132.32698298337914,-768.2581795792639,-1116.8439131519874
71397,2362,71397,15432,71397,26791,131.60626001304746,-752.5208999546085,-1094.0283910923836
71397,2371,71397,15477,71397,26822,130.77848842829206,-735.740800057699,-1069.6744839697335
71397,2366,71397,15496,71397,26843,129.84106246965666,-717.9358294163774,-1043.8049828208777
71408,2376,71408,15518,71408,26872,128.7916206574538,-699.1287804196901,-1016.4502404223588
71408,2372,71408,15487,71408,26855,127.62814909175479,-679.3470593155339,-987.6482145520524
71408,2369,71408,15511,71408,26909,126.34907018439753,-658.6229794690682,-957.444782026904
71408,2370,71408,15580,71408,26967,124.9532743888379,-636.9942218399642,-925.8940308669708
71408,2363,71408,15612,71408,27049,123.44010104936893,-614.5037917771984,-893.0580110249409
71408,2357,71408,15689,71408,27093,121.80928864278593,-591.1993292509715,-859.0058812201328
71418,2366,71418,15671,71418,27117,120.06090455303848,-567.1322487325968,-823.8129780655843
71418,2359,71418,15691,71418,27174,118.19532319418981,-542.3572596628359,-787.5602788078205
71418,2348,71418,15707,71418,27224,116.2132443848482,-516.932476314927,-750.3341500133403
71418,2354,71418,15819,71418,27330,114.11564672887374,-490.9196053038735,-712.225912105563
71418,2358,71418,15884,71418,27380,111.9037306202334,-464.3834054450878,-673.3309538785453
71418,2355,71418,15921,71418,27445,109.57897631063065,-437.3903936866275,-633.7476085545236
71428,2345,71428,15921,71428,27495,107.14324009915268,-410.0076713006395,-593.5762051947331
71428,2343,71428,15936,71428,27554,104.59874693498128,-382.30256030370293,-552.9184035956396
71428,2356,71428,16003,71428,27631,101.94803603665383,-354.34279699793046,-511.876613130495
71428,2341,71428,16074,71428,27698,99.19400111568541,-326.19648108494874,-470.5532838093518
71428,2337,71428,16123,71428,27770,96.33996238664328,-297.93136734641837,-429.05001970492174
71428,2326,71428,16153,71428,27824,93.3896144434049,-269.6138801752801,-387.46665512105756
71439,2323,71439,16160,71439,27861,90.346874179109,-241.30846195977537,-345.9005006909708
71439,2326,71439,16166,71439,27909,87.215756125687,-213.07751221182517,-304.4459059357227
71439,2323,71439,16223,71439,27951,84.00034996491041,-184.9817089342302,-263.19408656707617
71439,2314,71439,16298,71439,28032,80.70486365440686,-157.08011523002938,-222.23295849276423
71439,2328,71439,16349,71439,28089,77.33365918191903,-129.4296199232274,-181.64671653605916
71439,2309,71439,16345,71439,28138,73.89130104773105,-102.08404824374173,-141.51516716882247
71449,2314,71449,16343,71449,28139,70.38260721443095,-75.09374820433271,-101.9131990667928
71449,2309,71449,16374,71449,28178,66.812649758811,-48.50590996515018,-62.910763293311106
71449,2306,71449,16420,71449,28248,63.18675161477719,-22.365045863936984,-24.57316236102406
71449,2299,71449,16461,71449,28276,59.510499479814364,3.28695932377957,13.038902525131107
71449,2289,71449,16505,71449,28303,55.78971200104965,28.41123136256971,49.86955042278828
71449,2290,71449,16503,71449,28346,52.03035496540611,52.97236390608771,85.86780505300362
71460,2292,71460,16483,71460,28351,48.23848425464158,76.93851030339181,120.98746753405646
71460,2275,71460,16495,71460,28388,44.42026089418218,100.28086816542691,155.18687421801837
71460,2276,71460,16577,71460,28438,40.581944908754735,122.97299890069053,188.42863422349126
71460,2268,71460,16618,71460,28488,36.72981719252017,144.99080074205864,220.6796151498936
71460,2262,71460,16626,71460,28505,32.87010002157156,166.31317659761368,251.91123282737033
71460,2261,71460,16623,71460,28512,29.008902314532207,186.92256777879982,282.0996555988877
71470,2263,71470,16612,71470,28521,25.15219955884752,206.80481395389228,311.22559014888213
71470,2253,71470,16619,71470,28553,21.30587248941707,225.9485240567222,339.2737751263039
71470,2250,71470,16684,71470,28595,17.47574361400971,244.3444807369383,366.23259198619814
71470,2243,71470,16726,71470,28624,13.66755068304348,261.985623108685,392.0940404451369
71470,2240,71470,16729,71470,28633,9.886889294537085,278.8676222644483,416.8539150102665
71470,2242,71470,16694,71470,28634,6.139181112742719,294.9893151712331,440.5118084561133
71480,2236,71480,16697,71480,28639,2.4296958513005222,310.35238997330214,463.0707663260573
71480,2222,71480,16714,71480,28683,-1.2364237479082902,324.9606080885163,484.5368029454851
71480,2219,71480,16766,71480,28712,-4.854229225627833,338.8193098047683,504.91868157575186
71480,2222,71480,16789,71480,28719,-8.41908569753079,351.9355695551452,524.2280536347771
71480,2217,71480,16786,71480,28727,-11.926707698444162,364.3187032139539,542.4795985057972
71480,2212,71480,16755,71480,28708,-15.373115775756148,375.98049173557433,559.6908417887239
71491,2204,71491,16743,71491,28713,-18.754627299168064,386.9347606136647,575.8816414062076
71491,2211,71491,16773,71491,28759,-22.067895782066344,397.1966122724526,591.0736202790533
71491,2208,71491,16822,71491,28781,-25.309903719381722,406.78201115813613,605.2899901548583
71491,2195,71491,16828,71491,28779,-28.477900955934004,415.7080650796304,618.5558023219137
71491,2202,71491,16812,71491,28768,-31.56939189316546,423.9935449221912,630.8981063874965
71491,2189,71491,16781,71491,28756,-34.582175671243675,431.6589338772121,642.3456621615039
71501,2196,71501,16758,71501,28757,-37.51436857740903,438.7258153534533,652.928347459793
71501,2199,71501,16807,71501,28796,-40.36437637254052,445.2160441328831,662.6766433882572
71501,2181,71501,16846,71501,28814,-43.130822668795815,451.1514306444658,671.6215442280645
71501,2190,71501,16825,71501,28804,-45.81252245439856,456.55415014398216,679.7948322518077
71501,2176,71501,16819,71501,28801,-48.40853319011734,461.44719207712797,687.2292449421934
71501,2185,71501,16785,71501,28784,-50.91819851976557,465.85422762543135,693.9582624077657
71511,2187,71511,16796,71511,28779,-53.34112593745043,469.7990343299912,700.0156454822643
71511,2171,71511,16826,71511,28818,-55.67711259941653,473.3049991530885,705.435012823086
71511,2171,71511,16840,71511,28818,-57.92613262209207,476.3951080055599,710.2497635278351
71511,2174,71511,16853,71511,28808,-60.08842027636497,479.0923562259886,714.4932875203767
71511,2173,71511,16808,71511,28791,-62.16450539495429,481.420097621045,718.1990072906269
71511,2175,71511,16780,71511,28768,-64.15514836873119,483.40186789036136,721.4000212300814
71522,2178,71522,16794,71522,28788,-66.06124352208582,485.0606978737561,724.1285579541168
71522,2163,71522,16835,71522,28812,-67.88374346087217,486.41856750396926,726.4156533858916
71522,2164,71522,16868,71522,28819,-69.62367114769108,487.49660279308875,728.2913005048947
71522,2159,71522,16829,71522,28803,-71.28222169746007,488.31577431863536,729.7848137447552
71522,2164,71522,16791,71522,28783,-72.860844578803,488.8972303704445,730.9249254238941
71522,2166,71522,16776,71522,28774,-74.36123332819307,489.2618087421388,731.7394756485876
71532,2169,71532,16807,71532,28798,-75.7852348725736,489.4292486072525,732.2550003444235
71532,2156,71532,16830,71532,28830,-77.1347532843838,489.4179072533732,732.4966678092007
71532,2153,71532,16843,71532,28808,-78.41175719099637,489.24514496111874,732.4886620925251
71532,2163,71532,16807,71532,28794,-79.61837458741594,488.92785733698395,732.2545408601043
71532,2162,71532,16776,71532,28773,-80.7569130909765,488.4825332536942,731.8171278121113
71532,2155,71532,16782,71532,28762,-81.82977723719124,487.92474071367997,731.1980522239312
71542,2160,71542,16814,71542,28798,-82.83942035547116,487.2686128194307,730.4173416438596
71542,2162,71542,16840,71542,28801,-83.78834309008997,486.5269263013206,729.4934151328392
71542,2160,71542,16841,71542,28811,-84.67905146798384,485.71170941046284,728.4434662811192
71542,2163,71542,16807,71542,28786,-85.51399062295866,484.8347918803462,727.2838367314396
71542,2158,71542,16782,71542,28767,-86.29550468905522,483.9077926579354,726.0300356180701
71542,2155,71542,16744,71542,28768,-87.02583695070237,482.9415166907804,724.6964165362457
71553,2158,71553,16810,71553,28782,-87.70716815026891,481.9452339514137,723.2958495050399
71553,2154,71553,16834,71553,28791,-88.34165240592692,480.9265608003594,721.8397112584599
71553,2160,71553,16802,71553,28762,-88.93141828958667,479.89206481282986,720.3380922644862
71553,2155,71553,16779,71553,28750,-89.478545113868,478.84774083475884,718.7998173850514
71553,2159,71553,16761,71553,28762,-89.98503459682237,477.7987610563699,717.2321786661013
71553,2154,71553,16779,71553,28780,-90.45279605105415,476.7489097260102,715.6407644814896
71563,2164,71563,16809,71563,28773,-90.88363491436563,475.7003539795156,714.0296397853899
71563,2163,71563,16850,71563,28764,-91.27920206270683,474.65402993826353,712.4016223041775
71563,2155,71563,16812,71563,28758,-91.64092003761105,473.61040520353265,710.7583428826291
71563,2163,71563,16779,71563,28742,-91.96996506047212,472.5699154803973,709.1000959648217
71563,2161,71563,16762,71563,28747,-92.26728455104451,471.5326280714946,707.4256218197521
71563,2155,71563,16777,71563,28759,-92.53358940087485,470.49754304466614,705.7319722847417
71573,2155,71573,16785,71573,28793,-92.76937358757179,469.4622140724956,704.0146583936844
71573,2153,71573,16815,71573,28786,-92.97498741489413,468.4228852824207,702.2681285533708
71573,2155,71573,16787,71573,28789,-93.15069960313048,467.3748952796766,700.4863021828895
71573,2160,71573,16780,71573,28766,-93.29670571982686,466.3129295524203,698.6628271011207
71573,2156,71573,16758,71573,28736,-93.4130869895699,465.2308724911786,696.7909475286766
71573,2146,71573,16824,71573,28783,-93.49979030694158,464.12154656376777,694.8631549279506
71584,2153,71584,16842,71584,28799,-93.55670028009712,462.97693786479897,692.8711258088505
71584,2152,71584,16840,71584,28788,-93.58373045233861,461.7889831463649,690.8061814948854
71584,2154,71584,16825,71584,28770,-93.5808345426313,460.55026896854076,688.6597500209019
71584,2155,71584,16775,71584,28752,-93.54796806334798,459.25410289140325,686.4233508192133
71584,2157,71584,16779,71584,28755,-93.48505091008454,457.89399539847795,684.0882582979597
71584,2154,71584,16824,71584,28786,-93.39193699682173,456.4630931061354,681.6452837362394
71594,2153,71594,16828,71594,28784,-93.26841117666949,454.9542090401677,679.0849611250375
71594,2152,71594,16826,71594,28785,-93.1142255953099,453.36037532462433,676.3979854714707
71594,2154,71594,16799,71594,28767,-92.92914512807836,451.67524259025333,673.5755092444298
71594,2157,71594,16773,71594,28745,-92.71296143401023,449.8929600320035,670.6091070306013
71594,2153,71594,16792,71594,28776,-92.46547361063367,448.0077225042907,667.490546300549
71594,2144,71594,16845,71594,28779,-92.18650021517173,446.0135514883344,664.2117389470204
71604,2152,71604,16837,71604,28794,-91.87596920373234,443.90473510114026,660.7650681390102
71604,2162,71604,16820,71604,28778,-91.5339825841219,441.6765387820863,657.1438357621212
71604,2156,71604,16804,71604,28755,-91.16074650366672,439.3254744873731,653.3424765370532
71604,2160,71604,16784,71604,28747,-90.75645986030818,436.8490394988054,649.3564155842851
71604,2163,71604,16770,71604,28759,-90.32126868844372,434.2452548280473,645.1817821066954
71604,2155,71604,16837,71604,28769,-89.85525595832335,431.5123615007188,640.8153496810988
71615,2152,71615,16839,71615,28779,-89.358474879328,428.6490876251724,636.2548166127604
71615,2160,71615,16807,71615,28766,-88.83104189357158,425.65534868706885,631.4992139643066
71615,2155,71615,16756,71615,28748,-88.27319829002252,422.5325169785154,626.5491478903749
71615,2162,71615,16756,71615,28722,-87.68530198404096,419.2828695857712,621.4067083383369
71615,2166,71615,16802,71615,28745,-87.06778790508363,415.9089090304355,616.075171590495
71615,2152,71615,16807,71615,28765,-86.42112733719716,412.413374077802,610.5589154917558
71625,2156,71625,16821,71625,28727,-85.7458630996444,408.79987384910027,604.8637192730597
71625,2165,71625,16767,71625,28706,-85.04270840964801,405.07343886645737,598.9969783248881
71625,2170,71625,16729,71625,28705,-84.31254751183427,401.24042833915104,592.9674735112624
71625,2161,71625,16736,71625,28677,-83.55632793277526,397.3078259091189,586.7849841781173
71625,2166,71625,16775,71625,28684,-82.77501027743197,393.28262993378485,580.460021825493
71625,2166,71625,16761,71625,28686,-81.96960791690299,389.171937106301,574.0037104392795
71635,2160,71635,16780,71635,28680,-81.141231540189,384.983452056354,567.4278617131129
71635,2169,71635,16718,71635,28666,-80.29112841793967,380.7258095115643,560.7451415899843
71635,2161,71635,16730,71635,28633,-79.4207203889866,376.4084294937312,553.9690707281256
71635,2178,71635,16718,71635,28643,-78.53160612569012,372.04110157186557,547.1137896750129
71635,2169,71635,16731,71635,28643,-77.6255114424095,367.6337370174109,540.1938433019948
71635,2180,71635,16732,71635,28637,-76.7042139042482,363.19644437374717,533.2242268894704
71646,2173,71646,16713,71646,28632,-75.76949025028938,358.73972777119775,526.2205760158662
71646,2172,71646,16693,71646,28584,-74.82311490642982,354.27453040959256,519.1992123958154
71646,2177,71646,16667,71646,28570,-73.86690750659037,349.8119690660243,512.1768549321059
71646,2178,71646,16661,71646,28571,-72.90277270034272,345.3628624864751,505.17011080848994
71646,2181,71646,16682,71646,28564,-71.93268361849303,340.9373548408042,498.19513868833343
71646,2180,71646,16715,71646,28572,-70.95864536182663,336.5449738786971,491.2676474065604
71656,2182,71656,16666,71656,28542,-69.98268094745276,332.1950971490856,484.4030313083595
71656,2190,71656,16640,71656,28542,-69.00682143467874,327.8972046897408,477.6164049502272
71656,2187,71656,16639,71656,28510,-68.03306171465185,323.6605232570331,470.9224577394991
71656,2189,71656,16665,71656,28514,-67.0633061831191,319.4935656965878,464.3352069493319
71656,2198,71656,16663,71656,28523,-66.09933863548375,315.4041540609642,457.86782672295305
71656,2188,71656,16682,71656,28524,-65.1427900147776,311.39983310770526,451.53273677264
71666,2182,71666,16630,71666,28494,-64.19514847673881,307.48823679769987,445.3418471360484
71666,2195,71666,16607,71666,28462,-63.25786231152456,303.6770189922647,439.3065599137062
71666,2205,71666,16586,71666,28474,-62.3323859181056,299.9732712019072,433.4374082030805
71666,2194,71666,16643,71666,28480,-61.42006759845798,296.3829310501328,427.74374267700756
71666,2193,71666,16630,71666,28475,-60.5220612595071,292.9107923904015,422.23379735724575
71666,2198,71666,16623,71666,28468,-59.63938542641545,289.56097927163216,416.9149359559325
71677,2198,71677,16612,71677,28437,-58.77299798810238,286.33724207504525,411.79373448406193
71677,2206,71677,16577,71677,28420,-57.92378343184961,283.2428328392724,406.8757663221893
71677,2205,71677,16587,71677,28440,-57.09248491535851,280.2801316687362,402.165239297354
71677,2203,71677,16622,71677,28454,-56.27964185972296,277.450372202635,397.6648852841575
71677,2198,71677,16629,71677,28458,-55.485595774975785,274.75385259882034,393.37628837560214
71677,2202,71677,16618,71677,28439,-54.710570371669995,272.1904984243349,389.3003338077269
71687,2210,71687,16586,71687,28429,-53.954732855678785,269.7601865121741,385.43738700413326
71687,2210,71687,16557,71687,28399,-53.21815544975897,267.46250598835496,381.7871258072197
71687,2200,71687,16587,71687,28422,-52.50074594288759,265.29620134481695,378.34821409078785
71687,2205,71687,16612,71687,28413,-51.802274759364636,263.25890873848334,375.11811627695596
71687,2202,71687,16633,71687,28438,-51.12247426567835,261.34753768519215,372.0932146991194
