c_ts,c_val,d_ts,d_val,e_ts,e_val,c_val_filtered,d_val_filtered,e_val_filtered
1198,4420,1198.0,34872.0,1198.0,32679.0,65.90373243329697,68.65384502763891,119.26042545458583
1198,4421,1198.0,34862.0,1198.0,32658.0,66.29537292775474,66.8942062043325,117.74374563743656
1198,4415,1198.0,34843.0,1198.0,32660.0,66.6665438407639,65.11267936058903,116.14723014892377
1198,4417,1198.0,34836.0,1198.0,32652.0,67.01643409272779,63.31412853952892,114.47444392381969
1198,4411,1198.0,34857.0,1198.0,32664.0,67.34416024227289,61.50273208123214,112.72868231244647
1198,4427,1198.0,34871.0,1198.0,32657.0,67.64873078300305,59.68199477673744,110.91301050407046
1208,4418,1208.0,34860.0,1208.0,32659.0,67.92909214547842,57.85507211440266,109.0303782142095
1208,4417,1208.0,34853.0,1208.0,32659.0,68.18420786670724,56.025066517222264,107.08371644380848
1208,4409,1208.0,34835.0,1208.0,32639.0,68.41304751382796,54.195030358475876,105.07597573852118
1208,4425,1208.0,34830.0,1208.0,32659.0,68.6145076562374,52.36773838975185,103.01009573333144
1208,4423,1208.0,34848.0,1208.0,32646.0,68.78742074574669,50.54546018766633,100.88899290616874
1208,4419,1208.0,34858.0,1208.0,32653.0,68.93066610601502,48.72997942472084,98.71564334555467
1218,4416,1218.0,34856.0,1218.0,32642.0,69.04322926561039,46.9228861980034,96.4931754403392
1218,4415,1218.0,34825.0,1218.0,32634.0,69.12415300605086,45.1258286788142,94.22488132631128
1218,4418,1218.0,34822.0,1218.0,32635.0,69.17247324860924,43.34042249548971,91.9141490113052
1218,4420,1218.0,34819.0,1218.0,32627.0,69.1872146886605,41.56792100579837,89.56438185480735
1218,4415,1218.0,34846.0,1218.0,32641.0,69.16743204270882,39.809026867781064,87.17898826482971
1218,4435,1218.0,34860.0,1218.0,32632.0,69.11227063058197,38.064087715400206,84.76147388057845
1229,4426,1229.0,34848.0,1229.0,32637.0,69.02108679624516,36.33355449039283,82.3155895832061
1229,4412,1229.0,34834.0,1229.0,32625.0,68.8935695052972,34.6183098128069,79.84544010406131
1229,4409,1229.0,34822.0,1229.0,32613.0,68.72968100444623,32.91962352534028,77.35548430051142
1229,4414,1229.0,34841.0,1229.0,32630.0,68.52945905150948,31.238925611306627,74.85045529763838
1229,4425,1229.0,34855.0,1229.0,32618.0,68.29293165929592,29.57777488084114,72.33534808235716
1229,4427,1229.0,34851.0,1229.0,32619.0,68.02023946728978,27.938138730128195,69.81551689399502
1239,4429,1239.0,34824.0,1239.0,32605.0,67.71184633949576,26.32267429158607,67.29673046945702
1239,4411,1239.0,34809.0,1239.0,32595.0,67.3686661654006,24.734650687067145,64.78509592518321
1239,4407,1239.0,34795.0,1239.0,32582.0,66.99199656671142,23.177534559512765,62.28687335024969
1239,4410,1239.0,34820.0,1239.0,32596.0,66.58332019217116,21.654584836786043,59.80827400559622
1239,4414,1239.0,34828.0,1239.0,32584.0,66.14417390795714,20.168790532466204,57.35538965945901
1239,4413,1239.0,34818.0,1239.0,32587.0,65.67617488044547,18.72313933638489,54.934252858402445
1249,4406,1249.0,34793.0,1249.0,32575.0,65.18109219716577,17.320820247504358,52.550884252001055
1249,4399,1249.0,34786.0,1249.0,32561.0,64.66083243138311,15.965062664185666,50.21123975509566
1249,4402,1249.0,34793.0,1249.0,32568.0,64.1173350455621,14.65878586912855,47.92106949504476
1249,4427,1249.0,34807.0,1249.0,32573.0,63.5525354221999,13.404435218541721,45.68582596447139
1249,4406,1249.0,34798.0,1249.0,32572.0,62.96852295283184,12.204112199317166,43.5107507110537
1249,4401,1249.0,34811.0,1249.0,32562.0,62.36770793894999,11.059795902237042,41.40103415312542
1260,4400,1260.0,34800.0,1260.0,32541.0,61.75276653198456,9.973497990014295,39.36183181177758
1260,4392,1260.0,34755.0,1260.0,32540.0,61.126470891130865,8.947247884538285,37.39806798439804
1260,4403,1260.0,34771.0,1260.0,32553.0,60.491586608101784,7.982764424594947,35.51420882856236
1260,4390,1260.0,34798.0,1260.0,32542.0,59.85085552368221,7.081079038659524,33.71423337812732
1260,4397,1260.0,34809.0,1260.0,32565.0,59.2070071827963,6.242630474266932,32.00178615700766
1260,4401,1260.0,34799.0,1260.0,32537.0,58.56277455434944,5.467744029278606,30.38036150459368
1270,4388,1270.0,34774.0,1270.0,32528.0,57.92093821127908,4.756926602124807,28.853357594710303
1270,4380,1270.0,34773.0,1270.0,32533.0,57.28431995685547,4.110724582011599,27.42391706153714
1270,4386,1270.0,34787.0,1270.0,32530.0,56.65565497732783,3.5294197884455514,26.09474839985174
1270,4403,1270.0,34800.0,1270.0,32538.0,56.03751646974749,3.0129702109923215,24.868122315355905
1270,4386,1270.0,34800.0,1270.0,32541.0,55.43243634020277,2.561260299100681,23.745998415333617
1270,4389,1270.0,34783.0,1270.0,32527.0,54.84304784834934,2.1743673619583745,22.73017085954821
1280,4374,1280.0,34769.0,1280.0,32514.0,54.27205786177686,1.8525587349208479,21.822287198194573
1280,4383,1280.0,34755.0,1280.0,32514.0,53.72211136982035,1.5959974491331508,21.02367355550318
1280,4376,1280.0,34774.0,1280.0,32511.0,53.195691853946585,1.4043850780778087,20.335119909193153
1280,4385,1280.0,34791.0,1280.0,32525.0,52.69511004659786,1.2768554353772288,19.756803511429567
1280,4386,1280.0,34783.0,1280.0,32512.0,52.22256885565409,1.212206153739217,19.288362568388337
1280,4380,1280.0,34773.0,1280.0,32521.0,51.7802618805167,1.2091646134804535,18.92900077222967
1291,4361,1291.0,34743.0,1291.0,32501.0,51.370388071711666,1.2663422015090475,18.67751139104334
1291,4370,1291.0,34763.0,1291.0,32496.0,50.99499949053002,1.3818951554114847,18.532176419966206
1291,4367,1291.0,34792.0,1291.0,32526.0,50.65581971141751,1.5532967834170393,18.490625828856466
1291,4370,1291.0,34805.0,1291.0,32528.0,50.35419672318664,1.7775894370212058,18.549911950376824
1291,4367,1291.0,34791.0,1291.0,32515.0,50.09114575214795,2.0519240617735477,18.706811225423493
1291,4366,1291.0,34770.0,1291.0,32502.0,49.867378753553204,2.3738450601954355,18.95797496314259
1301,4359,1301.0,34758.0,1301.0,32495.0,49.68328815837679,2.741095922951857,19.299751130862447
1301,4368,1301.0,34766.0,1301.0,32504.0,49.538901041850536,3.151200697068191,19.72790596293865
1301,4372,1301.0,34779.0,1301.0,32522.0,49.43388262585105,3.6012139689929654,20.2375328763477
1301,4378,1301.0,34792.0,1301.0,32525.0,49.36765184857652,4.087811460874221,20.823243944890336
1301,4360,1301.0,34794.0,1301.0,32520.0,49.33951996716957,4.607597887777985,21.479472072244135
1301,4374,1301.0,34773.0,1301.0,32515.0,49.34871459761038,5.157358977857456,22.20062904596783
1311,4361,1311.0,34767.0,1311.0,32514.0,49.394321592640544,5.734033129879634,22.981069056907742
1311,4379,1311.0,34793.0,1311.0,32527.0,49.47526822917457,6.334499949866043,23.81501571354235
1311,4375,1311.0,34801.0,1311.0,32538.0,49.59039427982382,6.9555642014835115,24.696628796681907
1311,4373,1311.0,34800.0,1311.0,32528.0,49.738570527652016,7.594238479750146,25.62021296343238
1311,4364,1311.0,34782.0,1311.0,32522.0,49.91874738459301,8.247988771761982,26.580360143902254
1311,4356,1311.0,34763.0,1311.0,32521.0,50.12985674818131,8.914649559736617,27.57189022389116
1322,4356,1322.0,34756.0,1322.0,32517.0,50.37062379542261,9.592038904781859,28.589699468763442
1322,4369,1322.0,34788.0,1322.0,32522.0,50.63942838656033,10.27758119022657,29.628652446089305
1322,4370,1322.0,34792.0,1322.0,32519.0,50.934337544024324,10.96829174877469,30.683541897727636
1322,4370,1322.0,34815.0,1322.0,32534.0,51.25326251289958,11.661141669947938,31.74911470371451
1322,4369,1322.0,34777.0,1322.0,32531.0,51.5940805899725,12.353452777552121,32.820176247651716
1322,4369,1322.0,34767.0,1322.0,32522.0,51.95466714658767,13.042938364437362,33.891708592689554
1332,4372,1332.0,34776.0,1332.0,32513.0,52.33289660050086,13.72736548591049,34.95885085580386
1332,4370,1332.0,34781.0,1332.0,32533.0,52.72665895023745,14.404247678750586,36.016756108395086
1332,4377,1332.0,34807.0,1332.0,32532.0,53.13389598750188,15.070881856666269,37.060555664149604
1332,4380,1332.0,34798.0,1332.0,32542.0,53.55266737341926,15.724646489733097,38.08551590661476
1332,4364,1332.0,34792.0,1332.0,32525.0,53.981220335627654,16.363283902718507,39.08720972474819
1332,4363,1332.0,34773.0,1332.0,32525.0,54.41794972006222,16.984917856428453,40.06152664402494
1342,4351,1342.0,34756.0,1342.0,32520.0,54.86121202774481,17.587766010599367,41.00452989027902
1342,4365,1342.0,34788.0,1342.0,32530.0,55.30912300811052,18.169763869180606,41.91231432234491
1342,4380,1342.0,34801.0,1342.0,32539.0,55.75951695080164,18.72847263293658,42.78100702170579
1342,4379,1342.0,34787.0,1342.0,32535.0,56.21013856676062,19.26136411749596,43.60691066471908
1342,4379,1342.0,34792.0,1342.0,32520.0,56.65890765262342,19.7660962832729,44.38661980871785
1342,4371,1342.0,34775.0,1342.0,32538.0,57.10404209412836,20.240516372774863,45.11698069188853
1353,4369,1353.0,34785.0,1353.0,32535.0,57.54401296531655,20.682515176531155,45.79503631632623
1353,4371,1353.0,34817.0,1353.0,32541.0,57.97743499033035,21.089977367229054,46.41810667047959
1353,4374,1353.0,34820.0,1353.0,32544.0,58.40300169861601,21.461040459534573,46.98392728391397
1353,4364,1353.0,34806.0,1353.0,32538.0,58.81948353228137,21.794526871132604,47.49075310767161
1353,4363,1353.0,34764.0,1353.0,32520.0,59.22569585711595,22.090063449206333,47.93736100895855
1353,4352,1353.0,34769.0,1353.0,32516.0,59.62037822972372,22.34767398532047,48.322869987559
1363,4364,1363.0,34780.0,1363.0,32523.0,60.002045671695,22.567229240499813,48.646474269736245
1363,4366,1363.0,34810.0,1363.0,32532.0,60.36893139205638,22.748294816995376,48.90732608496677
1363,4374,1363.0,34806.0,1363.0,32521.0,60.71907767020535,22.89046187834161,49.10461874519571
1363,4371,1363.0,34788.0,1363.0,32530.0,61.050498053840926,22.993749914049232,49.23769196599143
1363,4368,1363.0,34778.0,1363.0,32513.0,61.361289509975315,23.058666696195424,49.30604410213036
1363,4358,1363.0,34765.0,1363.0,32524.0,61.64962578511552,23.085921378006645,49.30927762601493
1374,4374,1374.0,34786.0,1374.0,32523.0,61.913670486201795,23.076098325381977,49.247054765994676
1374,4370,1374.0,34797.0,1374.0,32531.0,62.15155362527191,23.029587123521807,49.11914628914711
1374,4375,1374.0,34791.0,1374.0,32534.0,62.36146430348144,22.94680314355316,48.92557343778812
1374,4374,1374.0,34779.0,1374.0,32512.0,62.541758407839865,22.828407238978578,48.66672969662365
1374,4351,1374.0,34773.0,1374.0,32498.0,62.6909741207767,22.675271591608087,48.343306324840626
1374,4365,1374.0,34749.0,1374.0,32509.0,62.80770470242177,22.488228112124965,47.95600949850956
1384,4378,1384.0,34775.0,1384.0,32520.0,62.89047227739671,22.267763290754765,47.50536652900665
1384,4372,1384.0,34780.0,1384.0,32510.0,62.93781516204743,22.013894224867215,46.991809341293646
1384,4379,1384.0,34791.0,1384.0,32518.0,62.94849164026871,21.72636139752848,46.415844964628505
1384,4369,1384.0,34775.0,1384.0,32508.0,62.921591789963045,21.40492976120506,45.778132908509235
1384,4358,1384.0,34760.0,1384.0,32505.0,62.856512876564416,21.04947838458937,45.07948154756812
1384,4363,1384.0,34774.0,1384.0,32502.0,62.75282060362924,20.659836170388168,44.32078777754181
1394,4363,1394.0,34793.0,1394.0,32517.0,62.610107545456884,20.235669229277086,43.50299074606235
1394,4377,1394.0,34806.0,1394.0,32522.0,62.427992460445275,19.776703235251865,42.62717319333342
1394,4370,1394.0,34792.0,1394.0,32501.0,62.20625847416012,19.283141133659832,41.69476382470879
1394,4355,1394.0,34749.0,1394.0,32491.0,61.944968245386065,18.755830988636987,40.707577594429196
1394,4352,1394.0,34760.0,1394.0,32478.0,61.64438815241351,18.19594313950065,39.66758052541512
1394,4356,1394.0,34753.0,1394.0,32484.0,61.30478625669181,17.604466269805677,38.57657328471055
1405,4360,1405.0,34771.0,1405.0,32486.0,60.92632664530574,16.98197566851581,37.436022133658355
1405,4363,1405.0,34773.0,1405.0,32492.0,60.50912895065078,16.328732341667944,36.24709588376906
1405,4355,1405.0,34767.0,1405.0,32496.0,60.053379713093754,15.644904512464763,35.01083190849734
1405,4354,1405.0,34750.0,1405.0,32476.0,59.559372134442356,14.93067472380175,33.72829355775595
1405,4351,1405.0,34757.0,1405.0,32465.0,59.02745802536986,14.186131350450992,32.400552994448574
1405,4353,1405.0,34770.0,1405.0,32482.0,58.45798883820664,13.411136767901546,31.028505489018002
1415,4359,1415.0,34780.0,1415.0,32486.0,57.85131660371731,12.605425139563621,29.612796434216264
1415,4358,1415.0,34783.0,1415.0,32473.0,57.20787297320521,11.768907563882898,28.153974378741154
1415,4349,1415.0,34738.0,1415.0,32478.0,56.52826159417481,10.901885076391423,26.65263125847852
1415,4338,1415.0,34743.0,1415.0,32459.0,55.81324035759484,10.004878092292415,25.109386121481023
1415,4346,1415.0,34751.0,1415.0,32453.0,55.06358135469485,9.07822203612757,23.524756848309167
1415,4348,1415.0,34763.0,1415.0,32466.0,54.279970416680165,8.121900670487769,21.898996749648305
1425,4342,1425.0,34775.0,1425.0,32482.0,53.463041327461575,7.135756750593451,20.232092325306965
1425,4349,1425.0,34780.0,1425.0,32467.0,52.6134495719921,6.1198634650324735,18.524011218532138
1425,4338,1425.0,34750.0,1425.0,32459.0,51.731908697143155,5.074807745688695,16.774931208580625
1425,4339,1425.0,34732.0,1425.0,32446.0,50.81918723901491,4.001638547557789,14.985203346158869
1425,4320,1425.0,34739.0,1425.0,32463.0,49.876033813764835,2.9014821034002054,13.155176719009035
1425,4350,1425.0,34765.0,1425.0,32465.0,48.90306677432408,1.775247078922277,11.285170180251768
1436,4347,1436.0,34775.0,1436.0,32462.0,47.900812566946726,0.6237818391713148,9.375651739007253
1436,4333,1436.0,34738.0,1436.0,32443.0,46.86991300335859,-0.551734766399889,7.427396920482735
1436,4334,1436.0,34728.0,1436.0,32436.0,45.811230251234356,-1.7497175581736286,5.441421682965611
1436,4327,1436.0,34709.0,1436.0,32433.0,44.72575642957102,-2.9685598662900645,3.418756648948431
1436,4332,1436.0,34726.0,1436.0,32440.0,43.61450991516267,-4.207102693480131,1.3602811802148693
1436,4332,1436.0,34745.0,1436.0,32443.0,42.478521537973116,-5.4647936232884575,-0.7332552414750495
1446,4327,1446.0,34757.0,1446.0,32434.0,41.31888230019097,-6.741424205752821,-2.8610891162634147
1446,4311,1446.0,34727.0,1446.0,32432.0,40.13674937530569,-8.0367109482007,-5.022340458212298
1446,4316,1446.0,34727.0,1446.0,32426.0,38.93322940303003,-9.350150974258064,-7.216018566902946
1446,4316,1446.0,34716.0,1446.0,32412.0,37.70923820530174,-10.681219145115136,-9.441095593903256
1446,4320,1446.0,34726.0,1446.0,32421.0,36.46548461951753,-12.029601077740054,-11.696613532943744
1446,4333,1446.0,34744.0,1446.0,32429.0,35.20259258489293,-13.395215181853402,-13.981721457445246
1456,4320,1456.0,34737.0,1456.0,32428.0,33.921294674159924,-14.777993370527511,-16.295531732979427
1456,4314,1456.0,34712.0,1456.0,32412.0,32.62256145851208,-16.17765520084867,-18.636920705121398
1456,4303,1456.0,34708.0,1456.0,32401.0,31.307543233427296,-17.59378103011226,-21.004510668872896
1456,4302,1456.0,34694.0,1456.0,32399.0,29.977384785354857,-19.026139674615024,-23.39684934683855
1456,4309,1456.0,34740.0,1456.0,32399.0,28.633081131716104,-20.474916431785374,-25.81259061961319
1456,4303,1456.0,34734.0,1456.0,32413.0,27.275467289225006,-21.940548033020107,-28.25051060965916
1467,4302,1467.0,34736.0,1467.0,32393.0,25.905281326689774,-23.423271780731334,-30.709371305184817
1467,4302,1467.0,34724.0,1467.0,32391.0,24.523197464751533,-24.922803722473553,-33.187817947466556
1467,4284,1467.0,34684.0,1467.0,32375.0,23.129802889299995,-26.438388704607327,-35.68445390723437
1467,4295,1467.0,34688.0,1467.0,32380.0,21.725514209058787,-27.969198030122996,-38.198014169170506
1467,4293,1467.0,34718.0,1467.0,32390.0,20.31050234493962,-29.514754993810428,-40.72745128728273
1467,4310,1467.0,34723.0,1467.0,32399.0,18.88475940265525,-31.074920840116377,-43.27180433447501
1477,4298,1477.0,34737.0,1477.0,32387.0,17.448301450187344,-32.64944925442599,-45.82991564192592
1477,4288,1477.0,34689.0,1477.0,32365.0,16.0013250631513,-34.23759711271573,-48.400266540922175
1477,4276,1477.0,34677.0,1477.0,32366.0,14.544151690653393,-35.83820433979939,-50.98110011577752
1477,4286,1477.0,34680.0,1477.0,32359.0,13.077028641429607,-37.45018218831605,-53.57066709579897
1477,4285,1477.0,34709.0,1477.0,32355.0,11.60001940830368,-39.07287368738321,-56.167374356536115
1477,4294,1477.0,34712.0,1477.0,32367.0,10.11308046182505,-40.70590785834138,-58.76980775357997
1487,4283,1487.0,34702.0,1487.0,32353.0,8.616219276548051,-42.348780447547725,-61.376659696543015
1487,4275,1487.0,34676.0,1487.0,32349.0,7.109573715586521,-44.000646884482336,-63.98664448296307
1487,4271,1487.0,34683.0,1487.0,32343.0,5.593339917920687,-45.66049342894827,-66.5985167877516
1487,4283,1487.0,34698.0,1487.0,32353.0,4.06765998818679,-47.32737690586154,-69.21113061566942
1487,4277,1487.0,34726.0,1487.0,32362.0,2.532635427417091,-49.00032831655666,-71.82336674225382
1487,4273,1487.0,34712.0,1487.0,32354.0,0.9884318962912317,-50.67790416946137,-74.43390439791796
1498,4262,1498.0,34678.0,1498.0,32338.0,-0.5646946858346382,-52.35782876042417,-77.04103353531497
1498,4257,1498.0,34660.0,1498.0,32317.0,-2.126505352549316,-54.037154457172065,-79.64272426278785
1498,4267,1498.0,34648.0,1498.0,32313.0,-3.696911363618895,-55.71283685047534,-82.236939333234
1498,4258,1498.0,34680.0,1498.0,32323.0,-5.2760040290537376,-57.38222500419465,-84.82194083429292
1498,4267,1498.0,34671.0,1498.0,32334.0,-6.863985134472102,-59.043116794490345,-87.39633210776725
1498,4278,1498.0,34676.0,1498.0,32340.0,-8.461044511790035,-60.693502869657976,-89.95880459915494
1508,4264,1508.0,34649.0,1508.0,32311.0,-10.067176656514121,-62.331391904962274,-92.50783657927138
1508,4253,1508.0,34650.0,1508.0,32299.0,-11.682061858751396,-63.95491149633928,-95.04166555488277
1508,4248,1508.0,34660.0,1508.0,32307.0,-13.305161604738757,-65.56252286021369,-97.55854656115989
1508,4259,1508.0,34666.0,1508.0,32316.0,-14.9358946939507,-67.15306203097627,-100.0569341467571
1508,4269,1508.0,34673.0,1508.0,32315.0,-16.573639100418077,-68.72554082374444,-102.53536752222857
1508,4248,1508.0,34667.0,1508.0,32297.0,-18.217555550302095,-70.27888568966385,-104.9922633186232
1518,4237,1518.0,34627.0,1518.0,32301.0,-19.86651211045678,-71.81185329741895,-107.42587504169515
1518,4231,1518.0,34629.0,1518.0,32282.0,-21.519269689582828,-73.32329489233172,-109.83440713226344
1518,4242,1518.0,34639.0,1518.0,32275.0,-23.174724092254635,-74.81258126522809,-112.21618250311121
1518,4251,1518.0,34668.0,1518.0,32289.0,-24.831935510156896,-76.2797168388843,-114.56980694495505
1518,4243,1518.0,34670.0,1518.0,32269.0,-26.489941439045964,-77.72498706585571,-116.89422926870805
1518,4225,1518.0,34653.0,1518.0,32278.0,-28.14760399478085,-79.14848317346885,-119.18871341872759
1529,4225,1529.0,34626.0,1529.0,32266.0,-29.803689985632758,-80.54995958795612,-121.45283794339011
1529,4220,1529.0,34631.0,1529.0,32285.0,-31.457078544512953,-81.9291191516899,-123.68648439718194
1529,4218,1529.0,34656.0,1529.0,32279.0,-33.106900059119766,-83.28592949150588,-125.88971552757403
1529,4223,1529.0,34670.0,1529.0,32277.0,-34.75257203175505,-84.62053139935647,-128.0625837272474
1529,4232,1529.0,34655.0,1529.0,32284.0,-36.39373796814458,-85.93281410535002,-130.20498510461923
1529,4223,1529.0,34633.0,1529.0,32242.0,-38.03011133946099,-87.2221471821504,-132.31663202744195
1539,4206,1539.0,34614.0,1539.0,32245.0,-39.66137033892605,-88.48756454976451,-134.39724128176152
1539,4210,1539.0,34620.0,1539.0,32258.0,-41.287247127536645,-89.72821644158029,-136.44685285771862
1539,4206,1539.0,34628.0,1539.0,32253.0,-42.90769825115969,-90.94369473401055,-138.4659373611033
1539,4212,1539.0,34645.0,1539.0,32256.0,-44.52296600744357,-92.13401107864965,-140.4552475268913
1539,4218,1539.0,34619.0,1539.0,32260.0,-46.13350243174551,-93.29935736788828,-142.4156505959272
1539,4208,1539.0,34627.0,1539.0,32257.0,-47.73982672573308,-94.43997030704453,-144.3479961738062
1549,4205,1549.0,34604.0,1549.0,32239.0,-49.34243349173808,-95.5562296059433,-146.2530316889768
1549,4204,1549.0,34615.0,1549.0,32234.0,-50.94181449299144,-96.6488562171936,-148.13147470454496
1549,4213,1549.0,34640.0,1549.0,32241.0,-52.53848869142381,-97.71899609309864,-149.98419349033196
1549,4206,1549.0,34644.0,1549.0,32249.0,-54.13293531467998,-98.76800325644496,-151.81226715113326
1549,4202,1549.0,34624.0,1549.0,32241.0,-55.725498743172366,-99.79705976366573,-153.61685040581008
1549,4200,1549.0,34621.0,1549.0,32232.0,-57.31637448378717,-100.80702916905254,-155.39903523699886
1560,4189,1560.0,34595.0,1560.0,32223.0,-58.9056701488534,-101.798652734392,-157.15988341530485
1560,4196,1560.0,34609.0,1560.0,32235.0,-60.49348679366702,-102.77288193547145,-158.90055700963083
1560,4199,1560.0,34643.0,1560.0,32243.0,-62.07994977877755,-103.73103761002648,-160.62232828764905
1560,4202,1560.0,34624.0,1560.0,32231.0,-63.66512237166829,-104.6745812014124,-162.32641028203884
1560,4187,1560.0,34634.0,1560.0,32240.0,-65.24887696281591,-105.60473685632189,-164.01378607046908
1560,4183,1560.0,34592.0,1560.0,32213.0,-66.83088579301608,-106.52238526605231,-165.68517434530142
1570,4176,1570.0,34593.0,1570.0,32222.0,-68.41075548132231,-107.42832837515166,-167.34112921866824
1570,4186,1570.0,34604.0,1570.0,32236.0,-69.98816370338938,-108.32369017543351,-168.98214674531826
1570,4189,1570.0,34664.0,1570.0,32227.0,-71.56285637212594,-109.20997798298058,-170.6085899397933
1570,4179,1570.0,34624.0,1570.0,32207.0,-73.13452354505276,-110.08858560116634,-172.2205435773551
1570,4174,1570.0,34596.0,1570.0,32209.0,-74.70272406027836,-110.96031913209295,-173.81788006457663
1570,4165,1570.0,34601.0,1570.0,32204.0,-76.26695807440687,-111.82555655762624,-175.40047161793154
1580,4169,1580.0,34593.0,1580.0,32194.0,-77.82680454421003,-112.6847314351997,-176.9683382864475
1580,4167,1580.0,34613.0,1580.0,32205.0,-79.38200022074419,-113.53857000427988,-178.5217237259582
1580,4182,1580.0,34625.0,1580.0,32213.0,-80.93239743399671,-114.38798454806987,-180.06108051023088
1580,4172,1580.0,34607.0,1580.0,32208.0,-82.47781079639883,-115.23379095643529,-181.58690628460843
1580,4162,1580.0,34592.0,1580.0,32200.0,-84.01788235002282,-116.07656009198718,-183.09956836235907
1580,4155,1580.0,34595.0,1580.0,32185.0,-85.55211896767777,-116.91678102149847,-184.59930697923244
1591,4158,1591.0,34589.0,1591.0,32197.0,-87.08005345056887,-117.75511955547772,-186.08638886286857
1591,4158,1591.0,34619.0,1591.0,32201.0,-88.60134517943892,-118.59249482895348,-187.56119457109236
1591,4158,1591.0,34637.0,1591.0,32205.0,-90.11575962213698,-119.42984640752303,-189.0241060251194
1591,4160,1591.0,34605.0,1591.0,32189.0,-91.62309349174718,-120.26769914928244,-190.47532779208223
1591,4143,1591.0,34582.0,1591.0,32181.0,-93.12312651273359,-121.1059872038544,-191.91486471521372
1591,4136,1591.0,34591.0,1591.0,32170.0,-94.61568884599241,-121.94437188421328,-193.34270040744624
1601,4149,1601.0,34586.0,1601.0,32172.0,-96.10082191860359,-122.78264866793387,-194.75903899393515
1601,4152,1601.0,34594.0,1601.0,32188.0,-97.57882624400558,-123.62088108954894,-196.16442594367325
1601,4145,1601.0,34614.0,1601.0,32177.0,-99.05012540137854,-124.45929795533698,-197.55966096272212
1601,4144,1601.0,34597.0,1601.0,32176.0,-100.51513841902194,-125.29805911310986,-198.9456405451298
1601,4140,1601.0,34576.0,1601.0,32172.0,-101.97427185431843,-126.13710630963845,-200.32331431568156
1601,4137,1601.0,34562.0,1601.0,32168.0,-103.42796275139595,-126.97635816741989,-201.69373489936126
1612,4131,1612.0,34581.0,1612.0,32186.0,-104.87672794169025,-127.81610559670987,-203.05807379323662
1612,4141,1612.0,34631.0,1612.0,32191.0,-106.32120550703024,-128.6570996896868,-204.41748987939386
1612,4145,1612.0,34620.0,1612.0,32181.0,-107.7621135113065,-129.50006293361974,-205.77287280414956
1612,4137,1612.0,34590.0,1612.0,32172.0,-109.2001097915993,-130.3450750127331,-207.12468582174057
1612,4126,1612.0,34567.0,1612.0,32152.0,-110.63570456601978,-131.19152124450875,-208.47306592536654
1612,4124,1612.0,34566.0,1612.0,32153.0,-112.06934118994428,-132.0386016252557,-209.81810637228713
1622,4132,1622.0,34590.0,1622.0,32162.0,-113.50152969219037,-132.8858035042634,-211.16010910556705
1622,4125,1622.0,34589.0,1622.0,32159.0,-114.93286915514162,-133.7329372117487,-212.49962897964556
1622,4133,1622.0,34590.0,1622.0,32159.0,-116.36397308830182,-134.57987429231315,-213.83736441970106
1622,4119,1622.0,34573.0,1622.0,32155.0,-117.79540098644027,-135.42636273948744,-215.1740705610119
1622,4121,1622.0,34560.0,1622.0,32148.0,-119.22765474139185,-136.27210744318143,-216.51055555855206
1622,4124,1622.0,34578.0,1622.0,32146.0,-120.6612196528931,-137.11700860070795,-217.847739805663
1632,4126,1632.0,34596.0,1632.0,32154.0,-122.09655288420866,-137.96124239954344,-219.18671732390314
1632,4115,1632.0,34606.0,1632.0,32162.0,-123.53400922892848,-138.80498565082112,-220.52870798977438
1632,4123,1632.0,34578.0,1632.0,32140.0,-124.97380536094816,-139.64802316969877,-221.87491472998013
1632,4101,1632.0,34564.0,1632.0,32154.0,-126.41605493639015,-140.48966895184606,-223.2264596866398
1632,4109,1632.0,34531.0,1632.0,32136.0,-127.86086239806215,-141.32913876645068,-224.58443776521878
1632,4109,1632.0,34576.0,1632.0,32138.0,-129.3084269088191,-142.16607265017024,-225.94999443779537
1643,4109,1643.0,34565.0,1643.0,32153.0,-130.7590511765543,-143.00073377244445,-227.3243731252243
1643,4116,1643.0,34574.0,1643.0,32147.0,-132.21305111725792,-143.8337986852299,-228.70884307753113
1643,4112,1643.0,34570.0,1643.0,32130.0,-133.67063515408023,-144.66609917123787,-230.10456437740416
1643,4097,1643.0,34554.0,1643.0,32121.0,-135.13182599783994,-145.49854637526522,-231.51263489609082
1643,4082,1643.0,34549.0,1643.0,32135.0,-136.59654834976493,-146.332239216647,-232.934302973943
1643,4092,1643.0,34569.0,1643.0,32129.0,-138.0648744298822,-147.16864372421762,-234.3710685394027
1653,4104,1653.0,34582.0,1653.0,32146.0,-139.53717436695973,-148.00957410287927,-235.82457751048926
1653,4101,1653.0,34589.0,1653.0,32137.0,-141.0139994308092,-148.85687429949974,-237.29642275940324
1653,4092,1653.0,34563.0,1653.0,32125.0,-142.4958721356847,-149.71207523812166,-238.78799729699
1653,4078,1653.0,34552.0,1653.0,32117.0,-143.9832503295127,-150.57636765267642,-240.30053319235518
1653,4087,1653.0,34547.0,1653.0,32113.0,-145.4766753714592,-151.45090463385617,-241.83529987382192
1653,4088,1653.0,34556.0,1653.0,32131.0,-146.97688986840217,-152.33712422025465,-243.39375332684182
1663,4085,1663.0,34561.0,1663.0,32120.0,-148.48480150528133,-153.2368390281753,-244.9774904387269
1663,4082,1663.0,34584.0,1663.0,32127.0,-150.00140020245732,-154.15207263517055,-246.58809343938697
1663,4082,1663.0,34573.0,1663.0,32112.0,-151.52773582862278,-155.0847418226552,-248.2270384274719
1663,4078,1663.0,34540.0,1663.0,32099.0,-153.06492810601333,-156.03644365129875,-249.89574888026007
1663,4079,1663.0,34548.0,1663.0,32098.0,-154.61417022369974,-157.00861241551576,-251.59578802760254
1663,4079,1663.0,34580.0,1663.0,32117.0,-156.176718028115,-158.00280155495517,-253.3290301681574
1674,4086,1674.0,34575.0,1674.0,32122.0,-157.75383844449362,-159.02059466430518,-255.09758017233378
1674,4080,1674.0,34558.0,1674.0,32124.0,-159.34670697113674,-160.06326090390638,-256.9034674206851
1674,4069,1674.0,34547.0,1674.0,32092.0,-160.95633313184285,-161.1316667621675,-258.7484156463116
1674,4073,1674.0,34532.0,1674.0,32094.0,-162.5835988454294,-162.2265432915329,-260.63392741629116
1674,4063,1674.0,34546.0,1674.0,32089.0,-164.2293550392987,-163.34882546717046,-262.56157189112173
1674,4074,1674.0,34568.0,1674.0,32105.0,-165.89447326829236,-164.4997641309894,-264.53315404008424
1684,4071,1684.0,34574.0,1684.0,32097.0,-167.57981386031707,-165.68067287700444,-266.5506397892302
1684,4060,1684.0,34557.0,1684.0,32104.0,-169.28615103531504,-166.8925263777657,-268.6159766801651
1684,4057,1684.0,34536.0,1684.0,32080.0,-171.01417436965386,-168.13582295130033,-270.7309900884786
1684,4065,1684.0,34529.0,1684.0,32075.0,-172.76457062844275,-169.41084287971262,-272.89746017278594
1684,4049,1684.0,34548.0,1684.0,32106.0,-174.53806047272602,-170.7180069984017,-275.11727426134576
1684,4066,1684.0,34562.0,1684.0,32104.0,-176.3353799003748,-172.05794294243236,-277.3923429657546
1694,4057,1694.0,34578.0,1694.0,32108.0,-178.15723270598494,-173.43116594484866,-279.7242415113736
1694,4063,1694.0,34555.0,1694.0,32091.0,-180.00419369984354,-174.83764332421148,-282.11391418672775
1694,4056,1694.0,34530.0,1694.0,32086.0,-181.87661325748493,-176.27664132110948,-284.5616442358137
1694,4048,1694.0,34517.0,1694.0,32066.0,-183.7745899651447,-177.74703034922663,-287.0672284519313
1694,4049,1694.0,34546.0,1694.0,32075.0,-185.69802146885627,-179.2477431003268,-289.6302249200951
1694,4056,1694.0,34546.0,1694.0,32086.0,-187.64665662258804,-180.77789984348084,-292.2500877296884
1705,4056,1705.0,34541.0,1705.0,32102.0,-189.6200376343362,-182.33657464267083,-294.926018678117
1705,4037,1705.0,34532.0,1705.0,32079.0,-191.61739293046122,-183.92259714697494,-297.65662705201055
1705,4032,1705.0,34523.0,1705.0,32061.0,-193.6376730067422,-185.5345964040756,-300.4397577361648
1705,4028,1705.0,34517.0,1705.0,32066.0,-195.67974548027968,-187.17118554891647,-303.2726597126079
1705,4039,1705.0,34553.0,1705.0,32074.0,-197.74254902653195,-188.8310789672608,-306.1522056269316
1705,4039,1705.0,34549.0,1705.0,32066.0,-199.82506052910423,-190.51292139314359,-309.0748771649163
1715,4043,1715.0,34541.0,1715.0,32058.0,-201.9261240461347,-192.2149139801532,-312.03664585769275
1715,4023,1715.0,34522.0,1715.0,32053.0,-204.044305549204,-193.9346340417925,-315.0329700145535
1715,4026,1715.0,34519.0,1715.0,32050.0,-206.17790501531059,-195.66919827613458,-318.0588856528419
1715,4017,1715.0,34514.0,1715.0,32048.0,-208.3250874678311,-197.415546942736,-321.1090741953372
1715,4023,1715.0,34542.0,1715.0,32058.0,-210.48398731278513,-199.1705799278692,-324.17784840697857
1715,4030,1715.0,34553.0,1715.0,32057.0,-212.65269698519762,-200.93097682729527,-327.2590284111308
1725,4017,1725.0,34531.0,1725.0,32063.0,-214.82915615579637,-202.69280435835122,-330.3457342792718
1725,4010,1725.0,34496.0,1725.0,32045.0,-217.01108119712592,-204.45136047711532,-333.43020467708163
1725,4017,1725.0,34511.0,1725.0,32024.0,-219.19602199616673,-206.20149412719923,-336.50379559374676
1725,4010,1725.0,34519.0,1725.0,32041.0,-221.3814207168577,-207.93799400257097,-339.5571836895932
1725,4022,1725.0,34543.0,1725.0,32047.0,-223.56456735829275,-209.65556686679798,-342.58050133842755
1725,4017,1725.0,34518.0,1725.0,32030.0,-225.74248052395197,-211.34849261683675,-345.56321950664517
1736,4012,1736.0,34525.0,1736.0,32019.0,-227.9117802737894,-213.01037315078383,-348.4940378240702
1736,3984,1736.0,34484.0,1736.0,32010.0,-230.06868874582932,-214.6341998595358,-351.3610149145952
1736,3991,1736.0,34495.0,1736.0,32004.0,-232.20924567587954,-216.21268126083461,-354.15181388025553
1736,4000,1736.0,34493.0,1736.0,32012.0,-234.32955072969358,-217.7386002945111,-356.8538710690367
1736,4002,1736.0,34518.0,1736.0,32009.0,-236.42576564296147,-219.2049161669616,-359.4544116218548
1736,3989,1736.0,34519.0,1736.0,31999.0,-238.49394307749185,-220.6045320517934,-361.9403729157365
1746,3989,1746.0,34495.0,1746.0,31991.0,-240.52994944933644,-221.92998184107844,-364.2983982137804
1746,3991,1746.0,34470.0,1746.0,31985.0,-242.52951423705997,-223.1734227089167,-366.5149596317065
1746,3972,1746.0,34493.0,1746.0,31993.0,-244.48828448084345,-224.3269843212276,-368.57649549974457
1746,3996,1746.0,34512.0,1746.0,31997.0,-246.4018643726347,-225.38300341694318,-370.46942089575555
1746,3992,1746.0,34515.0,1746.0,32009.0,-248.26577734268375,-226.333802005089,-372.17996929012884
1746,3994,1746.0,34505.0,1746.0,31984.0,-250.0752880504163,-227.17128667660916,-373.6939810952406
1756,3971,1756.0,34485.0,1756.0,31977.0,-251.82526251319374,-227.88680640526377,-374.9968682464052
1756,3979,1756.0,34478.0,1756.0,31969.0,-253.5102365194092,-228.47136421560694,-376.07383419708674
1756,3970,1756.0,34490.0,1756.0,31987.0,-255.12458118716162,-228.91594824466773,-376.9101211178739
1756,3972,1756.0,34482.0,1756.0,31986.0,-256.66259989884566,-229.21170321166042,-377.49103383441934
1756,3984,1756.0,34502.0,1756.0,31983.0,-258.11852441287044,-229.34989603912555,-377.80178550243335
1756,3978,1756.0,34502.0,1756.0,31975.0,-259.48641033674573,-229.32176293141208,-377.8274002468012
1767,3969,1767.0,34477.0,1767.0,31967.0,-260.7600110741947,-229.11835759374236,-377.55279061922795
1767,3961,1767.0,34473.0,1767.0,31960.0,-261.9327923367676,-228.7306214611401,-376.9629577408382
1767,3947,1767.0,34487.0,1767.0,31964.0,-262.9981157535545,-228.14966205942397,-376.0432154527705
1767,3966,1767.0,34501.0,1767.0,31981.0,-263.9494561991674,-227.36687956698518,-374.7793074150969
1767,3958,1767.0,34502.0,1767.0,31962.0,-264.780481036335,-226.37378806154146,-373.15736096318267
1767,3965,1767.0,34480.0,1767.0,31951.0,-265.4849671983113,-225.16180695603384,-371.1638785294884
1777,3962,1777.0,34448.0,1777.0,31941.0,-266.0566939290007,-223.72238716786373,-368.7859836155213
1777,3955,1777.0,34449.0,1777.0,31953.0,-266.4893984028912,-222.04754312619585,-366.01179425259267
1777,3963,1777.0,34483.0,1777.0,31951.0,-266.7767924028871,-220.1303922154819,-362.83065520890364
1777,3972,1777.0,34483.0,1777.0,31965.0,-266.9125593100298,-217.96523038130994,-359.233172659081
1777,3954,1777.0,34495.0,1777.0,31960.0,-266.89027292097404,-215.54721899677372,-355.2111609397006
1777,3943,1777.0,34468.0,1777.0,31958.0,-266.7034001949164,-212.87214053518733,-350.7576251405592
1787,3946,1787.0,34467.0,1787.0,31955.0,-266.34551360719075,-209.9364883144085,-345.86686479159385
1787,3955,1787.0,34484.0,1787.0,31955.0,-265.81051499426377,-206.73776295374861,-340.5346786320878
1787,3958,1787.0,34520.0,1787.0,31990.0,-265.0926565816296,-203.27456888712288,-334.7585148171546
1787,3960,1787.0,34512.0,1787.0,31986.0,-264.18641807864276,-199.54630459349954,-328.5373967029671
1787,3962,1787.0,34503.0,1787.0,31986.0,-263.08639382936786,-195.5527906234276,-321.8717234548009
1787,3956,1787.0,34494.0,1787.0,31977.0,-261.7872509106192,-191.29425840063644,-314.76325513820115
1798,3944,1798.0,34478.0,1798.0,31986.0,-260.2837907316516,-186.77169170894186,-307.2153450142918
1798,3946,1798.0,34502.0,1798.0,32008.0,-258.57113656739807,-181.98724967449627,-299.2331700616108
1798,3958,1798.0,34510.0,1798.0,32008.0,-256.6449318389164,-176.94449395656443,-290.8237612881738
1798,3958,1798.0,34541.0,1798.0,32024.0,-254.5013833515368,-171.64827841311185,-281.9959085413209
1798,3958,1798.0,34545.0,1798.0,32044.0,-252.13718605716173,-166.1044002884981,-272.76006708134594
1798,3940,1798.0,34508.0,1798.0,32031.0,-249.549527787112,-160.3193304921723,-263.1282696819072
1808,3947,1808.0,34524.0,1808.0,32032.0,-246.73627322332868,-154.3003506242619,-253.11415724621224
1808,3952,1808.0,34536.0,1808.0,32071.0,-243.69619970210778,-148.05594678134793,-242.73316802164203
1808,3964,1808.0,34567.0,1808.0,32095.0,-240.42908456843463,-141.5959479026146,-232.00255105564662
1808,3970,1808.0,34566.0,1808.0,32099.0,-236.935613762927,-134.93128493246058,-220.9410455426796
1808,3976,1808.0,34567.0,1808.0,32104.0,-233.21722700051703,-128.0737064191335,-209.56857763181125
1808,3958,1808.0,34562.0,1808.0,32107.0,-229.27603915603862,-121.0357395888759,-197.90625133921264
1818,3972,1818.0,34568.0,1818.0,32129.0,-225.11493292476212,-113.83088032515222,-185.97650744938585
1818,3983,1818.0,34596.0,1818.0,32162.0,-220.73770935983362,-106.47377689378003,-173.8031724705798
1818,3988,1818.0,34624.0,1818.0,32170.0,-216.14908774870702,-98.98015198666415,-161.4112613273918
1818,3995,1818.0,34626.0,1818.0,32199.0,-211.35458303662614,-91.36643832553911,-148.8266645615442
1818,4000,1818.0,34619.0,1818.0,32204.0,-206.36041039966338,-83.64944706677358,-136.0758973204278
1818,4016,1818.0,34636.0,1818.0,32219.0,-201.17342083696417,-75.84633560860544,-123.18595381920821
1829,4007,1829.0,34651.0,1829.0,32247.0,-195.80102508347676,-67.97470831223276,-110.1842320158062
1829,4016,1829.0,34680.0,1829.0,32266.0,-190.25116835662016,-60.05254197576812,-97.09840620238646
1829,4036,1829.0,34713.0,1829.0,32290.0,-184.5323617676819,-52.09784037732993,-83.95617579706658
1829,4038,1829.0,34694.0,1829.0,32306.0,-178.65362848016576,-44.128160992739254,-70.78497646175703
1829,4035,1829.0,34685.0,1829.0,32305.0,-172.62438255292363,-36.16038567293231,-57.61177812191639
1829,4041,1829.0,34685.0,1829.0,32323.0,-166.4544283814669,-28.21096339402115,-44.46305804465152
1839,4054,1839.0,34712.0,1839.0,32346.0,-160.15406221851623,-20.296316925305774,-31.3648712001729
1839,4073,1839.0,34753.0,1839.0,32367.0,-153.73407713093184,-12.432917068110072,-18.342806581409036
1839,4080,1839.0,34751.0,1839.0,32379.0,-147.20560022912161,-4.636908580218005,-5.421796258176471
1839,4083,1839.0,34752.0,1839.0,32409.0,-140.57989133826302,3.07633026236212,7.374096167762332
1839,4089,1839.0,34751.0,1839.0,32405.0,-133.86825453120542,10.69229631314164,20.021851848442225
1839,4092,1839.0,34765.0,1839.0,32414.0,-127.08206823016414,18.197203668317,32.49956968807635
1850,4114,1850.0,34776.0,1850.0,32444.0,-120.23282422984916,25.577857202614695,44.78640644422222
1850,4132,1850.0,34819.0,1850.0,32465.0,-113.33204373140047,32.821742134348966,56.862593084763205
1850,4136,1850.0,34826.0,1850.0,32482.0,-106.39104370735639,39.917384686329854,68.7096677123539
1850,4142,1850.0,34789.0,1850.0,32491.0,-99.42071512378843,46.85473128014269,80.31075367932846
1850,4138,1850.0,34793.0,1850.0,32482.0,-92.43147050471138,53.6250751071008,91.65066492794114
1850,4140,1850.0,34798.0,1850.0,32481.0,-85.43335846239354,60.22056075919377,102.71574196435978
1860,4152,1860.0,34832.0,1860.0,32518.0,-78.43624366848047,66.6338298004465,113.49354645561874
1860,4171,1860.0,34849.0,1860.0,32536.0,-71.44989611162154,72.85812728470972,123.97276904618428
1860,4172,1860.0,34838.0,1860.0,32535.0,-64.48391039536978,78.88766303972733,134.14344389032794
1860,4179,1860.0,34829.0,1860.0,32540.0,-57.54758023004112,84.71778676388283,143.99712421109916
1860,4184,1860.0,34816.0,1860.0,32539.0,-50.649869468205054,90.34475856131101,153.52679659989514
1860,4187,1860.0,34836.0,1860.0,32555.0,-43.799461169096304,95.76532351192196,162.72667194469773
1870,4207,1870.0,34879.0,1870.0,32574.0,-37.004799404454104,100.97651740675195,171.59206773153107
1870,4215,1870.0,34874.0,1870.0,32586.0,-30.274044598622453,105.97594053120983,180.11948107126636
1870,4212,1870.0,34864.0,1870.0,32582.0,-23.614960342591985,110.76217782005884,188.30674534740837
1870,4226,1870.0,34874.0,1870.0,32568.0,-17.03486498311989,115.33489595647481,196.1530216816252
1870,4220,1870.0,34857.0,1870.0,32592.0,-10.540680114624706,119.69465186355984,203.65855243536345
1870,4234,1870.0,34859.0,1870.0,32579.0,-4.1390049055669635,123.84263318655533,210.82439331634413
1881,4250,1881.0,34872.0,1881.0,32594.0,2.1638507491213943,127.78040562985171,217.65226169963177
1881,4260,1881.0,34897.0,1881.0,32617.0,8.361955412866848,131.5098330590829,224.14447684842565
1881,4259,1881.0,34898.0,1881.0,32615.0,14.449923311848181,135.03328567070685,230.30404257390876
1881,4255,1881.0,34869.0,1881.0,32608.0,20.422973568523247,138.353873084815,236.13477714495355
1881,4267,1881.0,34850.0,1881.0,32605.0,26.276822951269423,141.4752894461027,241.64123941044534
1881,4276,1881.0,34883.0,1881.0,32617.0,32.00756812275446,144.40131698074686,246.82848136865437
1891,4295,1891.0,34895.0,1891.0,32643.0,37.6117153773923,147.13554441686676,251.70191845459618
1891,4292,1891.0,34906.0,1891.0,32628.0,43.08633775772293,149.68157132776207,256.26744487849675
1891,4286,1891.0,34899.0,1891.0,32627.0,48.42918157529195,152.0433603207938,260.53155504245086
1891,4293,1891.0,34871.0,1891.0,32626.0,53.638586841898956,154.22533018602638,264.5012340703732
1891,4287,1891.0,34876.0,1891.0,32621.0,58.71329656340171,156.2320826194354,268.18371640549844
1891,4307,1891.0,34894.0,1891.0,32631.0,63.6523067315936,158.06802546420505,271.5862822454014
1901,4320,1901.0,34927.0,1901.0,32650.0,68.45485824333448,159.73733147159783,274.71618265152887
1901,4317,1901.0,34904.0,1901.0,32647.0,73.12058089902641,161.24429315122518,277.5807517872282
1901,4318,1901.0,34906.0,1901.0,32651.0,77.64961951249799,162.59363442712868,280.18758665047415
1901,4314,1901.0,34897.0,1901.0,32642.0,82.04258834168428,163.79047540071895,282.54460181016714
1901,4313,1901.0,34889.0,1901.0,32641.0,86.30040038223933,164.84009577570555,284.65992854482135
1901,4324,1901.0,34907.0,1901.0,32643.0,90.4240888826308,165.74771939110434,286.5417471730026
1912,4331,1912.0,34923.0,1912.0,32651.0,94.4147262875116,166.51848361568528,288.1981696910098
1912,4333,1912.0,34918.0,1912.0,32670.0,98.27346486254004,167.15765617052358,289.63727566466105
1912,4336,1912.0,34891.0,1912.0,32646.0,102.0015977809849,167.67083005822582,290.8672707575873
1912,4346,1912.0,34882.0,1912.0,32639.0,105.60057789989412,168.06376251455822,291.8965268122461
1912,4340,1912.0,34900.0,1912.0,32640.0,109.0720285874695,168.34197720338943,292.73336155907754
1912,4343,1912.0,34910.0,1912.0,32643.0,112.41773036566715,168.5105706428323,293.3857742237421
1922,4354,1922.0,34924.0,1922.0,32661.0,115.63956510322075,168.5743947023431,293.86138163638304
1922,4355,1922.0,34909.0,1922.0,32651.0,118.73950269870912,168.5383741829425,294.1675485149842
1922,4351,1922.0,34895.0,1922.0,32651.0,121.71963828863042,168.4076335025311,294.31153156547515
1922,4352,1922.0,34892.0,1922.0,32661.0,124.58216456584199,168.18732102198453,294.3005157364819
1922,4354,1922.0,34915.0,1922.0,32647.0,127.32926497589267,167.88236357522806,294.14161322398195
1922,4365,1922.0,34920.0,1922.0,32662.0,129.96303700278492,167.49748090517312,293.8418776102933
1932,4376,1932.0,34913.0,1932.0,32654.0,132.48553451847414,167.03743960906525,293.4083207657335
1932,4371,1932.0,34902.0,1932.0,32639.0,134.89890889130095,166.507218597158,292.84791204813104
1932,4367,1932.0,34884.0,1932.0,32638.0,137.20550105503958,165.91189163272514,292.16746041267584
1932,4365,1932.0,34879.0,1932.0,32631.0,139.40777316451164,165.256299648109,291.37338932773764
1932,4370,1932.0,34887.0,1932.0,32643.0,141.5081566646412,164.5447150486546,290.47157224814816
1932,4375,1932.0,34904.0,1932.0,32654.0,143.5089603793616,163.78072450866102,289.4673498636571
1943,4379,1943.0,34926.0,1943.0,32657.0,145.4123830654329,162.96744547463828,288.3657370277985
1943,4376,1943.0,34894.0,1943.0,32644.0,147.22056762216613,162.1079163840123,287.1716653903581
1943,4388,1943.0,34881.0,1943.0,32647.0,148.93563415094178,161.2052496811375,285.89006526866467
1943,4383,1943.0,34886.0,1943.0,32629.0,150.559710008722,160.2623795627287,284.52577647900523
1943,4394,1943.0,34913.0,1943.0,32638.0,152.09498107158527,159.2818050498345,283.0833952271734
1943,4391,1943.0,34916.0,1943.0,32646.0,153.54374794970772,158.26572696577915,281.56718237419614
1953,4394,1953.0,34908.0,1953.0,32640.0,154.90847089323773,157.21642088839934,279.98112804480195
1953,4373,1953.0,34883.0,1953.0,32636.0,156.19174260343976,156.13641090369737,278.32907327890945
1953,4378,1953.0,34874.0,1953.0,32623.0,157.39611399361638,155.02825588063016,276.61470848615744
1953,4389,1953.0,34888.0,1953.0,32627.0,158.52387400455876,153.89416877277495,274.8414445324133
1953,4398,1953.0,34900.0,1953.0,32630.0,159.5770100509639,152.73585337436387,273.01230002456873
1953,4394,1953.0,34919.0,1953.0,32639.0,160.55736319197916,151.55471428743988,271.1299321790492
1963,4398,1963.0,34891.0,1963.0,32634.0,161.46677356567,150.35222350562665,269.1967970104445
1963,4393,1963.0,34873.0,1963.0,32622.0,162.30711281725416,149.13004287051425,267.21528292737304
1963,4392,1963.0,34877.0,1963.0,32621.0,163.08024191204998,147.88975462098418,265.18768813733817
1963,4388,1963.0,34887.0,1963.0,32622.0,163.78792665312602,146.63253794512926,263.11610654291627
1963,4401,1963.0,34917.0,1963.0,32628.0,164.431757390622,145.35918813483448,261.0023900246986
1963,4409,1963.0,34897.0,1963.0,32630.0,165.01317607635985,144.07046818679652,258.84824370809446
1974,4396,1974.0,34889.0,1974.0,32610.0,165.5336126362024,142.76741640986106,256.6553448731605
1974,4391,1974.0,34867.0,1974.0,32617.0,165.99454038374802,141.45129026446276,254.4253356968921
1974,4390,1974.0,34868.0,1974.0,32600.0,166.39734519624852,140.12322532638186,252.15969786914496
1974,4393,1974.0,34875.0,1974.0,32610.0,166.7431541144204,138.78391896644115,249.8596304538953
1974,4403,1974.0,34885.0,1974.0,32616.0,167.03278319720886,137.43355929886417,247.52602201700756
1974,4405,1974.0,34897.0,1974.0,32619.0,167.266824833515,136.0720135429009,245.15957364641758
1984,4406,1984.0,34880.0,1984.0,32609.0,167.4457955592149,134.69910579818512,242.76099391000707
1984,4385,1984.0,34869.0,1984.0,32598.0,167.57020067553105,133.314733294543,240.33107347417086
1984,4407,1984.0,34875.0,1984.0,32602.0,167.64044684568,131.9187361252158,237.87059281413815
1984,4403,1984.0,34896.0,1984.0,32627.0,167.65676050426447,130.5107774793477,235.38027143396164
1984,4400,1984.0,34914.0,1984.0,32619.0,167.61924158514609,129.09053591326142,232.86096903732823
1984,4417,1984.0,34895.0,1984.0,32613.0,167.5279554223842,127.65813074409462,230.31399898761322
1994,4409,1994.0,34882.0,1994.0,32602.0,167.38302639342766,126.21437987655924,227.74124844553495
1994,4396,1994.0,34859.0,1994.0,32589.0,167.18471913552145,124.76064316326142,225.1450545478083
1994,4402,1994.0,34860.0,1994.0,32588.0,166.9333798372186,123.29840102904646,222.5279782273915
1994,4409,1994.0,34888.0,1994.0,32601.0,166.62931247492583,121.82893461275316,219.89264357106646
1994,4422,1994.0,34897.0,1994.0,32597.0,166.2728166405554,120.35340891594689,217.2417761989724
1994,4409,1994.0,34873.0,1994.0,32592.0,165.8643788555291,118.87323749360388,214.5783657037607
2004,4416,2004.0,34867.0,2004.0,32583.0,165.40481498849195,117.39025307353137,211.90574361760952
2004,4398,2004.0,34867.0,2004.0,32582.0,164.89526055030817,115.90653632570275,209.22752419294972
2004,4412,2004.0,34876.0,2004.0,32576.0,164.3370695516413,114.4242244942111,206.54750907568024
2004,4417,2004.0,34900.0,2004.0,32584.0,163.73176152401183,112.9455750514322,203.869642774952
2004,4413,2004.0,34881.0,2004.0,32575.0,163.08110570473144,111.47325799646919,201.19804309187893
2004,4406,2004.0,34870.0,2004.0,32571.0,162.387226984532,110.01058328314392,198.53704971572034
2014,4400,2014.0,34837.0,2014.0,32559.0,161.65257368675927,108.56136580356184,195.891193715867
2014,4403,2014.0,34834.0,2014.0,32535.0,160.87978556064945,107.12945210670932,193.26502910264443
2014,4400,2014.0,34843.0,2014.0,32554.0,160.07159345270944,105.71822443450384,190.66286273990454
2014,4401,2014.0,34873.0,2014.0,32556.0,159.23079104681227,104.3304462253694,188.0885969790473
2014,4404,2014.0,34860.0,2014.0,32565.0,158.36024620622555,102.96853397427157,185.54585689283263
2014,4393,2014.0,34853.0,2014.0,32545.0,157.4629194480506,101.63490525499702,183.03823198960697
2024,4386,2024.0,34844.0,2024.0,32540.0,156.5418226751275,100.33204260162142,180.56934694488533
2024,4394,2024.0,34826.0,2024.0,32541.0,155.5998958098542,99.06228935996212,178.14273492491876
2024,4396,2024.0,34860.0,2024.0,32556.0,154.6399327754734,97.82761420535377,175.7617481368873
2024,4408,2024.0,34879.0,2024.0,32536.0,153.66466601120817,96.62965185785775,173.42964512847502
2024,4399,2024.0,34860.0,2024.0,32548.0,152.67694669494117,95.47009885520212,171.14970699675496
2024,4381,2024.0,34829.0,2024.0,32540.0,151.67984047283542,94.35099684870872,168.9252710955764
2035,4387,2035.0,34830.0,2035.0,32524.0,150.6765131327402,93.27450469367086,166.75971856154388
2035,4379,2035.0,34837.0,2035.0,32522.0,149.67002349912556,92.24245675604037,164.65636900572028
2035,4387,2035.0,34851.0,2035.0,32538.0,148.66321165512062,91.25619710930891,162.61832880872012
2035,4395,2035.0,34854.0,2035.0,32536.0,147.65872286880352,90.31675432348567,160.6485114742499
2035,4387,2035.0,34850.0,2035.0,32519.0,146.6591286813578,89.42510990834236,158.74979553747548
2035,4382,2035.0,34834.0,2035.0,32519.0,145.66702567129875,88.58231955258135,156.9250487551816
2045,4377,2045.0,34837.0,2045.0,32499.0,144.68499645911737,87.78941427228193,155.176955749589
2045,4374,2045.0,34838.0,2045.0,32521.0,143.71548143805518,87.04722511897344,153.5078149594666
2045,4389,2045.0,34851.0,2045.0,32529.0,142.7606947141939,86.35633378751032,151.91950920924134
2045,4383,2045.0,34846.0,2045.0,32511.0,141.82267322140817,85.71718754801176,150.41369029619923
2045,4376,2045.0,34829.0,2045.0,32511.0,140.9033881093601,85.13021051404601,148.99191647442657
2045,4373,2045.0,34841.0,2045.0,32502.0,140.00475036966213,84.59574933479239,147.65557076493292
2055,4370,2055.0,34819.0,2055.0,32491.0,139.12850254174754,84.11391603299002,146.40567944160867
2055,4374,2055.0,34827.0,2055.0,32507.0,138.27612190816907,83.68443321320001,145.24275004970568
2055,4378,2055.0,34837.0,2055.0,32505.0,137.44881000174888,83.3065221130438,144.16672808776522
2055,4383,2055.0,34850.0,2055.0,32517.0,136.64757647195273,82.97895897824375,143.17712697747461
2055,4381,2055.0,34854.0,2055.0,32515.0,135.87337274900716,82.7003341888373,142.27323620703035
2055,4375,2055.0,34833.0,2055.0,32501.0,135.1271864281578,82.46929965943771,141.45426802501714
2066,4367,2066.0,34835.0,2066.0,32503.0,134.41002146493298,82.28457790084195,140.7193435440376
2066,4374,2066.0,34848.0,2066.0,32500.0,133.72278843443723,82.14480766338015,140.06736482508296
2066,4388,2066.0,34851.0,2066.0,32510.0,133.06625862554583,82.04851559580005,139.49693891690305
2066,4385,2066.0,34857.0,2066.0,32503.0,132.4411972925949,81.99428074640652,139.00641459832292
2066,4366,2066.0,34838.0,2066.0,32492.0,131.8485283072484,81.98088553393073,138.59392056436943
2066,4360,2066.0,34812.0,2066.0,32488.0,131.28927519668562,82.00722657717442,138.25727154470627
2076,4368,2076.0,34833.0,2076.0,32491.0,130.76431698968548,82.07196316349385,137.99378289061912
2076,4368,2076.0,34846.0,2076.0,32511.0,130.27423406523144,82.1732474274369,137.80019202715835
2076,4372,2076.0,34861.0,2076.0,32518.0,129.81933909189806,82.3088560323008,137.67282244697103
2076,4381,2076.0,34848.0,2076.0,32505.0,129.39979185371274,82.4765493741419,137.6078770212353
2076,4370,2076.0,34845.0,2076.0,32506.0,129.0157250973411,82.67427791828008,137.60158956596524
2076,4367,2076.0,34832.0,2076.0,32507.0,128.66730044540188,82.90010824412128,137.65017407289486
2086,4367,2086.0,34852.0,2086.0,32519.0,128.35463973085174,83.15203278609897,137.74977612194346
2086,4372,2086.0,34875.0,2086.0,32517.0,128.07773495731726,83.42795474968823,137.89655611545447
2086,4372,2086.0,34877.0,2086.0,32516.0,127.83644818669873,83.72599397452645,138.0868214859841
2086,4358,2086.0,34842.0,2086.0,32508.0,127.6305426670362,84.04483048915264,138.31707038781013
2086,4360,2086.0,34825.0,2086.0,32502.0,127.45961771138172,84.383620361044,138.58390246970208
2086,4360,2086.0,34830.0,2086.0,32504.0,127.32296757356475,84.74148793352042,138.88385553098536
2097,4366,2097.0,34856.0,2097.0,32512.0,127.21950599541307,85.11711457689198,139.21328757220834
2097,4367,2097.0,34854.0,2097.0,32524.0,127.14780501850568,85.50877813705608,139.5684136342843
2097,4374,2097.0,34852.0,2097.0,32515.0,127.10619345507324,85.91463468210762,139.9454732589963
2097,4364,2097.0,34847.0,2097.0,32513.0,127.09285232798887,86.3328682132272,140.3408546521491
2097,4359,2097.0,34835.0,2097.0,32497.0,127.1058263843378,86.76161733046042,140.75103603346872
2097,4364,2097.0,34834.0,2097.0,32510.0,127.14292745693419,87.19877402759188,141.17239488376123
2107,4379,2107.0,34871.0,2107.0,32525.0,127.20167342163192,87.64183883655745,141.60109971882753
2107,4381,2107.0,34877.0,2107.0,32528.0,127.27940852898793,88.08809142617629,142.0332464053635
2107,4387,2107.0,34857.0,2107.0,32524.0,127.37353840651491,88.53499376147342,142.4651136710892
2107,4371,2107.0,34856.0,2107.0,32522.0,127.48169565677927,88.98037461945644,142.8932950867556
2107,4368,2107.0,34836.0,2107.0,32512.0,127.60171673421074,89.42223971534052,143.31465299838374
2107,4369,2107.0,34841.0,2107.0,32514.0,127.73147065172151,89.85843619115414,143.72617546871925
2118,4374,2118.0,34856.0,2118.0,32535.0,127.86871565221111,90.28641033368214,144.12487394360033
2118,4386,2118.0,34878.0,2118.0,32527.0,128.01111140958653,90.70324882356377,144.50786137771678
2118,4380,2118.0,34874.0,2118.0,32520.0,128.15635849985466,91.10600966865374,144.87250973002352
2118,4368,2118.0,34856.0,2118.0,32503.0,128.3023053432549,91.49203126033503,145.21642181445804
2118,4370,2118.0,34854.0,2118.0,32502.0,128.44688103092358,91.85892215864634,145.53717104611826
2118,4381,2118.0,34883.0,2118.0,32531.0,128.58795529200074,92.20437739927713,145.83206010387224
2128,4385,2128.0,34876.0,2128.0,32523.0,128.7233422067392,92.52620185893124,146.09816369675227
2128,4393,2128.0,34879.0,2128.0,32511.0,128.8509659478496,92.82254075344483,146.33253814587886
2128,4373,2128.0,34868.0,2128.0,32524.0,128.96901862706804,93.09200973293954,146.53227610418014
2128,4372,2128.0,34851.0,2128.0,32511.0,129.07594032049445,93.33359309140377,146.69442472149728
2128,4374,2128.0,34860.0,2128.0,32516.0,129.17023752114844,93.54638501395554,146.81592722290472
2128,4381,2128.0,34865.0,2128.0,32529.0,129.25034851358856,93.72936817458891,146.89360620991874
2138,4385,2138.0,34876.0,2138.0,32534.0,129.31467714327778,93.88141185040983,146.92425556581733
2138,4378,2138.0,34888.0,2138.0,32539.0,129.3617039640116,94.0014713720126,146.90485927963493
2138,4375,2138.0,34871.0,2138.0,32519.0,129.39002708286603,94.08883109455749,146.83276527398354
2138,4373,2138.0,34842.0,2138.0,32518.0,129.39829025338824,94.1431420036881,146.70564838777685
2138,4367,2138.0,34851.0,2138.0,32533.0,129.38506504569438,94.16410827242197,146.52134152437043
2138,4379,2138.0,34887.0,2138.0,32537.0,129.3487599925421,94.15115871988941,146.27780419554597
2149,4381,2149.0,34891.0,2149.0,32545.0,129.28762354120244,94.10357875706822,145.97330947981305
2149,4388,2149.0,34874.0,2149.0,32533.0,129.19986514698252,94.02095308183523,145.60665922971452
2149,4385,2149.0,34869.0,2149.0,32519.0,129.0838136148808,93.90337071554362,145.177227233709
2149,4371,2149.0,34846.0,2149.0,32522.0,128.93798929880336,93.75123251870055,144.6847898962904
2149,4377,2149.0,34844.0,2149.0,32514.0,128.76102747633857,93.56486760356097,144.12929623690147
2149,4386,2149.0,34880.0,2149.0,32514.0,128.55156627553376,93.34423386041863,143.5107168537721
2159,4387,2159.0,34873.0,2159.0,32531.0,128.30827728539816,93.08897376809159,142.82899411728616
2159,4389,2159.0,34865.0,2159.0,32513.0,128.03001056178016,92.7987162087435,142.08410371273794
2159,4381,2159.0,34867.0,2159.0,32510.0,127.71589622026453,92.47321955320143,141.27611420571463
2159,4374,2159.0,34853.0,2159.0,32505.0,127.36532170340196,92.11228114918924,140.40509487551887
2159,4373,2159.0,34868.0,2159.0,32503.0,126.97780094026994,91.71560344981401,139.4709487163143
2159,4378,2159.0,34867.0,2159.0,32523.0,126.55283862902084,91.28274833167978,138.4733426208918
2169,4382,2169.0,34886.0,2169.0,32541.0,126.08990298757355,90.81324639498418,137.41186426795917
2169,4383,2169.0,34875.0,2169.0,32520.0,125.58850901244404,90.30681673650821,136.2863733416222
2169,4363,2169.0,34838.0,2169.0,32500.0,125.04828476809485,89.7634644811764,135.0972010371029
2169,4373,2169.0,34847.0,2169.0,32495.0,124.46889727534717,89.1832274008753,133.84494489065887
2169,4369,2169.0,34856.0,2169.0,32498.0,123.84991288891618,88.56577804234256,132.5300956993023
2169,4382,2169.0,34896.0,2169.0,32509.0,123.19076823909623,87.91037717633873,131.1528587594281
2180,4382,2180.0,34876.0,2180.0,32513.0,122.4908841311536,87.21627774083149,129.71324833545506
2180,4377,2180.0,34871.0,2180.0,32512.0,121.74981920973963,86.48314419916053,128.21130964323868
2180,4371,2180.0,34832.0,2180.0,32501.0,120.96733388735653,85.71104818698186,126.64727811568756
2180,4373,2180.0,34861.0,2180.0,32510.0,120.14333217064572,84.90008700368948,125.021599045376
2180,4374,2180.0,34867.0,2180.0,32507.0,119.27778864923818,84.05009445134183,123.33491080474506
2180,4390,2180.0,34886.0,2180.0,32511.0,118.37077802601316,83.16077388614684,121.58809888547268
2190,4379,2190.0,34867.0,2190.0,32505.0,117.42262337848499,82.23206325723848,119.78238430847448
2190,4362,2190.0,34858.0,2190.0,32488.0,116.43400529738747,81.26432334837847,117.91933911768301
2190,4364,2190.0,34841.0,2190.0,32495.0,115.40585380407114,80.25818934875201,116.00077427739535
2190,4369,2190.0,34858.0,2190.0,32475.0,114.3391404009632,79.21426787659723,114.02856872950969
2190,4363,2190.0,34868.0,2190.0,32493.0,113.23480093022931,78.13300323252486,112.00454073959831
2190,4366,2190.0,34867.0,2190.0,32494.0,112.0937669494352,77.0148342868377,109.93043837318113
2200,4360,2200.0,34863.0,2200.0,32494.0,110.91698214719172,75.86043151878471,107.80808344608528
2200,4353,2200.0,34843.0,2200.0,32472.0,109.70537138882841,74.67075717902952,105.63951104055369
2200,4353,2200.0,34827.0,2200.0,32462.0,108.4597583143252,73.4468655806808,103.4268839417629
2200,4348,2200.0,34849.0,2200.0,32473.0,107.1807638388351,72.1895730077212,101.17223859338179
2200,4370,2200.0,34868.0,2200.0,32486.0,105.86877862084205,70.8993432651389,98.87737213242501
2200,4365,2200.0,34864.0,2200.0,32474.0,104.52409447349281,69.57656490814541,96.54400400319992
2211,4351,2211.0,34854.0,2211.0,32463.0,103.14710161367833,68.22191050399384,94.1739571023834
2211,4351,2211.0,34845.0,2211.0,32451.0,101.73832305740757,66.83642375998653,91.7691013858362
2211,4350,2211.0,34822.0,2211.0,32451.0,100.29828817166788,65.42132235177894,89.33112868442971
2211,4352,2211.0,34838.0,2211.0,32459.0,98.8274477378745,63.97768438861489,86.86138734993082
2211,4342,2211.0,34859.0,2211.0,32462.0,97.32617300858381,62.50628763341119,84.36091226643285
2211,4361,2211.0,34858.0,2211.0,32462.0,95.79477398402507,61.00780786299734,81.83060161381121
2221,4354,2221.0,34862.0,2221.0,32456.0,94.23357736986287,59.48319825378164,79.27138654480638
2221,4345,2221.0,34822.0,2221.0,32444.0,92.64305206231349,57.93387335596713,76.68428041603697
2221,4348,2221.0,34830.0,2221.0,32449.0,91.02383846469881,56.361527630962854,74.07030754141181
2221,4347,2221.0,34843.0,2221.0,32451.0,89.37669173796277,54.76781516376553,71.43043690535995
2221,4349,2221.0,34844.0,2221.0,32450.0,87.70247657674949,53.1542830987346,68.76563210692822
2221,4338,2221.0,34844.0,2221.0,32455.0,86.0022053915207,51.522566840955534,66.0769790516483
2231,4346,2231.0,34839.0,2231.0,32431.0,84.277038919577,49.874559603656536,63.36577802991888
2231,4331,2231.0,34808.0,2231.0,32429.0,82.52825327919736,48.21239030206889,60.63348884109611
2231,4328,2231.0,34822.0,2231.0,32439.0,80.75717747689443,46.53818949560011,57.881569395489194
2231,4344,2231.0,34821.0,2231.0,32434.0,78.96511549298464,44.853831517176395,55.111426309064385
2231,4334,2231.0,34839.0,2231.0,32422.0,77.15336825440377,43.16091985364676,52.324495657194156
2231,4334,2231.0,34822.0,2231.0,32422.0,75.3233473569721,41.46098536075449,49.5222514696555
2242,4324,2242.0,34805.0,2242.0,32407.0,73.4766125253688,39.75560179677244,46.70609942198273
2242,4316,2242.0,34815.0,2242.0,32424.0,71.61478217151165,38.046254703086504,43.877273051257795
2242,4309,2242.0,34803.0,2242.0,32407.0,69.73936961815286,36.33413964477387,41.036821494984935
2242,4326,2242.0,34813.0,2242.0,32428.0,67.85164005158121,34.62008404146131,38.18569073638376
2242,4323,2242.0,34828.0,2242.0,32415.0,65.95262981556692,32.904608740567795,35.32485986982293
2242,4318,2242.0,34834.0,2242.0,32400.0,64.04330372038005,31.18815561286452,32.45544938122298
2252,4306,2252.0,34805.0,2252.0,32393.0,62.12463581783753,29.47136579846002,29.57865570263951
2252,4300,2252.0,34778.0,2252.0,32392.0,60.19750837679999,27.755054435958765,26.695540337180574
2252,4311,2252.0,34814.0,2252.0,32398.0,58.262552474693095,26.039841380230683,23.80689410187901
2252,4318,2252.0,34821.0,2252.0,32404.0,56.32013052526477,24.32595595596424,20.913291806943406
2252,4315,2252.0,34821.0,2252.0,32411.0,54.370507267143104,22.613503095819205,18.0152988938338
2252,4302,2252.0,34809.0,2252.0,32397.0,52.41402099387145,20.902810394781916,15.11371263495009
2262,4310,2262.0,34805.0,2262.0,32394.0,50.45109716473965,19.19450192343185,12.209682046817392
2262,4299,2262.0,34793.0,2262.0,32383.0,48.4821833092477,17.489359499087925,9.304653872242525
2262,4299,2262.0,34793.0,2262.0,32377.0,46.50770639717406,15.788129245426028,6.400229589992222
2262,4305,2262.0,34812.0,2262.0,32377.0,44.528050636300755,14.091406982497425,3.498024473513979
2262,4309,2262.0,34831.0,2262.0,32383.0,42.54360222904569,12.39977443925084,0.5996055492588397
2262,4295,2262.0,34785.0,2262.0,32376.0,40.554865121788836,10.714115437352312,-2.2934511232098345
2273,4295,2273.0,34773.0,2273.0,32361.0,38.5625060728189,9.035652641160901,-5.1794931816080805
2273,4278,2273.0,34761.0,2273.0,32357.0,36.567256168063494,7.365508545193379,-8.056864508581967
2273,4294,2273.0,34797.0,2273.0,32361.0,34.569761854511825,5.704250047062217,-10.924063009538557
2273,4294,2273.0,34810.0,2273.0,32367.0,32.570541294736174,4.0519184548163025,-13.779787373126226
2273,4297,2273.0,34790.0,2273.0,32344.0,30.570108756637687,2.408457890465151,-16.622856673256962
2273,4275,2273.0,34774.0,2273.0,32343.0,28.569111193986693,0.7739936574102089,-19.45220927433749
2283,4273,2283.0,34769.0,2283.0,32354.0,26.568276651796282,-0.8513247733177138,-22.267019529076038
2283,4283,2283.0,34791.0,2283.0,32371.0,24.56823721075198,-2.46760248588685,-25.066669220418135
2283,4278,2283.0,34793.0,2283.0,32341.0,22.569465246491056,-4.075200882604179,-27.85050092211617
2283,4287,2283.0,34808.0,2283.0,32350.0,20.572373576419437,-5.674450341640714,-30.617658881772215
2283,4273,2283.0,34773.0,2283.0,32341.0,18.577437817414072,-7.26536112863954,-33.3671489914847
2283,4271,2283.0,34772.0,2283.0,32334.0,16.585229634925057,-8.847619922414665,-36.097935740135384
2293,4254,2293.0,34751.0,2293.0,32330.0,14.596320392982904,-10.420894215475656,-38.809015467514726
2293,4269,2293.0,34780.0,2293.0,32328.0,12.611115898768794,-11.985163300162199,-41.49950440344527
2293,4262,2293.0,34793.0,2293.0,32338.0,10.62977400320078,-13.540745982398931,-44.16867069410006
2293,4270,2293.0,34780.0,2293.0,32333.0,8.652265756339162,-15.087996691862926,-46.81584770927783
2293,4264,2293.0,34782.0,2293.0,32319.0,6.678491068072418,-16.62701198923699,-49.44031972307221
2293,4257,2293.0,34754.0,2293.0,32313.0,4.708347687518398,-18.15762066411424,-52.04134593555352
2304,4263,2304.0,34747.0,2304.0,32297.0,2.74172517091273,-19.67963516017614,-54.61834714327951
2304,4265,2304.0,34787.0,2304.0,32314.0,0.7785007416338061,-21.193133627122954,-57.171113421057385
2304,4259,2304.0,34787.0,2304.0,32331.0,-1.1813921248359236,-22.69840023995063,-59.699820341898246
2304,4262,2304.0,34793.0,2304.0,32309.0,-3.137887147181786,-24.195497476029672,-62.204788983902205
2304,4254,2304.0,34766.0,2304.0,32324.0,-5.090761426394636,-25.68391961014192,-64.68624066205535
2304,4237,2304.0,34746.0,2304.0,32307.0,-7.039682592145567,-27.16265527141227,-67.14422446487762
2314,4241,2314.0,34749.0,2314.0,32291.0,-8.984363340994804,-28.630580153220315,-69.57866902171989
2314,4252,2314.0,34753.0,2314.0,32300.0,-10.924712071482972,-30.086831825946184,-71.98954433286187
2314,4243,2314.0,34770.0,2314.0,32293.0,-12.860807608703894,-31.530881340892392,-74.37702640641504
2314,4244,2314.0,34761.0,2314.0,32308.0,-14.792778970325017,-32.96234010291984,-76.74150078090611
2314,4239,2314.0,34746.0,2314.0,32289.0,-16.72076016502264,-34.3807772559331,-79.08344742612479
2314,4235,2314.0,34737.0,2314.0,32280.0,-18.64491799667877,-35.785782346640474,-81.40339319284803
2324,4235,2324.0,34754.0,2324.0,32276.0,-20.56549620632076,-37.177184236835984,-83.70204107721517
2324,4238,2324.0,34773.0,2324.0,32303.0,-22.482837495823446,-38.555084268492465,-85.98040629009566
2324,4234,2324.0,34765.0,2324.0,32303.0,-24.397351046348874,-39.919576193476544,-88.23968388325042
2324,4240,2324.0,34755.0,2324.0,32286.0,-26.309445758473643,-41.27044225920562,-90.48093289779374
2324,4232,2324.0,34726.0,2324.0,32269.0,-28.219463605253225,-42.60716341063254,-92.70496555280687
2324,4214,2324.0,34718.0,2324.0,32258.0,-30.12767582137822,-43.92928004260139,-94.91258714884654
2335,4229,2335.0,34739.0,2335.0,32287.0,-32.03439655783208,-45.236826066316226,-97.10489929076479
2335,4222,2335.0,34755.0,2335.0,32290.0,-33.94008852234862,-46.53044167596961,-99.28329403800402
2335,4226,2335.0,34753.0,2335.0,32277.0,-35.845333100914004,-47.81107981734611,-101.44915716059779
2335,4234,2335.0,34729.0,2335.0,32271.0,-37.750723633703515,-49.07968679897721,-103.60366698847054
2335,4208,2335.0,34724.0,2335.0,32260.0,-39.65677289547402,-50.33722331051666,-105.74787094620419
2335,4213,2335.0,34729.0,2335.0,32263.0,-41.56393999573493,-51.584934751200436,-107.8828717670309
2345,4220,2345.0,34740.0,2345.0,32274.0,-43.472760492509025,-52.824512637663645,-110.00992097920488
2345,4216,2345.0,34763.0,2345.0,32275.0,-45.38387328543051,-54.05795277273994,-112.13032451406676
2345,4221,2345.0,34757.0,2345.0,32275.0,-47.29791189161956,-55.2871829765711,-114.24523122682535
2345,4214,2345.0,34735.0,2345.0,32258.0,-49.21540174510018,-56.513743639996704,-116.35549249611873
2345,4206,2345.0,34717.0,2345.0,32242.0,-51.13673230728213,-57.73883269355589,-118.46173452707197
2345,4211,2345.0,34722.0,2345.0,32249.0,-53.06220599610701,-58.963676491516296,-120.56461095041104
2356,4218,2356.0,34753.0,2356.0,32264.0,-54.99206880685597,-60.18980158849989,-122.6649807070387
2356,4222,2356.0,34746.0,2356.0,32247.0,-56.926405239990686,-61.41889369089212,-124.76383310862175
2356,4202,2356.0,34749.0,2356.0,32252.0,-58.864978478346316,-62.65243396439821,-126.86214218131502
2356,4195,2356.0,34727.0,2356.0,32254.0,-60.80723235023359,-63.89150929487727,-128.96082632559984
2356,4188,2356.0,34727.0,2356.0,32236.0,-62.7524996080049,-65.13691383279073,-131.06074850323745
2356,4191,2356.0,34728.0,2356.0,32246.0,-64.70023238014836,-66.38936976982785,-133.16274477986502
2366,4205,2366.0,34729.0,2366.0,32234.0,-66.6500726819586,-67.6496548297406,-135.2676933374123
2366,4203,2366.0,34740.0,2366.0,32251.0,-68.60171848030495,-68.91856966604566,-137.37653083825398
2366,4188,2366.0,34730.0,2366.0,32231.0,-70.55473103336992,-70.19681394803999,-139.49018980464675
2366,4191,2366.0,34706.0,2366.0,32237.0,-72.50849600751077,-71.48493705508989,-141.60955209858275
2366,4183,2366.0,34696.0,2366.0,32223.0,-74.4623262442779,-72.78354751459302,-143.73549132633508
2366,4180,2366.0,34736.0,2366.0,32232.0,-76.4155625133477,-74.09362736113727,-145.86895556999553
2376,4183,2376.0,34734.0,2376.0,32233.0,-78.36763584570004,-75.4165122487096,-148.01098720783207
2376,4182,2376.0,34734.0,2376.0,32224.0,-80.31808134931615,-76.75351502391604,-150.1626575321579
2376,4185,2376.0,34720.0,2376.0,32233.0,-82.26648531265687,-78.10563793805305,-152.3249970804252
2376,4183,2376.0,34705.0,2376.0,32214.0,-84.21240001519936,-79.47361428097561,-154.4989762864106
2376,4167,2376.0,34696.0,2376.0,32210.0,-86.15529911355235,-80.85818428982664,-156.68556070320128
2376,4169,2376.0,34735.0,2376.0,32219.0,-88.09464647205021,-82.26034627062296,-158.8858326711624
2387,4174,2387.0,34738.0,2387.0,32223.0,-90.03001571938161,-83.68125506483292,-161.10102559659833
2387,4157,2387.0,34732.0,2387.0,32228.0,-91.96113507745724,-85.12180020975579,-163.33237366803104
2387,4160,2387.0,34714.0,2387.0,32209.0,-93.88791616336337,-86.58231707186204,-165.5809267269814
2387,4154,2387.0,34695.0,2387.0,32203.0,-95.81054569757791,-88.06270008167365,-167.84753465059066
2387,4157,2387.0,34701.0,2387.0,32201.0,-97.72956119574377,-89.5627642561538,-170.13301133122863
2387,4170,2387.0,34730.0,2387.0,32215.0,-99.64582564158567,-91.08248466877538,-172.43826775802953
2397,4165,2397.0,34729.0,2397.0,32211.0,-101.56038088730554,-92.6218386457859,-174.76424620473497
2397,4162,2397.0,34722.0,2397.0,32209.0,-103.47426677548214,-94.18042270689818,-177.11174251497758
2397,4158,2397.0,34699.0,2397.0,32196.0,-105.38844558757418,-95.75727733026149,-179.48131478057874
2397,4161,2397.0,34685.0,2397.0,32196.0,-107.30382166840235,-97.35109157225253,-181.8733431472552
2397,4152,2397.0,34698.0,2397.0,32193.0,-109.2212610814247,-98.96058317613773,-184.2881435912875
2397,4162,2397.0,34715.0,2397.0,32201.0,-111.14158900483471,-100.58468386834741,-186.72601018357543
2407,4149,2407.0,34704.0,2407.0,32196.0,-113.06557091189646,-102.22238012681387,-189.18714738007066
2407,4165,2407.0,34707.0,2407.0,32200.0,-114.99387346205427,-103.87246646914309,-191.67155304146087
2407,4141,2407.0,34669.0,2407.0,32170.0,-116.92702126860516,-105.5335209241389,-194.17897157612362
2407,4130,2407.0,34669.0,2407.0,32155.0,-118.86544666012861,-107.20418367431559,-196.70906493768751
2407,4136,2407.0,34670.0,2407.0,32161.0,-120.809697176714,-108.88356689628922,-199.2617852933232
2407,4140,2407.0,34682.0,2407.0,32182.0,-122.76061662691711,-110.57147609143853,-201.83762152789254
2418,4153,2418.0,34704.0,2418.0,32182.0,-124.71929326737475,-112.2682850833,-204.43745852397208
2418,4144,2418.0,34686.0,2418.0,32168.0,-126.68683983737753,-113.97459218328841,-207.0622515747655
2418,4137,2418.0,34681.0,2418.0,32162.0,-128.66421992957873,-115.6909610739329,-209.71288826795353
2418,4132,2418.0,34683.0,2418.0,32168.0,-130.65225220462648,-117.4179244803599,-212.3902701913305
2418,4142,2418.0,34695.0,2418.0,32167.0,-132.65170337576097,-119.15605633631307,-215.0953695621198
2418,4149,2418.0,34699.0,2418.0,32176.0,-134.6632695890341,-120.90586958192189,-217.8291393278023
2428,4134,2428.0,34701.0,2428.0,32170.0,-136.68742391413778,-122.66757802676213,-220.59234349075103
2428,4119,2428.0,34675.0,2428.0,32156.0,-138.72435253341555,-124.44093273071155,-223.3854351220213
2428,4124,2428.0,34653.0,2428.0,32157.0,-140.77411115571144,-126.2253453871025,-226.20858322674505
2428,4123,2428.0,34663.0,2428.0,32156.0,-142.8368154660621,-128.0202865721596,-229.0617796401822
2428,4126,2428.0,34676.0,2428.0,32161.0,-144.9126733547614,-129.8256006779129,-231.94486202742524
2428,4129,2428.0,34692.0,2428.0,32165.0,-147.00189534842605,-131.64142589028836,-234.85740846512766
2438,4119,2438.0,34668.0,2438.0,32163.0,-149.10459049427814,-133.46786694909088,-237.79856432342947
2438,4113,2438.0,34674.0,2438.0,32143.0,-151.22073875938017,-135.30480519442838,-240.76692086308432
2438,4103,2438.0,34659.0,2438.0,32128.0,-153.35028851084581,-137.1519632740605,-243.7605973551755
2438,4110,2438.0,34681.0,2438.0,32147.0,-155.49330824665412,-139.0090180966324,-246.77748224626382
2438,4108,2438.0,34681.0,2438.0,32145.0,-157.6500610358023,-140.8755515729474,-249.81533796526782
2438,4121,2438.0,34684.0,2438.0,32134.0,-159.82093892972367,-142.75083308539618,-252.8716763484344
2449,4118,2449.0,34673.0,2449.0,32141.0,-162.00628769327471,-144.63361583578947,-255.94363950640616
2449,4111,2449.0,34654.0,2449.0,32121.0,-164.20622505445937,-146.52212923201165,-259.0279995432128
2449,4096,2449.0,34632.0,2449.0,32105.0,-166.42059817144892,-148.4143321123631,-262.1212650775078
2449,4112,2449.0,34655.0,2449.0,32120.0,-168.6490904324412,-150.30830341486387,-265.2198926451033
2449,4101,2449.0,34657.0,2449.0,32132.0,-170.89129343473385,-152.20244048770246,-268.3203865559843
2449,4111,2449.0,34676.0,2449.0,32128.0,-173.14665106188554,-154.0952870138728,-271.4191011383379
2459,4095,2459.0,34647.0,2459.0,32110.0,-175.41437888209515,-155.9852172594143,-274.5119782115878
2459,4082,2459.0,34645.0,2459.0,32101.0,-177.69348840425056,-157.87032679799879,-277.59453560845157
2459,4091,2459.0,34647.0,2459.0,32100.0,-179.9829425249065,-159.74858440646625,-280.66207247448256
2459,4091,2459.0,34668.0,2459.0,32103.0,-182.28178232323782,-161.61793961094872,-283.7098385239085
2459,4095,2459.0,34679.0,2459.0,32128.0,-184.58907952894654,-163.47612691376213,-286.7329852677136
2459,4093,2459.0,34672.0,2459.0,32104.0,-186.90379361947677,-165.32026997925726,-289.7263074633044
2469,4079,2469.0,34651.0,2469.0,32098.0,-189.22468130930974,-167.14661976939797,-292.68402993332256
2469,4084,2469.0,34636.0,2469.0,32100.0,-191.55032322509365,-168.95065540480977,-295.5998422957574
2469,4082,2469.0,34629.0,2469.0,32085.0,-193.87919697686837,-170.72745680433633,-298.46703810868496
2469,4085,2469.0,34632.0,2469.0,32098.0,-196.20967524802364,-172.47206997218282,-301.27859268777763
2469,4100,2469.0,34655.0,2469.0,32104.0,-198.5399145503916,-174.17963438387642,-304.0271352907921
2469,4079,2469.0,34660.0,2469.0,32099.0,-200.8676771967938,-175.8451876336026,-306.70478351745413
2480,4076,2480.0,34638.0,2480.0,32080.0,-203.19023630766046,-177.46333166041015,-309.30298991988326
2480,4083,2480.0,34622.0,2480.0,32085.0,-205.50444487387824,-179.0281431990864,-311.81258928533305
2480,4068,2480.0,34627.0,2480.0,32071.0,-207.80681718530414,-180.53342779324382,-314.2239659189078
2480,4074,2480.0,34644.0,2480.0,32087.0,-210.0935518958958,-181.97296341010804,-316.52716111036557
2480,4067,2480.0,34652.0,2480.0,32099.0,-212.36056159645366,-183.34041815569933,-318.7118138380556
2480,4076,2480.0,34634.0,2480.0,32078.0,-214.60347866200323,-184.62906776267286,-320.76694515155714
2490,4064,2490.0,34626.0,2490.0,32063.0,-216.81760715049572,-185.83167530300884,-322.68084560571685
2490,4066,2490.0,34620.0,2490.0,32061.0,-218.99788565347737,-186.9406527436953,-324.44126442590516
2490,4062,2490.0,34598.0,2490.0,32060.0,-221.1389017254145,-187.9483487515717,-326.03569840991406
2490,4059,2490.0,34618.0,2490.0,32063.0,-223.23492162857627,-188.84733144761938,-327.4515300188824
2490,4060,2490.0,34643.0,2490.0,32073.0,-225.27990723635338,-189.63048219645782,-328.67599482237824
2490,4059,2490.0,34625.0,2490.0,32054.0,-227.267514209181,-190.2907549633927,-329.69607382040783
2500,4042,2500.0,34615.0,2500.0,32052.0,-229.1910959229547,-190.82090300500508,-330.49847295317
2500,4038,2500.0,34596.0,2500.0,32030.0,-231.04380239814762,-191.21355965282763,-331.0697994999625
2500,4055,2500.0,34641.0,2500.0,32053.0,-232.8187359927601,-191.46150747950873,-331.3968305618556
2500,4059,2500.0,34658.0,2500.0,32069.0,-234.50894147087547,-191.5576220608212,-331.46660288057944
2500,4033,2500.0,34630.0,2500.0,32048.0,-236.10723674131546,-191.49441771444623,-331.26622323479376
2500,4039,2500.0,34616.0,2500.0,32043.0,-237.60618602596574,-191.26377423240717,-330.7827155336369
2511,4027,2511.0,34598.0,2511.0,32031.0,-238.99828044911123,-190.85720709661433,-330.00317620322835
2511,4027,2511.0,34601.0,2511.0,32037.0,-240.27612391511633,-190.2663839513471,-328.9150784107004
2511,4030,2511.0,34615.0,2511.0,32033.0,-241.43253951884333,-189.48348083428206,-327.50649078843594
2511,4035,2511.0,34623.0,2511.0,32043.0,-242.4605866078694,-188.50121653364891,-325.76616451481243
2511,4043,2511.0,34616.0,2511.0,32053.0,-243.35346242023266,-187.31267662746075,-323.6835073491477
2511,4030,2511.0,34612.0,2511.0,32040.0,-244.10435328233905,-185.91120064317818,-321.2484895062521
2521,4036,2521.0,34594.0,2521.0,32028.0,-244.70636308277187,-184.29048838815382,-318.45165170562456
2521,4021,2521.0,34600.0,2521.0,32040.0,-245.15256174130388,-182.444875072083,-315.284318928062
2521,4027,2521.0,34614.0,2521.0,32049.0,-245.43609925538226,-180.36957912105154,-311.73881174037564
2521,4037,2521.0,34638.0,2521.0,32045.0,-245.55029043228774,-178.0606881130164,-307.8084672606604
2521,4025,2521.0,34627.0,2521.0,32040.0,-245.48859362640414,-175.51487894162324,-303.4876197656527
2521,4015,2521.0,34618.0,2521.0,32042.0,-245.24459297807277,-172.72919006079468,-298.77172126520816
2531,4018,2531.0,34598.0,2531.0,32040.0,-244.8121361435766,-169.70113531042833,-293.65754960830157
2531,4021,2531.0,34605.0,2531.0,32049.0,-244.18551844147322,-166.42909870568357,-288.1433889125722
2531,4031,2531.0,34637.0,2531.0,32068.0,-243.35952945415275,-162.91265611565285,-282.2291075411171
2531,4037,2531.0,34639.0,2531.0,32066.0,-242.32934810232763,-159.152520322294,-275.9160952295285
2531,4029,2531.0,34636.0,2531.0,32071.0,-241.09039361876756,-155.1502470858696,-269.2071666240407
2531,4021,2531.0,34622.0,2531.0,32073.0,-239.63828840457455,-150.90811908078496,-262.10657891679625
2542,4018,2542.0,34635.0,2542.0,32081.0,-237.96900576986562,-146.4293250277911,-254.62013920150548
2542,4024,2542.0,34646.0,2542.0,32102.0,-236.07908734672154,-141.71816681633425,-246.7552718921101
2542,4038,2542.0,34673.0,2542.0,32112.0,-233.96574614384707,-136.78002940479647,-238.52095292403172
2542,4035,2542.0,34684.0,2542.0,32125.0,-231.62679666544614,-131.62108907497088,-229.9275388296494
2542,4030,2542.0,34650.0,2542.0,32107.0,-229.06055384446336,-126.24801688083876,-220.9866624139877
2542,4022,2542.0,34647.0,2542.0,32132.0,-226.26588501916078,-120.66805957589423,-211.7113302842091
2552,4031,2552.0,34641.0,2552.0,32135.0,-223.2424048877616,-114.88952613304993,-202.1161024551992
2552,4036,2552.0,34689.0,2552.0,32160.0,-219.9906353883063,-108.92221618597517,-192.21713909367628
2552,4038,2552.0,34703.0,2552.0,32185.0,-216.51203337538254,-102.777363113924,-182.03206131139956
2552,4055,2552.0,34702.0,2552.0,32183.0,-212.8089366684475,-96.46719466202603,-171.57970036253045
2552,4041,2552.0,34713.0,2552.0,32212.0,-208.88449318343675,-90.00457821525802,-160.8798783605439
2552,4061,2552.0,34709.0,2552.0,32198.0,-204.74262973629305,-83.40295270578959,-149.95331704526322
2562,4061,2562.0,34737.0,2562.0,32216.0,-200.38805434532392,-76.67636662785685,-138.82168002983275
2562,4076,2562.0,34737.0,2562.0,32258.0,-195.82620488542835,-69.83943351947245,-127.50764059857752
2562,4085,2562.0,34784.0,2562.0,32277.0,-191.06312572868796,-62.90713160295699,-116.03470519968923
2562,4079,2562.0,34768.0,2562.0,32275.0,-186.10534100257414,-55.89446532700193,-104.42680809008537
2562,4064,2562.0,34772.0,2562.0,32285.0,-180.95986593077592,-48.81619070056705,-92.70807706994776
2562,4088,2562.0,34771.0,2562.0,32306.0,-175.6344187794141,-41.6868326150366,-80.90287679111293
2573,4098,2573.0,34787.0,2573.0,32331.0,-170.13759438047126,-34.5208823722876,-69.03582934811426
2573,4117,2573.0,34818.0,2573.0,32356.0,-164.47876827693008,-27.332855199543673,-57.131617086138874
2573,4122,2573.0,34797.0,2573.0,32357.0,-158.6678344211037,-20.13712633191274,-45.21467408697271
2573,4130,2573.0,34817.0,2573.0,32377.0,-152.7149805202593,-12.947796134038214,-33.30898005021277
2573,4136,2573.0,34816.0,2573.0,32393.0,-146.6305735654487,-5.778741645829513,-21.437992207521944
2573,4128,2573.0,34815.0,2573.0,32396.0,-140.42515319120952,1.3562693517824158,-9.624599142444481
2583,4142,2583.0,34852.0,2583.0,32423.0,-134.10952645877586,8.443513506392321,2.1089265049378696
2583,4161,2583.0,34872.0,2583.0,32448.0,-127.69485848675622,15.469434358339257,13.741015640156007
2583,4173,2583.0,34882.0,2583.0,32454.0,-121.19259060984325,22.42102741949607,25.25101633982581
2583,4170,2583.0,34873.0,2583.0,32462.0,-114.61423832095736,29.28620902905996,36.61940467937245
2583,4170,2583.0,34863.0,2583.0,32459.0,-107.97130742593374,36.0538496568398,47.82779510647774
2583,4187,2583.0,34868.0,2583.0,32479.0,-101.27538267852583,42.71348621129336,58.85877932515396
2593,4192,2593.0,34890.0,2593.0,32505.0,-94.5382043640646,49.255007154991674,69.69581284947017
2593,4215,2593.0,34906.0,2593.0,32525.0,-87.77160698506638,55.66860218519581,80.3233379978168
2593,4221,2593.0,34907.0,2593.0,32530.0,-80.98735002451693,61.94496264254326,90.72707100926334
2593,4232,2593.0,34912.0,2593.0,32528.0,-74.19692135376131,68.07546785758174,100.894182605912
2593,4239,2593.0,34891.0,2593.0,32539.0,-67.41139385483451,74.05215941144661,110.81323687369076
2593,4237,2593.0,34927.0,2593.0,32553.0,-60.641373337220315,79.86754001717529,120.47403053838099
2604,4250,2604.0,34953.0,2604.0,32562.0,-53.89703131949453,85.51450488641206,129.86752526253974
2604,4267,2604.0,34957.0,2604.0,32571.0,-47.188139359355844,90.98664259899789,138.98587531960015
2604,4272,2604.0,34967.0,2604.0,32574.0,-40.5239932977091,96.27866285693858,147.82244165834078
2604,4265,2604.0,34926.0,2604.0,32581.0,-33.91330602532015,101.38654253593828,156.3717399963666
2604,4268,2604.0,34922.0,2604.0,32568.0,-27.364258700155702,106.30721414170807,164.6293069697308
2604,4285,2604.0,34947.0,2604.0,32586.0,-20.884675728755695,111.03800322480055,172.59147642467212
2614,4303,2614.0,34984.0,2614.0,32611.0,-14.482082422472928,115.57637947607915,180.25520765984004
2614,4310,2614.0,34986.0,2614.0,32609.0,-8.163547935779576,119.92028872287074,187.61814787477033
2614,4308,2614.0,34967.0,2614.0,32627.0,-1.9354872832583112,124.06862068821326,194.6788216667906
2614,4304,2614.0,34960.0,2614.0,32604.0,4.196365302302411,128.02126819640162,201.43670075864247
2614,4316,2614.0,34939.0,2614.0,32617.0,10.22680580764964,131.77874750497529,207.89206293773128
2614,4325,2614.0,34989.0,2614.0,32629.0,16.151017018482463,135.34176022923373,214.04575962588882
2625,4330,2625.0,34995.0,2625.0,32642.0,21.96455585803301,138.7111319467354,219.89913289601043
2625,4349,2625.0,35013.0,2625.0,32662.0,27.663429143957018,141.88819828986828,225.45416083479296
2625,4339,2625.0,34976.0,2625.0,32658.0,33.244187077318315,144.87519530318764,230.71369764210135
2625,4340,2625.0,34980.0,2625.0,32630.0,38.703939478120304,147.675227015019,235.68157162684008
2625,4346,2625.0,34962.0,2625.0,32642.0,44.04022809737995,150.291866815543,240.3623467305457
2625,4355,2625.0,34999.0,2625.0,32659.0,49.2508765243044,152.7287750278398,244.7609559010166
2635,4354,2635.0,35003.0,2635.0,32662.0,54.33393919355814,154.9896543316008,248.88259877342318
2635,4378,2635.0,35008.0,2635.0,32670.0,59.28772325649649,157.07851863774746,252.73288124091897
2635,4359,2635.0,34984.0,2635.0,32658.0,64.1108429056751,158.99991709471252,256.31791545031365
2635,4372,2635.0,34979.0,2635.0,32644.0,68.80222323546431,160.7588237036769,259.6442201678003
2635,4384,2635.0,34988.0,2635.0,32656.0,73.3610253524667,162.36030370127813,262.71843548532456
2635,4372,2635.0,34994.0,2635.0,32666.0,77.78661014725097,163.80929046578137,265.54707629290675
2645,4397,2645.0,35018.0,2645.0,32678.0,82.07854682699752,165.110644801353,268.13654084304045
2645,4395,2645.0,34990.0,2645.0,32679.0,86.23663587478572,166.26937501805122,270.4933033671993
2645,4404,2645.0,34987.0,2645.0,32667.0,90.26099299494885,167.29071409155011,272.62405983269883
2645,4395,2645.0,34983.0,2645.0,32678.0,94.15211310222716,168.17991005641414,274.5357011591923
2645,4395,2645.0,34991.0,2645.0,32654.0,97.91080102320981,168.94195612232082,276.23516629532224
2645,4418,2645.0,35018.0,2645.0,32678.0,101.53804174920424,169.58154569013925,277.7292680259693
2656,4419,2656.0,35015.0,2656.0,32671.0,105.03500246907788,170.10331281819865,279.0245864029511
2656,4423,2656.0,34994.0,2656.0,32675.0,108.40318254044874,170.5121232339083,280.1274862446391
2656,4421,2656.0,34986.0,2656.0,32686.0,111.64451708418923,170.81306361191707,281.0441856386478
2656,4417,2656.0,34989.0,2656.0,32667.0,114.76133701491207,171.01113908014938,281.78080643504705
2656,4412,2656.0,35002.0,2656.0,32675.0,117.75622187278827,171.11103496619728,282.3433539123627
2656,4434,2656.0,35015.0,2656.0,32692.0,120.63183645089322,171.11716523346476,282.73765375094445
2666,4426,2666.0,35017.0,2666.0,32701.0,123.39088874970392,171.03393864907667,282.96945051491116
2666,4426,2666.0,34992.0,2666.0,32680.0,126.03618084193565,170.86598754993167,283.0446532872376
2666,4424,2666.0,34996.0,2666.0,32678.0,128.57057649769243,170.6181263348806,282.9694125707419
2666,4427,2666.0,34963.0,2666.0,32667.0,130.9968753618349,170.29505572368765,282.74992707794644
2666,4430,2666.0,35002.0,2666.0,32685.0,133.31771096830224,169.90102714450217,282.39221294015096
2666,4447,2666.0,35004.0,2666.0,32691.0,135.53554130894102,169.43974839803215,281.90207191264574
2676,4448,2676.0,35006.0,2676.0,32687.0,137.65276020418128,168.9146255767664,281.28526445340015
2676,4441,2676.0,34990.0,2676.0,32661.0,139.6718464229509,168.32902946505413,280.54763249849367
2676,4439,2676.0,34975.0,2676.0,32668.0,141.5953804814386,167.68626656072317,279.6949552100179
2676,4433,2676.0,34985.0,2676.0,32673.0,143.42589868522083,166.98931734456042,278.732699406498
2676,4444,2676.0,35012.0,2676.0,32676.0,145.16571587487738,166.24067965343727,277.66595590630044
2676,4449,2676.0,35009.0,2676.0,32671.0,146.8168523845413,165.4425659790496,276.4995454190958
2687,4463,2687.0,35005.0,2687.0,32665.0,148.38111775649443,164.59726842747278,275.23808740148047
2687,4450,2687.0,34988.0,2687.0,32666.0,149.8602722211672,163.7073148536661,273.8859608903151
2687,4445,2687.0,34979.0,2687.0,32660.0,151.25608374862063,162.7753169326136,272.44723001870693
2687,4449,2687.0,34976.0,2687.0,32659.0,152.57020371341721,161.80366996071731,270.9255866906144
2687,4459,2687.0,34994.0,2687.0,32667.0,153.80402706187354,160.79433501005423,269.32432444989513
2687,4462,2687.0,35009.0,2687.0,32682.0,154.95870894581782,159.74889763704846,267.64642032564996
2697,4469,2697.0,34987.0,2697.0,32666.0,156.03529730388874,158.6688484414848,265.8947488307999
2697,4462,2697.0,34985.0,2697.0,32653.0,157.03485385804348,157.55575150889248,264.0722215966523
2697,4462,2697.0,34976.0,2697.0,32650.0,157.95848254177773,156.41113069462833,262.18167243886705
2697,4461,2697.0,34981.0,2697.0,32655.0,158.8072633020422,155.23626595255342,260.22564156416155
2697,4468,2697.0,35002.0,2697.0,32663.0,159.58217623620573,154.03213845966167,258.2063158402249
2697,4476,2697.0,34991.0,2697.0,32669.0,160.28411114491016,152.79959532566755,256.12567564036465
2707,4474,2707.0,34997.0,2707.0,32650.0,160.91397056420655,151.53958409925337,253.98569843597255
2707,4461,2707.0,34967.0,2707.0,32652.0,161.47274684849774,150.25322229035442,251.7884207467957
2707,4460,2707.0,34952.0,2707.0,32647.0,161.96143970986796,148.9415865255527,249.5358442183049
2707,4464,2707.0,34974.0,2707.0,32635.0,162.38087084716614,147.60533463149773,247.22982135009215
2707,4482,2707.0,34982.0,2707.0,32647.0,162.7316061010798,146.2445248841654,244.87196938147775
2707,4475,2707.0,34999.0,2707.0,32646.0,163.01407820064406,144.85883882339863,242.46365477381653
2718,4477,2718.0,34983.0,2718.0,32646.0,163.22876235100276,143.44797085408317,240.00609680635333
2718,4472,2718.0,34960.0,2718.0,32628.0,163.37623263119724,142.01180822931445,237.50046679415348
2718,4472,2718.0,34956.0,2718.0,32641.0,163.45710930464625,140.55023750241162,234.9478614648966
2718,4481,2718.0,35005.0,2718.0,32663.0,163.47200428127096,139.06287898666093,232.34931032989076
2718,4484,2718.0,35003.0,2718.0,32643.0,163.42155173170926,137.54925515645425,229.70600521818827
2718,4481,2718.0,34989.0,2718.0,32637.0,163.30651573891478,136.00930598032494,227.01954349552597
2728,4483,2728.0,34963.0,2728.0,32628.0,163.1278717563752,134.44363193974033,224.2919056545921
2728,4478,2728.0,34957.0,2728.0,32621.0,162.88681327840993,132.85322998219243,221.5252623395405
2728,4479,2728.0,34961.0,2728.0,32622.0,162.58471607047434,131.23906642289353,218.72180704299768
2728,4489,2728.0,34974.0,2728.0,32629.0,162.2231145617743,129.6018712735406,215.88369535632165
2728,4485,2728.0,34988.0,2728.0,32637.0,161.80375106747874,127.94226729734162,213.0131433193643
2728,4478,2728.0,34976.0,2728.0,32627.0,161.32865124522098,126.26108603448155,210.11264027712227
2738,4466,2738.0,34957.0,2738.0,32606.0,160.80008204567673,124.55956519335642,207.18507177392033
2738,4470,2738.0,34952.0,2738.0,32607.0,160.2203718555974,122.8392290546885,204.23360062502394
2738,4481,2738.0,34968.0,2738.0,32614.0,159.5917627542211,121.10163195979435,201.2614618993307
2738,4479,2738.0,34982.0,2738.0,32607.0,158.91644254071943,119.34832910451641,198.27192062952489
2738,4486,2738.0,34983.0,2738.0,32623.0,158.1966957487682,117.58115958440342,195.26839214581878
2738,4469,2738.0,34961.0,2738.0,32612.0,157.43501167901135,115.80255224658517,192.25461766924693
2749,4477,2749.0,34938.0,2749.0,32597.0,156.6340684258398,114.01551227796776,189.23479184224806
2749,4469,2749.0,34927.0,2749.0,32584.0,155.79664341102873,112.22323583505407,186.21349231935275
2749,4471,2749.0,34954.0,2749.0,32589.0,154.92554342957933,110.42867439295506,183.1954416387776
2749,4480,2749.0,34953.0,2749.0,32596.0,154.02359054590605,108.63444131559868,180.18535621716217
2749,4465,2749.0,34962.0,2749.0,32598.0,153.09365970258003,106.84306864785773,177.18802802365417
2749,4467,2749.0,34962.0,2749.0,32583.0,152.13869104914176,105.05731858007442,174.20850521478377
2759,4472,2759.0,34942.0,2759.0,32569.0,151.1616323764953,103.28035319860209,171.2521287276467
2759,4462,2759.0,34927.0,2759.0,32562.0,150.16540262949178,101.51566731604905,168.32434776652676
2759,4464,2759.0,34939.0,2759.0,32561.0,149.1528844978851,99.76682070653342,165.43046781445736
2759,4458,2759.0,34934.0,2759.0,32568.0,148.1268751618837,98.03723474214448,162.5755212253153
2759,4471,2759.0,34950.0,2759.0,32555.0,147.0900416451345,96.33022128589754,159.76429260602322
2759,4456,2759.0,34924.0,2759.0,32555.0,146.04494342031302,94.64911826026221,157.00136728461212
2769,4450,2769.0,34907.0,2769.0,32539.0,144.99403718524397,92.99727477135478,154.29108533362728
2769,4467,2769.0,34893.0,2769.0,32539.0,143.93959896831112,91.37773997421938,151.63740909578271
2769,4449,2769.0,34940.0,2769.0,32556.0,142.88368288352234,89.79291056237106,149.04382347193413
2769,4452,2769.0,34939.0,2769.0,32558.0,141.8281346757368,88.24459819266352,146.5134327644907
2769,4458,2769.0,34930.0,2769.0,32556.0,140.77456082801183,86.73447426896688,144.04922967730994
2769,4460,2769.0,34915.0,2769.0,32530.0,139.7243320964115,85.26435371367666,141.6542692382174
2780,4465,2780.0,34890.0,2780.0,32535.0,138.67869629738715,83.83604649175035,139.33157350584992
2780,4451,2780.0,34925.0,2780.0,32529.0,137.638895069075,82.45101360421663,137.0839086224663
2780,4469,2780.0,34939.0,2780.0,32545.0,136.60620159256368,81.11027878376846,134.91368910501524
2780,4466,2780.0,34929.0,2780.0,32545.0,135.58196018054147,79.81475571903603,132.82309428173198
2780,4451,2780.0,34919.0,2780.0,32524.0,134.5676722130976,78.5655900755186,130.81425108749346
2780,4449,2780.0,34905.0,2780.0,32513.0,133.5649765981143,77.36415201151033,128.8892261338305
2790,4449,2790.0,34890.0,2790.0,32512.0,132.5754882814134,76.21175605248149,127.04977639211893
2790,4439,2790.0,34906.0,2790.0,32515.0,131.60065058146364,75.10933696242138,125.29710531870244
2790,4449,2790.0,34928.0,2790.0,32545.0,130.64165189144205,74.05734263239862,123.63186316578273
2790,4459,2790.0,34929.0,2790.0,32517.0,129.6994249166794,73.05599168794122,122.05439548629164
2790,4456,2790.0,34889.0,2790.0,32523.0,128.77478507281654,72.1055983121256,120.56496863126213
2790,4459,2790.0,34893.0,2790.0,32507.0,127.86861694564683,71.20650893835781,119.16374556984921
2800,4441,2800.0,34894.0,2800.0,32511.0,126.98194891075701,70.35873175197847,117.8506192798242
2800,4446,2800.0,34914.0,2800.0,32517.0,126.11587136169604,69.56173861267611,116.62510000495807
2800,4468,2800.0,34918.0,2800.0,32506.0,125.27144219771623,68.81462355766536,115.4863150717629
2800,4440,2800.0,34909.0,2800.0,32513.0,124.44974952841966,68.11639933991248,114.43304640419312
2800,4445,2800.0,34891.0,2800.0,32496.0,123.65198585347161,67.46612239911838,113.46371267332117
2800,4438,2800.0,34892.0,2800.0,32502.0,122.87934142917665,66.86273296794947,112.57628600305297
2811,4440,2811.0,34884.0,2811.0,32499.0,122.13284832576119,66.30478236113603,111.76819387664523
2811,4449,2811.0,34920.0,2811.0,32526.0,121.41333096456432,65.79030651994775,111.03632773328286
2811,4441,2811.0,34906.0,2811.0,32524.0,120.7214570314179,65.31697942530762,110.37726154650434
2811,4446,2811.0,34918.0,2811.0,32529.0,120.05780981428252,64.88241287598531,109.7875853671587
2811,4451,2811.0,34900.0,2811.0,32519.0,119.42293337350307,64.4843355732991,109.26413537636931
2811,4433,2811.0,34888.0,2811.0,32501.0,118.81736469096755,64.12054028280431,108.8039950851367
2821,4431,2821.0,34899.0,2821.0,32500.0,118.24158195044217,63.788669976836175,108.40427992504202
2821,4444,2821.0,34916.0,2821.0,32527.0,117.69585881400738,63.486083853211056,108.06190972166199
2821,4446,2821.0,34941.0,2821.0,32509.0,117.18022502806896,63.21005424771896,107.77362615791472
2821,4445,2821.0,34916.0,2821.0,32504.0,116.6945960855274,62.95819738450767,107.53613188036638
2821,4429,2821.0,34879.0,2821.0,32503.0,116.238867546983,62.72866652283125,107.3460558910338
2821,4422,2821.0,34893.0,2821.0,32500.0,115.81281010217792,62.51982020799262,107.1997959240452
2831,4436,2831.0,34902.0,2831.0,32515.0,115.4158503722778,62.32975828983864,107.09344231274899
2831,4437,2831.0,34913.0,2831.0,32510.0,115.04697626090653,62.15624181363679,107.02284012840886
2831,4446,2831.0,34914.0,2831.0,32519.0,114.70484984582113,61.99693613476433,106.98372698097542
2831,4441,2831.0,34892.0,2831.0,32513.0,114.38798618289232,61.849613058962625,106.97185149986397
2831,4438,2831.0,34890.0,2831.0,32505.0,114.0948564035374,61.71209149644163,106.98300989570791
2831,4436,2831.0,34911.0,2831.0,32505.0,113.82387670157594,61.582030030301524,107.01297240788347
2842,4458,2842.0,34921.0,2842.0,32541.0,113.57338039690134,61.456919549747575,107.05742929188195
2842,4446,2842.0,34935.0,2842.0,32509.0,113.34171478684915,61.33438935124779,107.11214064094345
2842,4448,2842.0,34911.0,2842.0,32526.0,113.12739403167373,61.21256167857661,107.17313232988616
2842,4451,2842.0,34899.0,2842.0,32524.0,112.92915027622551,61.09012895610504,107.23673179711321
2842,4433,2842.0,34883.0,2842.0,32513.0,112.74589317354632,60.966068779248076,107.29954902512361
2842,4429,2842.0,34895.0,2842.0,32508.0,112.57658392310262,60.83922943449954,107.35842509913833
2852,4442,2852.0,34914.0,2852.0,32515.0,112.42003802681141,60.708127994600936,107.41028976658657
2852,4445,2852.0,34918.0,2852.0,32523.0,112.27484702770505,60.571106735537754,107.45207987948062
2852,4439,2852.0,34914.0,2852.0,32513.0,112.13947795813027,60.4266556690007,107.4808058392082
2852,4444,2852.0,34902.0,2852.0,32507.0,112.01236638435392,60.27358554051347,107.4936022215478
2852,4439,2852.0,34881.0,2852.0,32501.0,111.89192214745925,60.110913727460854,107.48762506556697
2852,4445,2852.0,34904.0,2852.0,32519.0,111.77651665687186,59.937574380495775,107.45990317680909
2863,4446,2863.0,34933.0,2863.0,32523.0,111.66449833324523,59.75230699287236,107.40735198021903
2863,4447,2863.0,34912.0,2863.0,32522.0,111.55424232416868,59.55393794602446,107.32696418433274
2863,4447,2863.0,34902.0,2863.0,32514.0,111.44420621336485,59.3416908009926,107.215970935354
2863,4437,2863.0,34888.0,2863.0,32511.0,111.33293915865757,59.11510848524373,107.07183189618283
2863,4432,2863.0,34878.0,2863.0,32505.0,111.21899796316816,58.873692633760555,106.89210695611695
2863,4433,2863.0,34907.0,2863.0,32534.0,111.10078631753845,58.61659401563844,106.67436952761956
2873,4455,2873.0,34905.0,2873.0,32525.0,110.97646296897636,58.342594887763305,106.41631733533718
2873,4447,2873.0,34919.0,2873.0,32516.0,110.84405243455149,58.050371160808666,106.11598768329641
2873,4442,2873.0,34908.0,2873.0,32512.0,110.7016328467816,57.738781449526655,105.77180002351976
2873,4442,2873.0,34908.0,2873.0,32507.0,110.54737636116427,57.40699888812489,105.38240160408436
2873,4441,2873.0,34897.0,2873.0,32508.0,110.37946444779654,57.05447360313687,104.94650243041677
2873,4442,2873.0,34908.0,2873.0,32510.0,110.19602383406365,56.68081491362871,104.46279065259282
2883,4458,2883.0,34919.0,2883.0,32535.0,109.99514386922517,56.285757198184,103.9299790138341
2883,4456,2883.0,34922.0,2883.0,32515.0,109.77500572660134,55.86931062670644,103.34700668584047
2883,4445,2883.0,34887.0,2883.0,32507.0,109.53404457849663,55.43192677173829,102.71320225343116
2883,4442,2883.0,34870.0,2883.0,32495.0,109.27096266662286,54.974341137465416,102.02817920118042
2883,4439,2883.0,34883.0,2883.0,32500.0,108.98458319971476,54.49709664151091,101.29156308646228
2883,4441,2883.0,34884.0,2883.0,32511.0,108.67370297136523,54.00018110541218,100.50282766266673
2894,4442,2894.0,34914.0,2894.0,32516.0,108.3370307575714,53.48306003665681,99.66136746020612
2894,4448,2894.0,34898.0,2894.0,32516.0,107.97320546260212,52.944985303108474,98.76671577392266
2894,4443,2894.0,34893.0,2894.0,32495.0,107.58086167518702,52.38527008533612,97.81869153628188
2894,4441,2894.0,34879.0,2894.0,32485.0,107.1586758955929,51.80328728174824,96.81730307371353
2894,4440,2894.0,34895.0,2894.0,32501.0,106.70534490790047,51.19827638400764,95.76248767743606
2894,4443,2894.0,34909.0,2894.0,32512.0,106.21953883819269,50.56927656725763,94.65400673730089
2904,4454,2904.0,34904.0,2904.0,32511.0,105.69991798429103,49.9153195848316,93.49164012479349
2904,4450,2904.0,34908.0,2904.0,32505.0,105.1452478625108,49.2356882196576,92.27544710328652
2904,4449,2904.0,34866.0,2904.0,32485.0,104.55453156453538,48.529969142785895,91.0058266390875
2904,4428,2904.0,34866.0,2904.0,32478.0,103.92701780271713,47.797770684125204,89.68332449357307
2904,4453,2904.0,34900.0,2904.0,32496.0,103.26207253345504,47.03832611656381,88.3083631481594
2904,4448,2904.0,34917.0,2904.0,32489.0,102.55911453137799,46.250494469149594,86.8811596534683
2914,4441,2914.0,34905.0,2914.0,32492.0,101.81770802594443,45.43322567600789,85.40184353188471
2914,4432,2914.0,34895.0,2914.0,32485.0,101.0376039760525,44.58594976118589,83.87056223524837
2914,4435,2914.0,34875.0,2914.0,32478.0,100.21861666838939,43.70854200975909,82.2874770133552
2914,4437,2914.0,34881.0,2914.0,32477.0,99.36049552182513,42.801015921673866,80.6526815672357
2914,4445,2914.0,34894.0,2914.0,32498.0,98.46292769374604,41.86327786791516,78.96615478645941
2914,4453,2914.0,34917.0,2914.0,32490.0,97.5256714960567,40.895198438689945,77.22788720306795
2925,4445,2925.0,34901.0,2925.0,32492.0,96.5487477751787,39.89696203492504,75.43811033057267
2925,4430,2925.0,34878.0,2925.0,32473.0,95.53253545897289,38.86931829222334,73.59740425294197
2925,4431,2925.0,34864.0,2925.0,32466.0,94.47766198806481,37.81341760551258,71.7065923870864
2925,4432,2925.0,34868.0,2925.0,32470.0,93.38481004288488,36.73037643897188,69.76652458632883
2925,4425,2925.0,34894.0,2925.0,32470.0,92.25461458741003,35.621007486825974,67.77793878918004
2925,4429,2925.0,34900.0,2925.0,32482.0,91.08763401914106,34.485965592049546,65.74150439638927
2935,4434,2935.0,34876.0,2935.0,32473.0,89.8843488597271,33.32610297617094,63.657986639986035
2935,4423,2935.0,34863.0,2935.0,32465.0,88.64520618109259,32.142576395826545,61.52838014155802
2935,4430,2935.0,34854.0,2935.0,32465.0,87.37065713417027,30.936570608131404,59.353902352240084
2935,4420,2935.0,34865.0,2935.0,32454.0,86.06114304327411,29.708945714583592,57.13589743425918
2935,4428,2935.0,34882.0,2935.0,32471.0,84.71707254912988,28.460136190166374,54.87577196774777
2935,4435,2935.0,34892.0,2935.0,32465.0,83.33885049736406,27.19038251918697,52.575045411513884
2945,4421,2945.0,34884.0,2945.0,32449.0,81.92697474796287,25.90011328647295,50.23546265445786
2945,4415,2945.0,34850.0,2945.0,32441.0,80.48207946845784,24.59013367970308,47.858968259427485
2945,4414,2945.0,34824.0,2945.0,32443.0,79.00482775583484,23.2613573042865,45.44751603449444
2945,4424,2945.0,34863.0,2945.0,32435.0,77.49579320351505,21.91425937449062,43.0029101705169
2945,4425,2945.0,34865.0,2945.0,32443.0,75.95549633709666,20.548632062485957,40.52676490270238
2945,4422,2945.0,34894.0,2945.0,32444.0,74.38455137783096,19.163896980101903,38.020556329767174
2956,4413,2956.0,34859.0,2956.0,32436.0,72.7837593941895,17.759600409309414,35.485733957504394
2956,4419,2956.0,34865.0,2956.0,32440.0,71.15408508493601,16.335633934997276,32.923808944869464
2956,4401,2956.0,34848.0,2956.0,32420.0,69.49658394990122,14.892107637142914,30.336358292232845
2956,4416,2956.0,34870.0,2956.0,32432.0,67.81232838685726,13.429151071377035,27.724959088219876
2956,4427,2956.0,34881.0,2956.0,32436.0,66.10241160552553,11.946931426621077,25.09115394961198
2956,4411,2956.0,34870.0,2956.0,32428.0,64.36810217678244,10.445909091963898,22.436546764483268
2966,4391,2966.0,34847.0,2966.0,32417.0,62.61094276102021,8.927027067200868,19.762909288090384
2966,4384,2966.0,34841.0,2966.0,32401.0,60.83255012812152,7.391560998880166,17.072108308910984
2966,4396,2966.0,34833.0,2966.0,32401.0,59.03428438928391,5.84075730642995,14.36587558881196
2966,4403,2966.0,34850.0,2966.0,32410.0,57.217133446490564,4.275571012861505,11.645616819102173
2966,4401,2966.0,34868.0,2966.0,32417.0,55.381867257023146,2.696697519015146,8.912437624730899
2966,4390,2966.0,34853.0,2966.0,32415.0,53.52922105735355,1.1048679339467924,6.167364309323133
2976,4397,2976.0,34836.0,2976.0,32405.0,51.65993145589726,-0.49891585886244627,3.411556930590166
2976,4388,2976.0,34830.0,2976.0,32395.0,49.774694175663384,-2.113481650907275,0.646350748835502
2976,4388,2976.0,34827.0,2976.0,32387.0,47.87413853724544,-3.737781245956299,-2.126871966608334
2976,4397,2976.0,34844.0,2976.0,32391.0,45.95882675437714,-5.3710690919647135,-4.906852321653162
2976,4395,2976.0,34856.0,2976.0,32401.0,44.029320518996364,-7.012807390419695,-7.692507542430178
2976,4381,2976.0,34850.0,2976.0,32393.0,42.08628450048529,-8.662358420270465,-10.482809457958822
2987,4371,2987.0,34811.0,2987.0,32376.0,40.130458771420194,-10.318781820681124,-13.276652678137296
2987,4378,2987.0,34809.0,2987.0,32369.0,38.16248192490998,-11.981042436284511,-16.072920944587565
2987,4384,2987.0,34822.0,2987.0,32376.0,36.182779374513004,-13.648444595229336,-18.870686931266803
2987,4381,2987.0,34835.0,2987.0,32374.0,34.191640263293436,-15.320799063564081,-21.669304707760205
2987,4384,2987.0,34847.0,2987.0,32393.0,32.18936761540231,-16.998176989475922,-24.468299780317423
2987,4384,2987.0,34836.0,2987.0,32366.0,30.176388390533425,-18.680522024139435,-27.26715791930536
2997,4367,2997.0,34815.0,2997.0,32371.0,28.153303192153913,-20.367450487324035,-30.06521111529115
2997,4359,2997.0,34790.0,2997.0,32353.0,26.120810855858295,-22.058427787600593,-32.861717820862594
2997,4373,2997.0,34840.0,2997.0,32359.0,24.079532183595617,-23.75313492640447,-35.6560221479311
2997,4376,2997.0,34834.0,2997.0,32380.0,22.02995541084664,-25.45151714828053,-38.44760181463545
2997,4380,2997.0,34841.0,2997.0,32357.0,19.97260052481799,-27.15340141994335,-41.23591379627054
2997,4357,2997.0,34802.0,2997.0,32352.0,17.908200044345207,-28.858182601109434,-44.020229952126925
3006,4357,3006.0,34794.0,3006.0,32341.0,15.837675657584072,-30.564962822017435,-46.799703469875695
3006,4348,3006.0,34806.0,3006.0,32349.0,13.761941049222855,-32.27296599948538,-49.57355282324103
3006,4353,3006.0,34811.0,3006.0,32350.0,11.681723141853539,-33.98177420450058,-52.34112244740868
3006,4363,3006.0,34819.0,3006.0,32343.0,9.597529217637003,-35.69121388872628,-55.1017978963751
3006,4352,3006.0,34830.0,3006.0,32341.0,7.509755849347982,-37.40107209489841,-57.85491918847087
3006,4350,3006.0,34804.0,3006.0,32322.0,5.418802010285432,-39.11084300864003,-60.59980366565789
3017,4338,3017.0,34792.0,3017.0,32328.0,3.3250487360502206,-40.819699138533835,-63.33587434085541
3017,4361,3017.0,34796.0,3017.0,32341.0,1.2287781784229992,-42.526735710545395,-66.06275411846332
3017,4345,3017.0,34814.0,3017.0,32328.0,-0.8697939217062753,-44.23118069724272,-68.780180199195
3017,4353,3017.0,34810.0,3017.0,32337.0,-2.970390565853208,-45.93230337925439,-71.48783177388808
3017,4348,3017.0,34799.0,3017.0,32333.0,-5.072588255264208,-47.62918740947673,-74.18521470108462
3017,4336,3017.0,34785.0,3017.0,32306.0,-7.175804540457577,-49.32068815301973,-76.87162746575748
3027,4326,3027.0,34765.0,3027.0,32292.0,-9.27938063814777,-51.00566135267351,-79.54631974004099
3027,4337,3027.0,34787.0,3027.0,32302.0,-11.382746991333832,-52.68329316288161,-82.20883749563546
3027,4343,3027.0,34803.0,3027.0,32324.0,-13.485487634711973,-54.35321386264468,-84.85920458653217
3027,4334,3027.0,34812.0,3027.0,32313.0,-15.587218387779274,-56.01521921027263,-87.4977242781915
3027,4331,3027.0,34801.0,3027.0,32314.0,-17.687461024867233,-57.66883420631763,-90.12465773656953
3027,4324,3027.0,34772.0,3027.0,32301.0,-19.785657120003975,-59.313124019483965,-92.74008909957104
3037,4313,3037.0,34757.0,3037.0,32284.0,-21.88128110831161,-60.94693422766326,-95.34400950454238
3037,4322,3037.0,34781.0,3037.0,32303.0,-23.97397567995762,-62.5693337459917,-97.93650066979956
3037,4327,3037.0,34799.0,3037.0,32308.0,-26.063602265709562,-64.1797707364679,-100.51779339706985
3037,4334,3037.0,34795.0,3037.0,32305.0,-28.15011758239754,-65.77777153592652,-103.08807956961576
3037,4312,3037.0,34782.0,3037.0,32286.0,-30.233387548936463,-67.36256510555404,-105.64730834442864
3037,4308,3037.0,34729.0,3037.0,32273.0,-32.31316725630205,-68.93309847531756,-108.19523771232679
3048,4307,3048.0,34770.0,3048.0,32280.0,-34.389273304764345,-70.48848570635617,-110.73168476375582
3048,4314,3048.0,34776.0,3048.0,32292.0,-36.4617279303326,-72.02837030665394,-113.25667718016274
3048,4313,3048.0,34773.0,3048.0,32290.0,-38.53073124158088,-73.55279031151771,-115.77033394028572
3048,4312,3048.0,34775.0,3048.0,32279.0,-40.59654049150686,-75.06185162193286,-118.27264321027815
3048,4314,3048.0,34753.0,3048.0,32273.0,-42.659369707761655,-76.555612322534,-120.76339240464259
3048,4298,3048.0,34749.0,3048.0,32264.0,-44.71935014909026,-78.03420833311267,-123.24227672807521
3058,4307,3058.0,34772.0,3058.0,32272.0,-46.776565748115885,-79.49804837570694,-125.70903847369965
3058,4309,3058.0,34795.0,3058.0,32279.0,-48.831094730197606,-80.94775648095981,-128.16348530796475
3058,4310,3058.0,34778.0,3058.0,32267.0,-50.88294610175903,-82.38377095524932,-130.605363266455
3058,4299,3058.0,34767.0,3058.0,32261.0,-52.93194767077773,-83.80600048853137,-133.03425243671907
3058,4290,3058.0,34735.0,3058.0,32244.0,-54.97774547396371,-85.21390570845014,-135.44964116374524
3058,4284,3058.0,34733.0,3058.0,32243.0,-57.019949019658085,-86.60694142432563,-137.85114034063687
3068,4286,3068.0,34747.0,3068.0,32249.0,-59.058311052330026,-87.98501149460097,-140.23867792551258
3068,4296,3068.0,34751.0,3068.0,32254.0,-61.092798165962776,-89.34860848847484,-142.61252191684198
3068,4295,3068.0,34775.0,3068.0,32259.0,-63.12349358622916,-90.69859969245027,-144.97311964746115
3068,4284,3068.0,34758.0,3068.0,32247.0,-65.15044140457385,-92.03586586748384,-147.32089505089502
3068,4284,3068.0,34752.0,3068.0,32241.0,-67.1736022555491,-93.36105581612699,-149.65616578559892
3068,4279,3068.0,34731.0,3068.0,32236.0,-69.19292448457091,-94.67463886879437,-151.97921865541798
3079,4286,3079.0,34744.0,3079.0,32245.0,-71.20840128963675,-95.9771682483028,-154.2904137983728
3079,4287,3079.0,34770.0,3079.0,32247.0,-73.2200349137841,-97.26941935886555,-156.59016383171522
3079,4280,3079.0,34764.0,3079.0,32236.0,-75.22773824508505,-98.55217430103349,-158.87880615577006
3079,4270,3079.0,34737.0,3079.0,32217.0,-77.23129322461935,-99.8259055543667,-161.1565667285519
3079,4262,3079.0,34718.0,3079.0,32214.0,-79.23045106191515,-101.09082830690889,-163.423742794666
3079,4257,3079.0,34723.0,3079.0,32215.0,-81.22512367112603,-102.34732748685067,-165.68096492301854
3089,4271,3089.0,34722.0,3089.0,32219.0,-83.21552872152375,-103.59634057606297,-167.92931775630964
3089,4278,3089.0,34746.0,3089.0,32221.0,-85.20214866769632,-104.83942501096132,-170.1702789762501
3089,4274,3089.0,34734.0,3089.0,32223.0,-87.18550982460275,-106.07855870830758,-172.4055735885106
3089,4268,3089.0,34738.0,3089.0,32206.0,-89.16597979877548,-107.31589627643638,-174.6370588334412
3089,4245,3089.0,34714.0,3089.0,32210.0,-91.14376741932978,-108.55369941202153,-176.86673073554894
3089,4256,3089.0,34742.0,3089.0,32213.0,-93.11911908617662,-109.79443534281975,-179.09679759194245
3100,4256,3100.0,34756.0,3100.0,32230.0,-95.09250713185244,-111.04076599444917,-181.32963212982742
3100,4270,3100.0,34746.0,3100.0,32233.0,-97.0646078160328,-112.29526185815598,-183.56751929088347
3100,4244,3100.0,34743.0,3100.0,32208.0,-99.0361397677768,-113.56010153581764,-185.8123695611603
3100,4254,3100.0,34727.0,3100.0,32198.0,-101.00780367733145,-114.83704020266657,-188.06568716714023
3100,4251,3100.0,34722.0,3100.0,32195.0,-102.98035154740217,-116.12759834881507,-190.3288274798168
3100,4245,3100.0,34726.0,3100.0,32195.0,-104.95462560793487,-117.43329265428218,-192.60326430324082
3110,4255,3110.0,34737.0,3110.0,32204.0,-106.93153651422676,-118.75573692974928,-194.89066462930657
3110,4251,3110.0,34754.0,3110.0,32204.0,-108.91200913367854,-120.09650176894127,-197.19278497603761
3110,4253,3110.0,34733.0,3110.0,32198.0,-110.89688577442686,-121.45682190578066,-199.51130460844172
3110,4246,3110.0,34717.0,3110.0,32185.0,-112.8868455152236,-122.83745276210848,-201.84775141330695
3110,4228,3110.0,34707.0,3110.0,32184.0,-114.88242663020014,-124.2388724478252,-204.20358715711356
3110,4241,3110.0,34740.0,3110.0,32203.0,-116.88416422872669,-125.66158229398818,-206.58030636990978
3120,4232,3120.0,34733.0,3120.0,32190.0,-118.89271559775702,-127.10610318181551,-208.97936060204603
3120,4235,3120.0,34738.0,3120.0,32184.0,-120.9088700187477,-128.57268991229688,-211.4020010972288
3120,4238,3120.0,34730.0,3120.0,32194.0,-122.93349970175944,-130.06109953900324,-213.84923411316916
3120,4226,3120.0,34697.0,3120.0,32172.0,-124.96751049969015,-131.57060591172916,-216.3218443287108
3120,4228,3120.0,34717.0,3120.0,32176.0,-127.01183284957077,-133.1002503200493,-218.82043773599096
3120,4219,3120.0,34699.0,3120.0,32189.0,-129.06747922021378,-134.64912386247167,-221.34549994416025
3131,4235,3131.0,34735.0,3131.0,32180.0,-131.13559113473315,-136.21643265228215,-223.89733630992336
3131,4248,3131.0,34715.0,3131.0,32184.0,-133.21734014655587,-137.80132160402368,-226.47590804630988
3131,4229,3131.0,34714.0,3131.0,32173.0,-135.31367463907543,-139.40265717607056,-229.08073429359735
3131,4219,3131.0,34697.0,3131.0,32153.0,-137.42516335457748,-141.0190078975415,-231.71093503249116
3131,4205,3131.0,34692.0,3131.0,32175.0,-139.55213597119587,-142.6488429536511,-234.3653824752493
3131,4232,3131.0,34727.0,3131.0,32166.0,-141.69492845566637,-144.29070602848537,-237.04277882772374
3141,4223,3141.0,34733.0,3141.0,32169.0,-143.85390938494297,-145.9430689912076,-239.7415532013929
3141,4217,3141.0,34699.0,3141.0,32149.0,-146.0293074627105,-147.60395047094835,-242.45976187615648
3141,4204,3141.0,34674.0,3141.0,32149.0,-148.22114175366244,-149.2708437522337,-245.19515386281816
3141,4214,3141.0,34687.0,3141.0,32140.0,-150.42933355396335,-150.94113416610026,-247.94533706862794
3141,4207,3141.0,34676.0,3141.0,32142.0,-152.65379954907226,-152.6125304808217,-250.7079135955381
3141,4215,3141.0,34695.0,3141.0,32145.0,-154.89442305133846,-154.28317645917363,-253.4805174642147
3151,4206,3151.0,34706.0,3151.0,32150.0,-157.15097212666012,-155.95150134205025,-256.26073865136755
3151,4212,3151.0,34696.0,3151.0,32137.0,-159.4230334214603,-157.6159307430087,-259.045984110715
3151,4199,3151.0,34687.0,3151.0,32130.0,-161.7099819357751,-159.27466847467673,-261.83341751729705
3151,4188,3151.0,34669.0,3151.0,32133.0,-164.01102520693212,-160.92574768439397,-264.62003043626567
3151,4195,3151.0,34699.0,3151.0,32138.0,-166.3253381131211,-162.56723195792483,-267.4026972765679
3151,4207,3151.0,34710.0,3151.0,32136.0,-168.65214059021997,-164.1972102799151,-270.1780947274736
3162,4198,3162.0,34692.0,3162.0,32134.0,-170.99058067565008,-165.81349282360887,-272.94256065755377
3162,4200,3162.0,34665.0,3162.0,32116.0,-173.3395544473353,-167.41342047198964,-275.69203424511335
3162,4187,3162.0,34670.0,3162.0,32126.0,-175.69764502170133,-168.99409169978213,-278.42212198112065
3162,4187,3162.0,34668.0,3162.0,32107.0,-178.06318267131655,-170.55272762789997,-281.12820467939076
3162,4191,3162.0,34690.0,3162.0,32106.0,-180.43432694576344,-172.08678881077427,-283.80553301826023
3162,4178,3162.0,34680.0,3162.0,32128.0,-182.80909192417718,-173.59380741803756,-286.4492895008884
3172,4179,3172.0,34680.0,3172.0,32116.0,-185.18535715654568,-175.07115952656767,-289.05449354101665
3172,4178,3172.0,34678.0,3172.0,32105.0,-187.5609169742918,-176.51596985819123,-291.6158145900587
3172,4163,3172.0,34661.0,3172.0,32101.0,-189.93353383516478,-177.92515309697978,-294.1275545274458
3172,4179,3172.0,34667.0,3172.0,32109.0,-192.30098767827468,-179.29553926205497,-296.5837671076889
3172,4191,3172.0,34682.0,3172.0,32122.0,-194.6610404128917,-180.6239739539333,-298.9782475177806
3172,4180,3172.0,34703.0,3172.0,32112.0,-197.01122049949416,-181.90718108625006,-301.3043254552141
3182,4156,3182.0,34680.0,3182.0,32092.0,-199.34864625904515,-183.14140237331142,-303.5546946565982
3182,4158,3182.0,34661.0,3182.0,32100.0,-201.67015107489644,-184.3221941412293,-305.72148348944916
3182,4156,3182.0,34650.0,3182.0,32097.0,-203.9725588008931,-185.44464466921056,-307.7964211357181
3182,4162,3182.0,34661.0,3182.0,32087.0,-206.25281198941903,-186.50377947509216,-309.770897248701
3182,4174,3182.0,34667.0,3182.0,32090.0,-208.50788828168226,-187.4947600756243,-311.63598213214385
3182,4163,3182.0,34679.0,3182.0,32088.0,-210.73459815095669,-188.4127731700215,-313.3824724782662
3193,4175,3193.0,34674.0,3193.0,32094.0,-212.92939361696833,-189.25277432532673,-315.0008860520428
3193,4153,3193.0,34656.0,3193.0,32080.0,-215.08827505701922,-190.00932107290737,-316.48140561962475
3193,4146,3193.0,34648.0,3193.0,32077.0,-217.206838728023,-190.67666152554665,-317.8138837321893
3193,4156,3193.0,34673.0,3193.0,32067.0,-219.28044286742553,-191.24896131511363,-318.98796534635204
3193,4154,3193.0,34675.0,3193.0,32085.0,-221.3043083558932,-191.72033107467476,-319.9932274222707
3193,4155,3193.0,34670.0,3193.0,32089.0,-223.27345290523562,-192.08460203691098,-320.81916179365606
3203,4149,3203.0,34668.0,3203.0,32082.0,-225.18259451543992,-192.33514742760286,-321.45499355219863
3203,4138,3203.0,34636.0,3203.0,32073.0,-227.02614983326777,-192.464948179262,-321.8895558729773
3203,4141,3203.0,34637.0,3203.0,32068.0,-228.79833163078447,-192.4669052020804,-322.1113693616268
3203,4143,3203.0,34660.0,3203.0,32075.0,-230.4932484452238,-192.3341980874984,-322.1088129558217
3203,4135,3203.0,34650.0,3203.0,32062.0,-232.10491954659503,-192.06037274672985,-321.87023497176773
3203,4148,3203.0,34663.0,3203.0,32076.0,-233.62723982642723,-191.6391804642509,-321.38400466983626
3213,4133,3213.0,34653.0,3213.0,32065.0,-235.05393527583047,-191.0644377300333,-320.63854114182686
3213,4122,3213.0,34645.0,3213.0,32069.0,-236.3785679385299,-190.33001633490733,-319.62233203791084
3213,4137,3213.0,34641.0,3213.0,32052.0,-237.59464922921052,-189.4299740475038,-318.32400726581704
3213,4133,3213.0,34681.0,3213.0,32071.0,-238.695720164424,-188.3586844098572,-316.73248422300907
3213,4143,3213.0,34684.0,3213.0,32071.0,-239.67526919766755,-187.11067240438052,-314.83705338640186
3213,4128,3213.0,34650.0,3213.0,32056.0,-240.52660322003965,-185.68025938577,-312.62736009505585
3224,4128,3224.0,34649.0,3224.0,32050.0,-241.2428257406514,-184.06153148124292,-310.0934811953109
3224,4127,3224.0,34639.0,3224.0,32048.0,-241.81692853480592,-182.24872473328946,-307.22619401953455
3224,4115,3224.0,34646.0,3224.0,32055.0,-242.2419099622903,-180.23662850061078,-304.0172558815809
3224,4101,3224.0,34677.0,3224.0,32066.0,-242.51093232281,-178.0207260019243,-300.4595223676828
3224,4132,3224.0,34661.0,3224.0,32068.0,-242.61752049618303,-175.59704181338282,-296.5469026633443
3224,4126,3224.0,34650.0,3224.0,32064.0,-242.55559162011699,-172.96195550188085,-292.27428166480206
3234,4119,3234.0,34634.0,3234.0,32064.0,-242.31928363520316,-170.11233365007854,-287.6375527556854
3234,4100,3234.0,34635.0,3234.0,32060.0,-241.90291073657295,-167.04594598473437,-282.63377557922945
3234,4121,3234.0,34669.0,3234.0,32078.0,-241.30116127351442,-163.76179941250825,-277.2613516795885
3234,4138,3234.0,34683.0,3234.0,32096.0,-240.50921448516425,-160.26007635557676,-271.52006227859897
3234,4124,3234.0,34693.0,3234.0,32092.0,-239.52257184800652,-156.54172194127506,-265.4109196696902
3234,4110,3234.0,34661.0,3234.0,32099.0,-238.3368946069681,-152.6080969288947,-258.93601639458274
3244,4112,3244.0,34642.0,3244.0,32092.0,-236.94814309875383,-148.46109501796548,-252.09854823388477
3244,4118,3244.0,34664.0,3244.0,32086.0,-235.35284396681845,-144.10366175669793,-244.90300487166715
3244,4128,3244.0,34702.0,3244.0,32110.0,-233.54819195712975,-139.5401463196864,-237.35542896507792
3244,4132,3244.0,34701.0,3244.0,32132.0,-231.531960097003,-134.77609143138366,-229.46352693242898
3244,4139,3244.0,34705.0,3244.0,32126.0,-229.3023458422437,-129.81778306621646,-221.23651995786275
3244,4120,3244.0,34690.0,3244.0,32121.0,-226.85788480750082,-124.6720656783491,-212.68501018818878
3255,4121,3255.0,34699.0,3255.0,32145.0,-224.19754546659294,-119.34649156624405,-203.82108645581715
3255,4123,3255.0,34722.0,3255.0,32149.0,-221.3209704652736,-113.849522852498,-194.65846478776587
3255,4148,3255.0,34740.0,3255.0,32183.0,-218.22863184967736,-108.19048834634492,-185.21243665153688
3255,4135,3255.0,34740.0,3255.0,32189.0,-214.92176260717042,-102.37929703873559,-175.49964675431593
3255,4142,3255.0,34752.0,3255.0,32207.0,-211.40223449610266,-96.42617708450788,-165.5378213253597
3255,4135,3255.0,34740.0,3255.0,32207.0,-207.67258247264772,-90.3416018508982,-155.34558193413955
3265,4140,3265.0,34725.0,3265.0,32209.0,-203.73614327400466,-84.13643103353905,-144.94242926800064
3265,4154,3265.0,34759.0,3265.0,32239.0,-199.5971704613202,-77.82221185821375,-134.34883960197277
3265,4163,3265.0,34780.0,3265.0,32259.0,-195.26082057934218,-71.41132026596787,-123.58625881425637
3265,4163,3265.0,34799.0,3265.0,32278.0,-190.7330264844333,-64.91669278960845,-112.67686579026912
3265,4186,3265.0,34792.0,3265.0,32301.0,-186.0203669554508,-58.351397639888425,-101.6432320169468
3265,4183,3265.0,34793.0,3265.0,32300.0,-181.12994049180924,-51.72843314015126,-90.50803855002552
3275,4183,3275.0,34802.0,3275.0,32313.0,-176.06925320568797,-45.060805705061654,-79.29394271743467
3275,4197,3275.0,34823.0,3275.0,32334.0,-170.8462075990646,-38.36163802542079,-68.02357965958215
3275,4207,3275.0,34839.0,3275.0,32354.0,-165.4691191287987,-31.644082404362578,-56.71951988607978
3275,4209,3275.0,34861.0,3275.0,32376.0,-159.94664495197404,-24.921036797329705,-45.40407081197711
3275,4209,3275.0,34837.0,3275.0,32384.0,-154.28771564945015,-18.204853361844798,-34.09901058786602
3275,4218,3275.0,34828.0,3275.0,32374.0,-148.50157083298535,-11.507332540893756,-22.82543968553159
3286,4222,3286.0,34836.0,3286.0,32397.0,-142.59783358707554,-4.840081203579928,-11.60386691028765
3286,4237,3286.0,34860.0,3286.0,32421.0,-136.5865303541691,1.7851217169073266,-0.4543530920526564
3286,4242,3286.0,34899.0,3286.0,32428.0,-130.47803773738462,8.356355187473724,10.603547246109969
3286,4264,3286.0,34901.0,3286.0,32437.0,-124.28296803853593,14.861996188815326,21.55095582503003
3286,4265,3286.0,34879.0,3286.0,32446.0,-118.01200533891141,21.291159546315342,32.36972815237348
3286,4265,3286.0,34881.0,3286.0,32467.0,-111.67576868192229,27.633698704247593,43.04242761464704
3296,4277,3296.0,34906.0,3296.0,32477.0,-105.28479915098326,33.879889218624754,53.55236039016111
3296,4287,3296.0,34925.0,3296.0,32498.0,-98.8496037161504,40.020311347233516,63.8836980561133
3296,4301,3296.0,34945.0,3296.0,32502.0,-92.38061384757529,46.04611418745385,74.0216236707351
3296,4305,3296.0,34938.0,3296.0,32508.0,-85.88806260299205,51.9493985817806,83.95241886993819
3296,4312,3296.0,34904.0,3296.0,32504.0,-79.38188103792965,57.723340639479304,93.66341353331185
3296,4308,3296.0,34900.0,3296.0,32536.0,-72.8716864616481,63.361829473969465,103.14284298687673
3306,4325,3306.0,34947.0,3306.0,32550.0,-66.36685412190869,68.85891079648835,112.37982766879054
3306,4333,3306.0,34959.0,3306.0,32552.0,-59.87656677277215,74.20866796904332,121.36455051714915
3306,4335,3306.0,34968.0,3306.0,32571.0,-53.40977706184114,79.4056257073891,130.08843208370638
3306,4361,3306.0,34967.0,3306.0,32556.0,-46.97513100843635,84.44516259896574,138.54416405393545
3306,4353,3306.0,34960.0,3306.0,32565.0,-40.58086847294737,89.3236189330097,146.7255974042339
3306,4364,3306.0,34947.0,3306.0,32572.0,-34.2347347413225,94.03813237049218,154.6275299571297
3317,4366,3317.0,34963.0,3317.0,32590.0,-27.943985930416886,98.58632906883236,162.24555948163066
3317,4385,3317.0,34968.0,3317.0,32597.0,-21.715427251548448,102.9660909433814,169.57611381420958
3317,4385,3317.0,35012.0,3317.0,32600.0,-15.555374615989152,107.17560961188735,176.61655898180345
3317,4384,3317.0,34978.0,3317.0,32597.0,-9.469598049371925,111.213692687265,183.36522354552966
3317,4390,3317.0,34963.0,3317.0,32598.0,-3.4633681328877657,115.07992582687598,189.82127651595607
3317,4383,3317.0,34957.0,3317.0,32612.0,2.4583987643881784,118.77435868758769,195.9845459162991
3327,4410,3327.0,34994.0,3327.0,32616.0,8.290999844662224,122.29703455056179,201.85542373081626
3327,4411,3327.0,34997.0,3327.0,32629.0,14.029927369029451,125.64791002237465,207.4348956967484
