c_ts,c_val,d_ts,d_val,e_ts,e_val,c_val_filtered,d_val_filtered,e_val_filtered
413929.0,9955.0,413929.0,9932.0,413929.0,24484.0,156.10260301206728,95.02257680138698,134.42435915829913
413929.0,9912.0,413929.0,9892.0,413929.0,24413.0,147.9321229838615,88.66848551091402,124.61979315968014
413929.0,9875.0,413929.0,9844.0,413929.0,24403.0,139.5700296322595,82.21077713944833,114.67610682699144
413929.0,9866.0,413929.0,9823.0,413929.0,24395.0,131.0325843077839,75.66500642374314,104.61286538204268
413929.0,9855.0,413929.0,9845.0,413929.0,24428.0,122.33463981034807,69.04473107401736,94.44784638890229
413929.0,9896.0,413929.0,9857.0,413929.0,24425.0,113.48943142878842,62.36120343642639,84.19729840266447
413940.0,9933.0,413940.0,9905.0,413940.0,24438.0,104.50900039096214,55.623780814934165,73.87658102856986
413940.0,9855.0,413940.0,9890.0,413940.0,24386.0,95.40502870327467,48.84078290370246,63.50070421087025
413940.0,9839.0,413940.0,9851.0,413940.0,24365.0,86.18924108987994,42.02023544558314,53.084391857465874
413940.0,9831.0,413940.0,9828.0,413940.0,24317.0,76.87300533069575,35.16995950486216,42.64161062301778
413940.0,9841.0,413940.0,9889.0,413940.0,24367.0,67.46685106134439,28.29723274601109,32.1849620483072
413940.0,9848.0,413940.0,9873.0,413940.0,24342.0,57.980497594044124,21.408848139937717,21.725508294845156
413950.0,9811.0,413950.0,9888.0,413950.0,24327.0,48.42317995075504,14.511713542386673,11.27304523276004
413950.0,9757.0,413950.0,9787.0,413950.0,24303.0,38.80371222073114,7.6132451666283885,0.8362659980804494
413950.0,9764.0,413950.0,9749.0,413950.0,24299.0,29.13001676406529,0.7208727306869207,-9.577395768309401
413950.0,9762.0,413950.0,9779.0,413950.0,24303.0,19.40856217235978,-6.15912134738295,-19.961925560389545
413950.0,9773.0,413950.0,9757.0,413950.0,24307.0,9.644270302857251,-13.02242922015003,-30.312633755980613
413950.0,9843.0,413950.0,9862.0,413950.0,24329.0,-0.15900056780375849,-19.866608475581586,-40.62578541328105
413961.0,9797.0,413961.0,9831.0,413961.0,24273.0,-9.997520085349066,-26.69017435066209,-50.89813843263025
413961.0,9752.0,413961.0,9786.0,413961.0,24235.0,-19.866882647611902,-33.49156323516934,-61.12684352418165
413961.0,9724.0,413961.0,9772.0,413961.0,24243.0,-29.76206539133304,-40.26887617490203,-71.3099084613047
413961.0,9735.0,413961.0,9793.0,413961.0,24278.0,-39.678076303590046,-47.02031541159789,-81.44661352500586
413961.0,9731.0,413961.0,9797.0,413961.0,24265.0,-49.61033658562559,-53.744385135814085,-91.53726097051239
413961.0,9746.0,413961.0,9809.0,413961.0,24289.0,-59.55453232144677,-60.43956711987914,-101.58250341421947
413971.0,9683.0,413971.0,9769.0,413971.0,24240.0,-69.50630189431817,-67.10389828762811,-111.58279349733067
413971.0,9658.0,413971.0,9693.0,413971.0,24171.0,-79.46128950821495,-73.73501286816969,-121.53835146262605
413971.0,9635.0,413971.0,9683.0,413971.0,24189.0,-89.41571066332472,-80.33094465888402,-131.449804434351
413971.0,9662.0,413971.0,9724.0,413971.0,24205.0,-99.36693188860957,-86.89113496826388,-141.31888622826204
413971.0,9673.0,413971.0,9805.0,413971.0,24183.0,-109.31350428081129,-93.4165433692906,-151.1484853191451
413971.0,9678.0,413971.0,9750.0,413971.0,24216.0,-119.25463879450075,-99.90863057913796,-160.94225137701017
413981.0,9672.0,413981.0,9723.0,413981.0,24209.0,-129.1895381998533,-106.36835482092928,-170.7041407435877
413981.0,9625.0,413981.0,9661.0,413981.0,24140.0,-139.11700262944265,-112.79623801128167,-180.43805656625585
413981.0,9609.0,413981.0,9695.0,413981.0,24157.0,-149.03551921349913,-119.19320223507228,-190.14793559425937
413981.0,9611.0,413981.0,9733.0,413981.0,24195.0,-158.9436638282645,-125.56109582111978,-199.83806295209467
413981.0,9638.0,413981.0,9762.0,413981.0,24168.0,-168.84028479177266,-131.90226746802105,-209.5128882507414
413981.0,9608.0,413981.0,9732.0,413981.0,24157.0,-178.72421356556976,-138.21857894363978,-219.17651087108982
413992.0,9578.0,413992.0,9685.0,413992.0,24106.0,-188.59392546040857,-144.51081351140897,-228.83256281958967
413992.0,9551.0,413992.0,9596.0,413992.0,24115.0,-198.4476482222958,-150.77908916910494,-238.48458414207806
413992.0,9528.0,413992.0,9638.0,413992.0,24099.0,-208.28384974257938,-157.02405001484973,-248.1364516311408
413992.0,9539.0,413992.0,9682.0,413992.0,24140.0,-218.10170425039712,-163.24776113239693,-257.7924579911087
413992.0,9577.0,413992.0,9707.0,413992.0,24146.0,-227.90115657523893,-169.45341046141343,-267.45689967732113
413992.0,9565.0,413992.0,9696.0,413992.0,24135.0,-237.68241856372197,-175.64423852255584,-277.1333716028319
414001.0,9523.0,414001.0,9637.0,414001.0,24066.0,-247.4453206164315,-181.82280692616877,-286.82433117704034
414001.0,9490.0,414001.0,9621.0,414001.0,24067.0,-257.1892084333243,-187.99115602040848,-296.5313646419958
414001.0,9505.0,414001.0,9645.0,414001.0,24054.0,-266.91338497676963,-194.15144685417255,-306.25582778511756
414001.0,9522.0,414001.0,9760.0,414001.0,24104.0,-276.61739544318016,-200.30603505421652,-315.9991263649558
414001.0,9535.0,414001.0,9693.0,414001.0,24097.0,-286.3007100484096,-206.4564402654845,-325.76232252998943
414001.0,9475.0,414001.0,9681.0,414001.0,24085.0,-295.9621567730462,-212.60216223712666,-335.54541931830136
414011.0,9444.0,414011.0,9577.0,414011.0,23976.0,-305.5998225105586,-218.74063060102225,-345.34709222514147
414011.0,9406.0,414011.0,9543.0,414011.0,23986.0,-315.2116493144883,-224.8683794279927,-355.16535960496077
414011.0,9417.0,414011.0,9593.0,414011.0,24001.0,-324.79623606267444,-230.98252584239128,-364.9986131633911
414011.0,9454.0,414011.0,9627.0,414011.0,24029.0,-334.35318991415824,-237.0813851081059,-374.8459319789091
414011.0,9464.0,414011.0,9634.0,414011.0,24001.0,-343.8827260685107,-243.16387014641424,-384.70657689483795
414011.0,9415.0,414011.0,9613.0,414011.0,23982.0,-353.38490844705495,-249.2285396728318,-394.5794808745034
414022.0,9376.0,414022.0,9465.0,414022.0,24002.0,-362.85936709259767,-255.2734181602999,-404.46315223712537
414022.0,9366.0,414022.0,9556.0,414022.0,23941.0,-372.305759420797,-261.2969519463996,-414.3557439210772
414022.0,9403.0,414022.0,9585.0,414022.0,23979.0,-381.72431357852116,-267.298980402851,-424.2551451412681
414022.0,9402.0,414022.0,9636.0,414022.0,23979.0,-391.11575573555507,-273.28034810877836,-434.1589983634422
414022.0,9386.0,414022.0,9574.0,414022.0,23950.0,-400.4807508222722,-279.2416437294738,-444.0644575089297
414022.0,9342.0,414022.0,9518.0,414022.0,23916.0,-409.8195447596262,-285.18259349105125,-453.96801531235894
414032.0,9312.0,414032.0,9512.0,414032.0,23878.0,-419.13220076588186,-291.10262528755067,-463.86583907312183
414032.0,9301.0,414032.0,9503.0,414032.0,23883.0,-428.4192233122427,-297.00183239062216,-473.7544246830366
414032.0,9333.0,414032.0,9545.0,414032.0,23907.0,-437.6820293881406,-302.8814321706597,-483.63101252744315
414032.0,9377.0,414032.0,9605.0,414032.0,23936.0,-446.9227611280119,-308.7433960278274,-493.49336062817207
414032.0,9350.0,414032.0,9567.0,414032.0,23898.0,-456.1434417820527,-314.5894366815148,-503.3390430908844
414032.0,9329.0,414032.0,9516.0,414032.0,23856.0,-465.34516303601214,-320.42019058531633,-513.1649984288199
414042.0,9267.0,414042.0,9486.0,414042.0,23829.0,-474.52798561720476,-326.2354049079317,-522.9678155634442
414042.0,9270.0,414042.0,9497.0,414042.0,23841.0,-483.69151875168075,-332.0347870517549,-532.7444014268569
414042.0,9287.0,414042.0,9551.0,414042.0,23862.0,-492.8355389724402,-337.81848461619273,-542.4923017345195
414042.0,9296.0,414042.0,9554.0,414042.0,23851.0,-501.9600431955872,-343.5866797643346,-552.2094281336008
414042.0,9268.0,414042.0,9523.0,414042.0,23822.0,-511.064829162623,-349.3387695188555,-561.8936269090693
414042.0,9229.0,414042.0,9493.0,414042.0,23791.0,-520.1492508423133,-355.0730082592615,-571.5426357241213
414053.0,9193.0,414053.0,9415.0,414053.0,23757.0,-529.2125434262211,-360.78697873734876,-581.1545235813583
414053.0,9208.0,414053.0,9452.0,414053.0,23792.0,-538.2544710431649,-366.4785860817043,-590.7282518300567
414053.0,9245.0,414053.0,9502.0,414053.0,23793.0,-547.275645575819,-372.14673906517686,-600.2638361830587
414053.0,9249.0,414053.0,9492.0,414053.0,23813.0,-556.2771138663303,-377.7910387289215,-609.7619377615927
414053.0,9216.0,414053.0,9460.0,414053.0,23758.0,-565.2596018502178,-383.41100663855445,-619.22331422467
414053.0,9194.0,414053.0,9445.0,414053.0,23718.0,-574.2231562735724,-389.0058484608924,-628.6487542731376
414063.0,9160.0,414063.0,9419.0,414063.0,23715.0,-583.1673944423161,-394.57482978251954,-638.0396432370704
414063.0,9150.0,414063.0,9453.0,414063.0,23803.0,-592.0920361829742,-400.11771374350144,-647.398433204118
414063.0,9190.0,414063.0,9506.0,414063.0,23760.0,-600.9972728052333,-405.6347161278655,-656.728224346389
414063.0,9204.0,414063.0,9461.0,414063.0,23758.0,-609.8835683299296,-411.12583221364815,-666.0318904475972
414063.0,9130.0,414063.0,9394.0,414063.0,23737.0,-618.7510730902501,-416.59030844206063,-675.3116915915538
414063.0,9094.0,414063.0,9442.0,414063.0,23677.0,-627.5995360837913,-422.02697530648976,-684.5694993966208
414073.0,9113.0,414073.0,9348.0,414073.0,23679.0,-636.428977130881,-427.43495983992113,-693.807377710605
414073.0,9133.0,414073.0,9414.0,414073.0,23752.0,-645.2402162658042,-432.8142050200201,-703.0280633643706
414073.0,9125.0,414073.0,9422.0,414073.0,23729.0,-654.034655265455,-438.16565040609504,-712.2346689706841
414073.0,9135.0,414073.0,9449.0,414073.0,23715.0,-662.8137160341142,-443.49081902105445,-721.4298606487682
414073.0,9114.0,414073.0,9374.0,414073.0,23667.0,-671.5784174503927,-448.7911544851853,-730.6154981559504
414073.0,9092.0,414073.0,9388.0,414073.0,23658.0,-680.3292120603104,-454.06791986899344,-739.7929963813108
414084.0,9076.0,414084.0,9410.0,414084.0,23693.0,-689.0661068715056,-459.32256310683874,-748.9638172153795
414084.0,9078.0,414084.0,9415.0,414084.0,23682.0,-697.788926573655,-464.55675968105,-758.1294826087698
414084.0,9089.0,414084.0,9472.0,414084.0,23676.0,-706.4974115784993,-469.7718775431517,-767.291169484724
414084.0,9039.0,414084.0,9381.0,414084.0,23644.0,-715.1911023155681,-474.9682831339811,-776.4494409587996
414084.0,9001.0,414084.0,9315.0,414084.0,23614.0,-723.869426677481,-480.1452858094867,-785.6044072702871
414084.0,8993.0,414084.0,9298.0,414084.0,23588.0,-732.5322618053353,-485.3021921848476,-794.75623141019
414094.0,9010.0,414094.0,9325.0,414094.0,23628.0,-741.18053310437,-490.43966496902607,-803.9056455241653
414094.0,9056.0,414094.0,9352.0,414094.0,23610.0,-749.816215042027,-495.56022873254994,-813.0540389343888
414094.0,9026.0,414094.0,9416.0,414094.0,23653.0,-758.4416810827869,-500.66772020926953,-822.2030550214972
414094.0,9037.0,414094.0,9405.0,414094.0,23624.0,-767.0589713675987,-505.76613636937475,-831.3540025084463
414094.0,8975.0,414094.0,9340.0,414094.0,23562.0,-775.6695143548287,-510.85866130820585,-840.5075121525408
414094.0,8961.0,414094.0,9309.0,414094.0,23563.0,-784.2744015232082,-515.9476732242708,-849.6638314081258
414104.0,8986.0,414104.0,9364.0,414104.0,23599.0,-792.8749034361831,-521.0354905631177,-858.8233988403449
414104.0,8969.0,414104.0,9387.0,414104.0,23567.0,-801.472680724574,-526.1246632535979,-867.9869211714706
414104.0,8996.0,414104.0,9336.0,414104.0,23572.0,-810.0695320945307,-531.2174629039034,-877.1550581778337
414104.0,8928.0,414104.0,9278.0,414104.0,23515.0,-818.6670759572895,-536.3156100434377,-886.3283488394968
414104.0,8897.0,414104.0,9244.0,414104.0,23498.0,-827.2668533404878,-541.4209931831077,-895.5075891885516
414104.0,8895.0,414104.0,9274.0,414104.0,23503.0,-835.8709552361078,-546.5368129902178,-904.6944331545958
414115.0,8962.0,414115.0,9366.0,414115.0,23543.0,-844.4825065031564,-551.6679979877888,-913.8916861625105
414115.0,8929.0,414115.0,9355.0,414115.0,23544.0,-853.1053343802536,-556.8203695529036,-923.1029291818595
414115.0,8950.0,414115.0,9395.0,414115.0,23555.0,-861.7431898264489,-561.9992178192758,-932.3317544386364
414115.0,8934.0,414115.0,9307.0,414115.0,23491.0,-870.3992035671147,-567.2083426684035,-941.5812177735535
414115.0,8864.0,414115.0,9265.0,414115.0,23445.0,-879.0757649367393,-572.4501262907422,-950.8539851340353
414115.0,8867.0,414115.0,9254.0,414115.0,23471.0,-887.7749043673655,-577.72651981813,-960.1530961982373
414125.0,8882.0,414125.0,9304.0,414125.0,23490.0,-896.498906239171,-583.0400292207323,-969.4825274568201
414125.0,8877.0,414125.0,9375.0,414125.0,23500.0,-905.2504902664788,-588.3936743719889,-978.8469617001629
414125.0,8866.0,414125.0,9334.0,414125.0,23499.0,-914.0325390814755,-593.7899191775487,-988.2511179344407
414125.0,8847.0,414125.0,9212.0,414125.0,23465.0,-922.8478879761626,-599.2298597632117,-997.6992567918912
414125.0,8817.0,414125.0,9207.0,414125.0,23415.0,-931.6994114620245,-604.7138970195165,-1007.1952053202573
414125.0,8810.0,414125.0,9230.0,414125.0,23439.0,-940.5903377480417,-610.2432519428132,-1016.742868634012
414135.0,8850.0,414135.0,9302.0,414135.0,23459.0,-949.5244915305267,-615.8206157297013,-1026.3466333264982
414135.0,8862.0,414135.0,9314.0,414135.0,23484.0,-958.5060379845735,-621.4494003171865,-1036.0110898020655
414135.0,8834.0,414135.0,9261.0,414135.0,23412.0,-967.5387986667045,-627.1325465051902,-1045.7403911121737
414135.0,8785.0,414135.0,9201.0,414135.0,23420.0,-976.6258454769129,-632.8721462899582,-1055.5380556147095
414135.0,8773.0,414135.0,9212.0,414135.0,23391.0,-985.7698056349954,-638.6701525191563,-1065.4073408186068
414135.0,8802.0,414135.0,9285.0,414135.0,23418.0,-994.9734181856031,-644.5291194161946,-1075.3516054669906
414146.0,8824.0,414146.0,9321.0,414146.0,23460.0,-1004.2395729300919,-650.4518406245758,-1085.3741841772162
414146.0,8789.0,414146.0,9273.0,414146.0,23428.0,-1013.570764913046,-656.4401417056214,-1095.477746198841
414146.0,8740.0,414146.0,9243.0,414146.0,23363.0,-1022.9687151719748,-662.4941181411427,-1105.6637574450262
414146.0,8738.0,414146.0,9136.0,414146.0,23340.0,-1032.4346737192013,-668.6125756591503,-1115.9327863946
414146.0,8718.0,414146.0,9160.0,414146.0,23343.0,-1041.9700222145707,-674.7943632454649,-1126.2853846595522
414146.0,8709.0,414146.0,9213.0,414146.0,23362.0,-1051.5766561862201,-681.0395445086731,-1136.7226294946217
414156.0,8745.0,414156.0,9245.0,414156.0,23380.0,-1061.2570516335459,-687.349371280297,-1147.2459477655466
414156.0,8756.0,414156.0,9252.0,414156.0,23339.0,-1071.0139329771573,-693.7252193207166,-1157.8565754916522
414156.0,8735.0,414156.0,9202.0,414156.0,23362.0,-1080.8496070385536,-700.1675950966636,-1168.5551932532978
414156.0,8722.0,414156.0,9210.0,414156.0,23331.0,-1090.7654547309517,-706.6758996367082,-1179.3418426621317
414156.0,8678.0,414156.0,9159.0,414156.0,23328.0,-1100.7619183522288,-713.2487774370236,-1190.215923526006
414156.0,8701.0,414156.0,9240.0,414156.0,23350.0,-1110.8388144431833,-719.8844817699965,-1201.1761684977087
414167.0,8703.0,414167.0,9247.0,414167.0,23318.0,-1120.995520904765,-726.5806817014098,-1212.2204899938583
414167.0,8687.0,414167.0,9195.0,414167.0,23311.0,-1131.2307894604069,-733.3337432546074,-1223.3457904932616
414167.0,8648.0,414167.0,9128.0,414167.0,23248.0,-1141.5425234675088,-740.1384663042058,-1234.548078290335
414167.0,8625.0,414167.0,9096.0,414167.0,23243.0,-1151.9279602643542,-746.9889188346531,-1245.8230001046277
414167.0,8617.0,414167.0,9137.0,414167.0,23246.0,-1162.3841589545239,-753.8796482794405,-1257.166472944623
414167.0,8659.0,414167.0,9163.0,414167.0,23272.0,-1172.9082918304812,-760.806146957417,-1268.5749013347315
414177.0,8679.0,414177.0,9174.0,414177.0,23320.0,-1183.4973084765213,-767.7643289300381,-1280.0447088567596
414177.0,8672.0,414177.0,9180.0,414177.0,23278.0,-1194.1470697842499,-774.7496579235194,-1291.5714107833587
414177.0,8627.0,414177.0,9117.0,414177.0,23242.0,-1204.8516076716141,-781.7566104731543,-1303.148932181672
414177.0,8576.0,414177.0,9116.0,414177.0,23220.0,-1215.603107642295,-788.7787840711646,-1314.7697160182415
414177.0,8600.0,414177.0,9153.0,414177.0,23264.0,-1226.3925111683507,-795.8093347965624,-1326.4251944573257
414177.0,8623.0,414177.0,9204.0,414177.0,23261.0,-1237.209946869584,-802.8408946709125,-1338.1057837512494
414187.0,8593.0,414187.0,9147.0,414187.0,23236.0,-1248.044490919389,-809.8647706390813,-1349.8003766906008
414187.0,8553.0,414187.0,9097.0,414187.0,23213.0,-1258.8837932800266,-816.8704008504824,-1361.4960169428614
414187.0,8521.0,414187.0,9017.0,414187.0,23184.0,-1269.7142683027373,-823.8459366987721,-1373.1780834826302
414187.0,8516.0,414187.0,9055.0,414187.0,23134.0,-1280.5217185467316,-830.7795907322939,-1384.8308155371506
414187.0,8524.0,414187.0,9077.0,414187.0,23181.0,-1291.2918053707938,-837.6605891902789,-1396.4379134050355
414187.0,8553.0,414187.0,9144.0,414187.0,23165.0,-1302.0100004570886,-844.4789605226323,-1407.9827825744112
414198.0,8554.0,414198.0,9104.0,414198.0,23144.0,-1312.661032895939,-851.2244779658055,-1419.4483042875413
414198.0,8559.0,414198.0,9096.0,414198.0,23142.0,-1323.2281419352653,-857.8857501517989,-1430.816632945606
414198.0,8463.0,414198.0,9049.0,414198.0,23092.0,-1333.6926478957623,-864.4501016088449,-1442.0693143461222
414198.0,8492.0,414198.0,9042.0,414198.0,23120.0,-1344.0342263027285,-870.9040775795238,-1453.187575572682
414198.0,8499.0,414198.0,9082.0,414198.0,23168.0,-1354.2314689495322,-877.2339644225121,-1464.1523864342803
414198.0,8488.0,414198.0,9066.0,414198.0,23136.0,-1364.2619554371122,-883.4258120031457,-1474.9439287923215
414208.0,8457.0,414208.0,9055.0,414208.0,23104.0,-1374.1019755144457,-889.4650880320082,-1485.540941872966
414208.0,8425.0,414208.0,9030.0,414208.0,23071.0,-1383.7265646987325,-895.3365435865187,-1495.9207273879615
414208.0,8413.0,414208.0,9006.0,414208.0,23069.0,-1393.1099470300119,-901.0244926569774,-1506.0597139645552
414208.0,8418.0,414208.0,9009.0,414208.0,23061.0,-1402.2259992312904,-906.5132775263123,-1515.9339643781059
414208.0,8449.0,414208.0,9041.0,414208.0,23089.0,-1411.0483384287463,-911.7875541918659,-1525.5192984998916
414208.0,8481.0,414208.0,9058.0,414208.0,23102.0,-1419.5498399980406,-916.8320725137783,-1534.790988208902
414218.0,8447.0,414218.0,9058.0,414218.0,23097.0,-1427.7017968608852,-921.6310467026309,-1543.7231687355893
414218.0,8412.0,414218.0,8988.0,414218.0,23035.0,-1435.4733687057196,-926.1677055462148,-1552.2884246018807
414218.0,8383.0,414218.0,8956.0,414218.0,23027.0,-1442.8317794247118,-930.4246097660514,-1560.4580063317799
414218.0,8408.0,414218.0,9033.0,414218.0,23062.0,-1449.742913658571,-934.384467887103,-1568.202403590189
414218.0,8419.0,414218.0,9064.0,414218.0,23087.0,-1456.1715869879927,-938.0303118253123,-1575.4914459499103
414218.0,8413.0,414218.0,9042.0,414218.0,23050.0,-1462.0812763560602,-941.3446725288507,-1582.293780459875
414229.0,8367.0,414229.0,8994.0,414229.0,22983.0,-1467.4338056453792,-944.3088470099527,-1588.5765911179271
414229.0,8335.0,414229.0,8958.0,414229.0,22989.0,-1472.1895542310494,-946.9031578907391,-1594.3061764702825
414229.0,8319.0,414229.0,8955.0,414229.0,22993.0,-1476.3081897386087,-949.1078984594265,-1599.4488440350528
414229.0,8340.0,414229.0,8989.0,414229.0,22975.0,-1479.7494041588707,-950.9041199723879,-1603.971365757911
414229.0,8347.0,414229.0,9017.0,414229.0,22985.0,-1482.4731729685523,-952.2736992356572,-1607.8410684332146
414229.0,8342.0,414229.0,8985.0,414229.0,22991.0,-1484.4395668856887,-953.1988489723817,-1611.025861693171
414239.0,8353.0,414239.0,8972.0,414239.0,22976.0,-1485.6084899163584,-953.6617960544795,-1613.4942046186625
414239.0,8275.0,414239.0,8926.0,414239.0,22964.0,-1485.9396768732586,-953.6450895816733,-1615.2151253350055
414239.0,8309.0,414239.0,8960.0,414239.0,22969.0,-1485.3931418884908,-953.1322965316051,-1616.1584362687363
414239.0,8340.0,414239.0,9064.0,414239.0,23002.0,-1483.929729112327,-952.1082922407188,-1616.2949214298687
414239.0,8337.0,414239.0,9012.0,414239.0,23023.0,-1481.5111132233642,-950.5585735327568,-1615.5961587313802
414239.0,8311.0,414239.0,8977.0,414239.0,22964.0,-1478.099461478816,-948.4683862612353,-1614.0341442343301
414249.0,8278.0,414249.0,8917.0,414249.0,22959.0,-1473.6575376727735,-945.8229487511844,-1611.581366825782
414249.0,8262.0,414249.0,8915.0,414249.0,22927.0,-1468.1494212361424,-942.6086926872656,-1608.211540648439
414249.0,8294.0,414249.0,8979.0,414249.0,22943.0,-1461.541365073839,-938.8144007724625,-1603.90050439662
414249.0,8333.0,414249.0,8987.0,414249.0,22996.0,-1453.8021821254524,-934.431405786082,-1598.6267398870389
414249.0,8343.0,414249.0,9052.0,414249.0,23008.0,-1444.9029634082895,-929.4529262753167,-1592.3712314025822
414249.0,8352.0,414249.0,9041.0,414249.0,23031.0,-1434.8165616249603,-923.8731422325145,-1585.1168830398165
414260.0,8315.0,414260.0,9002.0,414260.0,23011.0,-1423.5174119594526,-917.6865897689561,-1576.8480673885065
414260.0,8312.0,414260.0,9001.0,414260.0,22998.0,-1410.9819277120469,-910.8882999582047,-1567.5506642947478
414260.0,8329.0,414260.0,9055.0,414260.0,23040.0,-1397.189244934686,-903.4743784651931,-1557.212480928154
414260.0,8399.0,414260.0,9090.0,414260.0,23069.0,-1382.1216995839857,-895.4421174667824,-1545.8235274355625
414260.0,8360.0,414260.0,9106.0,414260.0,23072.0,-1365.7647120383497,-886.7894011880026,-1533.3758470348262
414260.0,8380.0,414260.0,9025.0,414260.0,23081.0,-1348.1066016633176,-877.5141903450528,-1519.8632772783903
414270.0,8346.0,414270.0,9010.0,414270.0,23067.0,-1329.1389288874443,-867.6149517137873,-1505.2815535548448
414270.0,8375.0,414270.0,8993.0,414270.0,23072.0,-1308.8572477812627,-857.091947884018,-1489.6287590681975
414270.0,8429.0,414270.0,9067.0,414270.0,23127.0,-1287.2617391847796,-845.9484016816116,-1472.905838101925
414270.0,8493.0,414270.0,9161.0,414270.0,23156.0,-1264.3572165621817,-834.1905901583257,-1455.1167354960753
414270.0,8532.0,414270.0,9142.0,414270.0,23170.0,-1240.1524398137703,-821.826803281627,-1436.2680975405274
414270.0,8528.0,414270.0,9116.0,414270.0,23170.0,-1214.659309602814,-808.8662761241659,-1416.3690299631394
414280.0,8516.0,414280.0,9110.0,414280.0,23225.0,-1187.8926400986156,-795.3191830506546,-1395.4311839720347
414280.0,8547.0,414280.0,9135.0,414280.0,23235.0,-1159.8706554551286,-781.1973859969052,-1373.468866494497
414280.0,8650.0,414280.0,9253.0,414280.0,23304.0,-1130.6155295671604,-766.5148052457408,-1350.4989050749505
414280.0,8640.0,414280.0,9244.0,414280.0,23344.0,-1100.1532419900673,-751.2867890055435,-1326.540256846509
414280.0,8696.0,414280.0,9251.0,414280.0,23343.0,-1068.513048809353,-735.5290763160845,-1301.6135047144921
414280.0,8694.0,414280.0,9197.0,414280.0,23322.0,-1035.7272779414534,-719.2574982138426,-1275.7407238051615
414291.0,8733.0,414291.0,9217.0,414291.0,23369.0,-1001.8315167214829,-702.488685800951,-1248.9460170172783
414291.0,8758.0,414291.0,9238.0,414291.0,23427.0,-966.8649316880662,-685.2410622278232,-1221.2561421914409
414291.0,8830.0,414291.0,9327.0,414291.0,23478.0,-930.870480604548,-667.5352680757802,-1192.700513709194
414291.0,8921.0,414291.0,9360.0,414291.0,23526.0,-893.894695693601,-649.393677526616,-1163.3106525261855
414291.0,8972.0,414291.0,9391.0,414291.0,23559.0,-855.9868869374293,-630.8394033242456,-1133.1195774730018
414291.0,8993.0,414291.0,9377.0,414291.0,23577.0,-817.1981788026128,-611.895550728748,-1102.161446432974
414301.0,9017.0,414301.0,9364.0,414301.0,23601.0,-777.5810506716334,-592.5851871979489,-1070.471553583356
414301.0,9083.0,414301.0,9448.0,414301.0,23661.0,-737.1894461089148,-572.9317963428517,-1038.0865399280165
414301.0,9130.0,414301.0,9525.0,414301.0,23740.0,-696.0788947591038,-552.9593290166075,-1005.0443768250752
414301.0,9187.0,414301.0,9504.0,414301.0,23777.0,-654.3063193062217,-532.6914257940766,-971.383848116725
414301.0,9200.0,414301.0,9525.0,414301.0,23758.0,-611.9297584180583,-512.150655983062,-937.1439728242872
414301.0,9239.0,414301.0,9483.0,414301.0,23773.0,-569.0083620260369,-491.3586041519905,-902.3641159253746
414311.0,9298.0,414311.0,9453.0,414311.0,23849.0,-525.6026469361834,-470.33674879781876,-867.0847009455806
414311.0,9357.0,414311.0,9535.0,414311.0,23921.0,-481.7746283652035,-449.1076487718046,-831.3475800257522
414311.0,9449.0,414311.0,9663.0,414311.0,23989.0,-437.5875360437327,-427.695416797892,-795.1955582646118
414311.0,9516.0,414311.0,9687.0,414311.0,24028.0,-393.1051128765513,-406.12470831043237,-758.6715101257223
414311.0,9548.0,414311.0,9645.0,414311.0,24034.0,-348.39075719847267,-384.4192022913742,-721.8177685181564
414311.0,9549.0,414311.0,9642.0,414311.0,24086.0,-303.5070570162477,-362.60120645756064,-684.6760927681078
414322.0,9609.0,414322.0,9680.0,414322.0,24145.0,-258.51602381105204,-340.69241841274584,-647.2879044775578
414322.0,9691.0,414322.0,9777.0,414322.0,24202.0,-213.47951996219683,-318.71451042876686,-609.6942475542874
414322.0,9739.0,414322.0,9794.0,414322.0,24254.0,-168.45918566384194,-296.6887215870581,-571.9353921409895
414322.0,9812.0,414322.0,9763.0,414322.0,24264.0,-123.51590987113752,-274.6350697631958,-534.0504453801603
414322.0,9811.0,414322.0,9765.0,414322.0,24296.0,-78.70936337331386,-252.57229783575463,-496.0773259054321
414322.0,9874.0,414322.0,9768.0,414322.0,24310.0,-34.09792593386692,-230.51866274780684,-458.05315542595486
414332.0,9924.0,414332.0,9813.0,414332.0,24374.0,10.261117885903786,-208.4927816001832,-420.01478082033566
414332.0,9984.0,414332.0,9849.0,414332.0,24445.0,54.31153300325877,-186.51397360148553,-381.99900459184107
414332.0,10088.0,414332.0,9945.0,414332.0,24516.0,97.99847682610857,-164.60196774511485,-344.0422533281878
414332.0,10107.0,414332.0,9957.0,414332.0,24544.0,141.26918223047664,-142.7760605836836,-306.1798792713423
414332.0,10129.0,414332.0,9896.0,414332.0,24538.0,184.07355932093787,-121.0543589140259,-268.4457191460524
414332.0,10160.0,414332.0,9907.0,414332.0,24561.0,226.36419758809075,-99.45401742242257,-230.87237455381137
414342.0,10233.0,414342.0,9996.0,414342.0,24680.0,268.09597853319815,-77.99217725844869,-193.4918202261158
414342.0,10297.0,414342.0,10045.0,414342.0,24728.0,309.22598836744373,-56.686236938982915,-156.33538387615454
414342.0,10336.0,414342.0,10083.0,414342.0,24742.0,349.71391438831347,-35.55308265712995,-119.43303184777506
414342.0,10346.0,414342.0,10088.0,414342.0,24777.0,389.5224488290903,-14.608177988697435,-82.81290664461358
414342.0,10358.0,414342.0,10053.0,414342.0,24772.0,428.6171915138423,6.134704367021641,-46.501560583673836
414342.0,10390.0,414342.0,10061.0,414342.0,24818.0,466.96605860543275,26.66294944039703,-10.524564905711486
414353.0,10464.0,414353.0,10093.0,414353.0,24906.0,504.5387004552067,46.96419492266489,25.09300436581111
414353.0,10534.0,414353.0,10184.0,414353.0,24952.0,541.3064760093328,67.02587824995794,60.32668427825433
414353.0,10562.0,414353.0,10192.0,414353.0,24997.0,577.2430110698144,86.83565920622254,95.15325424312346
414353.0,10602.0,414353.0,10263.0,414353.0,25013.0,612.3247989827512,106.3823035901703,129.55124413949352
414353.0,10601.0,414353.0,10159.0,414353.0,25018.0,646.5313852242066,125.65624921020583,163.50093140400827
414353.0,10639.0,414353.0,10224.0,414353.0,25075.0,679.8451245062429,144.64931828493013,196.98392292435574
414363.0,10690.0,414363.0,10279.0,414363.0,25145.0,712.2508227263381,163.35400356933076,229.98282831488336
414363.0,10728.0,414363.0,10308.0,414363.0,25169.0,743.7356528949599,181.76339295534513,262.4814440894172
414363.0,10735.0,414363.0,10303.0,414363.0,25176.0,774.2893232804934,199.87171660586205,294.4651032456609
414363.0,10757.0,414363.0,10283.0,414363.0,25210.0,803.9040813077631,217.67454344020803,325.9206099847511
414363.0,10742.0,414363.0,10288.0,414363.0,25227.0,832.5743390372822,235.16827301110152,356.8358227844217
414363.0,10808.0,414363.0,10288.0,414363.0,25264.0,860.2960985746806,252.34931957491085,387.19925458111493
414373.0,10848.0,414373.0,10362.0,414373.0,25385.0,887.0666207979461,269.213528818247,417.0000000948578
414373.0,10913.0,414373.0,10450.0,414373.0,25360.0,912.8846795495724,285.75634341503826,446.22822542701965
414373.0,10928.0,414373.0,10403.0,414373.0,25394.0,937.7512131800875,301.97372766882347,474.8757609029594
414373.0,10927.0,414373.0,10422.0,414373.0,25408.0,961.6698270784927,317.8629022603302,502.93609727438707
414373.0,10908.0,414373.0,10397.0,414373.0,25427.0,984.6467039663312,333.4221586664954,530.4039535209272
414373.0,10957.0,414373.0,10448.0,414373.0,25498.0,1006.6899886284662,348.65021880000666,557.2749487098199
414384.0,11008.0,414384.0,10527.0,414384.0,25543.0,1027.809308647481,363.5460040606349,583.5456796294131
414384.0,11036.0,414384.0,10529.0,414384.0,25588.0,1048.0159428887234,378.10918620914106,609.2142387471279
414384.0,11018.0,414384.0,10488.0,414384.0,25546.0,1067.3232792321198,392.34090488820823,634.2806909597546
414384.0,10986.0,414384.0,10485.0,414384.0,25594.0,1085.7467759871847,406.2436702975083,658.7469425603952
414384.0,10984.0,414384.0,10441.0,414384.0,25562.0,1103.3031594355266,419.8204125414637,682.6160874248235
414384.0,11034.0,414384.0,10532.0,414384.0,25610.0,1120.009409490072,433.0734405240771,705.8916755881555
414394.0,11090.0,414394.0,10588.0,414394.0,25685.0,1135.8823646938326,446.0041562250318,728.577284586737
414394.0,11129.0,414394.0,10624.0,414394.0,25708.0,1150.93921517303,458.61383998870224,750.6767293992223
414394.0,11095.0,414394.0,10589.0,414394.0,25708.0,1165.1982920757105,470.9047256226954,772.194637674759
414394.0,11093.0,414394.0,10578.0,414394.0,25711.0,1178.6793050004785,482.8803068542645,793.1366130203312
414394.0,11093.0,414394.0,10543.0,414394.0,25732.0,1191.4028568324209,494.5447050803292,813.5088324004885
414394.0,11151.0,414394.0,10626.0,414394.0,25811.0,1203.3898809227558,505.9017681580556,833.3176704264595
414405.0,11150.0,414405.0,10672.0,414405.0,25814.0,1214.6615888573976,516.9548188824724,852.569854249901
414405.0,11163.0,414405.0,10695.0,414405.0,25839.0,1225.2397783887538,527.7073545663936,871.2729222044202
414405.0,11128.0,414405.0,10619.0,414405.0,25814.0,1235.146938254866,538.1638274152897,889.4353606521952
414405.0,11132.0,414405.0,10616.0,414405.0,25820.0,1244.405875983651,548.3294411072402,907.0661860703851
414405.0,11127.0,414405.0,10634.0,414405.0,25851.0,1253.039076406842,558.2091273610081,924.1742635292244
414405.0,11169.0,414405.0,10697.0,414405.0,25889.0,1261.068217161988,567.8068315706314,940.7678753084253
414415.0,11217.0,414415.0,10773.0,414415.0,25984.0,1268.5142067577906,577.1258439903133,956.8549319768265
414415.0,11224.0,414415.0,10722.0,414415.0,25940.0,1275.3977849793112,586.1698525478125,972.443730556352
414415.0,11191.0,414415.0,10686.0,414415.0,25937.0,1281.7401648595487,594.9435717504643,987.5434864537458
414415.0,11179.0,414415.0,10651.0,414415.0,25954.0,1287.5630578367882,603.4521583137819,1002.1640418969341
414415.0,11188.0,414415.0,10721.0,414415.0,25990.0,1292.8881239130963,611.7000366737855,1016.3152787753775
414415.0,11225.0,414415.0,10821.0,414415.0,26029.0,1297.7365139466617,619.6905204756288,1030.007000541569
414425.0,11219.0,414425.0,10815.0,414425.0,26054.0,1302.1289121769282,627.4267843997536,1043.2493010752416
414425.0,11205.0,414425.0,10719.0,414425.0,26043.0,1306.085782840874,634.9130205531596,1056.0529931920173
414425.0,11192.0,414425.0,10736.0,414425.0,25979.0,1309.6273163092,642.1542716488932,1068.429546021511
414425.0,11161.0,414425.0,10713.0,414425.0,25985.0,1312.772972900046,649.1552160680187,1080.3902050959857
414425.0,11199.0,414425.0,10763.0,414425.0,26050.0,1315.540894904532,655.919214000065,1091.9448492931647
414425.0,11219.0,414425.0,10875.0,414425.0,26072.0,1317.9476273752737,662.4483248492841,1103.101600192968
414436.0,11271.0,414436.0,10865.0,414436.0,26145.0,1320.0084648206862,668.7443787730197,1113.8673757923411
414436.0,11243.0,414436.0,10810.0,414436.0,26138.0,1321.7382107792027,674.8102401740109,1124.248805485834
414436.0,11201.0,414436.0,10771.0,414436.0,26117.0,1323.1516556397548,680.6499152839565,1134.2528726599319
414436.0,11194.0,414436.0,10790.0,414436.0,26119.0,1324.263274394692,686.2675057709737,1143.8868576805744
414436.0,11246.0,414436.0,10861.0,414436.0,26181.0,1325.0865850224002,691.6663277161167,1153.1578866337754
414436.0,11274.0,414436.0,10882.0,414436.0,26176.0,1325.6340959252384,696.8491004390946,1162.0728465091051
414446.0,11226.0,414446.0,10891.0,414446.0,26206.0,1325.9178865112408,701.818846870636,1170.6387273136477
414446.0,11203.0,414446.0,10845.0,414446.0,26155.0,1325.9498896056289,706.5795238760006,1178.8628141379806
414446.0,11178.0,414446.0,10785.0,414446.0,26146.0,1325.7413835402506,711.1357409108596,1186.7523242098478
414446.0,11180.0,414446.0,10815.0,414446.0,26153.0,1325.3021711405595,715.491688311394,1194.3135919198787
414446.0,11219.0,414446.0,10861.0,414446.0,26225.0,1324.6400847521343,719.6501938511676,1201.551451213202
414446.0,11272.0,414446.0,10915.0,414446.0,26234.0,1323.7611893623614,723.6127999006574,1208.4693979837848
414456.0,11272.0,414456.0,10948.0,414456.0,26228.0,1322.6706633269037,727.3807639619786,1215.0702267386278
414456.0,11221.0,414456.0,10840.0,414456.0,26235.0,1321.3736785531637,730.9560192329525,1221.356376453764
414456.0,11205.0,414456.0,10844.0,414456.0,26227.0,1319.8754907179734,734.3410691297108,1227.3298013742751
414456.0,11209.0,414456.0,10876.0,414456.0,26260.0,1318.1808405390727,737.5379857009775,1232.9917228584525
414456.0,11230.0,414456.0,10955.0,414456.0,26307.0,1316.2934632822746,740.547912274892,1238.342644691906
414456.0,11259.0,414456.0,10955.0,414456.0,26316.0,1314.2161819322662,743.3717542939144,1243.382818017665
414467.0,11238.0,414467.0,10900.0,414467.0,26295.0,1311.9514098692277,746.0111496497188,1248.1128199287061
414467.0,11194.0,414467.0,10856.0,414467.0,26289.0,1309.50148417569,748.4685002065394,1252.5336649075712
414467.0,11189.0,414467.0,10850.0,414467.0,26265.0,1306.8683903494639,750.7459632769912,1256.646368149292
414467.0,11210.0,414467.0,10903.0,414467.0,26294.0,1304.0531940521055,752.8444047249006,1260.451343226722
414467.0,11232.0,414467.0,10920.0,414467.0,26322.0,1301.0558780183526,754.7632020506975,1263.9480792946022
414467.0,11234.0,414467.0,10977.0,414467.0,26357.0,1297.8757378989228,756.5008893423735,1267.1353629340758
414477.0,11236.0,414477.0,10943.0,414477.0,26322.0,1294.5119241981358,758.0560653252804,1270.0118058583141
414477.0,11230.0,414477.0,10934.0,414477.0,26326.0,1290.9637923645844,759.4279351744148,1272.576079498354
414477.0,11188.0,414477.0,10920.0,414477.0,26329.0,1287.2309618979139,760.6161967387793,1274.8266784290074
414477.0,11198.0,414477.0,10981.0,414477.0,26367.0,1283.313058185972,761.6206921382422,1276.7616781379054
414477.0,11226.0,414477.0,11018.0,414477.0,26392.0,1279.2094163624345,762.441581615871,1278.3789222909716
414477.0,11217.0,414477.0,10951.0,414477.0,26405.0,1274.9191863478595,763.0800396504981,1279.6765869416708
414487.0,11196.0,414487.0,10931.0,414487.0,26366.0,1270.4416873185835,763.5385161038253,1280.6536765342541
414487.0,11172.0,414487.0,10911.0,414487.0,26355.0,1265.776467251418,763.820078697098,1281.3099863045552
414487.0,11162.0,414487.0,10931.0,414487.0,26386.0,1260.9229643585259,763.9275227864769,1281.6456323003792
414487.0,11203.0,414487.0,10937.0,414487.0,26393.0,1255.880183270277,763.8629526031863,1281.6607784117023
414487.0,11233.0,414487.0,11005.0,414487.0,26423.0,1250.6468898937508,763.627961370341,1281.3558578995855
414487.0,11211.0,414487.0,11003.0,414487.0,26437.0,1245.2223452150095,763.2243313032001,1280.7320647879276
414498.0,11219.0,414498.0,10889.0,414498.0,26386.0,1239.6069932249713,762.6546665581212,1279.7917649992462
414498.0,11154.0,414498.0,10919.0,414498.0,26382.0,1233.8026334843903,761.9220403031704,1278.5384305471198
414498.0,11159.0,414498.0,10945.0,414498.0,26410.0,1227.8120722415451,761.0290039108307,1276.976157424671
414498.0,11172.0,414498.0,11046.0,414498.0,26453.0,1221.6386142946908,759.9774213289239,1275.1094956213096
414498.0,11182.0,414498.0,11044.0,414498.0,26427.0,1215.285939894516,758.7695980510209,1272.9439088629665
414498.0,11160.0,414498.0,10942.0,414498.0,26434.0,1208.758415152173,757.4095490751441,1270.486289192779
414508.0,11107.0,414508.0,10972.0,414508.0,26362.0,1202.0612570511012,755.9030782081342,1267.7449373129316
414508.0,11079.0,414508.0,10896.0,414508.0,26365.0,1195.2001077054356,754.2568203641042,1264.7289376385484
414508.0,11108.0,414508.0,10890.0,414508.0,26381.0,1188.18029090438,752.4771573529137,1261.4473446912675
414508.0,11137.0,414508.0,10957.0,414508.0,26440.0,1181.0065238279524,750.569431940914,1257.9089090880286
414508.0,11157.0,414508.0,10969.0,414508.0,26411.0,1173.6834480343523,748.537905206614,1254.12258770761
414508.0,11119.0,414508.0,10957.0,414508.0,26407.0,1166.2164877989815,746.3864630917984,1250.0981800429536
414518.0,11062.0,414518.0,10936.0,414518.0,26351.0,1158.6122119949473,744.119179547298,1245.846376074827
414518.0,11058.0,414518.0,10872.0,414518.0,26367.0,1150.8778775658543,741.7401351002554,1241.3782153517147
414518.0,11104.0,414518.0,10976.0,414518.0,26421.0,1143.020789829557,739.2528165318105,1236.7046065504042
414518.0,11096.0,414518.0,10996.0,414518.0,26385.0,1135.0483354157968,736.6600668983185,1231.8364839258331
414518.0,11069.0,414518.0,11047.0,414518.0,26374.0,1126.9685418949944,733.9650957587938,1226.7852319833949
414518.0,11055.0,414518.0,10906.0,414518.0,26385.0,1118.7903705592007,731.172608479705,1221.5627243593929
414529.0,10990.0,414529.0,10904.0,414529.0,26329.0,1110.5234486544327,728.2887026625954,1216.1810635622978
414529.0,10997.0,414529.0,10899.0,414529.0,26351.0,1102.1774330311869,725.3196367778924,1210.6522296387673
414529.0,11031.0,414529.0,10943.0,414529.0,26405.0,1093.7614622694473,722.2708732552402,1204.9878458221697
414529.0,11046.0,414529.0,10992.0,414529.0,26382.0,1085.2842798015763,719.1472316340321,1199.1995019494782
414529.0,11020.0,414529.0,10943.0,414529.0,26362.0,1076.7549305981302,715.9537387607105,1193.299349925195
414529.0,10968.0,414529.0,10948.0,414529.0,26337.0,1068.1832094992183,712.6962490081924,1187.3001998188672
414539.0,10959.0,414539.0,10889.0,414539.0,26298.0,1059.5793913926714,709.3813243726806,1181.2150291842675
414539.0,10952.0,414539.0,10899.0,414539.0,26323.0,1050.9536294540426,706.015611034773,1175.0563200549307
414539.0,10967.0,414539.0,10942.0,414539.0,26357.0,1042.3156444265123,702.6053051287721,1168.8357311582483
414539.0,10949.0,414539.0,10945.0,414539.0,26352.0,1033.6748462766159,699.1562357013622,1162.5644206492934
414539.0,10951.0,414539.0,10918.0,414539.0,26323.0,1025.0406005434534,695.6743946677612,1156.2536061481528
414539.0,10913.0,414539.0,10897.0,414539.0,26295.0,1016.4223577779667,692.1661587278091,1149.9146635349255
414549.0,10876.0,414549.0,10849.0,414549.0,26272.0,1007.8294818471196,688.6378853240011,1143.558656883246
414549.0,10871.0,414549.0,10861.0,414549.0,26288.0,999.2707606103124,685.0951617136456,1137.195728198645
414549.0,10886.0,414549.0,10905.0,414549.0,26329.0,990.7539447261374,681.5422655045677,1130.834874801842
414549.0,10930.0,414549.0,10968.0,414549.0,26331.0,982.2858222619552,677.9824456178101,1124.484366996959
414549.0,10881.0,414549.0,10925.0,414549.0,26296.0,973.8728430201129,674.4189628241509,1118.152405034962
414549.0,10888.0,414549.0,10849.0,414549.0,26265.0,965.5216811923935,670.8558171704897,1111.8472926337115
414560.0,10844.0,414560.0,10849.0,414560.0,26264.0,957.2392929336767,667.2972940109289,1105.5769891759724
414560.0,10849.0,414560.0,10917.0,414560.0,26284.0,949.0326446997944,663.7470428884459,1099.3486170809074
414560.0,10875.0,414560.0,10955.0,414560.0,26325.0,940.9085249640684,660.2080875231135,1093.1685028799352
414560.0,10837.0,414560.0,10916.0,414560.0,26310.0,932.873690028902,656.6838113107467,1087.0427800990851
414560.0,10795.0,414560.0,10848.0,414560.0,26267.0,924.9350300360634,653.1786007880119,1080.9779668606384
414560.0,10767.0,414560.0,10847.0,414560.0,26235.0,917.0992206961055,649.6973496055859,1074.980870412449
414570.0,10762.0,414570.0,10810.0,414570.0,26248.0,909.3720082494871,646.2443955841179,1069.0579195619557
414570.0,10763.0,414570.0,10878.0,414570.0,26264.0,901.7576981386728,642.8228013787682,1063.2146594108403
414570.0,10835.0,414570.0,10949.0,414570.0,26302.0,894.2592175507102,639.4345371663258,1057.4558918566088
414570.0,10834.0,414570.0,10904.0,414570.0,26266.0,886.8788893011143,636.0815713243671,1051.7862653812917
414570.0,10772.0,414570.0,10842.0,414570.0,26255.0,879.6194454283589,632.7668005062329,1046.2106967337754
414570.0,10738.0,414570.0,10793.0,414570.0,26205.0,872.484300934349,629.4936958781852,1040.7341993718128
414580.0,10743.0,414580.0,10836.0,414580.0,26245.0,865.4769418706418,626.2651005273362,1035.3613249260134
414580.0,10762.0,414580.0,10933.0,414580.0,26280.0,858.6003525014967,623.0826653698164,1030.0958995215296
414580.0,10777.0,414580.0,10925.0,414580.0,26270.0,851.8571209296695,619.9476965313064,1024.9414534846987
414580.0,10731.0,414580.0,10865.0,414580.0,26225.0,845.2499276250998,616.8624731110801,1019.9018019522287
414580.0,10693.0,414580.0,10807.0,414580.0,26213.0,838.781696325601,613.8304952280779,1014.9810011816116
414580.0,10663.0,414580.0,10774.0,414580.0,26194.0,832.4550773558084,610.8554254981943,1010.1827553177096
414591.0,10697.0,414591.0,10812.0,414591.0,26210.0,826.2717165866841,607.9397660540888,1005.5098603684504
414591.0,10702.0,414591.0,10837.0,414591.0,26245.0,820.2320182568282,605.084297028131,1000.9640778777136
414591.0,10738.0,414591.0,10882.0,414591.0,26229.0,814.3355898095142,602.2885172474928,996.5464908238623
414591.0,10716.0,414591.0,10836.0,414591.0,26226.0,808.5819983864599,599.5515285670472,992.2579693202546
414591.0,10664.0,414591.0,10802.0,414591.0,26207.0,802.9712642459241,596.8724875786136,988.0993109793236
414591.0,10647.0,414591.0,10789.0,414591.0,26193.0,797.5036661323805,594.2502260488735,984.0710417443759
414601.0,10693.0,414601.0,10901.0,414601.0,26220.0,792.1791823916124,591.6827423445907,980.1731442957158
414601.0,10680.0,414601.0,10901.0,414601.0,26212.0,786.9973833824854,589.1676445487847,976.4050013846633
414601.0,10662.0,414601.0,10899.0,414601.0,26223.0,781.9578197080598,586.7033935478088,972.7655965949733
414601.0,10631.0,414601.0,10790.0,414601.0,26193.0,777.0602040473444,584.2900064550852,969.2536993487658
414601.0,10603.0,414601.0,10741.0,414601.0,26162.0,772.3040789950769,581.9283360515292,965.8677427737191
414601.0,10587.0,414601.0,10785.0,414601.0,26172.0,767.6882117435175,579.6184807484706,962.6053580468597
414612.0,10611.0,414612.0,10867.0,414612.0,26195.0,763.2100839434984,577.3588812989381,959.4629578717988
414612.0,10634.0,414612.0,10837.0,414612.0,26224.0,758.8658430817445,575.1468955366231,956.4358406956974
414612.0,10692.0,414612.0,10850.0,414612.0,26253.0,754.6509016360106,572.9798879007877,953.5188279227191
414612.0,10628.0,414612.0,10815.0,414612.0,26199.0,750.5609048505227,570.8557045884319,950.7069910748028
414612.0,10553.0,414612.0,10795.0,414612.0,26182.0,746.5921829046973,568.7724817948495,947.9958538497119
414612.0,10589.0,414612.0,10814.0,414612.0,26196.0,742.7411351362053,566.7281918558615,945.380957928924
414622.0,10635.0,414622.0,10909.0,414622.0,26234.0,739.0034793728028,564.7205385175807,942.8575030069253
414622.0,10623.0,414622.0,10873.0,414622.0,26232.0,735.3744734656788,562.747699231757,940.4206055680877
414622.0,10584.0,414622.0,10802.0,414622.0,26202.0,731.8496072792833,560.8092042188844,938.0657920584598
414622.0,10570.0,414622.0,10773.0,414622.0,26142.0,728.424725094737,558.9057199081597,935.788973784588
414622.0,10535.0,414622.0,10727.0,414622.0,26161.0,725.0955279764846,557.0378055786059,933.5857215510466
414622.0,10546.0,414622.0,10752.0,414622.0,26166.0,721.8569641925712,555.2046368377528,931.4504776468186
414632.0,10557.0,414632.0,10802.0,414632.0,26204.0,718.7028822208055,553.4034163784571,929.3763792294724
414632.0,10627.0,414632.0,10861.0,414632.0,26212.0,715.6262399451422,551.6298140554168,927.3556953131535
414632.0,10596.0,414632.0,10817.0,414632.0,26208.0,712.6199147576027,549.8791145956011,925.3804424786663
414632.0,10549.0,414632.0,10791.0,414632.0,26199.0,709.677471241027,548.1470227616155,923.442766710038
414632.0,10533.0,414632.0,10757.0,414632.0,26173.0,706.7931115704774,546.4294704273078,921.5349276891209
414632.0,10525.0,414632.0,10830.0,414632.0,26229.0,703.9609990685901,544.7219781781782,919.6490922199022
414643.0,10573.0,414643.0,10837.0,414643.0,26223.0,701.1748010194094,543.0195895008906,917.7773943926798
414643.0,10568.0,414643.0,10844.0,414643.0,26201.0,698.4278921023713,541.3175416272948,915.9123092851261
414643.0,10526.0,414643.0,10818.0,414643.0,26181.0,695.7138604505056,539.6119183406125,914.0467778585094
414643.0,10479.0,414643.0,10733.0,414643.0,26166.0,693.0265293164887,537.8995988513514,912.1738283031771
414643.0,10495.0,414643.0,10742.0,414643.0,26195.0,690.3593002760263,536.1773854950684,910.2860967840845
414643.0,10523.0,414643.0,10784.0,414643.0,26193.0,687.7045628997691,534.4409761648109,908.3756869624111
414653.0,10565.0,414653.0,10831.0,414653.0,26212.0,685.053879410902,532.6848116626485,906.4344009122531
414653.0,10550.0,414653.0,10843.0,414653.0,26220.0,682.3988130287482,530.9029357230704,904.4541089573612
414653.0,10537.0,414653.0,10791.0,414653.0,26183.0,679.7316939834154,529.0899612544977,902.4270340551567
414653.0,10497.0,414653.0,10794.0,414653.0,26182.0,677.0457932495888,527.2413132568515,900.3457202833818
414653.0,10509.0,414653.0,10782.0,414653.0,26203.0,674.3349750722323,525.3528376278255,898.2027463914726
414653.0,10514.0,414653.0,10828.0,414653.0,26244.0,671.5933303836171,523.420486331263,895.9907108244633
414663.0,10518.0,414663.0,10863.0,414663.0,26247.0,668.8151697463555,521.4405849921654,893.702771776982
414663.0,10496.0,414663.0,10855.0,414663.0,26214.0,665.9952383995385,519.4106203093064,891.3333033633327
414663.0,10478.0,414663.0,10755.0,414663.0,26186.0,663.1287670587752,517.3298006441933,888.878018504404
414663.0,10444.0,414663.0,10721.0,414663.0,26161.0,660.2111866221425,515.1985135941501,886.333437287986
414663.0,10450.0,414663.0,10744.0,414663.0,26183.0,657.2376324080359,513.0169477117372,883.6961704474515
414663.0,10495.0,414663.0,10831.0,414663.0,26217.0,654.2026387714819,510.78427675818284,880.9626150742243
414674.0,10503.0,414674.0,10830.0,414674.0,26234.0,651.1004411415714,508.49922609671546,878.1293217108871
414674.0,10515.0,414674.0,10791.0,414674.0,26194.0,647.925754108659,506.16122390314246,875.1936443832285
414674.0,10464.0,414674.0,10753.0,414674.0,26178.0,644.6744044556832,503.7708137132067,872.1539673980883
414674.0,10423.0,414674.0,10735.0,414674.0,26162.0,641.3433052710916,501.32907333081283,869.0093248303864
414674.0,10450.0,414674.0,10846.0,414674.0,26214.0,637.9298441293868,498.83698515714815,865.7589571321918
414674.0,10461.0,414674.0,10789.0,414674.0,26202.0,634.4314119557904,496.29568679462375,862.402371537363
414684.0,10455.0,414684.0,10793.0,414684.0,26203.0,630.8455502583151,493.7072173848775,858.9397889088722
414684.0,10454.0,414684.0,10732.0,414684.0,26138.0,627.1703505161051,491.07467290201413,855.372339568904
414684.0,10394.0,414684.0,10724.0,414684.0,26122.0,623.4045796314012,488.40158617421883,851.7016053826403
414684.0,10374.0,414684.0,10697.0,414684.0,26115.0,619.5473028233837,485.69106377617913,847.9287549563013
414684.0,10413.0,414684.0,10747.0,414684.0,26174.0,615.5972428039108,482.9451674030932,844.0539761589746
414684.0,10447.0,414684.0,10760.0,414684.0,26170.0,611.5526280903691,480.16491199568026,840.0766916262695
414694.0,10437.0,414694.0,10788.0,414694.0,26164.0,607.4118360755537,477.3508845955367,835.9962374890044
414694.0,10404.0,414694.0,10731.0,414694.0,26162.0,603.1741347444765,474.50394962881165,831.8123253681775
414694.0,10365.0,414694.0,10690.0,414694.0,26120.0,598.8397743052324,471.62533836133883,827.5250589694742
414694.0,10359.0,414694.0,10689.0,414694.0,26120.0,594.4094550611469,468.71596464542074,823.134620635383
414694.0,10401.0,414694.0,10760.0,414694.0,26188.0,589.8838150591012,465.7757480775036,818.6409820022768
414694.0,10367.0,414694.0,10806.0,414694.0,26163.0,585.263461635622,462.8039139004745,814.0441750403787
414705.0,10367.0,414705.0,10748.0,414705.0,26154.0,580.5492979207266,459.80011179789426,809.3449312189113
414705.0,10315.0,414705.0,10719.0,414705.0,26108.0,575.7425553736504,456.76511305554436,804.5448853724449
414705.0,10310.0,414705.0,10658.0,414705.0,26089.0,570.8443987528908,453.70035957917446,799.6461175842286
414705.0,10315.0,414705.0,10702.0,414705.0,26109.0,565.8554252525846,450.6069273387713,794.6504883717419
414705.0,10349.0,414705.0,10720.0,414705.0,26108.0,560.7755252476658,447.4849241542322,789.5593114915116
414705.0,10346.0,414705.0,10762.0,414705.0,26147.0,555.6043029501927,444.33380141343173,784.3735585812002
414715.0,10349.0,414715.0,10706.0,414715.0,26146.0,550.3417412724908,441.15313247398086,779.0944255994285
414715.0,10285.0,414715.0,10660.0,414715.0,26081.0,544.988588780147,437.9429126827507,773.7238441371333
414715.0,10289.0,414715.0,10659.0,414715.0,26072.0,539.5461773124036,434.70298437451345,768.2643871034883
414715.0,10297.0,414715.0,10688.0,414715.0,26081.0,534.0159616584008,431.43226479807026,762.7186476470388
414715.0,10302.0,414715.0,10748.0,414715.0,26098.0,528.3993843135975,428.1287099128924,757.0888642907146
414715.0,10296.0,414715.0,10742.0,414715.0,26102.0,522.6981603819362,424.79014563087344,751.3771301584379
414725.0,10280.0,414725.0,10708.0,414725.0,26060.0,516.9145899703672,421.4152198075898,745.5857632605773
414725.0,10219.0,414725.0,10646.0,414725.0,26022.0,511.0515519582008,418.0035825830587,739.7172589825336
414725.0,10203.0,414725.0,10615.0,414725.0,26038.0,505.11201109588956,414.5550927407005,733.7737397035604
414725.0,10218.0,414725.0,10693.0,414725.0,26030.0,499.09830547313607,411.0687968532976,727.7564458473031
414725.0,10263.0,414725.0,10717.0,414725.0,26074.0,493.01191042204414,407.54277605867594,721.6657357759229
414725.0,10239.0,414725.0,10752.0,414725.0,26103.0,486.8539580507723,403.975097269823,715.5016329349708
414736.0,10224.0,414736.0,10678.0,414736.0,26047.0,480.62592547374175,400.3649237947916,709.2646288122935
414736.0,10183.0,414736.0,10590.0,414736.0,26003.0,474.32981374619425,396.7126339218746,702.9560151844595
414736.0,10177.0,414736.0,10646.0,414736.0,26029.0,467.96780125892974,393.0187754784589,696.5774096916032
414736.0,10210.0,414736.0,10697.0,414736.0,26047.0,461.5418794796865,389.2831474889499,690.1302619239557
414736.0,10204.0,414736.0,10670.0,414736.0,26060.0,455.0539607089006,385.5050997029765,683.6160624344463
414736.0,10172.0,414736.0,10674.0,414736.0,26010.0,448.50632421525086,381.6843416972962,677.0368802387816
414746.0,10136.0,414746.0,10624.0,414746.0,25968.0,441.9017591639888,377.82119911311844,670.3954253324313
414746.0,10099.0,414746.0,10574.0,414746.0,25982.0,435.24312296322023,373.91616930164184,663.6944702095805
414746.0,10114.0,414746.0,10623.0,414746.0,25960.0,428.5326609943087,369.9691163545474,656.9362313421707
414746.0,10132.0,414746.0,10651.0,414746.0,25996.0,421.77165832515425,365.97885226074237,650.1221962246218
414746.0,10163.0,414746.0,10689.0,414746.0,26003.0,414.96075927009224,361.94366274054755,643.2533959118782
414746.0,10140.0,414746.0,10702.0,414746.0,25992.0,408.1007402329908,357.8624114948198,636.3309347903066
414756.0,10100.0,414756.0,10622.0,414756.0,25944.0,401.1931003533057,353.73540735203676,629.3563464871676
414756.0,10073.0,414756.0,10582.0,414756.0,25964.0,394.2399983933984,349.5643361562572,622.3314541048085
414756.0,10113.0,414756.0,10652.0,414756.0,25979.0,387.2438150865943,345.35142939965135,615.2581192322336
414756.0,10090.0,414756.0,10691.0,414756.0,25978.0,380.2070431040627,341.0991444893199,608.1384098857493
414756.0,10070.0,414756.0,10634.0,414756.0,25946.0,373.1325592010887,336.81087262340986,600.9749930364933
414756.0,10062.0,414756.0,10574.0,414756.0,25911.0,366.0237502668374,332.4914599612639,593.7711748925533
414767.0,10020.0,414767.0,10566.0,414767.0,25894.0,358.8843312820402,328.14661713464926,586.5304390907909
414767.0,9998.0,414767.0,10524.0,414767.0,25880.0,351.7179724484315,323.7818058480866,579.255818629879
414767.0,10003.0,414767.0,10541.0,414767.0,25911.0,344.52783453291784,319.40138354852917,571.9495162973565
414767.0,10043.0,414767.0,10616.0,414767.0,25927.0,337.31638669605,315.0083459812298,564.6130365762851
414767.0,10030.0,414767.0,10589.0,414767.0,25938.0,330.08582239886584,310.60487998136443,557.2477945512057
414767.0,10019.0,414767.0,10571.0,414767.0,25861.0,322.8387353386745,306.1932224909709,549.8556958252766
414777.0,9969.0,414777.0,10508.0,414777.0,25860.0,315.5784279794998,301.7758523127777,542.4390681361629
414777.0,9939.0,414777.0,10517.0,414777.0,25847.0,308.3086117632141,297.3548647690191,535.0000457914807
414777.0,9979.0,414777.0,10593.0,414777.0,25898.0,301.0328469718954,292.93138521911095,527.5401880038446
414777.0,9968.0,414777.0,10586.0,414777.0,25907.0,293.7543778058837,288.5058854967486,520.0608228185417
414777.0,9948.0,414777.0,10592.0,414777.0,25874.0,286.4764698167602,284.07916037803363,512.5638008761653
414777.0,9898.0,414777.0,10497.0,414777.0,25822.0,279.2026019953844,279.65288541320405,505.051855540673
414787.0,9875.0,414787.0,10463.0,414787.0,25789.0,271.93609044771756,275.22910242857785,497.52812815581564
414787.0,9854.0,414787.0,10487.0,414787.0,25812.0,264.67939448669404,270.8090272724112,489.99530558350096
414787.0,9877.0,414787.0,10505.0,414787.0,25805.0,257.43359477575507,266.3922644603924,482.45514298684236
414787.0,9948.0,414787.0,10587.0,414787.0,25859.0,250.19850687654844,261.9770965136048,474.908663187863
414787.0,9937.0,414787.0,10590.0,414787.0,25802.0,242.9736224112529,257.5616516954127,467.35675326454475
414787.0,9879.0,414787.0,10501.0,414787.0,25799.0,235.75923428822898,253.14509213119123,459.8005836085737
414798.0,9823.0,414798.0,10438.0,414798.0,25766.0,228.55666735084412,248.72765669662635,452.24148918484775
414798.0,9856.0,414798.0,10523.0,414798.0,25796.0,221.36756788662728,244.30958703027073,444.6806165081515
414798.0,9869.0,414798.0,10567.0,414798.0,25807.0,214.19335083176372,239.89057992455616,437.1188907898645
414798.0,9852.0,414798.0,10528.0,414798.0,25807.0,207.0354258989538,235.4705614090728,429.5574388019926
414798.0,9830.0,414798.0,10523.0,414798.0,25769.0,199.89565212735977,231.0506107966105,421.9980647005535
414798.0,9782.0,414798.0,10440.0,414798.0,25722.0,192.776352975005,226.63296211397397,414.4432404546386
414808.0,9760.0,414808.0,10423.0,414808.0,25716.0,185.67982915383686,222.2201658518763,406.8955177282734
414808.0,9773.0,414808.0,10452.0,414808.0,25733.0,178.60773542586878,217.81403832043975,399.35687920827866
414808.0,9797.0,414808.0,10470.0,414808.0,25744.0,171.560857572788,213.41519992866233,391.82861212807927
414808.0,9815.0,414808.0,10487.0,414808.0,25768.0,164.53954851850563,209.0234573204067,384.3117524899393
414808.0,9793.0,414808.0,10512.0,414808.0,25716.0,157.54450382248694,204.6385659099182,376.8076769783024
414808.0,9745.0,414808.0,10422.0,414808.0,25686.0,150.57724714349388,200.26081628969507,369.31827992706894
414819.0,9723.0,414819.0,10416.0,414819.0,25676.0,143.63994518259233,195.89092643837733,361.84553898983893
414819.0,9736.0,414819.0,10466.0,414819.0,25697.0,136.7348515625223,191.52939351974067,354.39098347488107
414819.0,9732.0,414819.0,10493.0,414819.0,25705.0,129.86402311536392,187.17635758303675,346.95565418264835
414819.0,9719.0,414819.0,10464.0,414819.0,25673.0,123.02946230689406,182.83229284576396,339.540459578334
414819.0,9666.0,414819.0,10372.0,414819.0,25668.0,116.23323443829827,178.49846207249345,332.14639602154375
414819.0,9646.0,414819.0,10356.0,414819.0,25608.0,109.47715076577697,174.1762618081105,324.7743466734329
414829.0,9643.0,414829.0,10381.0,414829.0,25632.0,102.76215913088663,169.866000784964,317.42458249354286
414829.0,9681.0,414829.0,10409.0,414829.0,25649.0,96.08801273252107,165.56631557914176,310.0963983738865
414829.0,9686.0,414829.0,10445.0,414829.0,25640.0,89.45359544309326,161.27461206360874,302.7882689062658
414829.0,9687.0,414829.0,10462.0,414829.0,25662.0,82.85767296474091,156.9880550984318,295.4983396417126
414829.0,9651.0,414829.0,10372.0,414829.0,25599.0,76.29950118431464,152.70439215602363,288.22479449802563
414829.0,9609.0,414829.0,10361.0,414829.0,25596.0,69.77888903558278,148.42191075571066,280.9658079517467
414839.0,9622.0,414839.0,10430.0,414839.0,25628.0,63.29577457448431,144.13876048060462,273.71921968124275
414839.0,9641.0,414839.0,10448.0,414839.0,25654.0,56.849876865300985,139.85287409946034,266.4825833530456
414839.0,9611.0,414839.0,10443.0,414839.0,25628.0,50.44084056360134,135.56282378656283,259.2538000811577
414839.0,9595.0,414839.0,10405.0,414839.0,25596.0,44.06851702623658,131.26861278049387,252.0316505880471
414839.0,9570.0,414839.0,10313.0,414839.0,25550.0,37.73290435667866,126.97156065178172,244.81564127184492
414839.0,9557.0,414839.0,10318.0,414839.0,25564.0,31.433823287525456,122.67325789387127,237.60535242125013
414850.0,9552.0,414850.0,10326.0,414850.0,25547.0,25.17061019551636,118.37434262639488,230.39988559255767
414850.0,9577.0,414850.0,10393.0,414850.0,25583.0,18.94203569660806,114.07409503823902,223.19777038565235
414850.0,9585.0,414850.0,10423.0,414850.0,25576.0,12.74660668807985,109.7711470377846,215.99729421824054
414850.0,9555.0,414850.0,10348.0,414850.0,25548.0,6.583106161208661,105.46461703646094,208.7969556276919
414850.0,9513.0,414850.0,10320.0,414850.0,25514.0,0.4508527514154821,101.15452447258883,201.5955797394514
414850.0,9514.0,414850.0,10268.0,414850.0,25521.0,-5.6505890961791465,96.84108137748507,194.3919724980824
414860.0,9527.0,414860.0,10376.0,414860.0,25547.0,-11.721815251208682,92.52375951607178,187.1846155781841
414860.0,9523.0,414860.0,10386.0,414860.0,25574.0,-17.763578133720557,88.2013311396613,179.97192412944025
414860.0,9508.0,414860.0,10371.0,414860.0,25509.0,-23.776474231646716,83.87290967261845,172.75287716782543
414860.0,9458.0,414860.0,10274.0,414860.0,25484.0,-29.760814645404594,79.53867899314241,165.527233428635
414860.0,9445.0,414860.0,10282.0,414860.0,25458.0,-35.7169518470605,75.1993986319917,158.29499879506875
414860.0,9438.0,414860.0,10271.0,414860.0,25462.0,-41.64584408340124,70.8553243784906,151.05568969007084
414870.0,9463.0,414870.0,10325.0,414870.0,25524.0,-47.54936362353283,66.50566743915743,143.80808252113252
414870.0,9486.0,414870.0,10408.0,414870.0,25507.0,-53.4300493115104,62.14909200119564,136.5507102506715
414870.0,9483.0,414870.0,10266.0,414870.0,25465.0,-59.29041669951323,57.78484040365424,129.28261435869865
414870.0,9447.0,414870.0,10263.0,414870.0,25447.0,-65.13229924179961,53.413158388960426,122.00351441511236
414870.0,9384.0,414870.0,10240.0,414870.0,25433.0,-70.95677902540388,49.03443964670538,114.71335481091558
414870.0,9419.0,414870.0,10297.0,414870.0,25452.0,-76.76475352926627,44.64829577983903,107.41188029232
414881.0,9428.0,414881.0,10319.0,414881.0,25454.0,-82.55740983902592,40.25363032643065,100.09863694734338
414881.0,9431.0,414881.0,10331.0,414881.0,25452.0,-88.33601738778418,35.849500309253585,92.77330960533254
414881.0,9389.0,414881.0,10263.0,414881.0,25416.0,-94.10143786197455,31.435917400068206,85.4360273396677
414881.0,9348.0,414881.0,10230.0,414881.0,25388.0,-99.85408280073909,27.0138298244907,78.08729102070856
414881.0,9343.0,414881.0,10184.0,414881.0,25360.0,-105.59443826478662,22.58423845922573,70.72748648444178
414881.0,9366.0,414881.0,10269.0,414881.0,25366.0,-111.3236061102491,18.14723027552202,63.35628078788011
414891.0,9359.0,414891.0,10274.0,414891.0,25426.0,-117.04332556633108,13.701874178544813,55.97239937454776
414891.0,9386.0,414891.0,10285.0,414891.0,25407.0,-122.75553579649716,9.247037926006783,48.57410997580325
414891.0,9377.0,414891.0,10248.0,414891.0,25392.0,-128.46180116742698,4.782219520915987,41.16000651201887
414891.0,9329.0,414891.0,10196.0,414891.0,25347.0,-134.1628804716389,0.30765039959123897,33.729311882696265
414891.0,9311.0,414891.0,10187.0,414891.0,25335.0,-139.85877397583442,-4.1763315971423935,26.281523618904544
414891.0,9309.0,414891.0,10231.0,414891.0,25365.0,-145.54919161054454,-8.670012121862555,18.815920492052555
414901.0,9321.0,414901.0,10265.0,414901.0,25377.0,-151.2338878033936,-13.174317537186084,11.331539233031663
414901.0,9316.0,414901.0,10246.0,414901.0,25349.0,-156.91255940912993,-17.690058733505793,3.8276416174396672
414901.0,9269.0,414901.0,10144.0,414901.0,25328.0,-162.58460625868054,-22.217376957980264,-3.695939222716788
414901.0,9243.0,414901.0,10187.0,414901.0,25290.0,-168.2492501528776,-26.75618493218576,-11.238975964656674
414901.0,9248.0,414901.0,10184.0,414901.0,25293.0,-173.906040654776,-31.306983996444274,-18.801353458775452
414901.0,9265.0,414901.0,10233.0,414901.0,25305.0,-179.55520534972823,-35.87096649730279,-26.38345503303185
414912.0,9291.0,414912.0,10225.0,414912.0,25340.0,-185.19742365635523,-40.44936495285356,-33.9860543551149
414912.0,9281.0,414912.0,10190.0,414912.0,25309.0,-190.83316180117333,-45.04276436177122,-41.6097472495336
414912.0,9249.0,414912.0,10178.0,414912.0,25282.0,-196.46207487600327,-49.65095033827549,-49.25447390616307
414912.0,9222.0,414912.0,10136.0,414912.0,25260.0,-202.08291714463292,-54.273315320182064,-56.919594901664595
414912.0,9215.0,414912.0,10165.0,414912.0,25277.0,-207.6939120470181,-58.90941811278873,-64.60428628983652
414912.0,9227.0,414912.0,10198.0,414912.0,25276.0,-213.2931124407462,-63.5591928799094,-72.30769523812717
414922.0,9214.0,414922.0,10195.0,414922.0,25280.0,-218.8784192486296,-68.22253237238203,-80.02870850899421
414922.0,9163.0,414922.0,10201.0,414922.0,25262.0,-224.44747713968843,-72.89858134051292,-87.76561714098534
414922.0,9137.0,414922.0,10114.0,414922.0,25209.0,-229.9979370538216,-77.58540594677436,-95.5160355713831
414922.0,9136.0,414922.0,10063.0,414922.0,25217.0,-235.52809171787533,-82.28051680867134,-103.2772432294264
414922.0,9147.0,414922.0,10126.0,414922.0,25226.0,-241.03733984711994,-86.98199883707963,-111.04662286050905
414922.0,9161.0,414922.0,10131.0,414922.0,25242.0,-246.52611886519412,-91.68913287476914,-118.8216634333321
414932.0,9160.0,414932.0,10192.0,414932.0,25208.0,-251.9954458031067,-96.40188588937951,-126.59957224116704
414932.0,9159.0,414932.0,10136.0,414932.0,25202.0,-257.44639623860553,-101.11989305590123,-134.3770184050943
414932.0,9107.0,414932.0,10074.0,414932.0,25133.0,-262.879820763976,-105.84195776672897,-142.15032560028146
414932.0,9092.0,414932.0,10097.0,414932.0,25154.0,-268.2965154927175,-110.56651278312381,-149.9160432851927
414932.0,9138.0,414932.0,10165.0,414932.0,25145.0,-273.6976199243992,-115.29220879652047,-157.67148978422756
414932.0,9138.0,414932.0,10152.0,414932.0,25188.0,-279.08457836523905,-120.01755585731587,-165.41479378491158
414943.0,9121.0,414943.0,10131.0,414943.0,25149.0,-284.4585717821353,-124.74001436941506,-173.14444445933782
414943.0,9079.0,414943.0,10053.0,414943.0,25137.0,-289.8201283531308,-129.4557135116832,-180.858880492798
414943.0,9052.0,414943.0,10007.0,414943.0,25101.0,-295.1693619488541,-134.160228224813,-188.55654508153373
414943.0,9041.0,414943.0,10023.0,414943.0,25125.0,-300.5065916365312,-138.84989276377968,-196.23624505785108
414943.0,9052.0,414943.0,10064.0,414943.0,25148.0,-305.8328423424564,-143.522651231329,-203.8972657684311
414943.0,9091.0,414943.0,10145.0,414943.0,25118.0,-311.14984620258156,-148.17772880935945,-211.53901306909552
414953.0,9104.0,414953.0,10099.0,414953.0,25135.0,-316.4594433871582,-152.81436660731737,-219.1605649496023
414953.0,9076.0,414953.0,10042.0,414953.0,25067.0,-321.76272638687203,-157.43079392395134,-226.76054565540676
414953.0,9020.0,414953.0,9952.0,414953.0,25051.0,-327.059617801886,-162.02452469518067,-234.33744376521986
414953.0,9011.0,414953.0,10034.0,414953.0,25055.0,-332.349231710106,-166.59365439090254,-241.89022856197823
414953.0,9038.0,414953.0,10038.0,414953.0,25118.0,-337.63050661870693,-171.13767000114433,-249.41864751148603
414953.0,9026.0,414953.0,10079.0,414953.0,25086.0,-342.9023652987157,-175.65701832162847,-256.9227475251247
414963.0,8998.0,414963.0,10061.0,414963.0,25064.0,-348.1634622497454,-180.15211657683278,-264.40216237981645
414963.0,8959.0,414963.0,9967.0,414963.0,25005.0,-353.4121704705303,-184.62282937883833,-271.8560304313752
414963.0,8939.0,414963.0,9938.0,414963.0,25009.0,-358.64705649871576,-189.0690049647386,-279.2836134687582
414963.0,8936.0,414963.0,9974.0,414963.0,25010.0,-363.8675098579738,-193.49168013637257,-286.6849731942376
414963.0,8962.0,414963.0,10050.0,414963.0,25027.0,-369.0740675722028,-197.8936243175445,-294.0611548998793
414963.0,8986.0,414963.0,10057.0,414963.0,25033.0,-374.26817068400965,-202.2785386772976,-301.4138661977905
414974.0,8976.0,414974.0,10051.0,414974.0,25034.0,-379.4514782376947,-206.64969746597984,-308.74495838316045
414974.0,8936.0,414974.0,9991.0,414974.0,24982.0,-384.62527295299844,-211.00918700354697,-316.0560665596496
414974.0,8913.0,414974.0,9948.0,414974.0,24979.0,-389.7904462620198,-215.35818339644487,-323.34869786724664
414974.0,8936.0,414974.0,10044.0,414974.0,25007.0,-394.94789672843774,-219.6977123953751,-330.6245674162544
414974.0,8950.0,414974.0,10044.0,414974.0,25031.0,-400.09868006673196,-224.02873581166904,-337.885536316439
414974.0,8928.0,414974.0,9980.0,414974.0,24998.0,-405.2436699131971,-228.3514288722523,-345.1330323529886
414984.0,8888.0,414984.0,9976.0,414984.0,24930.0,-410.383249415823,-232.66486069471597,-352.36770203313426
414984.0,8868.0,414984.0,9885.0,414984.0,24957.0,-415.5175253835838,-236.9676384505309,-359.58981608302224
414984.0,8854.0,414984.0,9929.0,414984.0,24946.0,-420.64689701584314,-241.25896681516247,-366.7998779244581
414984.0,8864.0,414984.0,9952.0,414984.0,24962.0,-425.7725036328861,-245.5393577758682,-373.9987308688296
414984.0,8897.0,414984.0,10037.0,414984.0,24982.0,-430.8962336698571,-249.81032906311327,-381.1872024650655
414984.0,8903.0,414984.0,9983.0,414984.0,24926.0,-436.0202220476549,-254.07322071353929,-388.36565834591306
414994.0,8876.0,414994.0,9949.0,414994.0,24885.0,-441.1461475219278,-258.3282407502685,-395.53395124638723
414994.0,8841.0,414994.0,9867.0,414994.0,24874.0,-446.2749067117322,-262.5746749061335,-402.6920242218239
414994.0,8833.0,414994.0,9929.0,414994.0,24921.0,-451.40687118030394,-266.81195075569076,-409.8405791673248
414994.0,8840.0,414994.0,9975.0,414994.0,24925.0,-456.54231470307604,-271.0402712129343,-416.98103150837494
414994.0,8859.0,414994.0,9988.0,414994.0,24913.0,-461.68149871086064,-275.2600443508828,-424.1148684197194
414994.0,8805.0,414994.0,9950.0,414994.0,24899.0,-466.8244239964614,-279.4708097496176,-431.24313300368544
415004.0,8778.0,415004.0,9880.0,415004.0,24854.0,-471.9707971076648,-283.67088167255827,-438.3664128249709
415004.0,8767.0,415004.0,9854.0,415004.0,24843.0,-477.12050486777616,-287.85808145566637,-445.4852518245399
415004.0,8776.0,415004.0,9856.0,415004.0,24856.0,-482.274157885582,-292.0309257356246,-452.6006638225085
415004.0,8802.0,415004.0,9931.0,415004.0,24908.0,-487.43317284304715,-296.18926883773304,-459.7142153543706
415004.0,8823.0,415004.0,9935.0,415004.0,24901.0,-492.59930045287297,-300.33386712963045,-466.8274086582013
415004.0,8787.0,415004.0,9874.0,415004.0,24817.0,-497.7739086779212,-304.46544818167536,-473.9409617688581
415014.0,8767.0,415014.0,9861.0,415014.0,24825.0,-502.9575776894692,-308.5844240719805,-481.0548781395697
415014.0,8729.0,415014.0,9879.0,415014.0,24822.0,-508.15029996703083,-312.6913702418341,-488.1691276849049
415014.0,8753.0,415014.0,9919.0,415014.0,24827.0,-513.3519779183965,-316.78729648155615,-495.2840265479866
415014.0,8770.0,415014.0,9891.0,415014.0,24870.0,-518.5626382127307,-320.8732445744304,-502.4000201303098
415014.0,8755.0,415014.0,9910.0,415014.0,24851.0,-523.7821280803344,-324.94972659556674,-509.51708996517925
415014.0,8704.0,415014.0,9864.0,415014.0,24810.0,-529.009763085766,-329.01649965076297,-516.6342033407747
415024.0,8665.0,415024.0,9810.0,415024.0,24742.0,-534.2445618312056,-333.0728187040314,-523.7494249395904
415024.0,8678.0,415024.0,9821.0,415024.0,24757.0,-539.4859886874605,-337.1181695236161,-530.860771478119
415024.0,8701.0,415024.0,9860.0,415024.0,24774.0,-544.7344659240082,-341.1529475034197,-537.9670221791372
415024.0,8682.0,415024.0,9880.0,415024.0,24814.0,-549.9912343202267,-345.1783558583861,-545.0677221954849
415024.0,8728.0,415024.0,9892.0,415024.0,24781.0,-555.2578556866858,-349.19562437007266,-552.1625065221999
415024.0,8712.0,415024.0,9812.0,415024.0,24761.0,-560.5356385624445,-353.2053520686719,-559.2505255761156
415035.0,8657.0,415035.0,9779.0,415035.0,24701.0,-565.8251752547902,-357.207694262932,-566.3305431522937
415035.0,8625.0,415035.0,9823.0,415035.0,24719.0,-571.1264596889228,-361.2032340252274,-573.4015873887319
415035.0,8675.0,415035.0,9889.0,415035.0,24759.0,-576.439497006791,-365.1933765092041,-580.4634545712826
415035.0,8671.0,415035.0,9920.0,415035.0,24750.0,-581.764520550283,-369.1795071881961,-587.5164850032224
415035.0,8635.0,415035.0,9851.0,415035.0,24743.0,-587.1016077867613,-373.161650612769,-594.5609145088989
415035.0,8601.0,415035.0,9770.0,415035.0,24669.0,-592.4504965652881,-377.1380543535313,-601.5966049851341
415045.0,8563.0,415045.0,9752.0,415045.0,24674.0,-597.8110529929596,-381.1061959683377,-608.6234858880722
415045.0,8594.0,415045.0,9757.0,415045.0,24675.0,-603.1839760761089,-385.0642598722327,-615.6422614419287
415045.0,8619.0,415045.0,9802.0,415045.0,24681.0,-608.5710530870195,-389.0118820902486,-622.6547197894615
415045.0,8644.0,415045.0,9861.0,415045.0,24718.0,-613.9746539819918,-392.9497784382635,-629.6634841874767
415045.0,8614.0,415045.0,9775.0,415045.0,24704.0,-619.3968594462939,-396.8787539828571,-636.671428804601
415045.0,8592.0,415045.0,9732.0,415045.0,24674.0,-624.8389267550233,-400.7992594281585,-643.6811314107666
415056.0,8567.0,415056.0,9747.0,415056.0,24634.0,-630.301376712557,-404.71204890759157,-650.6948344007337
415056.0,8576.0,415056.0,9791.0,415056.0,24700.0,-635.7843839099755,-408.6189333767253,-657.7148169346273
415056.0,8585.0,415056.0,9839.0,415056.0,24673.0,-641.287974472795,-412.5225327254858,-664.7434516108735
415056.0,8583.0,415056.0,9835.0,415056.0,24683.0,-646.8118410648925,-416.42519250068574,-671.7827654907159
415056.0,8539.0,415056.0,9766.0,415056.0,24615.0,-652.3550625194467,-420.3280527408184,-678.8341509694714
415056.0,8498.0,415056.0,9687.0,415056.0,24625.0,-657.916221897757,-424.2312038151149,-685.8986392723945
415066.0,8477.0,415066.0,9701.0,415066.0,24616.0,-663.4940585947211,-428.13493732412826,-692.977416784039
415066.0,8520.0,415066.0,9758.0,415066.0,24626.0,-669.0881546742652,-432.0409101978893,-700.0720661045258
415066.0,8551.0,415066.0,9798.0,415066.0,24657.0,-674.6989451472713,-435.9520785728222,-707.1843678739427
415066.0,8531.0,415066.0,9786.0,415066.0,24639.0,-680.3269834020805,-439.8716199566953,-714.3157968843836
415066.0,8516.0,415066.0,9757.0,415066.0,24583.0,-685.972196392269,-443.80198092639364,-721.4671212215981
415066.0,8467.0,415066.0,9699.0,415066.0,24569.0,-691.6337549027676,-447.7448030905424,-728.6386103240044
415076.0,8470.0,415076.0,9724.0,415076.0,24619.0,-697.3104900953632,-451.70157748667407,-735.8305888525249
415076.0,8479.0,415076.0,9750.0,415076.0,24568.0,-703.0013524541333,-455.67421989335685,-743.0435734206525
415076.0,8475.0,415076.0,9807.0,415076.0,24606.0,-708.7054821148274,-459.6648364445592,-750.2780063409963
415076.0,8462.0,415076.0,9788.0,415076.0,24599.0,-714.4219776327554,-463.6747665089774,-757.5339830249148
415076.0,8436.0,415076.0,9706.0,415076.0,24547.0,-720.1497679638367,-467.703815473503,-764.8110418341382
415076.0,8404.0,415076.0,9650.0,415076.0,24526.0,-725.8878042286428,-471.7506143762513,-772.1082855404409
415087.0,8408.0,415087.0,9668.0,415087.0,24529.0,-731.6354842741537,-475.81393640015847,-779.4249335705683
415087.0,8424.0,415087.0,9733.0,415087.0,24545.0,-737.3929579381806,-479.89366698691026,-786.7607323516105
415087.0,8443.0,415087.0,9756.0,415087.0,24561.0,-743.1609669800315,-483.990496693295,-794.1158089190546
415087.0,8438.0,415087.0,9705.0,415087.0,24523.0,-748.9402844358755,-488.10488117645673,-801.4902187402151
415087.0,8434.0,415087.0,9699.0,415087.0,24511.0,-754.7311399133685,-492.2364885971713,-808.8837240404328
415087.0,8362.0,415087.0,9654.0,415087.0,24495.0,-760.5330173392945,-496.3845047746064,-816.29599893585
415097.0,8389.0,415097.0,9727.0,415097.0,24520.0,-766.3449789596315,-500.5481525622381,-823.7269052080359
415097.0,8393.0,415097.0,9753.0,415097.0,24513.0,-772.1661007463593,-504.72660991190924,-831.1764481545945
415097.0,8383.0,415097.0,9694.0,415097.0,24528.0,-777.9954687891116,-508.91827201405533,-838.6444287131646
415097.0,8364.0,415097.0,9646.0,415097.0,24467.0,-783.8319228842939,-513.1203734531091,-846.1301358964934
415097.0,8320.0,415097.0,9628.0,415097.0,24462.0,-789.6740795913663,-517.3296342123097,-853.6324498902134
415097.0,8306.0,415097.0,9592.0,415097.0,24433.0,-795.5207663361111,-521.5433488055537,-861.1503497662334
415107.0,8341.0,415107.0,9637.0,415107.0,24474.0,-801.3715185235532,-525.760175927069,-868.6833644377542
415107.0,8369.0,415107.0,9716.0,415107.0,24482.0,-807.2265507946215,-529.9801571722754,-876.231515598405
415107.0,8335.0,415107.0,9660.0,415107.0,24469.0,-813.0861235194428,-534.2038353572013,-883.7948012328931
415107.0,8364.0,415107.0,9645.0,415107.0,24424.0,-818.9499116433108,-538.4313507379536,-891.3727964646772
415107.0,8294.0,415107.0,9625.0,415107.0,24402.0,-824.8167745583853,-542.6624156765164,-898.9648473197235
415107.0,8258.0,415107.0,9606.0,415107.0,24426.0,-830.6850099888876,-546.896854075962,-906.5706105275017
415118.0,8314.0,415118.0,9649.0,415118.0,24429.0,-836.5529644309332,-551.1350094329465,-914.1902857176358
415118.0,8278.0,415118.0,9674.0,415118.0,24446.0,-842.4193465376788,-555.3776329567224,-921.8243093196918
415118.0,8260.0,415118.0,9633.0,415118.0,24405.0,-848.2830573190548,-559.6253003153857,-929.4728885991134
415118.0,8234.0,415118.0,9575.0,415118.0,24346.0,-854.1431949057998,-563.8781118369419,-937.1359485329427
415118.0,8225.0,415118.0,9549.0,415118.0,24344.0,-859.9994302139264,-568.1362873109126,-944.8137424606814
415118.0,8233.0,415118.0,9575.0,415118.0,24357.0,-865.8523487935412,-572.4011737372932,-952.5076306975482
415128.0,8224.0,415128.0,9622.0,415128.0,24415.0,-871.7035119766985,-576.6756723621037,-960.2202176099375
415128.0,8265.0,415128.0,9662.0,415128.0,24377.0,-877.5552271871646,-580.9636539012753,-967.9547115206104
415128.0,8261.0,415128.0,9644.0,415128.0,24395.0,-883.4100395087713,-585.2688070840718,-975.7141650750348
415128.0,8218.0,415128.0,9596.0,415128.0,24331.0,-889.270163007085,-589.5938270293854,-983.5011990427843
415128.0,8178.0,415128.0,9554.0,415128.0,24328.0,-895.1373981322614,-593.9405524842657,-991.3182721960285
415128.0,8193.0,415128.0,9587.0,415128.0,24335.0,-901.0136504850152,-598.3107503042527,-999.1681733852355
415138.0,8233.0,415138.0,9612.0,415138.0,24370.0,-906.9013243706112,-602.7065959636147,-1007.0541852787138
415138.0,8223.0,415138.0,9627.0,415138.0,24336.0,-912.8030021762233,-607.1303400580971,-1014.9797112333307
415138.0,8172.0,415138.0,9570.0,415138.0,24309.0,-918.7208567384492,-611.5836788040011,-1022.9479014789856
415138.0,8152.0,415138.0,9494.0,415138.0,24330.0,-924.6566263462146,-616.0677796122241,-1030.961715634222
415138.0,8143.0,415138.0,9537.0,415138.0,24283.0,-930.6121684996837,-620.5841903611733,-1039.024150275082
415138.0,8140.0,415138.0,9573.0,415138.0,24331.0,-936.5899690601834,-625.1356326072939,-1047.138323856217
415149.0,8178.0,415149.0,9597.0,415149.0,24306.0,-942.5932181725708,-629.7257295540878,-1055.3073622235963
415149.0,8201.0,415149.0,9591.0,415149.0,24293.0,-948.6253597887511,-634.3580511764812,-1063.5341493793537
415149.0,8138.0,415149.0,9592.0,415149.0,24251.0,-954.6893676600263,-639.0353486154567,-1071.8212935036518
415149.0,8111.0,415149.0,9569.0,415149.0,24270.0,-960.7874823034444,-643.7592549876373,-1080.1714558721724
415149.0,8106.0,415149.0,9508.0,415149.0,24268.0,-966.9216941929934,-648.5304383602813,-1088.5876297451928
415149.0,8144.0,415149.0,9571.0,415149.0,24285.0,-973.0942506337288,-653.349105651658,-1097.0730190379618
415159.0,8133.0,415159.0,9514.0,415159.0,24319.0,-979.3075285432066,-658.215385904655,-1105.6305470339694
415159.0,8112.0,415159.0,9553.0,415159.0,24243.0,-985.5635503173665,-663.1293399582444,-1114.2622641988983
415159.0,8053.0,415159.0,9502.0,415159.0,24216.0,-991.8638591031556,-668.0909041158466,-1122.9692277191098
415159.0,8044.0,415159.0,9478.0,415159.0,24209.0,-998.2100306622018,-673.1000612468707,-1131.7521016166404
415159.0,8059.0,415159.0,9474.0,415159.0,24197.0,-1004.6043725055041,-678.1573101507342,-1140.6118642154365
415159.0,8080.0,415159.0,9527.0,415159.0,24243.0,-1011.0501363439229,-683.2640628389248,-1149.5500198630812
415169.0,8108.0,415169.0,9541.0,415169.0,24243.0,-1017.5510474773441,-688.4223787914746,-1158.568231901783
415169.0,8087.0,415169.0,9505.0,415169.0,24211.0,-1024.1105071968243,-693.6342061377717,-1167.6676864730373
415169.0,8038.0,415169.0,9468.0,415169.0,24188.0,-1030.7310650846748,-698.9009998999082,-1176.848794224116
415169.0,8018.0,415169.0,9452.0,415169.0,24165.0,-1037.4145840649608,-704.2241118641032,-1186.1114605853977
415169.0,8053.0,415169.0,9541.0,415169.0,24194.0,-1044.1627803978465,-709.6052922995455,-1195.4554915288836
415169.0,8064.0,415169.0,9583.0,415169.0,24157.0,-1050.977339185924,-715.0462895976353,-1204.8807017323234
415180.0,8035.0,415180.0,9495.0,415180.0,24174.0,-1057.8594576046744,-720.5476489665961,-1214.3867959833865
415180.0,7998.0,415180.0,9461.0,415180.0,24138.0,-1064.8095139874672,-726.1081307841341,-1223.9732990558314
415180.0,7952.0,415180.0,9420.0,415180.0,24087.0,-1071.827386870682,-731.7254508249594,-1233.6397162018297
415180.0,7946.0,415180.0,9418.0,415180.0,24106.0,-1078.9132337532105,-737.3974883885045,-1243.3860112926993
415180.0,7960.0,415180.0,9465.0,415180.0,24129.0,-1086.0681588771138,-743.1229889798853,-1253.213010017975
415180.0,8001.0,415180.0,9491.0,415180.0,24151.0,-1093.294266111051,-748.9013851925474,-1263.1221493583798
415190.0,7985.0,415190.0,9498.0,415190.0,24151.0,-1100.594058449161,-754.731928087746,-1273.1146927084908
415190.0,7984.0,415190.0,9417.0,415190.0,24114.0,-1107.969696063517,-760.6129284659831,-1283.1910339158248
415190.0,7936.0,415190.0,9386.0,415190.0,24070.0,-1115.4226592405253,-766.5419094532331,-1293.3505799427928
415190.0,7930.0,415190.0,9419.0,415190.0,24070.0,-1122.9539294636538,-772.5164883206319,-1303.5922283300374
415190.0,7969.0,415190.0,9448.0,415190.0,24108.0,-1130.5643020636885,-778.5348907561124,-1313.9148384325563
415190.0,7943.0,415190.0,9457.0,415190.0,24099.0,-1138.254304236194,-784.5955330432569,-1324.3170852979038
415200.0,7922.0,415200.0,9431.0,415200.0,24043.0,-1146.0238357758346,-790.6962651563231,-1334.7969835912272
415200.0,7896.0,415200.0,9373.0,415200.0,24055.0,-1153.872117365828,-796.8341065766143,-1345.3518263402048
415200.0,7856.0,415200.0,9347.0,415200.0,24017.0,-1161.7980799901964,-803.0057703643789,-1355.9785466593257
415200.0,7864.0,415200.0,9305.0,415200.0,24019.0,-1169.8009202632475,-809.2086720182665,-1366.6740512489903
415200.0,7895.0,415200.0,9437.0,415200.0,24020.0,-1177.8804189840132,-815.4416562283925,-1377.4353820796423
415200.0,7929.0,415200.0,9469.0,415200.0,24073.0,-1186.0366060526658,-821.7045167619708,-1388.25956065122
415211.0,7911.0,415211.0,9400.0,415211.0,24027.0,-1194.2688648507055,-827.9964815408825,-1399.142999574256
415211.0,7849.0,415211.0,9365.0,415211.0,23923.0,-1202.575224867619,-834.3152839280956,-1410.0811271391474
415211.0,7823.0,415211.0,9331.0,415211.0,23974.0,-1210.9524962603973,-840.6576398621526,-1421.0689494806436
415211.0,7839.0,415211.0,9389.0,415211.0,23981.0,-1219.3969752301125,-847.0201372663423,-1432.1018462267834
415211.0,7857.0,415211.0,9446.0,415211.0,24009.0,-1227.9048278529654,-853.39929931734,-1443.1754665061312
415211.0,7874.0,415211.0,9402.0,415211.0,24031.0,-1236.4717457138097,-859.7906658567656,-1454.2848630752824
415221.0,7809.0,415221.0,9344.0,415221.0,23945.0,-1245.0923368985646,-866.1879858721542,-1465.4236802728212
415221.0,7785.0,415221.0,9266.0,415221.0,23929.0,-1253.7600073347062,-872.5836119799369,-1476.5840658174632
415221.0,7748.0,415221.0,9272.0,415221.0,23927.0,-1262.4675350252091,-878.9698765219205,-1487.757304632713
415221.0,7777.0,415221.0,9296.0,415221.0,23906.0,-1271.2077828838312,-885.3403121783983,-1498.9344140279718
415221.0,7800.0,415221.0,9350.0,415221.0,23929.0,-1279.973880546635,-891.689837014404,-1510.1062856481083
415221.0,7832.0,415221.0,9368.0,415221.0,23926.0,-1288.758656826217,-898.0139122593631,-1521.2634999480201
415231.0,7758.0,415231.0,9348.0,415231.0,23883.0,-1297.5537783717896,-904.3073893881203,-1532.396023953635
415231.0,7756.0,415231.0,9256.0,415231.0,23884.0,-1306.3494062844295,-910.5639694766,-1543.4931427181755
415231.0,7722.0,415231.0,9257.0,415231.0,23893.0,-1315.1345611891297,-916.7767505766276,-1554.5436268215526
415231.0,7728.0,415231.0,9376.0,415231.0,23885.0,-1323.8976324611033,-922.9390396565243,-1565.535713301319
415231.0,7757.0,415231.0,9376.0,415231.0,23901.0,-1332.6265381680114,-929.0439823686781,-1576.4568052629925
415231.0,7729.0,415231.0,9315.0,415231.0,23892.0,-1341.3084430090023,-935.083241567678,-1587.2930828053693
415242.0,7683.0,415242.0,9239.0,415242.0,23844.0,-1349.929437361167,-941.0465036561368,-1598.0292280431668
415242.0,7657.0,415242.0,9228.0,415242.0,23808.0,-1358.4747485362927,-946.9224424065196,-1608.648588469311
415242.0,7661.0,415242.0,9255.0,415242.0,23838.0,-1366.9293652941292,-952.6999992071726,-1619.1337406975604
415242.0,7687.0,415242.0,9257.0,415242.0,23862.0,-1375.278396113715,-958.3688650165388,-1629.4667569355922
415242.0,7710.0,415242.0,9352.0,415242.0,23845.0,-1383.5067691021422,-963.9190227150539,-1639.628788218613
415242.0,7704.0,415242.0,9293.0,415242.0,23840.0,-1391.5984683008692,-969.339716484644,-1649.5994749614983
415252.0,7665.0,415252.0,9237.0,415252.0,23771.0,-1399.5358735242967,-974.618662083905,-1659.3568087473127
415252.0,7618.0,415252.0,9235.0,415252.0,23763.0,-1407.2997203016198,-979.7422957174965,-1668.877593741451
415252.0,7672.0,415252.0,9267.0,415252.0,23828.0,-1414.8695671630628,-984.6965438236056,-1678.1380369108344
415252.0,7677.0,415252.0,9292.0,415252.0,23822.0,-1422.2239735448302,-989.466968788415,-1687.113652234525
415252.0,7639.0,415252.0,9298.0,415252.0,23783.0,-1429.3400732712525,-994.0381594983344,-1695.7785646702414
415252.0,7634.0,415252.0,9245.0,415252.0,23776.0,-1436.1932303477665,-998.3931018097358,-1704.1051739133827
415262.0,7592.0,415262.0,9205.0,415262.0,23723.0,-1442.7572250461774,-1002.5132255974479,-1712.0644904389756
415262.0,7577.0,415262.0,9163.0,415262.0,23713.0,-1449.0047403716644,-1006.3792422575104,-1719.6267905635814
415262.0,7605.0,415262.0,9232.0,415262.0,23745.0,-1454.9078219096073,-1009.9721398307714,-1726.7622170668951
415262.0,7614.0,415262.0,9240.0,415262.0,23769.0,-1460.4379436120978,-1013.2734499716789,-1733.4408547995254
415262.0,7619.0,415262.0,9273.0,415262.0,23763.0,-1465.565581263524,-1016.2646092854391,-1739.6321810539748
415262.0,7609.0,415262.0,9185.0,415262.0,23742.0,-1470.2596891746182,-1018.926219050003,-1745.3044744992999
415273.0,7569.0,415273.0,9166.0,415273.0,23700.0,-1474.4874878303583,-1021.2381206712307,-1750.4247482871037
415273.0,7534.0,415273.0,9175.0,415273.0,23687.0,-1478.2147517013925,-1023.1802571403492,-1754.959252874796
415273.0,7571.0,415273.0,9231.0,415273.0,23703.0,-1481.406420186238,-1024.7333153495827,-1758.8741408342453
415273.0,7560.0,415273.0,9247.0,415273.0,23723.0,-1484.0269519761325,-1025.878427440522,-1762.1357564189977
415273.0,7524.0,415273.0,9227.0,415273.0,23691.0,-1486.040282309134,-1026.5963446484761,-1764.710474076578
415273.0,7534.0,415273.0,9182.0,415273.0,23680.0,-1487.4098982818289,-1026.86701516813,-1766.5645949439038
415283.0,7488.0,415283.0,9159.0,415283.0,23676.0,-1488.0992215857814,-1026.6699997405774,-1767.6646221571052
415283.0,7511.0,415283.0,9158.0,415283.0,23643.0,-1488.0720671150125,-1025.9853552639697,-1767.9777197591914
415283.0,7514.0,415283.0,9189.0,415283.0,23694.0,-1487.2929641049254,-1024.794299013538,-1767.4721114102454
415283.0,7558.0,415283.0,9241.0,415283.0,23704.0,-1485.7271021680947,-1023.0791926989053,-1766.1171609185708
415283.0,7563.0,415283.0,9207.0,415283.0,23692.0,-1483.3398467084992,-1020.8229360073481,-1763.8830566914758
415283.0,7515.0,415283.0,9160.0,415283.0,23653.0,-1480.096227561915,-1018.0085412420938,-1760.7406333321806
415294.0,7471.0,415294.0,9151.0,415294.0,23671.0,-1475.961057667816,-1014.61956350656,-1756.6617543003917
415294.0,7494.0,415294.0,9213.0,415294.0,23694.0,-1470.8997881313646,-1010.6409093807877,-1751.6198417108026
415294.0,7529.0,415294.0,9241.0,415294.0,23738.0,-1464.879285244132,-1006.0589763281503,-1745.5899247953937
415294.0,7526.0,415294.0,9221.0,415294.0,23734.0,-1457.8678789326782,-1000.861040343959,-1738.548179552591
415294.0,7488.0,415294.0,9216.0,415294.0,23697.0,-1449.8351248697838,-995.0347827227151,-1730.4715452445407
415294.0,7482.0,415294.0,9174.0,415294.0,23687.0,-1440.7520462328384,-988.5685047841598,-1721.3379891993177
415304.0,7471.0,415304.0,9154.0,415304.0,23690.0,-1430.591868228726,-981.4518933384784,-1711.1273073279299
415304.0,7497.0,415304.0,9243.0,415304.0,23722.0,-1419.3307241913237,-973.6768333518063,-1699.8218316795355
415304.0,7548.0,415304.0,9231.0,415304.0,23778.0,-1406.9479192430294,-965.237565904403,-1687.406580220516
415304.0,7567.0,415304.0,9263.0,415304.0,23759.0,-1393.425618719502,-956.1301694377123,-1673.868887851922
415304.0,7572.0,415304.0,9279.0,415304.0,23761.0,-1378.7482676068776,-946.3520383749751,-1659.198085787861
415304.0,7525.0,415304.0,9211.0,415304.0,23765.0,-1362.9023770160823,-935.9017457746891,-1643.3857012271822
415314.0,7542.0,415314.0,9234.0,415314.0,23799.0,-1345.8770181782957,-924.779466162272,-1626.425920644774
415314.0,7594.0,415314.0,9353.0,415314.0,23855.0,-1327.664575122975,-912.987549787661,-1608.3157604450544
415314.0,7623.0,415314.0,9331.0,415314.0,23886.0,-1308.2609711778746,-900.5302344149518,-1589.0547245735218
415314.0,7616.0,415314.0,9370.0,415314.0,23907.0,-1287.6653553626654,-887.4126645601344,-1568.6442082166625
415314.0,7622.0,415314.0,9301.0,415314.0,23879.0,-1265.8799591276227,-873.6404079894172,-1547.08718389111
415314.0,7649.0,415314.0,9311.0,415314.0,23876.0,-1242.9103966616478,-859.2199145304014,-1524.3885503321478
415325.0,7663.0,415325.0,9337.0,415325.0,23906.0,-1218.7660403728682,-844.159427268458,-1500.5559761059983
415325.0,7717.0,415325.0,9384.0,415325.0,23977.0,-1193.4601718401923,-828.469534395829,-1475.6005436370658
415325.0,7784.0,415325.0,9465.0,415325.0,24017.0,-1167.0097824545235,-812.1628878871991,-1449.5366571036152
415325.0,7805.0,415325.0,9456.0,415325.0,24065.0,-1139.4349767718054,-795.2533051957886,-1422.3814060899347
415325.0,7800.0,415325.0,9412.0,415325.0,24065.0,-1110.758382772164,-777.7550751944475,-1394.153975453613
415325.0,7799.0,415325.0,9423.0,415325.0,24094.0,-1081.0051734650212,-759.683230857707,-1364.87549143229
415335.0,7870.0,415335.0,9501.0,415335.0,24138.0,-1050.2036080345165,-741.0543450226955,-1334.569218368908
415335.0,7922.0,415335.0,9574.0,415335.0,24228.0,-1018.3853186406108,-721.8866102187071,-1303.2605953881693
415335.0,7975.0,415335.0,9555.0,415335.0,24262.0,-985.5849291146019,-702.198975368676,-1270.9767277598835
415335.0,7986.0,415335.0,9557.0,415335.0,24240.0,-951.8394234313791,-682.0104093223239,-1237.7457388911344
415335.0,7994.0,415335.0,9552.0,415335.0,24236.0,-917.1878881656053,-661.3400474801931,-1203.596848218127
415335.0,8028.0,415335.0,9554.0,415335.0,24291.0,-881.6717977232274,-640.2078970952217,-1168.5612550268863
415345.0,8085.0,415345.0,9602.0,415345.0,24366.0,-845.3354464495951,-618.6355096952207,-1132.6728821658082
415345.0,8169.0,415345.0,9643.0,415345.0,24432.0,-808.2259616446303,-596.6462395070034,-1095.9682561585628
415345.0,8235.0,415345.0,9766.0,415345.0,24474.0,-770.3926774841786,-574.2648058810447,-1058.4857796238816
415345.0,8269.0,415345.0,9720.0,415345.0,24492.0,-731.8861779518362,-551.5162459824406,-1020.265101096455
415345.0,8264.0,415345.0,9731.0,415345.0,24493.0,-692.7576547777783,-528.4251008445879,-981.3470626497182
415345.0,8296.0,415345.0,9718.0,415345.0,24571.0,-653.059007775665,-505.0156029908612,-941.7741572478658
415356.0,8378.0,415356.0,9793.0,415356.0,24647.0,-612.8433337873795,-481.3124013941402,-901.5908388099289
415356.0,8459.0,415356.0,9870.0,415356.0,24697.0,-572.1649627036426,-457.34075243424076,-860.8431736241475
415356.0,8492.0,415356.0,9868.0,415356.0,24757.0,-531.078787894759,-433.12587451571136,-819.578137250547
415356.0,8497.0,415356.0,9838.0,415356.0,24783.0,-489.63958949775406,-408.69231953692537,-777.8430937289245
415356.0,8539.0,415356.0,9843.0,415356.0,24806.0,-447.9020125613205,-384.0642730896923,-735.6856660369879
415356.0,8591.0,415356.0,9915.0,415356.0,24864.0,-405.9209675662245,-359.2664183183475,-693.1539598328475
415366.0,8643.0,415366.0,9971.0,415366.0,24936.0,-363.7518343089181,-334.3242576946105,-650.2967807328434
415366.0,8714.0,415366.0,9982.0,415366.0,25022.0,-321.45027106103294,-309.2636207228785,-607.1633902462776
415366.0,8788.0,415366.0,9992.0,415366.0,25062.0,-279.0717142270149,-284.110123737084,-563.8028048538781
415366.0,8808.0,415366.0,10004.0,415366.0,25097.0,-236.67071645295846,-258.88917794926647,-520.2631324457599
415366.0,8826.0,415366.0,10009.0,415366.0,25083.0,-194.3005382783083,-233.62640730382668,-476.59147272105133
415366.0,8864.0,415366.0,10073.0,415366.0,25183.0,-152.01330928512698,-208.34808068099835,-432.8343941511454
415376.0,8951.0,415376.0,10177.0,415376.0,25266.0,-109.86038262572947,-183.08105775341312,-389.0382554088153
415376.0,9002.0,415376.0,10198.0,415376.0,25305.0,-67.8922457851761,-157.85191575399767,-345.24877882083433
415376.0,9027.0,415376.0,10193.0,415376.0,25347.0,-26.1580182895907,-132.68585126364326,-301.51035800688646
415376.0,9042.0,415376.0,10154.0,415376.0,25364.0,15.294825783068745,-107.60642468645551,-257.8658328318818
415376.0,9069.0,415376.0,10200.0,415376.0,25410.0,56.420178171682664,-82.6363125398027,-214.35676058523245
415376.0,9151.0,415376.0,10222.0,415376.0,25453.0,97.17282954282064,-57.79820872908124,-171.0238237920712
415387.0,9219.0,415387.0,10282.0,415387.0,25540.0,137.50844217553163,-33.115135401899806,-127.90701307687095
415387.0,9276.0,415387.0,10355.0,415387.0,25601.0,177.38414380101472,-8.610087760021088,-85.04535304892579
415387.0,9321.0,415387.0,10375.0,415387.0,25611.0,216.75932107613176,15.694763284380315,-42.476366210414426
415387.0,9307.0,415387.0,10327.0,415387.0,25644.0,255.5960757679959,39.77872447060429,-0.23586049785285468
415387.0,9356.0,415387.0,10364.0,415387.0,25688.0,293.8590839065455,63.622400198761284,41.64176041600149
415387.0,9398.0,415387.0,10419.0,415387.0,25763.0,331.5151323413602,87.20701579902277,83.12316306348066
415397.0,9441.0,415397.0,10498.0,415397.0,25823.0,368.5328822845611,110.51431726731937,124.17619901689773
415397.0,9508.0,415397.0,10524.0,415397.0,25851.0,404.8830147274098,133.5273354477048,164.7703583990076
415397.0,9497.0,415397.0,10465.0,415397.0,25849.0,440.53851590547947,156.23116731309324,204.8770086159957
415397.0,9507.0,415397.0,10459.0,415397.0,25866.0,475.47468081000125,178.61277315290874,244.46899635119235
415397.0,9553.0,415397.0,10505.0,415397.0,25950.0,509.6686312328511,200.6599055092596,283.5199011270479
415397.0,9623.0,415397.0,10570.0,415397.0,26055.0,543.0988692515111,222.36035619613085,322.0038135509078
415407.0,9692.0,415407.0,10625.0,415407.0,26078.0,575.745496280542,243.70223618238265,359.8960418287163
415407.0,9707.0,415407.0,10603.0,415407.0,26118.0,607.5909648244713,264.67478887931475,397.1740431335004
415407.0,9690.0,415407.0,10639.0,415407.0,26127.0,638.6206087297039,285.26884677987573,433.8177589975146
415407.0,9708.0,415407.0,10599.0,415407.0,26131.0,668.8223959833074,305.4766383581655,469.80929474957384
415407.0,9744.0,415407.0,10625.0,415407.0,26223.0,698.1862000049725,325.2911863545904,505.1323524483273
415407.0,9806.0,415407.0,10739.0,415407.0,26281.0,726.7033527763292,344.7058218518712,539.7720513271588
415418.0,9835.0,415418.0,10738.0,415418.0,26305.0,754.3668059655979,363.7144943447272,573.7153912760205
415418.0,9853.0,415418.0,10728.0,415418.0,26308.0,781.1715623738187,382.3125947002968,606.9517102336986
415418.0,9843.0,415418.0,10712.0,415418.0,26311.0,807.1148355778671,400.49715589898346,639.4724842794515
415418.0,9859.0,415418.0,10702.0,415418.0,26326.0,832.1957153287385,418.26616862492824,671.2705760130318
415418.0,9886.0,415418.0,10751.0,415418.0,26401.0,856.4145978411457,435.6176998769631,702.3394860138194
415418.0,9952.0,415418.0,10823.0,415418.0,26457.0,879.7728788506313,452.5495553593804,732.6731783144037
415428.0,10005.0,415428.0,10872.0,415428.0,26502.0,902.2732514425427,469.05984796800465,762.2665792712353
415428.0,9997.0,415428.0,10795.0,415428.0,26475.0,923.9204183811228,485.14790782476643,791.1161449401181
415428.0,9985.0,415428.0,10781.0,415428.0,26528.0,944.7215105500827,500.81433992666234,819.2198657240056
415428.0,9973.0,415428.0,10813.0,415428.0,26541.0,964.6857337579409,516.060029087773,846.57686019312
415428.0,10045.0,415428.0,10889.0,415428.0,26625.0,983.823644382343,530.8853185395028,873.187179433731
415428.0,10062.0,415428.0,10930.0,415428.0,26616.0,1002.1468650782454,545.2903011764665,899.052038501042
415438.0,10092.0,415438.0,10926.0,415438.0,26644.0,1019.6684203284262,559.2757842929977,924.1740945222173
415438.0,10030.0,415438.0,10889.0,415438.0,26640.0,1036.4030297096367,572.8438613044234,948.5573484592132
415438.0,10060.0,415438.0,10873.0,415438.0,26647.0,1052.3667513429505,585.997531879912,972.2066745018024
415438.0,10059.0,415438.0,10911.0,415438.0,26688.0,1067.576209812958,598.7397792177142,995.1272542237318
415438.0,10075.0,415438.0,10991.0,415438.0,26760.0,1082.048031354916,611.0730798098662,1017.3243221250059
415438.0,10147.0,415438.0,10975.0,415438.0,26798.0,1095.7987367257515,622.9998313007948,1038.8035542914145
415449.0,10165.0,415449.0,11080.0,415449.0,26814.0,1108.8451438443312,634.5232511185268,1059.5718348975493
415449.0,10127.0,415449.0,10978.0,415449.0,26806.0,1121.2049983706108,645.6481326084047,1079.6377264712914
415449.0,10147.0,415449.0,10957.0,415449.0,26793.0,1132.8971233783373,656.3808797779618,1099.0112794296965
415449.0,10125.0,415449.0,10988.0,415449.0,26848.0,1143.9409721988827,666.7285877754575,1117.7034234637417
415449.0,10181.0,415449.0,11074.0,415449.0,26890.0,1154.3561626186527,676.6982212394139,1135.725606261713
415449.0,10192.0,415449.0,11096.0,415449.0,26921.0,1164.162418814656,686.2969891777166,1153.0900637339705
415459.0,10193.0,415459.0,11042.0,415459.0,26916.0,1173.3798738542064,695.5333130851755,1169.8103328198104
415459.0,10145.0,415459.0,11022.0,415459.0,26882.0,1182.029212028879,704.4170341969195,1185.9013346094844
415459.0,10147.0,415459.0,10970.0,415459.0,26888.0,1190.1312071828247,712.9585135523441,1201.3787723618161
415459.0,10161.0,415459.0,11053.0,415459.0,26904.0,1197.7059417205944,721.1674259559447,1216.2582284544928
415459.0,10214.0,415459.0,11070.0,415459.0,26973.0,1204.7724098884817,729.0522573509722,1230.5546478390497
415459.0,10247.0,415459.0,11138.0,415459.0,26975.0,1211.3488649098445,736.6208311208559,1244.2825211849877
415469.0,10218.0,415469.0,11120.0,415469.0,26988.0,1217.4535673530604,743.8813105679671,1257.456372610664
415469.0,10200.0,415469.0,11049.0,415469.0,27004.0,1223.1051671504129,750.8427666374832,1270.0909970356452
415469.0,10171.0,415469.0,11072.0,415469.0,26988.0,1228.3223321481444,757.5147520744858,1282.2013738335977
415469.0,10216.0,415469.0,11109.0,415469.0,27026.0,1233.123043524989,763.9064382496301,1293.8024384477467
415469.0,10259.0,415469.0,11143.0,415469.0,27052.0,1237.5243305456775,770.0264071614915,1304.9089421961266
415469.0,10229.0,415469.0,11111.0,415469.0,27018.0,1241.5426869206724,775.8831185627346,1315.5355131189713
415480.0,10216.0,415480.0,11101.0,415480.0,27039.0,1245.1944963492501,781.4851635224725,1325.6965855084595
415480.0,10196.0,415480.0,11045.0,415480.0,27052.0,1248.4958413853215,786.8408144141956,1335.4060580189966
415480.0,10185.0,415480.0,11081.0,415480.0,27034.0,1251.4618974735374,791.9571240248217,1344.676997623686
415480.0,10239.0,415480.0,11137.0,415480.0,27057.0,1254.1064479306624,796.8393040920005,1353.5214173096213
415480.0,10237.0,415480.0,11188.0,415480.0,27085.0,1256.4419099679412,801.4910529006261,1361.950080553254
415480.0,10257.0,415480.0,11172.0,415480.0,27126.0,1258.4798106010699,805.9156091605535,1369.9726175381631
415490.0,10239.0,415490.0,11163.0,415490.0,27102.0,1260.2312384957752,810.116572796732,1377.597958841712
415490.0,10207.0,415490.0,11091.0,415490.0,27113.0,1261.7069152009872,814.0978489993013,1384.8346086835638
415490.0,10220.0,415490.0,11150.0,415490.0,27095.0,1262.9168570818122,817.8628874360709,1391.6904822245103
415490.0,10264.0,415490.0,11201.0,415490.0,27179.0,1263.8700404502388,821.4141292067111,1398.1726527017047
415490.0,10248.0,415490.0,11262.0,415490.0,27167.0,1264.57456133873,824.7535113945312,1404.2875424114886
415490.0,10265.0,415490.0,11222.0,415490.0,27189.0,1265.0380973757117,827.8836911733708,1410.0414925545488
415501.0,10225.0,415501.0,11153.0,415501.0,27120.0,1265.2681433107045,830.8087225519171,1415.4410378384957
415501.0,10190.0,415501.0,11121.0,415501.0,27129.0,1265.2717811436971,833.5334186780447,1420.492456608313
415501.0,10210.0,415501.0,11133.0,415501.0,27143.0,1265.055063548059,836.0619601510564,1425.2009504537891
415501.0,10238.0,415501.0,11183.0,415501.0,27169.0,1264.6225324869379,838.3969533150364,1429.5701796185674
415501.0,10283.0,415501.0,11239.0,415501.0,27233.0,1263.9774374518852,840.5395900486303,1433.6024920135071
415501.0,10263.0,415501.0,11176.0,415501.0,27200.0,1263.1225196124228,842.4905143450558,1437.2996190624647
415511.0,10222.0,415511.0,11167.0,415511.0,27170.0,1262.0606170393664,844.2503109276327,1440.6631724997678
415511.0,10203.0,415511.0,11190.0,415511.0,27175.0,1260.7945161752314,845.8191828024424,1443.6944017314752
415511.0,10270.0,415511.0,11230.0,415511.0,27238.0,1259.3264157559638,847.1966332896288,1446.39369133466
415511.0,10256.0,415511.0,11278.0,415511.0,27271.0,1257.657895559076,848.3818932100962,1448.760731594413
415511.0,10259.0,415511.0,11267.0,415511.0,27249.0,1255.7904506219097,849.3748746795518,1450.7953398073257
415511.0,10220.0,415511.0,11194.0,415511.0,27185.0,1253.7258421033646,850.1768278747936,1452.49793871455
415521.0,10214.0,415521.0,11194.0,415521.0,27229.0,1251.4659065427036,850.7900329449892,1453.869131501292
415521.0,10184.0,415521.0,11182.0,415521.0,27211.0,1249.0120541668553,851.2168508276017,1454.909020945485
415521.0,10233.0,415521.0,11192.0,415521.0,27281.0,1246.3648346305145,851.4589929869442,1455.6170761218068
415521.0,10280.0,415521.0,11278.0,415521.0,27271.0,1243.5240356051931,851.5174491568772,1455.9925972568224
415521.0,10256.0,415521.0,11236.0,415521.0,27295.0,1240.4894599074719,851.3930952966064,1456.0353982928561
415521.0,10235.0,415521.0,11250.0,415521.0,27238.0,1237.2617072704486,851.0874616283463,1455.746227558852
415532.0,10189.0,415532.0,11166.0,415532.0,27234.0,1233.8422180558496,850.6028674267816,1455.1265946641495
415532.0,10199.0,415532.0,11206.0,415532.0,27257.0,1230.2326922168968,849.9418172783162,1454.1782221577337
415532.0,10228.0,415532.0,11258.0,415532.0,27292.0,1226.4345836787036,849.1064358491747,1452.9028079524371
415532.0,10231.0,415532.0,11253.0,415532.0,27315.0,1222.4491861364384,848.0987161710435,1451.302464756304
415532.0,10195.0,415532.0,11224.0,415532.0,27264.0,1218.2780694046396,846.9212150833273,1449.3803952855483
415532.0,10165.0,415532.0,11198.0,415532.0,27238.0,1213.9231701173414,845.5772223570879,1447.1410361999754
415542.0,10137.0,415542.0,11182.0,415542.0,27233.0,1209.3862959085473,844.0702516395761,1444.589486501527
415542.0,10175.0,415542.0,11173.0,415542.0,27264.0,1204.6684902591608,842.4033590488918,1441.7308698738734
415542.0,10190.0,415542.0,11217.0,415542.0,27283.0,1199.769885312555,840.578728461792,1438.5702824443358
415542.0,10226.0,415542.0,11306.0,415542.0,27264.0,1194.6902470236848,838.5979544531024,1435.1132347398564
415542.0,10200.0,415542.0,11268.0,415542.0,27276.0,1189.4298301509662,836.4631584016057,1431.3660473394186
415542.0,10186.0,415542.0,11170.0,415542.0,27215.0,1183.9899643076776,834.1779501273277,1427.335874225262
415552.0,10138.0,415552.0,11160.0,415552.0,27227.0,1178.3730452410311,831.7470167084921,1423.03033744136
415552.0,10190.0,415552.0,11228.0,415552.0,27265.0,1172.5821458106366,829.1749211962626,1418.457102700348
415552.0,10189.0,415552.0,11247.0,415552.0,27261.0,1166.620894182074,826.4657644623611,1413.6239481729906
415552.0,10161.0,415552.0,11264.0,415552.0,27245.0,1160.4938377000174,823.6239893100509,1408.539237170947
415552.0,10126.0,415552.0,11172.0,415552.0,27239.0,1154.2066771135483,820.6551671224282,1403.2121711657253
415552.0,10109.0,415552.0,11164.0,415552.0,27154.0,1147.765931860836,817.5658137287797,1397.6525395532549
415563.0,10077.0,415563.0,11116.0,415563.0,27191.0,1141.1783155068604,814.3623699013706,1391.8700245604643
415563.0,10110.0,415563.0,11172.0,415563.0,27235.0,1134.4502339702985,811.0502063636104,1385.8736134618582
415563.0,10119.0,415563.0,11211.0,415563.0,27261.0,1127.5877159586075,807.6334140311864,1379.6719009778699
415563.0,10134.0,415563.0,11246.0,415563.0,27190.0,1120.5968705206328,804.1155614503875,1373.2739699115452
415563.0,10099.0,415563.0,11198.0,415563.0,27173.0,1113.484501177908,800.5008101557016,1366.6896881276564
415563.0,10085.0,415563.0,11104.0,415563.0,27174.0,1106.2583725262793,796.7942929909469,1359.929176709793
415573.0,10047.0,415573.0,11131.0,415573.0,27179.0,1098.9269955202176,793.001293850114,1353.0022726341106
415573.0,10076.0,415573.0,11228.0,415573.0,27228.0,1091.499220582771,789.1263133912835,1345.9185785881557
415573.0,10080.0,415573.0,11204.0,415573.0,27225.0,1083.9841037252502,785.1733885923721,1338.6880733094865
415573.0,10044.0,415573.0,11228.0,415573.0,27174.0,1076.3911546734378,781.147269353212,1331.3218126262984
415573.0,10012.0,415573.0,11124.0,415573.0,27158.0,1068.7304628021407,777.0540698060317,1323.832051021948
415573.0,9988.0,415573.0,11089.0,415573.0,27098.0,1061.0123221367057,772.9007708705584,1316.2316477772777
415583.0,9989.0,415583.0,11114.0,415583.0,27122.0,1053.2466485389664,768.6939947952002,1308.5332227573915
415583.0,10005.0,415583.0,11164.0,415583.0,27150.0,1045.4426805146109,764.439217132355,1300.748656410709
415583.0,10046.0,415583.0,11187.0,415583.0,27153.0,1037.609230455578,760.1411566225718,1292.8893099905272
415583.0,9998.0,415583.0,11165.0,415583.0,27154.0,1029.75536054555,755.8047862865866,1284.9666822941344
415583.0,9964.0,415583.0,11104.0,415583.0,27110.0,1021.8908435428859,751.4358990654075,1276.992861028651
415583.0,9929.0,415583.0,11129.0,415583.0,27076.0,1014.0258880491409,747.0408190510982,1268.9804142776336
415594.0,9976.0,415594.0,11134.0,415594.0,27090.0,1006.1705225740889,742.6258773794816,1260.9418491735678
415594.0,9941.0,415594.0,11142.0,415594.0,27091.0,998.3343989897858,738.1973710040254,1252.8891878269988
415594.0,9959.0,415594.0,11154.0,415594.0,27114.0,990.5270555268827,733.7619292703148,1244.8340567613602
415594.0,9916.0,415594.0,11095.0,415594.0,27058.0,982.7581512844589,729.32681858296,1236.7880466198244
415594.0,9904.0,415594.0,11037.0,415594.0,27025.0,975.0374149310006,724.8997073520395,1228.7627386996483
415594.0,9854.0,415594.0,11061.0,415594.0,27037.0,967.3742890717343,720.487781708392,1220.7692016402584
415604.0,9883.0,415604.0,11040.0,415604.0,27063.0,959.7774156801265,716.0968795764811,1212.8175650104363
415604.0,9894.0,415604.0,11111.0,415604.0,27061.0,952.2543892979774,711.7313066614844,1204.917221915218
415604.0,9892.0,415604.0,11161.0,415604.0,27088.0,944.812050928518,707.3944738007079,1197.0774437561186
415604.0,9885.0,415604.0,11053.0,415604.0,26998.0,937.4570086981618,703.0899629316766,1189.3078563841907
415604.0,9827.0,415604.0,11043.0,415604.0,26977.0,930.1958690128636,698.8219105366086,1181.61826129469
415604.0,9818.0,415604.0,11046.0,415604.0,26976.0,923.0349493130881,694.5943077483275,1174.0178116739455
415614.0,9851.0,415614.0,11088.0,415614.0,26994.0,915.9797838686319,690.4103522930113,1166.5143362868625
415614.0,9857.0,415614.0,11120.0,415614.0,27009.0,909.0350841677932,686.2727263912807,1159.1143735099909
415614.0,9824.0,415614.0,11020.0,415614.0,26994.0,902.2052022912898,682.1843026789227,1151.8236501517017
415614.0,9801.0,415614.0,11053.0,415614.0,26966.0,895.4944070280516,678.1482702451418,1144.6474462983938
415614.0,9758.0,415614.0,10997.0,415614.0,26961.0,888.9065901075469,674.1675511765077,1137.5905485118542
415614.0,9773.0,415614.0,11005.0,415614.0,26953.0,882.4446756150394,670.244151050747,1130.6569733411197
415625.0,9794.0,415625.0,11080.0,415625.0,26959.0,876.1102667308752,666.3788905349517,1123.8498050285746
415625.0,9835.0,415625.0,11065.0,415625.0,26995.0,869.9039405164792,662.5718215833126,1117.1713273927635
415625.0,9809.0,415625.0,11075.0,415625.0,26979.0,863.8260672442037,658.8231157123854,1110.623482165574
415625.0,9781.0,415625.0,11028.0,415625.0,26936.0,857.8774884404997,655.1336168803631,1104.2083197916468
415625.0,9736.0,415625.0,10953.0,415625.0,26896.0,852.0595011481068,651.5045854093755,1097.9278739595038
415625.0,9772.0,415625.0,11051.0,415625.0,26949.0,846.3733386080658,647.9368919617427,1091.7835569379772
415635.0,9803.0,415635.0,11036.0,415635.0,26969.0,840.8199345481274,644.4306308963239,1085.7759499017989
415635.0,9773.0,415635.0,11048.0,415635.0,26927.0,835.4003616158162,640.9856305770616,1079.9052958070843
415635.0,9744.0,415635.0,11029.0,415635.0,26911.0,830.1163347835751,637.6020895913834,1074.1718974507298
415635.0,9678.0,415635.0,10959.0,415635.0,26888.0,824.9700268650289,634.2806204590031,1068.5758763233437
415635.0,9684.0,415635.0,10954.0,415635.0,26874.0,819.9632345395878,631.0216239231761,1063.116636279131
415635.0,9713.0,415635.0,11025.0,415635.0,26897.0,815.0966051478285,627.824526048538,1057.7924711710555
415645.0,9721.0,415645.0,11022.0,415645.0,26937.0,810.3695798912042,624.687792838648,1052.6006078900425
415645.0,9742.0,415645.0,11033.0,415645.0,26921.0,805.7809765146498,621.6097183440205,1047.5377779528135
415645.0,9706.0,415645.0,11000.0,415645.0,26893.0,801.3296347245875,618.589083725614,1042.6008320298117
415645.0,9681.0,415645.0,10957.0,415645.0,26901.0,797.0146528464977,615.6251631789964,1037.7868592037548
415645.0,9679.0,415645.0,10968.0,415645.0,26874.0,792.8351267120886,612.7171860382073,1033.092958788662
415645.0,9693.0,415645.0,11010.0,415645.0,26925.0,788.7898016203718,609.863848036325,1028.5161100217792
415656.0,9693.0,415656.0,11060.0,415656.0,26901.0,784.8770745266487,607.0635739803004,1024.0533603073218
415656.0,9659.0,415656.0,11014.0,415656.0,26912.0,781.0952129345861,604.3154428346921,1019.7022106843025
415656.0,9634.0,415656.0,10957.0,415656.0,26893.0,777.442319015943,601.6197694694315,1015.460870767083
415656.0,9613.0,415656.0,10901.0,415656.0,26835.0,773.9158771173904,598.9775599183591,1011.3281646749227
415656.0,9639.0,415656.0,10930.0,415656.0,26842.0,770.5122307753617,596.3892509585033,1007.3030171796304
415656.0,9654.0,415656.0,10973.0,415656.0,26852.0,767.2264669217958,593.8538935793831,1003.3838236724539
415666.0,9699.0,415666.0,10999.0,415666.0,26865.0,764.0528895332319,591.3694319734188,999.5682605128487
415666.0,9675.0,415666.0,11013.0,415666.0,26862.0,760.9858481239033,588.9336794034718,995.8535681924803
415666.0,9655.0,415666.0,10919.0,415666.0,26842.0,758.0203829475794,586.5450560468389,992.2368601457763
415666.0,9603.0,415666.0,10917.0,415666.0,26824.0,755.1522175802838,584.2023826014531,988.7151314742505
415666.0,9641.0,415666.0,10956.0,415666.0,26882.0,752.3772224892421,581.9040575480817,985.2851052886247
415666.0,9630.0,415666.0,10992.0,415666.0,26867.0,749.6910094611583,579.6477777013589,981.9433984089287
415676.0,9647.0,415676.0,11021.0,415676.0,26848.0,747.0890253427427,577.431243272644,978.686990335206
415676.0,9618.0,415676.0,10952.0,415676.0,26811.0,744.5668457246188,575.2530886183957,975.5133540756767
415676.0,9586.0,415676.0,10915.0,415676.0,26833.0,742.1202133766076,573.1130572365755,972.4200728646874
415676.0,9575.0,415676.0,10882.0,415676.0,26753.0,739.7446617029613,571.0111903495402,969.4043273607026
415676.0,9592.0,415676.0,10921.0,415676.0,26807.0,737.4350107259115,568.9467738167943,966.4623889978777
415676.0,9624.0,415676.0,10933.0,415676.0,26814.0,735.1852558405103,566.9179216797783,963.589303746139
415687.0,9618.0,415687.0,10989.0,415687.0,26878.0,732.9890033101372,564.9220007616321,960.7792298324491
415687.0,9609.0,415687.0,10925.0,415687.0,26839.0,730.84004187673,562.9564309235194,958.0263344625602
415687.0,9582.0,415687.0,10886.0,415687.0,26785.0,728.7325690404132,561.0190252593922,955.3254078558549
415687.0,9570.0,415687.0,10895.0,415687.0,26782.0,726.6609872087863,559.1074736604062,952.6715734936766
415687.0,9586.0,415687.0,10940.0,415687.0,26836.0,724.6195572711948,557.2187084789034,950.0596249632767
415687.0,9605.0,415687.0,10968.0,415687.0,26856.0,722.6023145237339,555.3490691135804,947.4840439136727
415697.0,9572.0,415697.0,10935.0,415697.0,26792.0,720.6033280785435,553.495081454469,944.9396466737753
415697.0,9566.0,415697.0,10907.0,415697.0,26798.0,718.6168870615511,551.6539355549656,942.4218438002193
415697.0,9525.0,415697.0,10853.0,415697.0,26742.0,716.6372839222662,549.8231455902242,939.9261605922949
415697.0,9542.0,415697.0,10891.0,415697.0,26783.0,714.6583447960863,547.9997180134737,937.4475529861606
415697.0,9562.0,415697.0,10911.0,415697.0,26810.0,712.6731239925784,546.1796293896007,934.9801240698188
415697.0,9599.0,415697.0,10995.0,415697.0,26797.0,710.6741331501977,544.3582049315235,932.5174639920155
415707.0,9585.0,415707.0,10961.0,415707.0,26787.0,708.6540405182105,542.5312501319938,930.0531621628108
415707.0,9559.0,415707.0,10875.0,415707.0,26749.0,706.6062820527676,540.6959399605462,927.5808848319734
415707.0,9527.0,415707.0,10848.0,415707.0,26764.0,704.5250887452125,538.8504559178537,925.0940182494494
415707.0,9548.0,415707.0,10911.0,415707.0,26810.0,702.4050497911454,536.9928263767148,922.5854078269122
415707.0,9569.0,415707.0,10956.0,415707.0,26833.0,700.2408330688456,535.1205163953957,920.0477257505386
415707.0,9565.0,415707.0,10915.0,415707.0,26780.0,698.0274273711534,533.2311637182661,917.474248708542
415718.0,9524.0,415718.0,10872.0,415718.0,26759.0,695.7605261011564,531.3232447868245,914.8591656449611
415718.0,9506.0,415718.0,10831.0,415718.0,26748.0,693.4364636877194,529.3957217085572,912.1971202893949
415718.0,9488.0,415718.0,10858.0,415718.0,26725.0,691.0516886694713,527.4470871201406,909.4825391031713
415718.0,9510.0,415718.0,10855.0,415718.0,26745.0,688.6022491423639,525.4747338486841,906.709177896382
415718.0,9523.0,415718.0,10932.0,415718.0,26789.0,686.0836974561328,523.4750825010575,903.870067410732
415718.0,9564.0,415718.0,10900.0,415718.0,26765.0,683.4915134482325,521.4443274266032,900.9579633013079
415728.0,9527.0,415728.0,10900.0,415728.0,26746.0,680.8218136240663,519.3792324949105,897.9658737317393
415728.0,9504.0,415728.0,10843.0,415728.0,26736.0,678.0718081108388,517.277335283417,894.887104240312
415728.0,9470.0,415728.0,10855.0,415728.0,26723.0,675.2396129024143,515.1364990636849,891.7149314037717
415728.0,9493.0,415728.0,10894.0,415728.0,26786.0,672.323686638573,512.954425853791,888.4424215625867
415728.0,9489.0,415728.0,10926.0,415728.0,26795.0,669.3224990971653,510.72881664766,885.0628056372004
415728.0,9477.0,415728.0,10860.0,415728.0,26770.0,666.234599419206,508.4580493744891,881.5702685918358
415739.0,9440.0,415739.0,10823.0,415739.0,26712.0,663.0586834194708,506.14139720131806,877.9603543865708
415739.0,9435.0,415739.0,10795.0,415739.0,26718.0,659.7933261146959,503.77830963202945,874.2295413818185
415739.0,9436.0,415739.0,10822.0,415739.0,26713.0,656.4365656939806,501.3674242582815,870.374532719665
415739.0,9459.0,415739.0,10860.0,415739.0,26754.0,652.9857538406501,498.90619355279017,866.3919964089023
415739.0,9498.0,415739.0,10867.0,415739.0,26755.0,649.4379011472449,496.3913392420934,862.2789191417074
415739.0,9467.0,415739.0,10877.0,415739.0,26755.0,645.7903942550486,493.8196607856172,858.0332380063098
415749.0,9446.0,415749.0,10807.0,415749.0,26700.0,642.0415545902256,491.18853225379365,853.6542219933244
415749.0,9397.0,415749.0,10817.0,415749.0,26658.0,638.1905490330655,488.4957234323708,849.142196588912
415749.0,9428.0,415749.0,10832.0,415749.0,26681.0,634.2368266117028,485.7388710551413,844.4977531388911
415749.0,9444.0,415749.0,10916.0,415749.0,26731.0,630.1797753836686,482.9154623415868,839.7212544878874
415749.0,9454.0,415749.0,10869.0,415749.0,26721.0,626.0190143848577,480.02366077787667,834.8132257767852
415749.0,9390.0,415749.0,10813.0,415749.0,26667.0,621.754899727741,477.06309592000105,829.7750556453246
415759.0,9363.0,415759.0,10758.0,415759.0,26648.0,617.3884778662965,474.03456291430314,824.609038454255
415759.0,9365.0,415759.0,10750.0,415759.0,26623.0,612.9208232790519,470.93879769390776,819.3177271224597
415759.0,9356.0,415759.0,10821.0,415759.0,26631.0,608.3524303897115,467.775469211728,813.9032562390785
415759.0,9406.0,415759.0,10876.0,415759.0,26672.0,603.6831413387207,464.54334186473096,808.3671251115996
415759.0,9415.0,415759.0,10828.0,415759.0,26656.0,598.9126480380373,461.24144419545814,802.7105600793512
415759.0,9357.0,415759.0,10798.0,415759.0,26645.0,594.0412163785902,457.86998312263154,796.9350856966595
415770.0,9369.0,415770.0,10750.0,415770.0,26598.0,589.069970834396,454.43014971252865,791.0427097643432
415770.0,9328.0,415770.0,10741.0,415770.0,26593.0,584.0006160009747,450.92321313125285,785.0355723995086
415770.0,9360.0,415770.0,10827.0,415770.0,26641.0,578.8351050060746,447.3498437738531,778.9155346509026
415770.0,9354.0,415770.0,10802.0,415770.0,26624.0,573.5756129350741,443.71034752592413,772.6842975148181
415770.0,9324.0,415770.0,10821.0,415770.0,26627.0,568.2247565174541,440.0055257878033,766.3439501003961
415770.0,9305.0,415770.0,10739.0,415770.0,26574.0,562.7856673985291,436.23718985767164,759.8972952441902
415780.0,9255.0,415780.0,10702.0,415780.0,26560.0,557.2616436834883,432.4077791896775,753.3476287045751
415780.0,9262.0,415780.0,10716.0,415780.0,26546.0,551.6555314322113,428.5193546485728,746.69818838129
415780.0,9286.0,415780.0,10754.0,415780.0,26578.0,545.9692690772047,424.5728733148882,739.9517611708663
415780.0,9315.0,415780.0,10783.0,415780.0,26552.0,540.2040459621138,420.56842070024345,733.1107509109302
415780.0,9315.0,415780.0,10759.0,415780.0,26586.0,534.3610506475976,416.5060603534561,726.177539350718
415780.0,9260.0,415780.0,10707.0,415780.0,26544.0,528.4421896770857,412.38638814838924,719.1548506705566
415790.0,9226.0,415790.0,10704.0,415790.0,26512.0,522.4501291637112,408.2102934090374,712.0458766186791
415790.0,9228.0,415790.0,10746.0,415790.0,26521.0,516.3876894879082,403.9784226613066,704.854014440843
415790.0,9279.0,415790.0,10728.0,415790.0,26543.0,510.2573842935056,399.69114939911407,697.5825939081631
415790.0,9257.0,415790.0,10773.0,415790.0,26540.0,504.0617067583801,395.3490741263259,690.2350871171328
415790.0,9221.0,415790.0,10724.0,415790.0,26487.0,497.80372795373324,390.9535811052713,682.8155277463129
415790.0,9178.0,415790.0,10648.0,415790.0,26449.0,491.4871531950479,386.5069519261221,675.3284434923889
415801.0,9158.0,415801.0,10636.0,415801.0,26437.0,485.11570878731754,382.0116392020809,667.7781821532203
415801.0,9165.0,415801.0,10668.0,415801.0,26462.0,478.6924256876685,377.46918803821023,660.1682524948283
415801.0,9199.0,415801.0,10690.0,415801.0,26493.0,472.21939268050767,372.87986360615236,652.5013152106269
415801.0,9214.0,415801.0,10751.0,415801.0,26475.0,465.69819145612405,368.2432761914778,644.7798157602681
415801.0,9173.0,415801.0,10698.0,415801.0,26445.0,459.1306593661267,363.55945729235503,637.006623544375
415801.0,9154.0,415801.0,10657.0,415801.0,26401.0,452.51928768171564,358.8295206171555,629.1850762813801
415811.0,9127.0,415811.0,10610.0,415811.0,26411.0,445.8670043457788,354.05532109261026,621.3184922230288
415811.0,9162.0,415811.0,10686.0,415811.0,26419.0,439.17679444727423,349.2386177751434,613.4097511438008
415811.0,9148.0,415811.0,10670.0,415811.0,26439.0,432.45169258296517,344.3808415107476,605.4614033796745
415811.0,9151.0,415811.0,10699.0,415811.0,26441.0,425.6951470060127,339.4836797763727,597.4762258684566
415811.0,9098.0,415811.0,10591.0,415811.0,26342.0,418.9113001200249,334.5496165466575,589.4576685770611
415811.0,9070.0,415811.0,10581.0,415811.0,26349.0,412.1048027184479,329.58161359115115,581.4095739845181
415821.0,9058.0,415821.0,10578.0,415821.0,26368.0,405.2802225452289,324.58211525726006,573.3354325901123
415821.0,9065.0,415821.0,10664.0,415821.0,26384.0,398.44150641234165,319.55246338505503,565.2381639207198
415821.0,9107.0,415821.0,10663.0,415821.0,26328.0,391.5919510641439,314.4934589094456,557.1205281554273
415821.0,9083.0,415821.0,10670.0,415821.0,26374.0,384.73473527340207,309.4065722633403,548.9854377048028
415821.0,9044.0,415821.0,10618.0,415821.0,26304.0,377.87349902892095,304.29477853953966,540.8359865121575
415821.0,9024.0,415821.0,10536.0,415821.0,26280.0,371.0123605635996,299.162428449757,532.6752839964499
415832.0,9023.0,415832.0,10568.0,415832.0,26323.0,364.155480380589,294.0142804532044,524.506069250096
415832.0,9048.0,415832.0,10631.0,415832.0,26305.0,357.3068075899672,288.8546936361436,516.330570844023
415832.0,9061.0,415832.0,10603.0,415832.0,26314.0,350.47036661657,283.6879100782414,508.1508792775826
415832.0,8980.0,415832.0,10609.0,415832.0,26274.0,343.6507643971445,278.51890848909113,499.9693341590623
415832.0,8939.0,415832.0,10539.0,415832.0,26269.0,336.8531205849638,273.35375639803107,491.78855570025485
415832.0,8924.0,415832.0,10431.0,415832.0,26221.0,330.0821878837404,268.1990094415405,483.6111730600486
415842.0,8954.0,415842.0,10549.0,415842.0,26243.0,323.34147386005384,263.06042873478134,475.43942956117814
415842.0,8957.0,415842.0,10524.0,415842.0,26262.0,316.63312095535764,257.9422303547797,467.27501074966403
415842.0,8981.0,415842.0,10585.0,415842.0,26228.0,309.9584474438891,252.84763374138976,459.1193137818933
415842.0,8960.0,415842.0,10515.0,415842.0,26208.0,303.3186554704355,247.77985688859866,450.97375940582936
415842.0,8937.0,415842.0,10465.0,415842.0,26194.0,296.7152973213766,242.74243504741406,442.8397032898463
415842.0,8895.0,415842.0,10470.0,415842.0,26180.0,290.1502550101079,237.73862807841704,434.7181308065673
415852.0,8921.0,415852.0,10517.0,415852.0,26258.0,283.62535656842977,232.77071368512287,426.6096168688804
415852.0,8902.0,415852.0,10548.0,415852.0,26203.0,277.14211264989297,227.84015197449253,418.51483814759695
415852.0,8894.0,415852.0,10513.0,415852.0,26194.0,270.7017777798269,222.94848162964354,410.4352308743239
415852.0,8871.0,415852.0,10433.0,415852.0,26136.0,264.30543466590177,218.09784673523757,402.37305149251495
415852.0,8826.0,415852.0,10398.0,415852.0,26156.0,257.95381820440286,213.2904034001911,394.3308664122802
415852.0,8811.0,415852.0,10440.0,415852.0,26114.0,251.64683664775157,208.527132277688,386.31105564893517
415863.0,8864.0,415863.0,10460.0,415863.0,26151.0,245.38310561052947,203.8072772218287,378.31561763095067
415863.0,8901.0,415863.0,10511.0,415863.0,26129.0,239.16015464731765,199.12887550694046,370.3462730743091
415863.0,8875.0,415863.0,10495.0,415863.0,26143.0,232.97539952972704,194.48984941203287,362.40477880861295
415863.0,8856.0,415863.0,10451.0,415863.0,26078.0,226.8270343743693,189.8888517555141,354.4931701940286
415863.0,8800.0,415863.0,10380.0,415863.0,26060.0,220.71414753258864,185.3252218929594,346.61357791479975
415863.0,8799.0,415863.0,10428.0,415863.0,26081.0,214.63619081107163,180.79814328575156,338.76771621874275
415873.0,8833.0,415873.0,10510.0,415873.0,26090.0,208.59244357080922,176.30614201742947,330.95666583726404
