c_ts,c_val,d_ts,d_val,e_ts,e_val,c_val_filtered,d_val_filtered,e_val_filtered
379496.0,8262.0,379496.0,23796.0,379496.0,22412.0,-72.92681210587757,-144.78328484037053,-24.114624664544095
379496.0,8283.0,379496.0,23818.0,379496.0,22425.0,-69.09299781943551,-137.72702996908498,-19.03170785482895
379506.0,8308.0,379506.0,23853.0,379506.0,22457.0,-65.1466197425784,-130.53868511264406,-13.873602196499021
379506.0,8303.0,379506.0,23860.0,379506.0,22460.0,-61.09996535765009,-123.24231015038984,-8.657765647530766
379506.0,8318.0,379506.0,23875.0,379506.0,22466.0,-56.9647896660381,-115.86135597709065,-3.4011957935818344
379506.0,8311.0,379506.0,23906.0,379506.0,22473.0,-52.75220088469926,-108.4183446760468,1.8797703318347345
379506.0,8334.0,379506.0,23938.0,379506.0,22509.0,-48.47265854848776,-100.9345241919227,7.169561965792894
379506.0,8367.0,379506.0,23992.0,379506.0,22538.0,-44.135877241242014,-93.42927012390957,12.453677813779564
379516.0,8351.0,379516.0,23954.0,379516.0,22522.0,-39.750524315259455,-85.9193391925844,17.719207463540954
379516.0,8326.0,379516.0,23909.0,379516.0,22488.0,-35.324014845333096,-78.41857480403124,22.955104000712396
379516.0,8303.0,379516.0,23871.0,379516.0,22484.0,-30.862830541845554,-70.93859235910998,28.151827784013676
379516.0,8307.0,379516.0,23874.0,379516.0,22471.0,-26.373255121722025,-63.49010993651871,33.30061875392572
379516.0,8315.0,379516.0,23881.0,379516.0,22493.0,-21.86203213226966,-56.08409625635616,38.392895426856754
379516.0,8343.0,379516.0,23920.0,379516.0,22492.0,-17.336625269019677,-48.732280224397726,43.41998930982638
379527.0,8352.0,379527.0,23939.0,379527.0,22508.0,-12.805085012796411,-41.447045977120894,48.373142164712974
379527.0,8367.0,379527.0,23973.0,379527.0,22517.0,-8.275727764621251,-34.24095386919129,53.243614625371336
379527.0,8366.0,379527.0,23970.0,379527.0,22520.0,-3.756859949201626,-27.12618854090624,58.02281943034308
379527.0,8389.0,379527.0,23983.0,379527.0,22540.0,0.7433762767042822,-20.11418662986145,62.702449196752866
379527.0,8428.0,379527.0,24071.0,379527.0,22569.0,5.217199897075005,-13.215348623255693,67.27466781744559
379527.0,8425.0,379527.0,24053.0,379527.0,22572.0,9.657606812906124,-6.4384297435699125,71.73246895640943
379537.0,8401.0,379537.0,24004.0,379537.0,22569.0,14.058759898635344,0.21011726028513067,76.07005011283769
379537.0,8384.0,379537.0,23977.0,379537.0,22551.0,18.41589215454627,6.725949165956109,80.2829029667949
379537.0,8388.0,379537.0,23982.0,379537.0,22530.0,22.72474742975143,13.105803553676736,84.36751496056687
379537.0,8393.0,379537.0,23981.0,379537.0,22533.0,26.98102433053424,19.3465228693413,88.32081583107825
379537.0,8385.0,379537.0,23976.0,379537.0,22535.0,31.180072376040812,25.44453006663673,92.1396505110803
379537.0,8413.0,379537.0,24012.0,379537.0,22555.0,35.316753525863334,31.395589996170003,95.82052135166691
379548.0,8413.0,379548.0,24032.0,379548.0,22570.0,39.385432805314394,37.194842496411525,99.35964631777279
379548.0,8427.0,379548.0,24055.0,379548.0,22569.0,43.38010628934916,42.83717005870713,102.75320779960063
379548.0,8442.0,379548.0,24078.0,379548.0,22583.0,47.29457151108912,48.317724156707584,105.9975897882436
379548.0,8467.0,379548.0,24092.0,379548.0,22614.0,51.122644533608536,53.632428264858845,109.08957722730318
379548.0,8506.0,379548.0,24166.0,379548.0,22618.0,54.85855744634142,58.77852652188062,112.02668562195262
379548.0,8473.0,379548.0,24124.0,379548.0,22611.0,58.49748386325541,63.75528541940707,114.80755017474507
379558.0,8456.0,379558.0,24073.0,379558.0,22594.0,62.03576964664714,68.56439933261547,117.43205072992208
379558.0,8448.0,379558.0,24029.0,379558.0,22572.0,65.47057354803005,73.20940173324692,119.90103293309417
379558.0,8441.0,379558.0,24023.0,379558.0,22563.0,68.7992254927671,77.69428845842296,122.2157551317766
379558.0,8445.0,379558.0,24047.0,379558.0,22580.0,72.01871139851843,82.02229194233351,124.37733419850576
379558.0,8456.0,379558.0,24047.0,379558.0,22583.0,75.12538175961271,86.19535472590852,126.38647558705762
379558.0,8486.0,379558.0,24099.0,379558.0,22586.0,78.1149185022642,90.21420501136487,128.24350580343096
379568.0,8484.0,379568.0,24103.0,379568.0,22604.0,80.98257034740158,94.07878933045245,129.94850692170584
379568.0,8491.0,379568.0,24114.0,379568.0,22590.0,83.72346051752166,97.78883361815613,131.5014519470238
379568.0,8519.0,379568.0,24117.0,379568.0,22604.0,86.33279289750627,101.344239248561,132.90229649945945
379568.0,8532.0,379568.0,24183.0,379568.0,22624.0,88.80609036798998,104.74534843912448,134.15104705530416
379568.0,8555.0,379568.0,24193.0,379568.0,22657.0,91.13959902669387,107.99347364535268,135.24802025881064
379568.0,8519.0,379568.0,24126.0,379568.0,22613.0,93.330664160233,111.09153712566953,136.19429127626827
379579.0,8501.0,379579.0,24088.0,379579.0,22601.0,95.37771179109706,114.04396459802186,136.99185155742714
379579.0,8492.0,379579.0,24092.0,379579.0,22591.0,97.27973267678237,116.85564266812031,137.64321693286678
379579.0,8488.0,379579.0,24076.0,379579.0,22586.0,99.03561487321136,119.53079593029238,138.1508583507066
379579.0,8511.0,379579.0,24078.0,379579.0,22590.0,100.64371143278407,122.07233202532163,138.5168234944525
379579.0,8523.0,379579.0,24109.0,379579.0,22588.0,102.101778867771,124.48155132113575,138.74256539780947
379579.0,8523.0,379579.0,24131.0,379579.0,22588.0,103.40719334253552,126.75821910408553,138.82888490261166
379589.0,8516.0,379589.0,24150.0,379589.0,22626.0,104.55715527368761,128.9010204753655,138.77598084267382
379589.0,8539.0,379589.0,24157.0,379589.0,22627.0,105.54872254683363,130.90813284858973,138.58373137282013
379589.0,8550.0,379589.0,24193.0,379589.0,22649.0,106.37886266759821,132.77771371238953,138.25218821875106
379589.0,8593.0,379589.0,24251.0,379589.0,22671.0,107.04476071423525,134.50848381952636,137.78210778151603
379589.0,8566.0,379589.0,24230.0,379589.0,22632.0,107.54433259188053,136.1005819157857,137.17539564050804
379589.0,8559.0,379589.0,24163.0,379589.0,22609.0,107.87656928576249,137.55616892166978,136.43518919957037
379599.0,8525.0,379599.0,24139.0,379599.0,22598.0,108.04137826370021,138.8790287357532,135.56540032737263
379599.0,8528.0,379599.0,24121.0,379599.0,22579.0,108.03902729517984,140.07338010961945,134.57004371400308
379599.0,8523.0,379599.0,24123.0,379599.0,22587.0,107.86956913107656,141.14277170795776,133.45271104725666
379599.0,8528.0,379599.0,24118.0,379599.0,22578.0,107.53249798332365,142.08945688184644,132.21626576408613
379599.0,8546.0,379599.0,24171.0,379599.0,22604.0,107.02666613972306,142.91421162452565,130.8627623132538
379599.0,8538.0,379599.0,24172.0,379599.0,22601.0,106.35038990148712,143.61660980635003,129.39358983775088
379610.0,8555.0,379610.0,24183.0,379610.0,22608.0,105.50162345623264,144.1955897165123,127.80974711772873
379610.0,8562.0,379610.0,24216.0,379610.0,22602.0,104.47812990797303,144.6499739584167,126.11207266228706
379610.0,8594.0,379610.0,24242.0,379610.0,22657.0,103.27774666483822,144.9789751047585,124.30145419846795
379610.0,8594.0,379610.0,24261.0,379610.0,22631.0,101.89882215277436,145.1828773710858,122.37923608676536
379610.0,8571.0,379610.0,24207.0,379610.0,22616.0,100.34062559478667,145.26363124163169,120.34765261302508
379610.0,8557.0,379610.0,24151.0,379610.0,22588.0,98.60338789607817,145.2247599894892,118.20981153579908
379620.0,8541.0,379620.0,24159.0,379620.0,22584.0,96.68792913611315,145.07042625244463,115.96922579327294
379620.0,8533.0,379620.0,24146.0,379620.0,22565.0,94.59514991290294,144.80434864906027,113.62927980407878
379620.0,8551.0,379620.0,24155.0,379620.0,22579.0,92.3256475783896,144.4292098324853,111.19285286401305
379620.0,8549.0,379620.0,24163.0,379620.0,22587.0,89.87960709541349,143.94650325553835,108.66218655444604
379620.0,8563.0,379620.0,24157.0,379620.0,22594.0,87.25694423738867,143.3565736953248,106.03903249777184
379620.0,8549.0,379620.0,24190.0,379620.0,22578.0,84.45751089368275,142.65875030391476,103.32491241761684
379630.0,8558.0,379630.0,24191.0,379630.0,22585.0,81.4812107017637,141.8516005042975,100.52124759814286
379630.0,8594.0,379630.0,24268.0,379630.0,22595.0,78.32811000398664,140.93344033807193,97.62938399933306
379630.0,8585.0,379630.0,24287.0,379630.0,22626.0,74.99876673709679,139.90324498655838,94.65077808666321
379630.0,8568.0,379630.0,24228.0,379630.0,22589.0,71.49464165826504,138.76167821109618,91.58739392113418
379630.0,8551.0,379630.0,24212.0,379630.0,22577.0,67.8181689283233,137.5114272009751,88.44192897599395
379630.0,8518.0,379630.0,24167.0,379630.0,22545.0,63.97239291281325,136.1565675790473,85.21755493871427
379641.0,8517.0,379641.0,24155.0,379641.0,22551.0,59.96038968720951,134.70153726818637,81.91737173786845
379641.0,8514.0,379641.0,24139.0,379641.0,22540.0,55.784738261664955,133.15021086368753,78.54395920458346
379641.0,8525.0,379641.0,24140.0,379641.0,22551.0,51.44726808835908,131.50523223246276,75.09918817147546
379641.0,8543.0,379641.0,24186.0,379641.0,22565.0,46.94914145879386,129.76773878941793,71.58427878630174
379641.0,8531.0,379641.0,24196.0,379641.0,22558.0,42.29115537875988,127.93762105339258,68.00004931488623
379641.0,8533.0,379641.0,24182.0,379641.0,22557.0,37.47402812822763,126.01412114308263,64.34718944599265
379651.0,8555.0,379651.0,24247.0,379651.0,22574.0,32.49856524250899,123.99636141931472,60.62643462114482
379651.0,8558.0,379651.0,24265.0,379651.0,22611.0,27.365895116234242,121.88392875986182,56.83883766326434
379651.0,8554.0,379651.0,24287.0,379651.0,22581.0,22.077836934385573,119.6777816152655,52.9862935009553
379651.0,8519.0,379651.0,24230.0,379651.0,22554.0,16.637113521396216,117.38105284347014,49.071930418304376
379651.0,8504.0,379651.0,24171.0,379651.0,22537.0,11.047160129818607,114.99903998369106,45.09993266606075
379651.0,8495.0,379651.0,24142.0,379651.0,22509.0,5.311640386531579,112.53822097261536,41.07495825568595
379661.0,8508.0,379661.0,24140.0,379661.0,22498.0,-0.5659623935895155,110.00491440103332,37.001514052799436
379661.0,8489.0,379661.0,24137.0,379661.0,22506.0,-6.582464126597287,107.40434705960124,32.883462067655955
379661.0,8493.0,379661.0,24134.0,379661.0,22497.0,-12.734950881762074,104.7402823862457,28.723784297822935
379661.0,8478.0,379661.0,24154.0,379661.0,22496.0,-19.020796186978373,102.01496478440413,24.52457362241211
379661.0,8491.0,379661.0,24191.0,379661.0,22511.0,-25.437706598640247,99.22933314659261,20.287104944478795
379661.0,8497.0,379661.0,24166.0,379661.0,22519.0,-31.98366003286418,96.383525768375,16.012020915644207
379672.0,8504.0,379672.0,24239.0,379672.0,22526.0,-38.65666205688947,93.47747626811108,11.699684814558832
379672.0,8528.0,379672.0,24266.0,379672.0,22552.0,-45.45435259004769,90.51164299665584,7.350625675533827
379672.0,8499.0,379672.0,24240.0,379672.0,22533.0,-52.37356629467844,87.48798323161836,2.9660108896903377
379672.0,8464.0,379672.0,24208.0,379672.0,22500.0,-59.41013005970361,84.4105973942493,-1.4520642115481106
379672.0,8456.0,379672.0,24115.0,379672.0,22478.0,-66.55915469355102,81.28538551221291,-5.900771365055938
379672.0,8427.0,379672.0,24123.0,379672.0,22453.0,-73.8156145397577,78.1188210340625,-10.377156188329925
379682.0,8427.0,379682.0,24109.0,379682.0,22487.0,-81.17486304042062,74.91660273716849,-14.878719757482827
379682.0,8421.0,379682.0,24121.0,379682.0,22461.0,-88.63297107514583,71.68290295654884,-19.403618865719512
379682.0,8441.0,379682.0,24147.0,379682.0,22465.0,-96.18682143890392,68.4202827923418,-23.95057610664413
379682.0,8428.0,379682.0,24172.0,379682.0,22477.0,-103.83393732432707,65.1300616738254,-28.51878720977795
379682.0,8418.0,379682.0,24142.0,379682.0,22451.0,-111.57224323578512,61.81290441830187,-33.107841860829716
379682.0,8447.0,379682.0,24189.0,379682.0,22480.0,-119.39992233981617,58.46927360877103,-37.71762160770058
379692.0,8448.0,379692.0,24222.0,379692.0,22499.0,-127.31519021251371,55.09983023379816,-42.348108085061
379692.0,8443.0,379692.0,24243.0,379692.0,22507.0,-135.31587374322007,51.70618528562956,-46.998917407717265
379692.0,8421.0,379692.0,24162.0,379692.0,22458.0,-143.3990886967688,48.29169063312206,-51.668791443145295
379692.0,8402.0,379692.0,24112.0,379692.0,22431.0,-151.5612669496123,44.86136450960851,-56.35560857373976
379692.0,8384.0,379692.0,24105.0,379692.0,22427.0,-159.798466711208,41.42079163637584,-61.056970653069776
379692.0,8366.0,379692.0,24093.0,379692.0,22431.0,-168.10678573211555,37.97488826684712,-65.77080362610567
379703.0,8363.0,379703.0,24088.0,379703.0,22435.0,-176.48274000857103,34.52720790818,-70.49555095119179
379703.0,8366.0,379703.0,24083.0,379703.0,22416.0,-184.92349275317045,31.079654008243125,-75.23008535758959
379703.0,8375.0,379703.0,24112.0,379703.0,22435.0,-193.42683660361652,27.63239308039425,-79.97361826168554
379703.0,8366.0,379703.0,24118.0,379703.0,22415.0,-201.99096761256862,24.184043083246223,-84.72564330661702
379703.0,8350.0,379703.0,24129.0,379703.0,22429.0,-210.61426560680852,20.732112763055042,-89.48585131718428
379703.0,8383.0,379703.0,24200.0,379703.0,22424.0,-219.2951882345272,17.273598906459213,-94.25402073535646
379713.0,8381.0,379713.0,24219.0,379713.0,22459.0,-228.03205614804978,13.805907518733576,-99.02980664760524
379713.0,8368.0,379713.0,24161.0,379713.0,22425.0,-236.82264033296855,10.327920924420411,-103.81237984596615
379713.0,8343.0,379713.0,24133.0,379713.0,22411.0,-245.66390376965214,6.840366973288795,-108.60018306878756
379713.0,8303.0,379713.0,24087.0,379713.0,22369.0,-254.5521868935412,3.3451605186039473,-113.3911343157771
379713.0,8297.0,379713.0,24066.0,379713.0,22376.0,-263.4837499307751,-0.15571418405409077,-118.18319228907635
379713.0,8277.0,379713.0,24055.0,379713.0,22360.0,-272.4553686638918,-3.661229753612645,-122.97488939664481
379723.0,8294.0,379723.0,24090.0,379723.0,22367.0,-281.4647004209927,-7.171949151343355,-127.76559560220478
379723.0,8284.0,379723.0,24128.0,379723.0,22386.0,-290.51032932066767,-10.689993162281901,-132.5555111415341
379723.0,8285.0,379723.0,24120.0,379723.0,22371.0,-299.5916021518995,-14.218386393626965,-137.3454387182031
379723.0,8283.0,379723.0,24126.0,379723.0,22385.0,-308.7084370711891,-17.760318012827746,-142.13648695394318
379723.0,8290.0,379723.0,24131.0,379723.0,22390.0,-317.86114763927503,-21.31873199822204,-146.92982649464153
379723.0,8318.0,379723.0,24168.0,379723.0,22410.0,-327.05015268636043,-24.896056576949213,-151.7263874365558
379734.0,8291.0,379734.0,24207.0,379734.0,22391.0,-336.27551938445515,-28.493661946997406,-156.52645756569254
379734.0,8291.0,379734.0,24147.0,379734.0,22353.0,-345.53657427059983,-32.11109275819974,-161.32946672902239
379734.0,8250.0,379734.0,24068.0,379734.0,22333.0,-354.83185744910185,-35.745858493020705,-166.13425886358252
379734.0,8237.0,379734.0,24054.0,379734.0,22321.0,-364.15942606673696,-39.39436661501259,-170.93971813313365
379734.0,8220.0,379734.0,24046.0,379734.0,22333.0,-373.5173290177251,-43.05334489382511,-175.7452958902673
379734.0,8197.0,379734.0,24041.0,379734.0,22338.0,-382.9040627058396,-46.72077352728573,-180.5511531494048
379744.0,8214.0,379744.0,24041.0,379744.0,22326.0,-392.3188986397538,-50.396221918294366,-185.35800155803554
379744.0,8218.0,379744.0,24065.0,379744.0,22329.0,-401.76196148309805,-54.08087955560122,-190.16692618209655
379744.0,8202.0,379744.0,24080.0,379744.0,22311.0,-411.23402317875224,-57.777313390711825,-194.97934388672778
379744.0,8194.0,379744.0,24090.0,379744.0,22323.0,-420.7362883706105,-61.488969889201904,-199.79704061438204
379744.0,8215.0,379744.0,24138.0,379744.0,22352.0,-430.2703228791753,-65.21954512669683,-204.62209930929362
379744.0,8248.0,379744.0,24175.0,379744.0,22365.0,-439.83781354303653,-68.97215402188885,-209.45649784807702
379754.0,8217.0,379754.0,24126.0,379754.0,22334.0,-449.43998331736555,-72.74835931080254,-214.30151857469457
379754.0,8183.0,379754.0,24105.0,379754.0,22316.0,-459.07713310726723,-76.54767538264915,-219.15748340594325
379754.0,8143.0,379754.0,24022.0,379754.0,22290.0,-468.7488405141942,-80.36802655172414,-224.0240289827829
379754.0,8149.0,379754.0,24023.0,379754.0,22279.0,-478.4546434677646,-84.20691490523676,-228.9006466288521
379754.0,8124.0,379754.0,24009.0,379754.0,22252.0,-488.1946400850292,-88.06263804741641,-233.78721391935824
379754.0,8121.0,379754.0,24026.0,379754.0,22282.0,-497.9697902499182,-91.93499016380486,-238.68439644572467
379765.0,8153.0,379765.0,24057.0,379765.0,22272.0,-507.78198366334186,-95.82531086075198,-243.59375787737346
379765.0,8136.0,379765.0,24080.0,379765.0,22285.0,-517.6338136206411,-99.73601130254968,-248.51755401257682
379765.0,8133.0,379765.0,24063.0,379765.0,22269.0,-527.5281778810377,-103.66985485735272,-253.45845563920588
379765.0,8128.0,379765.0,24085.0,379765.0,22297.0,-537.4680364151541,-107.6294029966449,-258.41934584332216
379765.0,8152.0,379765.0,24141.0,379765.0,22305.0,-547.4562814191282,-111.6165980354578,-263.4030479993441
379765.0,8152.0,379765.0,24092.0,379765.0,22295.0,-557.4954301119186,-115.63214872548423,-268.4119054282845
379775.0,8120.0,379775.0,24067.0,379775.0,22293.0,-567.587211056576,-119.67506874835352,-273.4474352466708
379775.0,8099.0,379775.0,24024.0,379775.0,22246.0,-577.7324466474854,-123.74297722771408,-278.5102991801174
379775.0,8075.0,379775.0,23986.0,379775.0,22234.0,-587.9313753922397,-127.8330236748433,-283.6006560512086
379775.0,8064.0,379775.0,23990.0,379775.0,22217.0,-598.184144803556,-131.9429234086491,-288.71875830257795
379775.0,8050.0,379775.0,23972.0,379775.0,22227.0,-608.4912158512343,-136.07173318744344,-293.8654566054204
379775.0,8057.0,379775.0,23993.0,379775.0,22208.0,-618.8535919433463,-140.2202112881094,-299.04241219027466
379786.0,8065.0,379786.0,24019.0,379786.0,22234.0,-629.2728117065839,-144.3907681279348,-304.2520937695697
379786.0,8059.0,379786.0,24022.0,379786.0,22243.0,-639.7507035093786,-148.58704180775953,-309.4975873297892
379786.0,8041.0,379786.0,24030.0,379786.0,22220.0,-650.2891000044899,-152.81331706459633,-314.78224097696807
379786.0,8049.0,379786.0,24063.0,379786.0,22268.0,-660.8897150064098,-157.07401215582917,-320.10932485049165
379786.0,8065.0,379786.0,24111.0,379786.0,22266.0,-671.55404908139,-161.37304736324708,-325.48165136225055
379786.0,8049.0,379786.0,24099.0,379786.0,22259.0,-682.283103212012,-165.71291487384866,-330.9010403097599
379796.0,8027.0,379796.0,24029.0,379796.0,22214.0,-693.0770785777204,-170.0939558507749,-336.36799709478294
379796.0,7992.0,379796.0,23994.0,379796.0,22205.0,-703.9354206187484,-174.5145913712894,-341.881945999021
379796.0,7975.0,379796.0,23949.0,379796.0,22194.0,-714.8572458259886,-178.97244852893115,-347.4417776758869
379796.0,7963.0,379796.0,23953.0,379796.0,22185.0,-725.8418821147272,-183.4656329619349,-353.0462879137006
379796.0,7975.0,379796.0,23965.0,379796.0,22186.0,-736.8892172222811,-187.9935427762096,-358.6943883001693
379796.0,7974.0,379796.0,23990.0,379796.0,22168.0,-747.9996972961087,-192.55700535035234,-364.3851920323551
379806.0,7965.0,379806.0,23992.0,379806.0,22189.0,-759.1740768605416,-197.1578807223757,-370.1180396639726
379806.0,7984.0,379806.0,24024.0,379806.0,22181.0,-770.413128592427,-201.7984674717326,-375.89241220162324
379806.0,7961.0,379806.0,24012.0,379806.0,22194.0,-781.7173634777506,-206.4809113920285,-381.7076951456158
379806.0,7984.0,379806.0,24076.0,379806.0,22219.0,-793.086747162016,-211.20661081777024,-387.5628218273411
379806.0,7975.0,379806.0,24067.0,379806.0,22183.0,-804.520406410455,-215.97549105125276,-393.4558426136447
379806.0,7971.0,379806.0,24035.0,379806.0,22153.0,-816.01630746974,-220.78528749087405,-399.3837175034453
379817.0,7903.0,379817.0,23951.0,379817.0,22136.0,-827.5711228999626,-225.6314789881851,-405.34263371453613
379817.0,7893.0,379817.0,23942.0,379817.0,22125.0,-839.1806026416704,-230.50820541828904,-411.3286014613264
379817.0,7873.0,379817.0,23918.0,379817.0,22136.0,-850.8402956172131,-235.40957260200076,-417.3378727036717
379817.0,7864.0,379817.0,23927.0,379817.0,22125.0,-862.5461322550929,-240.33056764554766,-423.3670352582098
379817.0,7877.0,379817.0,23943.0,379817.0,22145.0,-874.294653558358,-245.26737238420446,-429.4128795291503
379817.0,7874.0,379817.0,23962.0,379817.0,22133.0,-886.0829232706578,-250.21718234265066,-435.4721553454431
379827.0,7869.0,379827.0,23933.0,379827.0,22143.0,-897.9082365795457,-255.1777762058639,-441.54129995959954
379827.0,7871.0,379827.0,23968.0,379827.0,22128.0,-909.7678237785678,-260.14718397459717,-447.61622028893805
379827.0,7883.0,379827.0,24012.0,379827.0,22157.0,-921.6585854058904,-265.1233628151575,-453.69211737536193
379827.0,7903.0,379827.0,24034.0,379827.0,22157.0,-933.576693008456,-270.10344962297177,-459.7632034441034
379827.0,7865.0,379827.0,24006.0,379827.0,22164.0,-945.5170677793573,-275.08276239212705,-465.8222631519993
379827.0,7869.0,379827.0,23978.0,379827.0,22122.0,-957.4730508734549,-280.05427093722284,-471.86030408699986
379837.0,7809.0,379837.0,23938.0,379837.0,22097.0,-969.4364821058225,-285.0088588957552,-477.8666306684956
379837.0,7805.0,379837.0,23902.0,379837.0,22067.0,-981.3981265347749,-289.9361242705829,-483.8293882828932
379837.0,7794.0,379837.0,23888.0,379837.0,22046.0,-993.3482164593867,-294.8253504798022,-489.7363068148169
379837.0,7795.0,379837.0,23887.0,379837.0,22054.0,-1005.2767792565115,-299.66632241806053,-495.57533634202053
379837.0,7812.0,379837.0,23930.0,379837.0,22090.0,-1017.1735975651986,-304.4496741881102,-501.33489003800895
379837.0,7809.0,379837.0,23923.0,379837.0,22101.0,-1029.0278790411026,-309.1666393098039,-507.0034983684536
379848.0,7787.0,379848.0,23923.0,379848.0,22085.0,-1040.8278505278977,-313.808509292134,-512.5691299479581
379848.0,7773.0,379848.0,23942.0,379848.0,22089.0,-1052.560580555407,-318.3662238139161,-518.0187116725067
379848.0,7794.0,379848.0,24000.0,379848.0,22097.0,-1064.2120285230308,-322.8299612600964,-523.3379557802557
379848.0,7799.0,379848.0,23998.0,379848.0,22106.0,-1075.7669425519766,-327.18835148013045,-528.5111826155601
379848.0,7777.0,379848.0,23947.0,379848.0,22068.0,-1087.2084931332538,-331.4276348907665,-533.5210788494899
379848.0,7739.0,379848.0,23882.0,379848.0,22040.0,-1098.5180559047196,-335.5316243304489,-538.3487356970736
379858.0,7723.0,379858.0,23867.0,379858.0,22025.0,-1109.6754699198082,-339.482684623022,-542.974139704987
379858.0,7740.0,379858.0,23862.0,379858.0,22021.0,-1120.6595008284862,-343.26297956406245,-547.3767989913737
379858.0,7703.0,379858.0,23853.0,379858.0,22012.0,-1131.4480684462796,-346.8552563227081,-551.5361534503497
379858.0,7709.0,379858.0,23873.0,379858.0,22024.0,-1142.0182839145282,-350.2431111590088,-555.4317311264674
379858.0,7717.0,379858.0,23902.0,379858.0,22036.0,-1152.3464853683577,-353.41087462189626,-559.0430878478617
379858.0,7708.0,379858.0,23888.0,379858.0,22034.0,-1162.408147381033,-356.3431774707901,-562.3495469703887
379868.0,7697.0,379868.0,23899.0,379868.0,22030.0,-1172.1776770921592,-359.02448519993317,-565.3299058413302
379868.0,7706.0,379868.0,23938.0,379868.0,22031.0,-1181.6282981613917,-361.43877166058974,-567.9622857179402
379868.0,7725.0,379868.0,23974.0,379868.0,22066.0,-1190.7319201668408,-363.569006471973,-570.2240205958842
379868.0,7722.0,379868.0,23936.0,379868.0,22038.0,-1199.4587899207563,-365.39636972777396,-572.0913934047105
379868.0,7690.0,379868.0,23932.0,379868.0,22018.0,-1207.777111795803,-366.89976524546546,-573.5394287486586
379868.0,7678.0,379868.0,23835.0,379868.0,22010.0,-1215.6530205087292,-368.0561227106966,-574.5420890159739
379879.0,7635.0,379879.0,23834.0,379879.0,21985.0,-1223.050978218347,-368.84146106187706,-575.0727653809258
379879.0,7634.0,379879.0,23834.0,379879.0,21976.0,-1229.9343885836906,-369.23218768062185,-575.1048054982302
379879.0,7620.0,379879.0,23838.0,379879.0,21972.0,-1236.2661860759401,-369.20591168020735,-574.6120099355292
379879.0,7637.0,379879.0,23844.0,379879.0,21988.0,-1242.0091851803631,-368.7416324059343,-573.5689828463671
379879.0,7614.0,379879.0,23870.0,379879.0,21993.0,-1247.1261583006367,-367.8196337317156,-571.9512041603491
379879.0,7643.0,379879.0,23857.0,379879.0,21985.0,-1251.5797953430454,-366.42125077693674,-569.7349192241868
379889.0,7621.0,379889.0,23864.0,379889.0,21999.0,-1255.3326271317155,-364.52865943846535,-566.8970692951586
379889.0,7648.0,379889.0,23954.0,379889.0,22022.0,-1258.3469138610685,-362.12465898864576,-563.4152515134526
379889.0,7654.0,379889.0,23957.0,379889.0,22014.0,-1260.5844815840226,-359.1920071512595,-559.267549226503
379889.0,7639.0,379889.0,23895.0,379889.0,21994.0,-1262.00650795733,-355.71251666320074,-554.4323973118114
379889.0,7593.0,379889.0,23845.0,379889.0,21971.0,-1262.5735276327932,-351.6670147879214,-548.8888312853381
379889.0,7586.0,379889.0,23808.0,379889.0,21962.0,-1262.2459621034614,-347.0365225406548,-542.6171330301942
379899.0,7577.0,379899.0,23812.0,379899.0,21960.0,-1260.9849546869627,-341.8038204597681,-535.5995682331691
379899.0,7585.0,379899.0,23802.0,379899.0,21966.0,-1258.7530363402416,-335.9546061966531,-527.8209530722582
379899.0,7596.0,379899.0,23830.0,379899.0,21992.0,-1255.5144495110076,-329.47808054150846,-519.2689475097948
379899.0,7596.0,379899.0,23892.0,379899.0,21992.0,-1251.235232415419,-322.3669886451524,-509.93408174713585
379899.0,7613.0,379899.0,23877.0,379899.0,22021.0,-1245.883220719905,-314.61713095042256,-499.80963766056664
379899.0,7610.0,379899.0,23884.0,379899.0,21989.0,-1239.4280608133552,-306.22678119419373,-488.89158182425393
379910.0,7626.0,379910.0,23912.0,379910.0,22040.0,-1231.8412579678284,-297.19648719424816,-477.17866771164853
379910.0,7644.0,379910.0,23978.0,379910.0,22093.0,-1223.096230010394,-287.5289327095517,-464.6724461447718
379910.0,7662.0,379910.0,23990.0,379910.0,22074.0,-1213.1682783809647,-277.2283443126356,-451.3768582132129
379910.0,7662.0,379910.0,23953.0,379910.0,22064.0,-1202.0344956466379,-266.29977912976227,-437.2978457135661
379910.0,7628.0,379910.0,23909.0,379910.0,22066.0,-1189.6738713273717,-254.74914934850148,-422.44358002574165
379910.0,7641.0,379910.0,23894.0,379910.0,22064.0,-1176.0678315184618,-242.58422010012077,-406.8250967392436
379920.0,7651.0,379920.0,23909.0,379920.0,22091.0,-1161.2010025120392,-229.8159228040043,-390.4568561347032
379920.0,7671.0,379920.0,23910.0,379920.0,22107.0,-1145.061759858707,-216.45927742720073,-373.3570490426482
379920.0,7699.0,379920.0,23975.0,379920.0,22136.0,-1127.6424459791233,-202.53373306043983,-355.54764558045486
379920.0,7728.0,379920.0,24006.0,379920.0,22175.0,-1108.9393700213354,-188.06294655400157,-337.054248910342
379920.0,7761.0,379920.0,24012.0,379920.0,22181.0,-1088.9526610369887,-173.0741807189037,-317.9058302079597
379920.0,7781.0,379920.0,24081.0,379920.0,22232.0,-1067.6860595892754,-157.59771798113553,-298.1344573419669
379930.0,7833.0,379930.0,24166.0,379930.0,22277.0,-1045.1467186168609,-141.6661975473605,-277.77498597322113
379930.0,7857.0,379930.0,24193.0,379930.0,22325.0,-1021.3449668860247,-125.31346227490494,-256.86451371499675
379930.0,7874.0,379930.0,24187.0,379930.0,22332.0,-996.2940631303968,-108.57330275718516,-235.4416872988815
379930.0,7873.0,379930.0,24156.0,379930.0,22344.0,-970.010191482247,-91.47897988182585,-213.5462703421547
379930.0,7905.0,379930.0,24119.0,379930.0,22342.0,-942.5128232308525,-74.06381213923487,-191.21920117211755
379930.0,7933.0,379930.0,24181.0,379930.0,22395.0,-913.8251914102852,-56.36231054889598,-168.50293299890666
379941.0,7956.0,379941.0,24181.0,379941.0,22393.0,-883.9746063972312,-38.41098991194198,-145.44166655230174
379941.0,8014.0,379941.0,24218.0,379941.0,22440.0,-852.9925975905813,-20.248513251723324,-122.08137666412964
379941.0,8069.0,379941.0,24263.0,379941.0,22500.0,-820.9148418307568,-1.915492048386767,-98.46967790734615
379941.0,8112.0,379941.0,24301.0,379941.0,22523.0,-787.7808006332264,16.54590518156914,-74.65540840457726
379941.0,8169.0,379941.0,24319.0,379941.0,22554.0,-753.6332249542611,35.092512986878035,-50.68806180939919
379941.0,8201.0,379941.0,24394.0,379941.0,22611.0,-718.5177306080814,53.68073317866856,-26.617353251688996
379951.0,8277.0,379951.0,24483.0,379951.0,22687.0,-682.4824530712506,72.26730283662698,-2.4927173025255343
379951.0,8312.0,379951.0,24471.0,379951.0,22699.0,-645.5776749650367,90.81048608511634,21.637520655778076
379951.0,8343.0,379951.0,24478.0,379951.0,22702.0,-607.8554631082184,109.27107784064768,45.72689245599594
379951.0,8381.0,379951.0,24436.0,379951.0,22682.0,-569.3695442148763,127.61246602629484,69.73084496536984
379951.0,8420.0,379951.0,24451.0,379951.0,22721.0,-530.1754398086139,145.7998567322157,93.60614360702846
379951.0,8466.0,379951.0,24457.0,379951.0,22756.0,-490.3306339748927,163.7993009887411,117.3102665757828
379961.0,8510.0,379961.0,24492.0,379961.0,22790.0,-449.8946507233105,181.57704641153498,140.8012808966082
379961.0,8571.0,379961.0,24581.0,379961.0,22823.0,-408.9290269495508,199.09949207797166,164.03809647443637
379961.0,8658.0,379961.0,24573.0,379961.0,22848.0,-367.49707990310117,216.3337861803068,186.98077772245858
379961.0,8691.0,379961.0,24604.0,379961.0,22894.0,-325.6633862182457,233.24859803672115,209.59081291162897
379961.0,8760.0,379961.0,24637.0,379961.0,22913.0,-283.493191044691,249.8145373266612,231.8314012197676
379961.0,8836.0,379961.0,24677.0,379961.0,22962.0,-241.0519354189081,266.00441178802566,253.66778098578766
379972.0,8903.0,379972.0,24723.0,379972.0,22995.0,-198.40470346642815,281.7937088291046,275.0676064286945
379972.0,8960.0,379972.0,24741.0,379972.0,23005.0,-155.61550434755964,297.161261455671,296.00134966871997
379972.0,8962.0,379972.0,24651.0,379972.0,22992.0,-112.74673289840689,312.0896156326804,316.4424781545904
379972.0,9001.0,379972.0,24653.0,379972.0,22999.0,-69.85918533018685,326.56444610570077,336.3671534657393
379972.0,9037.0,379972.0,24650.0,379972.0,23018.0,-27.012551059855355,340.5731952967822,355.7536344890673
379972.0,9086.0,379972.0,24680.0,379972.0,23042.0,15.734080690811993,354.1039395191914,374.5818147791191
379982.0,9147.0,379982.0,24734.0,379982.0,23077.0,58.32199693491964,367.1450515983047,392.8331012332186
379982.0,9228.0,379982.0,24744.0,379982.0,23096.0,100.69298628009756,379.68553077478964,410.4905659306497
379982.0,9274.0,379982.0,24752.0,379982.0,23121.0,142.78980539429858,391.71553683485774,427.53919769941774
379982.0,9322.0,379982.0,24788.0,379982.0,23131.0,184.5567395452358,403.22670788638595,443.9660961077718
379982.0,9390.0,379982.0,24814.0,379982.0,23158.0,225.9399899110383,414.21236935229547,459.76056384420315
379982.0,9464.0,379982.0,24901.0,379982.0,23207.0,266.8880270773915,424.66803716712855,474.9142355160069
379992.0,9506.0,379992.0,24885.0,379992.0,23202.0,307.35212899932105,434.59232466623087,489.421392966902
379992.0,9517.0,379992.0,24836.0,379992.0,23203.0,347.28685010645484,443.9876826153202,503.27925084530125
379992.0,9554.0,379992.0,24782.0,379992.0,23184.0,386.65000826822074,452.8601022224092,516.4878281020997
379992.0,9596.0,379992.0,24762.0,379992.0,23181.0,425.4022862103816,461.21775272716195,529.0493913464787
379992.0,9621.0,379992.0,24773.0,379992.0,23177.0,463.5068575488639,469.06943775554555,540.9677432700096
379992.0,9680.0,379992.0,24754.0,379992.0,23198.0,500.9291722900057,476.42356433192015,552.247619160536
380002.0,9714.0,380002.0,24850.0,380002.0,23230.0,537.6368746668363,483.28775986975234,562.8944059070976
380002.0,9756.0,380002.0,24828.0,380002.0,23240.0,573.5998422947619,489.66915306585065,572.9142541785016
380002.0,9805.0,380002.0,24850.0,380002.0,23253.0,608.7902647272938,495.5750209636868,582.3143731361562
380002.0,9833.0,380002.0,24862.0,380002.0,23256.0,643.1827239411214,501.01322519030145,591.10322213689
380002.0,9901.0,380002.0,24918.0,380002.0,23303.0,676.754310034295,505.99248367064286,599.2906113332504
380002.0,9953.0,380002.0,24953.0,380002.0,23307.0,709.484872125664,510.52296729782745,606.8879496945799
380012.0,9974.0,380012.0,24892.0,380012.0,23291.0,741.3574335304579,514.6170897279758,613.908583465223
380012.0,9969.0,380012.0,24878.0,380012.0,23270.0,772.3584177150933,518.2897108328682,620.3677956616461
380012.0,9990.0,380012.0,24819.0,380012.0,23246.0,802.4773192922255,521.5573972347116,626.2822759499237
380012.0,10020.0,380012.0,24811.0,380012.0,23248.0,831.7060329951103,524.4371866933325,631.6693275477799
380012.0,10034.0,380012.0,24814.0,380012.0,23268.0,860.0382942970366,526.9454406808562,636.5462214370941
380012.0,10079.0,380012.0,24849.0,380012.0,23277.0,887.4693493273703,529.0972136369571,640.9299725622238
380023.0,10122.0,380023.0,24874.0,380023.0,23271.0,913.9958320367205,530.9063286143005,644.8374362750613
380023.0,10143.0,380023.0,24844.0,380023.0,23279.0,939.615875080458,532.38585324741,648.2853925884006
380023.0,10170.0,380023.0,24830.0,380023.0,23290.0,964.3292784706168,533.5483340767473,651.2905306728754
380023.0,10207.0,380023.0,24892.0,380023.0,23296.0,988.1375559493274,534.4056410717112,653.869488880927
380023.0,10264.0,380023.0,24960.0,380023.0,23318.0,1011.0440230144284,534.9691788149185,656.0390205878501
380023.0,10282.0,380023.0,24934.0,380023.0,23305.0,1033.05412285098,535.2509071519514,657.8162245988394
380033.0,10264.0,380033.0,24884.0,380033.0,23299.0,1054.1757290031287,535.2642825159616,659.2186797046041
380033.0,10277.0,380033.0,24859.0,380033.0,23261.0,1074.418957134559,535.0241258872636,660.2642784371046
380033.0,10282.0,380033.0,24825.0,380033.0,23252.0,1093.7955281281525,534.5456436098805,660.9707068438303
380033.0,10298.0,380033.0,24804.0,380033.0,23260.0,1112.318123379619,533.8433291352067,661.3548024369481
380033.0,10308.0,380033.0,24811.0,380033.0,23276.0,1129.9999261962184,532.9300791298957,661.432184378393
380033.0,10342.0,380033.0,24829.0,380033.0,23273.0,1146.8543225937929,531.8167015798098,661.2172970221576
380043.0,10359.0,380043.0,24842.0,380043.0,23276.0,1162.8947894064886,530.5119369033209,660.7236153692708
380043.0,10377.0,380043.0,24877.0,380043.0,23276.0,1178.1349389264324,529.0228763733251,659.9637711449647
380043.0,10399.0,380043.0,24895.0,380043.0,23297.0,1192.5885820289204,527.3556156626461,658.9496415584811
380043.0,10452.0,380043.0,24933.0,380043.0,23318.0,1206.2698356537671,525.5160663726579,657.6925905643263
380043.0,10482.0,380043.0,24963.0,380043.0,23331.0,1219.1934826396791,523.5108808137098,656.2039452093418
380043.0,10455.0,380043.0,24918.0,380043.0,23315.0,1231.375466078163,521.3483157932446,654.4955205102813
380054.0,10453.0,380054.0,24843.0,380054.0,23278.0,1242.8329773756884,519.0384644984711,652.5798201261182
380054.0,10445.0,380054.0,24815.0,380054.0,23249.0,1253.5839432350617,516.5924109882612,650.4696736433754
380054.0,10474.0,380054.0,24820.0,380054.0,23252.0,1263.6463582501428,514.0208493343749,648.1775043517547
380054.0,10457.0,380054.0,24797.0,380054.0,23228.0,1273.0378612178165,511.3330939319657,645.7146763696869
380054.0,10477.0,380054.0,24812.0,380054.0,23231.0,1281.7754878131154,508.536664806734,643.0910947673195
380054.0,10492.0,380054.0,24831.0,380054.0,23245.0,1289.8754634761106,505.63721489835854,640.3149996389869
380064.0,10511.0,380064.0,24856.0,380064.0,23280.0,1297.3531371513031,502.63880717327197,637.3930711832357
380064.0,10514.0,380064.0,24840.0,380064.0,23254.0,1304.2230816670842,499.54446043145833,634.3308839731621
380064.0,10546.0,380064.0,24858.0,380064.0,23264.0,1310.4992266959039,496.3566176141117,631.1333439037061
380064.0,10582.0,380064.0,24929.0,380064.0,23290.0,1316.1950825121526,493.0775587679083,627.8049052587688
380064.0,10580.0,380064.0,24897.0,380064.0,23282.0,1321.3241694477306,489.7101309418381,624.3498389126972
380064.0,10570.0,380064.0,24866.0,380064.0,23265.0,1325.9003935703438,486.25848530482307,620.7725737788824
380074.0,10524.0,380074.0,24814.0,380074.0,23233.0,1329.9379330478691,482.72803011216683,617.0777288823909
380074.0,10557.0,380074.0,24774.0,380074.0,23235.0,1333.4506145167015,479.1245265342673,613.2697448466381
380074.0,10556.0,380074.0,24766.0,380074.0,23201.0,1336.4512991000847,475.4528938242334,609.3523979694419
380074.0,10556.0,380074.0,24797.0,380074.0,23204.0,1338.9516641692298,471.7163327921653,605.3283748390122
380074.0,10574.0,380074.0,24828.0,380074.0,23229.0,1340.9622003279096,467.9162106322844,601.1990024889723
380074.0,10590.0,380074.0,24792.0,380074.0,23241.0,1342.4922633729375,464.0525693894431,596.964360665052
380085.0,10593.0,380085.0,24794.0,380085.0,23222.0,1343.5502577937796,460.12455174021846,592.6237235427941
380085.0,10588.0,380085.0,24819.0,380085.0,23230.0,1344.1438381809767,456.1304486198937,588.1759038854782
380085.0,10635.0,380085.0,24866.0,380085.0,23254.0,1344.2800291093524,452.06789893262624,583.6194146651351
380085.0,10650.0,380085.0,24893.0,380085.0,23280.0,1343.9655101409128,447.9346805406435,578.9528185203451
380085.0,10642.0,380085.0,24853.0,380085.0,23251.0,1343.207150713584,443.7297364244223,574.1753359234403
380085.0,10641.0,380085.0,24814.0,380085.0,23230.0,1342.0124041188456,439.4536448012859,569.287236523618
380095.0,10586.0,380095.0,24784.0,380095.0,23212.0,1340.3892304784201,435.1081871756988,564.2896858452609
380095.0,10588.0,380095.0,24774.0,380095.0,23182.0,1338.3455464587569,430.6954615481317,559.1842517294798
380095.0,10591.0,380095.0,24766.0,380095.0,23176.0,1335.8885070561619,426.2171458262653,553.9723558314329
380095.0,10598.0,380095.0,24759.0,380095.0,23187.0,1333.0240866857696,421.6740995870365,548.6548522650146
380095.0,10637.0,380095.0,24819.0,380095.0,23215.0,1329.7571354139359,417.06631628372986,543.2319822713641
380095.0,10640.0,380095.0,24798.0,380095.0,23192.0,1326.091806933174,412.3933250324805,537.7037433346159
380105.0,10649.0,380105.0,24805.0,380105.0,23202.0,1322.0321436052675,407.6548213880895,532.0703084647786
380105.0,10636.0,380105.0,24804.0,380105.0,23197.0,1317.5825088041506,402.85107178088447,526.3322386305306
380105.0,10676.0,380105.0,24844.0,380105.0,23211.0,1312.7478077353858,397.98315839992716,520.4906380871613
380105.0,10678.0,380105.0,24831.0,380105.0,23216.0,1307.533781931506,393.05341663424605,514.5474306647154
380105.0,10646.0,380105.0,24808.0,380105.0,23211.0,1301.947417735654,388.06591527573175,508.5057225731688
380105.0,10616.0,380105.0,24773.0,380105.0,23154.0,1295.9970193207762,383.0265058534977,502.3699966698073
380116.0,10592.0,380116.0,24713.0,380116.0,23145.0,1289.691709245444,377.94225883364595,496.14583048202445
380116.0,10606.0,380116.0,24701.0,380116.0,23137.0,1283.0407387671942,372.8204625660615,489.83927748045096
380116.0,10597.0,380116.0,24707.0,380116.0,23133.0,1276.0530912959505,367.6676279561934,483.45640926257954
380116.0,10617.0,380116.0,24710.0,380116.0,23142.0,1268.737483928565,362.4889904016297,477.0032147574543
380116.0,10620.0,380116.0,24717.0,380116.0,23139.0,1261.1026210684663,357.28855331181825,470.4857368576975
380116.0,10603.0,380116.0,24724.0,380116.0,23121.0,1253.15752378338,352.06937150859966,463.91027629144406
380126.0,10615.0,380126.0,24742.0,380126.0,23128.0,1244.911748434627,346.83391854787664,457.2834945676219
380126.0,10621.0,380126.0,24787.0,380126.0,23147.0,1236.3755165444657,341.58462487635165,450.61249268931783
380126.0,10644.0,380126.0,24824.0,380126.0,23160.0,1227.5599964119365,336.3247607727598,443.90513457051287
380126.0,10610.0,380126.0,24774.0,380126.0,23128.0,1218.477738166569,331.05949601269754,437.17055016221695
380126.0,10582.0,380126.0,24697.0,380126.0,23089.0,1209.1428854836854,325.7963448657196,430.4193363834469
380126.0,10547.0,380126.0,24672.0,380126.0,23062.0,1199.570864044449,320.5444316363154,423.66315604975796
380136.0,10540.0,380136.0,24652.0,380136.0,23041.0,1189.7777243747187,315.3131391065554,416.91398540149953
380136.0,10529.0,380136.0,24632.0,380136.0,23028.0,1179.779559505082,310.1110340831161,410.1834247250657
380136.0,10523.0,380136.0,24637.0,380136.0,23043.0,1169.5922033604659,304.9452701084893,403.4822862026965
380136.0,10535.0,380136.0,24664.0,380136.0,23047.0,1159.231176984682,299.82138207255326,396.82055575914364
380136.0,10527.0,380136.0,24672.0,380136.0,23034.0,1148.7118314963145,294.7435332068064,390.2076476071064
380136.0,10519.0,380136.0,24664.0,380136.0,23028.0,1138.0495860866263,289.715044286503,383.6526435605981
380147.0,10509.0,380147.0,24706.0,380147.0,23038.0,1127.2600804496365,284.73889122259794,377.16438121888234
380147.0,10533.0,380147.0,24741.0,380147.0,23051.0,1116.35925935658,279.81828830231484,370.75160119010013
380147.0,10524.0,380147.0,24751.0,380147.0,23036.0,1105.3636054037702,274.95760184000125,364.4232765113892
380147.0,10503.0,380147.0,24678.0,380147.0,23004.0,1094.2904809639745,270.1631792595845,358.1888588714314
380147.0,10451.0,380147.0,24617.0,380147.0,23006.0,1083.1581841803009,265.4432698060465,352.05817016402955
380147.0,10437.0,380147.0,24584.0,380147.0,22974.0,1071.9854897614734,260.80687276106147,346.0410706086119
380157.0,10428.0,380157.0,24609.0,380157.0,22948.0,1060.7909694544028,256.2623507268332,340.1470791864325
380157.0,10412.0,380157.0,24568.0,380157.0,22944.0,1049.5925266936335,251.81664552177142,334.3849116758428
380157.0,10419.0,380157.0,24603.0,380157.0,22955.0,1038.407227805921,247.4750660736522,328.7620897866546
380157.0,10410.0,380157.0,24620.0,380157.0,22947.0,1027.251319913109,243.24137691202793,323.28487610356905
380157.0,10400.0,380157.0,24596.0,380157.0,22977.0,1016.1403499850119,239.11816077772068,317.9585001925965
380157.0,10399.0,380157.0,24616.0,380157.0,22954.0,1005.0892711869751,235.1071982106248,312.7875157906936
380167.0,10411.0,380167.0,24679.0,380167.0,22987.0,994.1125522065784,231.20979724308654,307.77617557543806
380167.0,10421.0,380167.0,24706.0,380167.0,22971.0,983.2244550172115,227.4275608477248,302.92878086266194
380167.0,10400.0,380167.0,24673.0,380167.0,22975.0,972.4394603683514,223.763533396674,298.2499979930886
380167.0,10354.0,380167.0,24593.0,380167.0,22926.0,961.7724884093743,220.22276277838478,293.7449753191939
380167.0,10332.0,380167.0,24538.0,380167.0,22905.0,951.2385962528106,216.8115960754486,289.41904207846466
380167.0,10308.0,380167.0,24533.0,380167.0,22883.0,940.8523037763191,213.5361457705597,285.27704565421436
380178.0,10309.0,380178.0,24534.0,380178.0,22888.0,930.6269762115821,210.4009705300973,281.3226812092369
380178.0,10300.0,380178.0,24557.0,380178.0,22884.0,920.5745038802899,207.40855928555123,277.5581231721008
380178.0,10306.0,380178.0,24579.0,380178.0,22911.0,910.7052624596512,204.5595152639637,273.9840171488451
380178.0,10306.0,380178.0,24570.0,380178.0,22907.0,901.0282542311332,201.85308168743177,270.5997613593423
380178.0,10293.0,380178.0,24571.0,380178.0,22901.0,891.5513206937364,199.28761044330292,267.40388532023013
380178.0,10305.0,380178.0,24595.0,380178.0,22914.0,882.2813230374929,196.86081386857498,264.39430115573
380188.0,10327.0,380188.0,24665.0,380188.0,22924.0,873.2243630730671,194.5701599161048,261.56848424269725
380188.0,10312.0,380188.0,24633.0,380188.0,22953.0,864.3861900977877,192.41372646727,258.92381395588075
380188.0,10297.0,380188.0,24600.0,380188.0,22918.0,855.7725992177201,190.39098869539697,256.45804625680813
380188.0,10272.0,380188.0,24531.0,380188.0,22880.0,847.3894849977689,188.50270171545662,254.1695013196993
380188.0,10242.0,380188.0,24509.0,380188.0,22853.0,839.2425178712424,186.74983806402187,252.05661413867773
380188.0,10236.0,380188.0,24519.0,380188.0,22868.0,831.3366252558023,185.13231460555508,250.1171375665235
380198.0,10231.0,380198.0,24516.0,380198.0,22872.0,823.675520044125,183.64822524431696,248.34763733791374
380198.0,10234.0,380198.0,24531.0,380198.0,22865.0,816.2614766631258,182.29369683077906,246.743463313932
380198.0,10242.0,380198.0,24545.0,380198.0,22871.0,809.0953707738443,181.06308095993674,245.29888136091506
380198.0,10234.0,380198.0,24543.0,380198.0,22883.0,802.1768732567832,179.94927941243645,244.0071798303135
380198.0,10227.0,380198.0,24575.0,380198.0,22891.0,795.5046365539308,178.9441123486886,242.8608580787003
380198.0,10257.0,380198.0,24629.0,380198.0,22914.0,789.0764187340553,178.03883673505027,241.85196402343777
380209.0,10257.0,380209.0,24664.0,380209.0,22914.0,782.8893315025787,177.22508238657255,240.97252835406346
380209.0,10251.0,380209.0,24642.0,380209.0,22920.0,776.9402506737979,176.4960257835785,240.21498232131094
380209.0,10231.0,380209.0,24562.0,380209.0,22876.0,771.2260795645868,175.84699850300166,239.57235293632695
380209.0,10196.0,380209.0,24546.0,380209.0,22872.0,765.743620537185,175.2749516953736,239.03804761646907
380209.0,10193.0,380209.0,24504.0,380209.0,22856.0,760.4891033610452,174.77717948336704,238.60532969100342
380209.0,10181.0,380209.0,24498.0,380209.0,22855.0,755.4576396562024,174.3500946919074,238.26681687486195
380219.0,10189.0,380219.0,24524.0,380219.0,22863.0,750.6428767476898,173.98844354361117,238.01419316377059
380219.0,10214.0,380219.0,24552.0,380219.0,22887.0,746.0369603735173,173.68513753332581,237.8381890332294
380219.0,10197.0,380219.0,24564.0,380219.0,22887.0,741.6307781192936,173.43169455878243,237.7288463994191
380219.0,10199.0,380219.0,24559.0,380219.0,22880.0,737.4142450314346,173.2188706220569,237.67587031386705
380219.0,10223.0,380219.0,24585.0,380219.0,22901.0,733.376449564646,173.03710190912784,237.66883498143233
380219.0,10253.0,380219.0,24638.0,380219.0,22932.0,729.5059091018873,172.87691943476162,237.69738811354065
380230.0,10244.0,380230.0,24633.0,380230.0,22938.0,725.7911256225126,172.72967046579876,237.75171905473786
380230.0,10229.0,380230.0,24612.0,380230.0,22909.0,722.2210978503451,172.58828191152168,237.82308661502552
380230.0,10186.0,380230.0,24563.0,380230.0,22873.0,718.7853430055824,172.44741431533845,237.90388277667574
380230.0,10190.0,380230.0,24536.0,380230.0,22866.0,715.4734062540589,172.30282454004148,237.9870908971299
380230.0,10174.0,380230.0,24567.0,380230.0,22864.0,712.2742386557579,172.15043718338282,238.06556971057378
380230.0,10183.0,380230.0,24511.0,380230.0,22872.0,709.1757920364329,171.9857178203561,238.13162274640246
380240.0,10204.0,380240.0,24554.0,380240.0,22874.0,706.1649181641262,171.8033684503297,238.17691816004415
380240.0,10215.0,380240.0,24567.0,380240.0,22892.0,703.2275786916795,171.59722185357595,238.19261351870296
380240.0,10222.0,380240.0,24544.0,380240.0,22881.0,700.3492711716596,171.36043621467854,238.16957045735683
380240.0,10211.0,380240.0,24569.0,380240.0,22907.0,697.5154105318094,171.0857574822262,238.09857651480826
380240.0,10235.0,380240.0,24620.0,380240.0,22912.0,694.7115288606875,170.76574444839832,237.9705906302861
380240.0,10270.0,380240.0,24664.0,380240.0,22945.0,691.9235084831512,170.3934222303399,237.77712389736868
380250.0,10255.0,380250.0,24651.0,380250.0,22937.0,689.1380734194878,169.96339676168776,237.51075181301877
380250.0,10231.0,380250.0,24567.0,380250.0,22888.0,686.3432381435447,169.47258864037877,237.16545877884596
380250.0,10206.0,380250.0,24556.0,380250.0,22887.0,683.5282344427665,168.91984581890114,236.736436655577
380250.0,10178.0,380250.0,24515.0,380250.0,22865.0,680.68293295696,168.3047509395259,236.21945898956466
380250.0,10194.0,380250.0,24508.0,380250.0,22869.0,677.7971442553365,167.62645308819552,235.61030866975216
380250.0,10182.0,380250.0,24526.0,380250.0,22866.0,674.8601579844765,166.88291052577173,234.904455459015
380261.0,10205.0,380261.0,24558.0,380261.0,22880.0,671.8606357735028,166.07068407061558,234.09695723208563
380261.0,10214.0,380261.0,24562.0,380261.0,22880.0,668.7867712236039,165.1853075089351,233.18255673510942
380261.0,10209.0,380261.0,24582.0,380261.0,22879.0,665.6265979455868,164.22190729711951,232.15586879119581
380261.0,10233.0,380261.0,24588.0,380261.0,22899.0,662.3683023376828,163.1757499205655,231.0115589563499
380261.0,10251.0,380261.0,24623.0,380261.0,22940.0,659.0005495784088,162.0427332462427,229.74464736010555
380261.0,10257.0,380261.0,24624.0,380261.0,22908.0,655.5129507027247,160.81994950648684,228.3510572957933
380271.0,10250.0,380271.0,24606.0,380271.0,22918.0,651.8965436252704,159.50620873270034,226.82808491866638
380271.0,10191.0,380271.0,24531.0,380271.0,22861.0,648.1439322650364,158.10208965085374,225.17440364759136
380271.0,10187.0,380271.0,24481.0,380271.0,22862.0,644.2488533548492,156.6091355953625,223.38960942727044
380271.0,10198.0,380271.0,24521.0,380271.0,22855.0,640.2054625928847,155.0285232741679,221.4736023604962
380271.0,10176.0,380271.0,24498.0,380271.0,22843.0,636.0079009139072,153.36013930626973,219.42614471416047
380271.0,10181.0,380271.0,24540.0,380271.0,22867.0,631.6501754769038,151.6024611530912,217.24669244561414
380281.0,10200.0,380281.0,24559.0,380281.0,22853.0,627.126124855961,149.7529348450933,214.93443752340056
380281.0,10185.0,380281.0,24538.0,380281.0,22866.0,622.429525290078,147.80855003731398,212.48848213337706
380281.0,10194.0,380281.0,24559.0,380281.0,22860.0,617.5542977130061,145.76629879198114,209.90801729854303
380281.0,10211.0,380281.0,24583.0,380281.0,22889.0,612.4946862415884,143.62344329981295,207.19251605580683
380281.0,10218.0,380281.0,24659.0,380281.0,22903.0,607.2455317596937,141.37805605982882,204.34209501250967
380281.0,10213.0,380281.0,24580.0,380281.0,22859.0,601.8026691088508,139.0299661605541,201.35796739162566
380292.0,10189.0,380292.0,24532.0,380292.0,22824.0,596.1631869856653,136.58125770570956,198.24251198258904
380292.0,10166.0,380292.0,24507.0,380292.0,22823.0,590.3253321139049,134.0356141078313,194.99873332466638
380292.0,10147.0,380292.0,24484.0,380292.0,22814.0,584.2880881398216,131.3970829234654,191.6295946942855
380292.0,10129.0,380292.0,24481.0,380292.0,22804.0,578.0506296579924,128.6691171557309,188.13765688073215
380292.0,10138.0,380292.0,24479.0,380292.0,22813.0,571.6118638954266,125.85405682725207,184.52494778137265
380292.0,10140.0,380292.0,24511.0,380292.0,22828.0,564.9702300762015,122.95299607866633,180.79299392802375
380302.0,10147.0,380302.0,24501.0,380302.0,22832.0,558.1238030474823,119.96602155182651,176.94308875358993
380302.0,10147.0,380302.0,24495.0,380302.0,22818.0,551.0705656246639,116.8925832199055,172.9766639791761
380302.0,10150.0,380302.0,24541.0,380302.0,22819.0,543.808695909099,113.73177302318055,168.8955030141968
380302.0,10160.0,380302.0,24604.0,380302.0,22840.0,536.3368413041817,110.48283916226936,164.70182464992874
380302.0,10166.0,380302.0,24585.0,380302.0,22832.0,528.6544379686497,107.14625378991565,160.39848792482582
380302.0,10140.0,380302.0,24541.0,380302.0,22797.0,520.7620352685864,103.7247047351845,155.9892391602469
380312.0,10106.0,380312.0,24455.0,380312.0,22769.0,512.6613662039235,100.223049968233,151.47859835138573
380312.0,10077.0,380312.0,24445.0,380312.0,22752.0,504.3549634407779,96.64715579348291,146.87130586769422
380312.0,10086.0,380312.0,24437.0,380312.0,22756.0,495.84553540906643,93.00247870511836,142.17171180359148
380312.0,10060.0,380312.0,24410.0,380312.0,22754.0,487.1355172494281,89.29315974377067,137.38346198212946
380312.0,10063.0,380312.0,24461.0,380312.0,22755.0,478.22688961617865,85.52167975972333,132.50950273485202
380312.0,10075.0,380312.0,24459.0,380312.0,22727.0,469.1211499059978,81.68898033864997,127.55217363570088
380323.0,10070.0,380323.0,24465.0,380323.0,22739.0,459.81947429577724,77.79497138169154,122.513179648852
380323.0,10064.0,380323.0,24468.0,380323.0,22748.0,450.32301994256505,73.83904889080924,117.39354379854714
380323.0,10071.0,380323.0,24502.0,380323.0,22774.0,440.6331770712573,69.82047926964003,112.19382969426829
380323.0,10085.0,380323.0,24549.0,380323.0,22788.0,430.751815426546,65.73898406263572,106.91470874969974
380323.0,10063.0,380323.0,24514.0,380323.0,22757.0,420.68163634041576,61.59563442535335,101.55760493740826
380323.0,10039.0,380323.0,24475.0,380323.0,22736.0,410.42642392781613,57.39347856344182,96.12498397272947
380333.0,10007.0,380333.0,24425.0,380333.0,22717.0,399.9909160444668,53.13728891193074,90.6201209306061
380333.0,9984.0,380333.0,24423.0,380333.0,22691.0,389.3803333332842,48.83263335264451,85.04660525140702
380333.0,9972.0,380333.0,24381.0,380333.0,22684.0,378.599823220467,44.484923985065905,79.40784409364636
380333.0,9964.0,380333.0,24383.0,380333.0,22666.0,367.65404737615796,40.09871850775073,73.706650942809
380333.0,9973.0,380333.0,24428.0,380333.0,22690.0,356.54703187473433,35.67734689824118,67.94501043739291
380333.0,9962.0,380333.0,24424.0,380333.0,22690.0,345.2822758551706,31.22309597433309,62.124142768937986
380343.0,9956.0,380343.0,24392.0,380343.0,22672.0,333.8629748629076,26.73773923544593,56.24479878294551
380343.0,9962.0,380343.0,24431.0,380343.0,22694.0,322.292217093526,22.22282704973361,50.307518605755206
380343.0,9961.0,380343.0,24439.0,380343.0,22716.0,310.5732009967973,17.679840332189258,44.31288816990144
380343.0,9974.0,380343.0,24466.0,380343.0,22713.0,298.70957531922016,13.110669063862645,38.262038482575974
380343.0,9930.0,380343.0,24394.0,380343.0,22666.0,286.7058043345291,8.518186916475543,32.15714274020951
380343.0,9900.0,380343.0,24375.0,380343.0,22663.0,274.5672424367944,3.906256112052972,26.001425553744696
380354.0,9882.0,380354.0,24344.0,380354.0,22627.0,262.29975807409596,-0.7209731652078517,19.798726710082406
380354.0,9872.0,380354.0,24325.0,380354.0,22604.0,249.90921243105407,-5.359954899449235,13.552953281416137
380354.0,9844.0,380354.0,24326.0,380354.0,22600.0,237.4011144437368,-10.008418201992356,7.267543411078805
380354.0,9858.0,380354.0,24350.0,380354.0,22620.0,224.78044184053306,-14.665673521151746,0.945113670958051
380354.0,9840.0,380354.0,24359.0,380354.0,22608.0,212.05161184016686,-19.33244691669711,-5.412493580749185
380354.0,9832.0,380354.0,24372.0,380354.0,22607.0,199.21859729502683,-24.010361824168285,-11.803926848860556
380364.0,9839.0,380364.0,24361.0,380364.0,22614.0,186.28507278003337,-28.701392087802958,-18.228091565780517
380364.0,9816.0,380364.0,24385.0,380364.0,22627.0,173.25457227900665,-33.40746430592202,-24.683915028286492
380364.0,9852.0,380364.0,24440.0,380364.0,22643.0,160.1307251254011,-38.130003014978456,-31.169934185379304
380364.0,9830.0,380364.0,24414.0,380364.0,22626.0,146.91763281023395,-42.86914950628983,-37.68376500797228
380364.0,9790.0,380364.0,24365.0,380364.0,22587.0,133.62024689421003,-47.62307112634511,-44.22178133809956
380364.0,9749.0,380364.0,24295.0,380364.0,22559.0,120.2443148089028,-52.388160431611766,-50.7793129285979
380374.0,9731.0,380374.0,24282.0,380374.0,22540.0,106.79579826961799,-57.160160682167316,-57.35126362787213
380374.0,9702.0,380374.0,24280.0,380374.0,22528.0,93.28018302605415,-61.9354123403038,-63.93275320696665
380374.0,9710.0,380374.0,24254.0,380374.0,22518.0,79.70201165244782,-66.7115832267678,-70.51954418848493
380374.0,9719.0,380374.0,24313.0,380374.0,22545.0,66.06477074397958,-71.48786827686519,-77.1081971665896
380374.0,9723.0,380374.0,24314.0,380374.0,22514.0,52.37118498668576,-76.26470551539353,-83.69594463621928
380374.0,9694.0,380374.0,24312.0,380374.0,22523.0,38.62369537201437,-81.04310744406934,-90.28047367482179
380385.0,9691.0,380385.0,24317.0,380385.0,22535.0,24.82474707109577,-85.8240672201976,-96.8597794679306
380385.0,9719.0,380385.0,24359.0,380385.0,22544.0,10.97691318937234,-90.60816709825275,-103.43190964806115
380385.0,9708.0,380385.0,24377.0,380385.0,22528.0,-2.9167692746465264,-95.39499246416568,-109.99454083047874
380385.0,9673.0,380385.0,24324.0,380385.0,22520.0,-16.852305999093005,-100.18238383370681,-116.5446727599026
380385.0,9621.0,380385.0,24245.0,380385.0,22469.0,-30.82464904174401,-104.96629382549997,-123.07866680494567
380385.0,9598.0,380385.0,24246.0,380385.0,22468.0,-44.82822244217323,-109.74167416017781,-129.5926430645659
380395.0,9584.0,380395.0,24240.0,380395.0,22441.0,-58.857673235960874,-114.50366831791916,-136.08303382949612
380395.0,9567.0,380395.0,24194.0,380395.0,22427.0,-72.90838867255638,-119.24832480325159,-142.54704662521368
380395.0,9574.0,380395.0,24226.0,380395.0,22454.0,-86.9766786204267,-123.97296675228813,-148.98293778498243
380395.0,9568.0,380395.0,24238.0,380395.0,22447.0,-101.05969413931689,-128.6763515703759,-155.3899752184471
380395.0,9567.0,380395.0,24248.0,380395.0,22457.0,-115.155155197657,-133.35838795971085,-161.76809245848017
380395.0,9545.0,380395.0,24261.0,380395.0,22441.0,-129.26104953177935,-138.01955608985384,-168.11751328830968
380405.0,9543.0,380405.0,24262.0,380405.0,22454.0,-143.37545653098744,-142.6603567411819,-174.43851492640982
380405.0,9562.0,380405.0,24305.0,380405.0,22462.0,-157.49640717734144,-147.2807934634834,-180.73121441645714
380405.0,9545.0,380405.0,24269.0,380405.0,22456.0,-171.62156357216293,-151.8798007240053,-186.9952487014823
380405.0,9517.0,380405.0,24243.0,380405.0,22426.0,-185.74783752052406,-156.4548730421938,-193.22949611586802
380405.0,9478.0,380405.0,24214.0,380405.0,22406.0,-199.87134692896097,-161.0022634670052,-199.4321246552367
380405.0,9465.0,380405.0,24162.0,380405.0,22377.0,-213.98779106899337,-165.5176867176162,-205.6009933697983
380416.0,9439.0,380416.0,24145.0,380416.0,22375.0,-228.0929372270249,-169.99725389893183,-211.73417420967832
380416.0,9422.0,380416.0,24135.0,380416.0,22355.0,-242.18299019724827,-174.43839404879708,-217.83036975396766
380416.0,9424.0,380416.0,24174.0,380416.0,22384.0,-256.2548204679714,-178.8403882442061,-223.8891034347884
380416.0,9433.0,380416.0,24178.0,380416.0,22375.0,-270.305968252506,-183.20425730839952,-229.91060944378188
380416.0,9411.0,380416.0,24201.0,380416.0,22377.0,-284.3343769244203,-187.5321731365246,-235.89550531183215
380416.0,9387.0,380416.0,24199.0,380416.0,22379.0,-298.33812509739573,-191.82678216853947,-241.844477863458
380426.0,9410.0,380426.0,24243.0,380426.0,22378.0,-312.3153618183777,-196.09059272923508,-247.75805133868278
380426.0,9399.0,380426.0,24242.0,380426.0,22385.0,-326.264191978088,-200.325302714938,-253.6363526699696
380426.0,9374.0,380426.0,24222.0,380426.0,22347.0,-340.1823743925049,-204.5311363638799,-259.47891842414487
380426.0,9344.0,380426.0,24164.0,380426.0,22329.0,-354.06718070227055,-208.70663730566565,-265.28475387517614
380426.0,9319.0,380426.0,24114.0,380426.0,22303.0,-367.91563575214343,-212.84925584571255,-271.0527352900683
380426.0,9305.0,380426.0,24109.0,380426.0,22319.0,-381.72493919198143,-216.9564876792291,-276.7820984449196
380436.0,9296.0,380436.0,24093.0,380436.0,22307.0,-395.49279721617086,-221.02692056248316,-282.4726713953154
380436.0,9282.0,380436.0,24126.0,380436.0,22311.0,-409.2175613215069,-225.06073772097477,-288.12481712071315
380436.0,9275.0,380436.0,24145.0,380436.0,22304.0,-422.89823487025217,-229.0596072036201,-293.73928639747794
380436.0,9270.0,380436.0,24159.0,380436.0,22296.0,-436.5344183448441,-233.02609883948952,-299.3171104098118
380436.0,9270.0,380436.0,24125.0,380436.0,22297.0,-450.12617511763017,-236.9630355179658,-304.8595452197096
380436.0,9277.0,380436.0,24160.0,380436.0,22322.0,-463.6737732327555,-240.8731692956576,-310.367964856178
380447.0,9285.0,380447.0,24197.0,380447.0,22331.0,-477.1772789214415,-244.75894749552646,-315.8435147818535
380447.0,9271.0,380447.0,24200.0,380447.0,22323.0,-490.63605851570503,-248.6218931438471,-321.2865681974446
380447.0,9233.0,380447.0,24137.0,380447.0,22287.0,-504.048429590616,-252.46190930357756,-326.69635954221656
380447.0,9196.0,380447.0,24119.0,380447.0,22252.0,-517.4117507542401,-256.27728436931943,-332.07113112072284
380447.0,9171.0,380447.0,24057.0,380447.0,22239.0,-530.7229481180236,-260.06549546588957,-337.4087382395445
380447.0,9146.0,380447.0,24052.0,380447.0,22231.0,-543.97917294882,-263.8243101393571,-342.707316256809
380457.0,9136.0,380457.0,24043.0,380457.0,22214.0,-557.1783254896436,-267.55273916706784,-347.96570807277783
380457.0,9151.0,380457.0,24084.0,380457.0,22227.0,-570.3193094481694,-271.25149449146926,-353.18366425854106
380457.0,9134.0,380457.0,24094.0,380457.0,22218.0,-583.4019443668185,-274.9227823123331,-358.36187049842033
380457.0,9129.0,380457.0,24106.0,380457.0,22226.0,-596.4266897160646,-278.5696539261559,-363.50181854480593
380457.0,9118.0,380457.0,24121.0,380457.0,22243.0,-609.3944417823166,-282.19531494619093,-368.6055651880057
380457.0,9137.0,380457.0,24157.0,380457.0,22255.0,-622.3063831048737,-285.8024940016828,-373.67534074777075
380468.0,9145.0,380468.0,24145.0,380468.0,22264.0,-635.163653736515,-289.39274940165484,-378.71300298012784
380468.0,9113.0,380468.0,24138.0,380468.0,22215.0,-647.9668544163299,-292.96587153599717,-383.7195872766314
380468.0,9067.0,380468.0,24065.0,380468.0,22199.0,-660.7158066068068,-296.51978571475735,-388.695319394747
380468.0,9036.0,380468.0,24008.0,380468.0,22181.0,-673.4099113885516,-300.0512428209042,-393.64010485285746
380468.0,9036.0,380468.0,24000.0,380468.0,22169.0,-686.048842110561,-303.5571399847424,-398.5540983299694
380468.0,9020.0,380468.0,23999.0,380468.0,22182.0,-698.6330325021677,-307.03576104489076,-403.4380495097863
380478.0,9019.0,380478.0,24027.0,380478.0,22182.0,-711.1637963324017,-310.4873115529019,-408.2933504826625
380478.0,9024.0,380478.0,24069.0,380478.0,22198.0,-723.6432283577565,-313.9136775397563,-413.1218089660348
380478.0,9019.0,380478.0,24038.0,380478.0,22159.0,-736.0739634211425,-317.3177115979718,-417.9253476497083
380478.0,8996.0,380478.0,24052.0,380478.0,22149.0,-748.4588928024111,-320.70260072539173,-422.7059513823323
380478.0,8998.0,380478.0,24068.0,380478.0,22189.0,-760.8010198759168,-324.07158095461585,-427.46584392538466
380478.0,9027.0,380478.0,24107.0,380478.0,22199.0,-773.1033477303856,-327.4276060719693,-432.20738221180557
380488.0,9002.0,380488.0,24113.0,380488.0,22188.0,-785.3685214110731,-330.77265665338433,-436.93250614367867
380488.0,8976.0,380488.0,24064.0,380488.0,22145.0,-797.5984169473638,-334.10704145809007,-441.64232466559724
380488.0,8942.0,380488.0,24004.0,380488.0,22137.0,-809.794142541265,-337.4293771634533,-446.3372873206233
380488.0,8921.0,380488.0,23967.0,380488.0,22135.0,-821.9564741194747,-340.737499395154,-451.0176801935688
380488.0,8916.0,380488.0,23990.0,380488.0,22105.0,-834.0863690369022,-344.0297121384093,-455.68400707629985
380488.0,8891.0,380488.0,23949.0,380488.0,22094.0,-846.1853008905005,-347.30560252625855,-460.33726798291593
380499.0,8893.0,380499.0,23980.0,380499.0,22095.0,-858.2554194569623,-350.56633605196345,-464.9792807014501
380499.0,8902.0,380499.0,23990.0,380499.0,22115.0,-870.2995660620227,-353.81465684581565,-469.612851070039
380499.0,8893.0,380499.0,24002.0,380499.0,22109.0,-882.321071460656,-357.05457678984016,-474.2415996649289
380499.0,8880.0,380499.0,24022.0,380499.0,22115.0,-894.3234454218684,-360.2908343353868,-478.86960873318753
380499.0,8906.0,380499.0,24041.0,380499.0,22150.0,-906.3101279086977,-363.5282908705689,-483.50105115568726
380499.0,8903.0,380499.0,24089.0,380499.0,22134.0,-918.2841641343309,-366.771205807189,-488.13971429578385
380509.0,8868.0,380509.0,24044.0,380509.0,22137.0,-930.2477750586693,-370.0224084554847,-492.7885015789044
380509.0,8843.0,380509.0,23975.0,380509.0,22094.0,-942.2022117869662,-373.282910939029,-497.449233458147
380509.0,8800.0,380509.0,23985.0,380509.0,22058.0,-954.148110339441,-376.5524518012938,-502.1229298090657
380509.0,8786.0,380509.0,23935.0,380509.0,22055.0,-966.0861302115284,-379.8305068348505,-506.8104765532055
380509.0,8778.0,380509.0,23896.0,380509.0,22064.0,-978.017548856008,-383.1171863230662,-511.5132494657762
380509.0,8782.0,380509.0,23973.0,380509.0,22056.0,-989.9445570714602,-386.41394584405197,-516.2333106258206
380519.0,8786.0,380519.0,23965.0,380519.0,22051.0,-1001.8701864470524,-389.72372207123925,-520.9733090024773
380519.0,8781.0,380519.0,23985.0,380519.0,22052.0,-1013.7980023602411,-393.05032353083595,-525.7363866446418
380519.0,8766.0,380519.0,23948.0,380519.0,22055.0,-1025.731780996079,-396.39778048011425,-530.5261086036697
380519.0,8766.0,380519.0,23990.0,380519.0,22056.0,-1037.6753220575508,-399.7701091275406,-535.3463173276461
380519.0,8796.0,380519.0,24023.0,380519.0,22105.0,-1049.6322736035672,-403.1710913989665,-540.2008264191727
380519.0,8776.0,380519.0,24032.0,380519.0,22068.0,-1061.6057321229462,-406.6036208618081,-545.0928949503632
380530.0,8733.0,380530.0,23980.0,380530.0,22067.0,-1073.5978281995508,-410.06895063047244,-550.0247533967428
380530.0,8703.0,380530.0,23928.0,380530.0,22021.0,-1085.6098056262456,-413.5666384873209,-554.9975878571331
380530.0,8688.0,380530.0,23915.0,380530.0,22006.0,-1097.6425878278933,-417.0953652422202,-560.0119865353232
380530.0,8676.0,380530.0,23877.0,380530.0,21997.0,-1109.6973458567018,-420.6540293394748,-565.0685509540124
380530.0,8666.0,380530.0,23874.0,380530.0,22006.0,-1121.7757967461152,-424.24262193033667,-570.1683359376552
380530.0,8674.0,380530.0,23906.0,380530.0,22016.0,-1133.8802645611527,-427.86273470258476,-575.312907872874
380540.0,8663.0,380540.0,23915.0,380540.0,22011.0,-1146.0135546826218,-431.51752844467256,-580.5040940649415
380540.0,8654.0,380540.0,23940.0,380540.0,22002.0,-1158.1787363673818,-435.21119669684884,-585.743690272919
380540.0,8654.0,380540.0,23958.0,380540.0,22001.0,-1170.3789711104205,-438.94823806974284,-591.0333206447325
380540.0,8672.0,380540.0,23984.0,380540.0,22035.0,-1182.617323978562,-442.73268888450195,-596.3743285743536
380540.0,8681.0,380540.0,24018.0,380540.0,22044.0,-1194.896359494755,-446.56727552734003,-601.7673989224463
380540.0,8638.0,380540.0,23993.0,380540.0,22011.0,-1207.2176191190724,-450.4525471129223,-607.2119844166025
380550.0,8621.0,380550.0,23912.0,380550.0,21968.0,-1219.5814113017163,-454.3864497868471,-612.7060947604751
380550.0,8596.0,380550.0,23868.0,380550.0,21964.0,-1231.9870739350454,-458.36491334084167,-618.2467277442595
380550.0,8573.0,380550.0,23859.0,380550.0,21947.0,-1244.4334198017502,-462.3832073534867,-623.8305214837077
380550.0,8556.0,380550.0,23844.0,380550.0,21945.0,-1256.919144450631,-466.4371482050411,-629.4541725411874
380550.0,8552.0,380550.0,23846.0,380550.0,21955.0,-1269.443145940005,-470.52370783811295,-635.1145694383556
380550.0,8548.0,380550.0,23886.0,380550.0,21960.0,-1282.004665419918,-474.64112152747344,-640.8086821392777
380561.0,8556.0,380561.0,23902.0,380561.0,21950.0,-1294.6031919235747,-478.7885068977531,-646.5332804599078
380561.0,8553.0,380561.0,23886.0,380561.0,21946.0,-1307.2381738924507,-482.96515412480903,-652.2846939953446
380561.0,8547.0,380561.0,23924.0,380561.0,21966.0,-1319.9086528079679,-487.16991436230853,-658.0586723606384
380561.0,8574.0,380561.0,23962.0,380561.0,21961.0,-1332.6128897836377,-491.40065607085836,-663.8501596855225
380561.0,8546.0,380561.0,23955.0,380561.0,21946.0,-1345.347936586264,-495.65346347934735,-669.6529814803914
380561.0,8535.0,380561.0,23917.0,380561.0,21922.0,-1358.1092624535404,-499.9218889108304,-675.4597273606907
380571.0,8500.0,380571.0,23837.0,380571.0,21899.0,-1370.890697867535,-504.19697752641616,-681.2619795853121
380571.0,8477.0,380571.0,23826.0,380571.0,21904.0,-1383.6847197163715,-508.4682326627805,-687.0507176539211
380571.0,8470.0,380571.0,23803.0,380571.0,21894.0,-1396.482871621655,-512.7248987369098,-692.8166078157718
380571.0,8456.0,380571.0,23770.0,380571.0,21881.0,-1409.2760828952657,-516.9569265942539,-698.5500907576877
380571.0,8450.0,380571.0,23816.0,380571.0,21876.0,-1422.054785209032,-521.1555325896547,-704.241431691807
380571.0,8444.0,380571.0,23847.0,380571.0,21903.0,-1434.808896074947,-525.3132282714771,-709.8807432698454
380581.0,8434.0,380581.0,23825.0,380581.0,21875.0,-1447.5277382518464,-529.4232258384186,-715.4578197420875
380581.0,8427.0,380581.0,23831.0,380581.0,21876.0,-1460.1999358801904,-533.4787801867874,-720.9619122004683
380581.0,8456.0,380581.0,23905.0,380581.0,21904.0,-1472.8132472180391,-537.4727733575616,-726.381609159366
380581.0,8462.0,380581.0,23927.0,380581.0,21918.0,-1485.3541501919426,-541.3969749710965,-731.7045577184338
380581.0,8430.0,380581.0,23880.0,380581.0,21884.0,-1497.807239852869,-545.2409202042601,-736.9169467564682
380581.0,8396.0,380581.0,23830.0,380581.0,21867.0,-1510.154921849341,-548.9913789955431,-742.0032402766232
380592.0,8372.0,380592.0,23804.0,380592.0,21856.0,-1522.3776796684087,-552.6329247747609,-746.9464062219296
380592.0,8358.0,380592.0,23773.0,380592.0,21848.0,-1534.4546227722049,-556.1490223332898,-751.7283053250779
380592.0,8335.0,380592.0,23738.0,380592.0,21826.0,-1546.363947938487,-559.523040347444,-756.3299754318142
380592.0,8328.0,380592.0,23776.0,380592.0,21843.0,-1558.0832476911175,-562.739025153686,-760.7318361644749
380592.0,8330.0,380592.0,23764.0,380592.0,21828.0,-1569.5896847340034,-565.782029883338,-764.9137821561817
380592.0,8329.0,380592.0,23827.0,380592.0,21823.0,-1580.859964304362,-568.6378578083828,-768.8551553690123
380602.0,8342.0,380602.0,23786.0,380602.0,21814.0,-1591.8700889946324,-571.2924389458123,-772.5347529718198
380602.0,8326.0,380602.0,23828.0,380602.0,21832.0,-1602.5949979853342,-573.7312329882479,-775.9308795404964
380602.0,8357.0,380602.0,23886.0,380602.0,21861.0,-1613.008190632112,-575.9386914046366,-779.0211993972404
380602.0,8329.0,380602.0,23882.0,380602.0,21862.0,-1623.081343318045,-577.8974048049198,-781.7822501573598
380602.0,8311.0,380602.0,23788.0,380602.0,21803.0,-1632.7840297142511,-579.587286185857,-784.188970337983
380602.0,8297.0,380602.0,23771.0,380602.0,21791.0,-1642.0837578578178,-580.9857903436908,-786.2148246216541
380612.0,8267.0,380612.0,23716.0,380612.0,21779.0,-1650.9462805087758,-582.0691579576542,-787.8324931801316
380612.0,8254.0,380612.0,23749.0,380612.0,21771.0,-1659.3360037693958,-582.8137177231694,-789.0145370077612
380612.0,8237.0,380612.0,23724.0,380612.0,21765.0,-1667.2164222131958,-583.1966239816891,-789.733781103066
380612.0,8258.0,380612.0,23745.0,380612.0,21777.0,-1674.55044000818,-583.1960650037722,-789.9635155410347
380612.0,8252.0,380612.0,23752.0,380612.0,21782.0,-1681.3003990997668,-582.7912077661385,-789.6775234064667
380612.0,8233.0,380612.0,23759.0,380612.0,21778.0,-1687.4279067188966,-581.9620013511451,-788.8499566884549
380623.0,8229.0,380623.0,23778.0,380623.0,21787.0,-1692.8937852043002,-580.6888841670564,-787.4552107397044
380623.0,8236.0,380623.0,23818.0,380623.0,21796.0,-1697.658197997186,-578.9523855236622,-785.4678406360797
380623.0,8265.0,380623.0,23832.0,380623.0,21816.0,-1701.6806414223947,-576.732506851012,-782.8624028906272
380623.0,8230.0,380623.0,23789.0,380623.0,21790.0,-1704.919682121668,-574.0080916422264,-779.613233465632
380623.0,8198.0,380623.0,23740.0,380623.0,21763.0,-1707.3328441694373,-570.7568060540798,-775.6944603930789
380623.0,8182.0,380623.0,23709.0,380623.0,21741.0,-1708.8770418343381,-566.956008096972,-771.0805047956935
380633.0,8171.0,380633.0,23713.0,380633.0,21739.0,-1709.5093367449706,-562.5840042439393,-765.7468849559698
380633.0,8184.0,380633.0,23707.0,380633.0,21749.0,-1709.1875452699298,-557.6210061112558,-759.6708972453802
380633.0,8172.0,380633.0,23722.0,380633.0,21749.0,-1707.870535593698,-552.0495855261665,-752.8319622050155
380633.0,8180.0,380633.0,23701.0,380633.0,21775.0,-1705.5183534586222,-545.8548532449554,-745.211705311425
380633.0,8195.0,380633.0,23743.0,380633.0,21766.0,-1702.092303369531,-539.0245763942644,-736.7939066554299
380633.0,8188.0,380633.0,23760.0,380633.0,21741.0,-1697.5549622660765,-531.5491440478929,-727.5645326167337
380643.0,8188.0,380643.0,23763.0,380643.0,21773.0,-1691.870195718467,-523.4212680071787,-717.5120423091514
380643.0,8226.0,380643.0,23847.0,380643.0,21838.0,-1685.0032466608864,-514.6355202848612,-706.6276171195669
380643.0,8225.0,380643.0,23834.0,380643.0,21813.0,-1676.9207116473642,-505.1876771790862,-694.9048401622688
380643.0,8207.0,380643.0,23777.0,380643.0,21798.0,-1667.5904320607879,-495.0741392750738,-682.3392812706467
380643.0,8186.0,380643.0,23766.0,380643.0,21796.0,-1656.9817202616478,-484.2921864080667,-668.9287122246443
380643.0,8194.0,380643.0,23737.0,380643.0,21797.0,-1645.0660370618539,-472.8410737696568,-654.6737783134289
380654.0,8200.0,380654.0,23764.0,380654.0,21797.0,-1631.8177329517393,-460.72317593467045,-639.5786183430369
380654.0,8208.0,380654.0,23729.0,380654.0,21815.0,-1617.2145504332789,-447.9447599062863,-623.651321752287
380654.0,8239.0,380654.0,23779.0,380654.0,21845.0,-1601.2379024441261,-434.51648220248,-606.9042044801499
380654.0,8243.0,380654.0,23805.0,380654.0,21887.0,-1583.8729963908693,-420.45360370024673,-589.3537737990009
380654.0,8275.0,380654.0,23864.0,380654.0,21897.0,-1565.1088731933164,-405.775709398717,-571.0203979030621
380654.0,8299.0,380654.0,23882.0,380654.0,21922.0,-1544.9384184779947,-390.50599332108897,-551.9279508967938
380664.0,8353.0,380664.0,23934.0,380664.0,21974.0,-1523.3582552048201,-374.67044791338276,-532.1035741866172
380664.0,8380.0,380664.0,24013.0,380664.0,22021.0,-1500.368418793495,-358.29702195900177,-511.5773066126001
380664.0,8372.0,380664.0,23970.0,380664.0,22023.0,-1475.9720111592555,-341.41467737360466,-490.3814853072469
380664.0,8404.0,380664.0,23928.0,380664.0,22046.0,-1450.1752039958774,-324.0529288391985,-468.5503028433951
380664.0,8400.0,380664.0,23952.0,380664.0,22044.0,-1422.987619532939,-306.2424522193795,-446.1197989001063
380664.0,8438.0,380664.0,23979.0,380664.0,22069.0,-1394.4228153569625,-288.0160889190115,-423.12813963038985
380674.0,8461.0,380674.0,23979.0,380674.0,22096.0,-1364.498688815518,-269.40933248694967,-399.6159184518195
380674.0,8494.0,380674.0,24030.0,380674.0,22144.0,-1333.2377277008586,-250.4603712658086,-375.6262483383814
380674.0,8559.0,380674.0,24067.0,380674.0,22180.0,-1300.6670742455694,-231.20992878146816,-351.20453299156725
380674.0,8592.0,380674.0,24112.0,380674.0,22211.0,-1266.8183531274724,-211.70080552253148,-326.39803489435155
380674.0,8632.0,380674.0,24139.0,380674.0,22261.0,-1231.727347598439,-191.97721388718816,-301.2554310342466
380674.0,8696.0,380674.0,24196.0,380674.0,22287.0,-1195.433721036358,-172.08411943306723,-275.82639119638
380685.0,8781.0,380685.0,24283.0,380685.0,22362.0,-1157.9806512205146,-152.06646760886738,-250.1610963065509
380685.0,8812.0,380685.0,24321.0,380685.0,22387.0,-1119.4141595106712,-131.96803751225286,-224.30961832057474
380685.0,8821.0,380685.0,24279.0,380685.0,22427.0,-1079.7824957805083,-111.83028752560287,-198.32124301420646
380685.0,8857.0,380685.0,24279.0,380685.0,22413.0,-1039.1361199724788,-91.69205757405791,-172.24404571109494
380685.0,8883.0,380685.0,24253.0,380685.0,22420.0,-997.5281815691659,-71.59029261001345,-146.124989533389
380685.0,8967.0,380685.0,24288.0,380685.0,22460.0,-955.0149550054133,-51.561089898997096,-120.01042521560896
380695.0,9012.0,380695.0,24277.0,380695.0,22483.0,-911.655862997576,-31.640482017849763,-93.9465113326807
380695.0,9077.0,380695.0,24370.0,380695.0,22531.0,-867.513126436094,-11.864764153812587,-67.97925999496658
380695.0,9134.0,380695.0,24373.0,380695.0,22573.0,-822.6513202122485,7.729724512345172,-42.15428746031591
380695.0,9194.0,380695.0,24406.0,380695.0,22616.0,-777.1369685542564,27.107170213447432,-16.516375431088022
380695.0,9260.0,380695.0,24462.0,380695.0,22641.0,-731.0381413561303,46.23280526936401,8.891039038151007
380695.0,9347.0,380695.0,24505.0,380695.0,22688.0,-684.4239683981123,65.07344189088383,34.02629266507142
380706.0,9412.0,380706.0,24562.0,380706.0,22738.0,-637.3639660479332,83.59827724342551,58.84989406727908
380706.0,9448.0,380706.0,24564.0,380706.0,22742.0,-589.9273077741927,101.7797988190963,83.32498532896284
380706.0,9489.0,380706.0,24522.0,380706.0,22745.0,-542.1824187069359,119.59427708115629,107.4176173410761
380706.0,9517.0,380706.0,24510.0,380706.0,22750.0,-494.1970559264478,137.02139295597698,131.0965426223931
380706.0,9561.0,380706.0,24500.0,380706.0,22771.0,-446.03869012426117,154.04317296354344,154.33269064663534
380706.0,9624.0,380706.0,24535.0,380706.0,22792.0,-397.77490311204224,170.64294095961895,177.09870917854107
380716.0,9691.0,380716.0,24546.0,380716.0,22817.0,-349.4735298288225,186.8047768265294,199.36873649017951
380716.0,9774.0,380716.0,24576.0,380716.0,22864.0,-301.2024050383616,202.51345635503293,221.1183992784019
380716.0,9830.0,380716.0,24571.0,380716.0,22898.0,-253.02880156132608,217.75456523253206,242.32505938416432
380716.0,9880.0,380716.0,24640.0,380716.0,22901.0,-205.01883307265996,232.51462168689795,262.96820891640857
380716.0,9954.0,380716.0,24657.0,380716.0,22934.0,-157.2370439207258,246.7813883620929,283.0297210727466
380716.0,10026.0,380716.0,24714.0,380716.0,22976.0,-109.74606240596165,260.5445134942375,302.49394315356017
380726.0,10097.0,380726.0,24735.0,380726.0,22991.0,-62.60607663184305,273.79633583218566,321.34791365225385
380726.0,10117.0,380726.0,24697.0,380726.0,22989.0,-15.874254348700788,286.53250959689,339.5816351216978
380726.0,10147.0,380726.0,24657.0,380726.0,22989.0,30.395476248453292,298.7519458170956,357.18803896796123
380726.0,10203.0,380726.0,24661.0,380726.0,22993.0,76.1521611519396,310.4559163833393,374.1625878582404
380726.0,10237.0,380726.0,24673.0,380726.0,22999.0,121.34744269743601,321.6469725041186,390.5027669199558
380726.0,10263.0,380726.0,24668.0,380726.0,23013.0,165.93529756068745,332.32830893772496,406.2076581641925
380737.0,10358.0,380737.0,24675.0,380737.0,23033.0,209.8718314598018,342.50348083863923,421.27767310122147
380737.0,10386.0,380737.0,24687.0,380737.0,23050.0,253.11529395887283,352.176191826641,435.71446989284277
380737.0,10442.0,380737.0,24721.0,380737.0,23054.0,295.62635729769045,361.3502078084416,449.5209821785545
380737.0,10500.0,380737.0,24706.0,380737.0,23075.0,337.3683772823258,370.0294895253255,462.7014259594258
380737.0,10565.0,380737.0,24796.0,380737.0,23121.0,378.307645606512,378.2184890643764,475.2613451579988
380737.0,10623.0,380737.0,24835.0,380737.0,23121.0,418.41382502025044,385.9228024534567,487.2078819001125
380747.0,10664.0,380747.0,24846.0,380747.0,23122.0,457.66047736932376,393.15029151438046,498.5501114643654
380747.0,10663.0,380747.0,24762.0,380747.0,23101.0,496.02537181122716,399.91193410085,509.29903894802635
380747.0,10667.0,380747.0,24722.0,380747.0,23110.0,533.4902421771803,406.22146952723585,519.4671885518666
380747.0,10709.0,380747.0,24698.0,380747.0,23087.0,570.040028612661,412.09396430951097,529.0680380993898
380747.0,10732.0,380747.0,24711.0,380747.0,23099.0,605.6621039606716,417.54430560243065,538.1154724348049
380747.0,10769.0,380747.0,24712.0,380747.0,23102.0,640.3458213284509,422.5863423093224,546.6233301513836
380757.0,10815.0,380757.0,24765.0,380757.0,23149.0,674.0823104061594,427.23271589551734,554.6052111775032
380757.0,10863.0,380757.0,24781.0,380757.0,23145.0,706.8644743224131,431.4952367782581,562.0746641760154
380757.0,10900.0,380757.0,24765.0,380757.0,23134.0,738.6871954243763,435.385518513118,569.0454963053697
380757.0,10931.0,380757.0,24790.0,380757.0,23157.0,769.5475964130787,438.91539583909275,575.5318305156882
380757.0,11002.0,380757.0,24852.0,380757.0,23200.0,799.4452659343078,442.09717881714244,581.5480859960886
380757.0,11006.0,380757.0,24838.0,380757.0,23193.0,828.382545857962,444.94422836501406,587.1092880826535
380768.0,11022.0,380768.0,24795.0,380768.0,23195.0,856.3647466955458,447.4715856528678,592.2315108578852
380768.0,11024.0,380768.0,24769.0,380768.0,23154.0,883.399961218387,449.695871744977,596.9319440004485
380768.0,11025.0,380768.0,24707.0,380768.0,23142.0,909.4984781366918,451.6343699841914,601.2284295640923
380768.0,11071.0,380768.0,24744.0,380768.0,23156.0,934.6721011715017,453.30384509161297,605.138749433348
380768.0,11065.0,380768.0,24740.0,380768.0,23147.0,958.9336565211984,454.7197318615073,608.6801121538024
380768.0,11095.0,380768.0,24758.0,380768.0,23184.0,982.2966924010432,455.8959904071363,611.8690227283215
380778.0,11118.0,380778.0,24750.0,380778.0,23163.0,1004.7752164490673,456.8453259295834,614.7214093564062
380778.0,11160.0,380778.0,24758.0,380778.0,23156.0,1026.3835515171893,457.5793738855165,617.2527455241659
380778.0,11177.0,380778.0,24750.0,380778.0,23169.0,1047.136424752572,458.10876919247437,619.4779584875682
380778.0,11199.0,380778.0,24810.0,380778.0,23191.0,1067.0491397550584,458.4432589675067,621.4113219739853
380778.0,11256.0,380778.0,24880.0,380778.0,23206.0,1086.137724079769,458.5922753369217,623.0666564148435
380778.0,11274.0,380778.0,24845.0,380778.0,23216.0,1104.4192053933916,458.5661116762092,624.457771486819
380788.0,11249.0,380788.0,24779.0,380788.0,23180.0,1121.9119267227331,458.37683176437645,625.5988125503941
380788.0,11250.0,380788.0,24733.0,380788.0,23151.0,1138.635412531407,458.0379178672665,626.504158410044
380788.0,11258.0,380788.0,24706.0,380788.0,23161.0,1154.6097182555563,457.56291842372536,627.1878497043026
380788.0,11272.0,380788.0,24699.0,380788.0,23160.0,1169.854762536364,456.9640743932643,627.6630210174584
380788.0,11269.0,380788.0,24723.0,380788.0,23152.0,1184.389906620639,456.2515046525626,627.9416742274932
380788.0,11300.0,380788.0,24751.0,380788.0,23155.0,1198.2336710159923,455.43309171779913,628.0346206551579
380799.0,11325.0,380799.0,24763.0,380799.0,23167.0,1211.4035948540102,454.5149480693701,627.9514418741123
380799.0,11335.0,380799.0,24757.0,380799.0,23163.0,1223.916326411408,453.5020601001573,627.7005518057844
380799.0,11363.0,380799.0,24760.0,380799.0,23188.0,1235.7878187547353,452.398708786601,627.2893780024947
380799.0,11408.0,380799.0,24824.0,380799.0,23201.0,1247.0335652122826,451.20874988692657,626.7246598211224
380799.0,11420.0,380799.0,24823.0,380799.0,23209.0,1257.6690117689718,449.93619064414327,626.0128855040264
380799.0,11399.0,380799.0,24809.0,380799.0,23190.0,1267.7099779128318,448.5859940544662,625.1606959284147
380809.0,11386.0,380809.0,24748.0,380809.0,23153.0,1277.1726199785694,447.16440833407836,624.1749391111381
380809.0,11392.0,380809.0,24694.0,380809.0,23142.0,1286.0728838644677,445.6783721569007,623.0622437134757
380809.0,11407.0,380809.0,24696.0,380809.0,23146.0,1294.4259120642228,444.1342848608063,621.8283906033369
380809.0,11411.0,380809.0,24706.0,380809.0,23146.0,1302.2457485405607,442.5369266152607,620.4779173678295
380809.0,11417.0,380809.0,24712.0,380809.0,23150.0,1309.5452559635676,440.8890788084904,619.0140588053816
380809.0,11442.0,380809.0,24711.0,380809.0,23161.0,1316.3360829679832,439.19166439665804,617.4388633800376
380819.0,11457.0,380819.0,24723.0,380819.0,23149.0,1322.628735657309,437.44398921679743,615.753370181253
380819.0,11462.0,380819.0,24757.0,380819.0,23164.0,1328.4327894068424,435.6440336376222,613.9577673966287
380819.0,11482.0,380819.0,24771.0,380819.0,23180.0,1333.757103013967,433.78897669993796,612.0515605942694
380819.0,11502.0,380819.0,24823.0,380819.0,23185.0,1338.6100065538942,431.8759953018804,610.033886395003
380819.0,11514.0,380819.0,24807.0,380819.0,23202.0,1342.999569910911,429.9031968486924,607.9039492856535
380819.0,11509.0,380819.0,24760.0,380819.0,23169.0,1346.9338889797643,427.87028475055024,605.6613873196266
380830.0,11479.0,380830.0,24712.0,380830.0,23136.0,1350.4211322643434,425.7784144671158,603.3062955493207
380830.0,11485.0,380830.0,24687.0,380830.0,23145.0,1353.4692019075635,423.6292401110442,600.8388060174054
380830.0,11476.0,380830.0,24685.0,380830.0,23139.0,1356.0852132907423,421.4237951266728,598.2586007203241
380830.0,11483.0,380830.0,24687.0,380830.0,23131.0,1358.2751005612333,419.16177769321854,595.5647116965096
380830.0,11517.0,380830.0,24689.0,380830.0,23159.0,1360.0434794081705,416.84133392129536,592.7555394477274
380830.0,11526.0,380830.0,24717.0,380830.0,23146.0,1361.3938377291283,414.4591769602063,589.8290229430934
380840.0,11516.0,380840.0,24731.0,380840.0,23154.0,1362.3289265449362,412.01096922113754,586.7829147103727
380840.0,11532.0,380840.0,24731.0,380840.0,23162.0,1362.851011064153,409.4918888924291,583.6150194182717
380840.0,11567.0,380840.0,24777.0,380840.0,23190.0,1362.9620060914663,406.89721898224343,580.3234729200504
380840.0,11582.0,380840.0,24796.0,380840.0,23178.0,1362.6638498553577,404.22302581773505,576.9071933662568
380840.0,11554.0,380840.0,24774.0,380840.0,23159.0,1361.9590453601652,401.46695547468346,573.3662838567526
380840.0,11551.0,380840.0,24692.0,380840.0,23125.0,1360.8508814812355,398.62859578116854,569.7020284654072
380850.0,11532.0,380850.0,24669.0,380850.0,23117.0,1359.343192061936,395.7088514950991,565.9164553267668
380850.0,11517.0,380850.0,24687.0,380850.0,23100.0,1357.4399220650373,392.70876777528576,562.0117763771926
380850.0,11526.0,380850.0,24649.0,380850.0,23101.0,1355.144709105316,389.6287227211702,557.989974870587
380850.0,11570.0,380850.0,24699.0,380850.0,23109.0,1352.460712970702,386.4682014493518,553.8526276235385
380850.0,11560.0,380850.0,24716.0,380850.0,23134.0,1349.3909237215105,383.22598980230936,549.6010206162173
380850.0,11561.0,380850.0,24688.0,380850.0,23112.0,1345.9386952998104,379.9007108022457,545.2365234936768
380861.0,11543.0,380861.0,24705.0,380861.0,23119.0,1342.1080188569485,376.49128902158526,540.7609456727598
380861.0,11562.0,380861.0,24731.0,380861.0,23130.0,1337.9034972379377,372.997164821461,536.1767202033993
380861.0,11612.0,380861.0,24769.0,380861.0,23133.0,1333.3304434500565,369.41872394134793,531.4871136459935
380861.0,11588.0,380861.0,24746.0,380861.0,23138.0,1328.3954105698533,365.7580861340382,526.6965671155297
380861.0,11544.0,380861.0,24715.0,380861.0,23092.0,1323.1067319796941,362.01969630231997,521.8109477977291
380861.0,11524.0,380861.0,24650.0,380861.0,23064.0,1317.4743877030248,358.21015951704516,516.8373950918416
380871.0,11505.0,380871.0,24622.0,380871.0,23057.0,1311.509299781404,354.3373116805574,511.7837389320958
380871.0,11501.0,380871.0,24605.0,380871.0,23040.0,1305.2226574231563,350.40901334911996,506.65788064086325
380871.0,11481.0,380871.0,24577.0,380871.0,23043.0,1298.625508355921,346.4321703821731,501.467433554696
380871.0,11505.0,380871.0,24614.0,380871.0,23040.0,1291.7285593653,342.4121633131316,496.2196009124256
380871.0,11513.0,380871.0,24649.0,380871.0,23055.0,1284.5422403066627,338.3528309337805,490.92124826322186
380871.0,11515.0,380871.0,24680.0,380871.0,23043.0,1277.0770717179241,334.2571536249279,485.57913778095383
380881.0,11511.0,380881.0,24638.0,380881.0,23037.0,1269.3441110599883,330.1282376282808,480.20016843361003
380881.0,11523.0,380881.0,24684.0,380881.0,23065.0,1261.3552789153857,325.9699545856531,474.7915408368688
380881.0,11521.0,380881.0,24697.0,380881.0,23051.0,1253.1236416838242,321.7873050402992,469.3610044145607
380881.0,11482.0,380881.0,24681.0,380881.0,23046.0,1244.6636483615725,317.58692669929434,463.91719067624234
380881.0,11456.0,380881.0,24582.0,380881.0,23004.0,1235.991049802716,313.3773648066889,458.4697227289303
380881.0,11439.0,380881.0,24568.0,380881.0,22984.0,1227.1224190486191,309.16840218293066,453.0289084897431
380892.0,11429.0,380892.0,24567.0,380892.0,22979.0,1218.074596016982,304.96979471771175,447.60518121277414
380892.0,11393.0,380892.0,24551.0,380892.0,22950.0,1208.8642826785335,300.79038339737815,442.2085986555911
380892.0,11408.0,380892.0,24567.0,380892.0,22961.0,1199.5077214013552,296.63782743313055,436.8485138829031
380892.0,11416.0,380892.0,24568.0,380892.0,22955.0,1190.0205368761767,292.5186607235778,431.5334092920392
380892.0,11417.0,380892.0,24555.0,380892.0,22965.0,1180.417935375618,288.4384912926888,426.27094617615614
380892.0,11404.0,380892.0,24563.0,380892.0,22947.0,1170.7150989426354,284.40217552082913,421.0681546724894
380902.0,11409.0,380902.0,24616.0,380902.0,22964.0,1160.9274684308807,280.41402567148754,415.9316039716507
380902.0,11418.0,380902.0,24651.0,380902.0,22984.0,1151.0709432332626,276.47845529345886,410.86761529216693
380902.0,11397.0,380902.0,24626.0,380902.0,22969.0,1141.1621469500567,272.60104413474426,405.882657039254
380902.0,11368.0,380902.0,24581.0,380902.0,22933.0,1131.2186026527722,268.78926351890345,400.98367504477284
380902.0,11342.0,380902.0,24524.0,380902.0,22937.0,1121.258556145377,265.0522305957512,396.1780015012938
380902.0,11307.0,380902.0,24516.0,380902.0,22900.0,1111.3004749905333,261.3996976456624,391.4729698599096
380912.0,11302.0,380912.0,24465.0,380912.0,22889.0,1101.3624473495174,257.84091969606493,386.8754924705543
380912.0,11297.0,380912.0,24461.0,380912.0,22882.0,1091.4617228922618,254.38372394466955,382.3916371603874
380912.0,11288.0,380912.0,24497.0,380912.0,22896.0,1081.6145429297312,251.03388796078028,378.0263401447985
380912.0,11287.0,380912.0,24521.0,380912.0,22907.0,1071.8361782648892,247.7951360474452,373.78345542534566
380912.0,11290.0,380912.0,24509.0,380912.0,22884.0,1062.1410507899,244.66974143475045,369.666047423151
380912.0,11271.0,380912.0,24542.0,380912.0,22914.0,1052.5429059539015,241.6591978921458,365.676653517912
380923.0,11301.0,380923.0,24561.0,380923.0,22911.0,1043.0550093234226,238.76477044668235,361.8175103173423
380923.0,11279.0,380923.0,24581.0,380923.0,22931.0,1033.6904133322437,235.98816192276124,358.0909176092632
380923.0,11272.0,380923.0,24546.0,380923.0,22910.0,1024.4622553363872,233.33219406592735,354.49966099304174
380923.0,11218.0,380923.0,24490.0,380923.0,22874.0,1015.3837991806924,230.8009871397654,351.04718752940244
380923.0,11203.0,380923.0,24459.0,380923.0,22844.0,1006.4680316462495,228.39932827441461,347.7372894467516
380923.0,11191.0,380923.0,24448.0,380923.0,22834.0,997.7270217969239,226.13158056750868,344.57340507708295
380933.0,11162.0,380933.0,24435.0,380933.0,22842.0,989.1713888677372,224.00076824230945,341.55798212403204
380933.0,11190.0,380933.0,24447.0,380933.0,22841.0,980.8099997347052,222.0080947465361,338.6922249302635
380933.0,11200.0,380933.0,24466.0,380933.0,22863.0,972.6499826460255,220.1528613218144,335.9762034077155
380933.0,11186.0,380933.0,24477.0,380933.0,22860.0,964.6971014482112,218.43274957895653,333.4091697877326
380933.0,11181.0,380933.0,24499.0,380933.0,22848.0,956.9561561587416,216.84434060316678,330.98989295505953
380933.0,11175.0,380933.0,24510.0,380933.0,22850.0,949.4311263730447,215.38370673534513,328.71680801336925
380944.0,11212.0,380944.0,24566.0,380944.0,22876.0,942.1252657888705,214.04708422478592,326.58805801981794
380944.0,11194.0,380944.0,24540.0,380944.0,22887.0,935.0414391302609,212.83167948528708,324.6017416119764
380944.0,11174.0,380944.0,24495.0,380944.0,22835.0,928.1825354158699,211.73624884359566,322.7562937291182
380944.0,11125.0,380944.0,24429.0,380944.0,22830.0,921.5514778537627,210.7608245127038,321.0504874856855
380944.0,11116.0,380944.0,24401.0,380944.0,22816.0,915.1506906326007,209.90554028876355,319.48295606152675
380944.0,11122.0,380944.0,24414.0,380944.0,22809.0,908.9814333340727,209.1692693326608,318.0516818941277
380954.0,11093.0,380954.0,24404.0,380954.0,22812.0,903.0434258519648,208.54879651520446,316.75370214001356
380954.0,11131.0,380954.0,24473.0,380954.0,22808.0,897.334765805834,208.03872369822716,315.58498392946365
380954.0,11116.0,380954.0,24450.0,380954.0,22834.0,891.8520514394861,207.63195425498103,314.54045939309765
380954.0,11126.0,380954.0,24479.0,380954.0,22827.0,886.590679707235,207.320390705867,313.6142428503346
380954.0,11134.0,380954.0,24485.0,380954.0,22826.0,881.5451638269869,207.09547939693778,312.79991699192914
380954.0,11131.0,380954.0,24539.0,380954.0,22865.0,876.7094158029729,206.94870973015998,312.09077289072593
380964.0,11154.0,380964.0,24564.0,380964.0,22842.0,872.0770568247688,206.8723960534858,311.4801112997704
380964.0,11126.0,380964.0,24502.0,380964.0,22855.0,867.6417294253837,206.86054819746573,310.96157914118305
380964.0,11116.0,380964.0,24449.0,380964.0,22809.0,863.3972497022969,206.90904367172433,310.5292580778717
380964.0,11090.0,380964.0,24431.0,380964.0,22803.0,859.3374358836035,207.014747563815,310.1773697832558
380964.0,11074.0,380964.0,24434.0,380964.0,22807.0,855.4556802230882,207.17430274932616,309.8997721429902
380964.0,11060.0,380964.0,24401.0,380964.0,22778.0,851.7444485869099,207.38333728015616,309.6895481147594
380975.0,11084.0,380975.0,24445.0,380975.0,22808.0,848.1948961569266,207.6360910954429,309.538770422489
380975.0,11101.0,380975.0,24446.0,380975.0,22793.0,844.7968443674237,207.92538125376976,309.4384119562932
380975.0,11094.0,380975.0,24487.0,380975.0,22841.0,841.5391456686175,208.2429847973498,309.37848713073515
380975.0,11082.0,380975.0,24462.0,380975.0,22826.0,838.4100661013443,208.58023912714404,309.34843865634355
380975.0,11125.0,380975.0,24495.0,380975.0,22845.0,835.3974634286676,208.92851813876152,309.33760207303504
380975.0,11124.0,380975.0,24544.0,380975.0,22876.0,832.4890485657149,209.2796451021947,309.33562290908986
380985.0,11120.0,380985.0,24553.0,380985.0,22873.0,829.6728602119432,209.6266048000715,309.3329320357624
380985.0,11114.0,380985.0,24505.0,380985.0,22848.0,826.937609044776,209.96434673533005,309.3211945484487
380985.0,11081.0,380985.0,24426.0,380985.0,22816.0,824.272667223488,210.28982561881764,309.2933196404367
380985.0,11052.0,380985.0,24407.0,380985.0,22808.0,821.6677076145862,210.60092919814582,309.2429447185742
380985.0,11055.0,380985.0,24414.0,380985.0,22808.0,819.1120882009104,210.89502612345797,309.163798738341
380985.0,11066.0,380985.0,24425.0,380985.0,22801.0,816.5943361648858,211.16809520019666,309.04930721639664
380995.0,11084.0,380995.0,24474.0,380995.0,22822.0,814.1020760265337,211.41470325606033,308.89247555551736
380995.0,11091.0,380995.0,24478.0,380995.0,22817.0,811.6223556616798,211.62858081263968,308.68597601853196
380995.0,11079.0,380995.0,24433.0,380995.0,22836.0,809.1420589434651,211.80328170668406,308.4223738165682
380995.0,11086.0,380995.0,24474.0,380995.0,22821.0,806.648142336335,211.93239057107766,308.0943771929231
380995.0,11115.0,380995.0,24537.0,380995.0,22858.0,804.1277646671825,212.00959003018724,307.6950570980665
380995.0,11119.0,380995.0,24538.0,380995.0,22888.0,801.568599881302,212.02933860924293,307.21820465444796
381005.0,11105.0,381005.0,24517.0,381005.0,22842.0,798.9592947412932,211.98786813701895,306.65888531572915
381005.0,11078.0,381005.0,24452.0,381005.0,22814.0,796.2896691414426,211.88351526068507,306.0136839855169
381005.0,11065.0,381005.0,24422.0,381005.0,22787.0,793.5504651241282,211.71604518248964,305.2802263908709
381005.0,11063.0,381005.0,24405.0,381005.0,22790.0,790.732879679228,211.48544932359593,304.4563613312394
381005.0,11042.0,381005.0,24393.0,381005.0,22783.0,787.8281791158366,211.19088476312632,303.53957255222787
381005.0,11041.0,381005.0,24432.0,381005.0,22798.0,784.827423627051,210.83011164060173,302.5267660287267
381015.0,11043.0,381015.0,24444.0,381015.0,22800.0,781.7212497163102,210.39952771864796,301.41433560311714
381015.0,11062.0,381015.0,24437.0,381015.0,22799.0,778.4998261269216,209.8946342331963,300.19836744084
381015.0,11060.0,381015.0,24424.0,381015.0,22825.0,775.1530685716108,209.31043328444167,298.87487818276605
381015.0,11061.0,381015.0,24477.0,381015.0,22817.0,771.6709658441497,208.64156667870463,297.44010917662564
381015.0,11097.0,381015.0,24539.0,381015.0,22831.0,768.0438941856765,207.8827286135591,295.8908708391337
381015.0,11088.0,381015.0,24531.0,381015.0,22826.0,764.2630295022195,207.02972675717862,294.2248300072727
381025.0,11072.0,381025.0,24477.0,381025.0,22804.0,760.3207929770922,206.08051798210195,292.44065942773176
381025.0,11034.0,381025.0,24421.0,381025.0,22774.0,756.2109438266631,205.03522725674117,290.53791589178235
381025.0,11018.0,381025.0,24408.0,381025.0,22764.0,751.9281656391499,203.89513356968783,288.51658230052215
381025.0,11026.0,381025.0,24399.0,381025.0,22757.0,747.4674702949397,202.66147690084904,286.37650843036425
381025.0,11029.0,381025.0,24376.0,381025.0,22751.0,742.8238668858338,201.33468523236772,284.1170256304556
381025.0,11032.0,381025.0,24381.0,381025.0,22759.0,737.9924212667656,199.91394062238084,281.73678403057943
381036.0,11021.0,381036.0,24429.0,381036.0,22781.0,732.968471648197,198.39701148024199,279.23381228218153
381036.0,11010.0,381036.0,24443.0,381036.0,22783.0,727.7477453958176,196.78060201053586,276.60583832411953
381036.0,11018.0,381036.0,24428.0,381036.0,22781.0,722.3263407570109,195.06109139793125,273.85072957097725
381036.0,11042.0,381036.0,24493.0,381036.0,22799.0,716.700788162172,193.23519535092592,270.9668441473152
381036.0,11039.0,381036.0,24529.0,381036.0,22807.0,710.8683956172717,191.30067962689444,267.9533458460043
381036.0,11011.0,381036.0,24494.0,381036.0,22777.0,704.8276799683133,189.25736645265658,264.81053547323955
381046.0,10992.0,381046.0,24385.0,381046.0,22748.0,698.5784611607503,187.10765679330433,261.53991325827957
381046.0,10952.0,381046.0,24368.0,381046.0,22728.0,692.1215041861221,184.85570839149304,258.1437699451507
381046.0,10942.0,381046.0,24356.0,381046.0,22721.0,685.4579110945601,182.50584019581316,254.6245655566545
381046.0,10934.0,381046.0,24382.0,381046.0,22723.0,678.5885342313316,180.06143193010342,250.9844762212319
381046.0,10939.0,381046.0,24324.0,381046.0,22732.0,671.5136514885405,177.52462021232967,247.22526481374211
381046.0,10938.0,381046.0,24372.0,381046.0,22715.0,664.2329662811862,174.89622043272294,243.34839236828438
381056.0,10956.0,381056.0,24393.0,381056.0,22733.0,656.7458391448207,172.17575289993084,239.35517795069606
381056.0,10940.0,381056.0,24395.0,381056.0,22733.0,649.0516477484181,169.361899043195,235.2469684886476
381056.0,10945.0,381056.0,24414.0,381056.0,22733.0,641.150129627265,166.45320149668845,231.02539541297477
381056.0,10959.0,381056.0,24479.0,381056.0,22741.0,633.0416489595947,163.44876322803447,226.692663420661
381056.0,10947.0,381056.0,24457.0,381056.0,22738.0,624.7275088098725,160.34914406840107,222.2518105891493
381056.0,10894.0,381056.0,24411.0,381056.0,22690.0,616.2101873961332,157.1571652678188,217.70685274537695
381067.0,10887.0,381067.0,24342.0,381067.0,22673.0,607.4931421600278,153.87782672784581,213.0625610478029
381067.0,10867.0,381067.0,24298.0,381067.0,22664.0,598.5802766729353,150.51718908985694,208.32389086652057
381067.0,10852.0,381067.0,24336.0,381067.0,22653.0,589.4754932252355,147.08097739884678,203.49546453143688
381067.0,10832.0,381067.0,24308.0,381067.0,22642.0,580.1824139476873,143.57378647866034,198.58129802262266
381067.0,10856.0,381067.0,24322.0,381067.0,22647.0,570.7042055809507,139.99899105363562,193.58466622328723
381067.0,10851.0,381067.0,24329.0,381067.0,22643.0,561.0436615764804,136.35889703992626,188.50808232115583
381077.0,10828.0,381077.0,24329.0,381077.0,22651.0,551.2035232078833,132.65496592595412,183.353421606321
381077.0,10821.0,381077.0,24335.0,381077.0,22655.0,541.1866874689022,128.88811823343607,178.1221572009901
381077.0,10840.0,381077.0,24393.0,381077.0,22679.0,530.9962389273044,125.05913624241987,172.81571170225175
381077.0,10839.0,381077.0,24399.0,381077.0,22665.0,520.6356474423833,121.1693865261621,167.43592670614984
381077.0,10827.0,381077.0,24353.0,381077.0,22653.0,510.1091963976112,117.2216841715948,161.98546600061198
381077.0,10770.0,381077.0,24321.0,381077.0,22628.0,499.4222365846307,113.22056806878751,156.46790344365482
381087.0,10738.0,381087.0,24264.0,381087.0,22596.0,488.5808891830182,109.17169373536359,150.88745091576922
381087.0,10719.0,381087.0,24258.0,381087.0,22584.0,477.59130694342895,105.08077256242942,145.24845372661392
381087.0,10706.0,381087.0,24225.0,381087.0,22579.0,466.4589750252739,100.95257538266722,139.5548779769468
381087.0,10712.0,381087.0,24240.0,381087.0,22570.0,455.18837306584766,96.79026124800691,133.81000830137066
381087.0,10720.0,381087.0,24287.0,381087.0,22584.0,443.7830286603339,92.59519519188706,128.0163943168448
381087.0,10706.0,381087.0,24278.0,381087.0,22574.0,432.24585282269373,88.3673803447603,122.1759849583762
381098.0,10688.0,381098.0,24281.0,381098.0,22581.0,420.5794841038072,84.10618460521857,116.29036561975263
381098.0,10700.0,381098.0,24310.0,381098.0,22571.0,408.78645305853024,79.810894377826,110.36098672661524
381098.0,10710.0,381098.0,24323.0,381098.0,22586.0,396.8693673160758,75.48120466769578,104.38936547167128
381098.0,10690.0,381098.0,24340.0,381098.0,22588.0,384.83131144016727,71.11788838995753,98.3773476789749
381098.0,10656.0,381098.0,24283.0,381098.0,22546.0,372.67619030767025,66.72338990496428,92.32737712570662
381098.0,10631.0,381098.0,24231.0,381098.0,22521.0,360.40866174798225,62.30180241443165,86.2424545339054
381108.0,10593.0,381108.0,24194.0,381108.0,22513.0,348.0337028351488,57.85801867301427,80.12568091916268
381108.0,10593.0,381108.0,24202.0,381108.0,22511.0,335.5560869319886,53.396564868306086,73.97977577919431
381108.0,10569.0,381108.0,24165.0,381108.0,22473.0,322.9800101263372,48.92078130291111,67.80682703805616
381108.0,10576.0,381108.0,24190.0,381108.0,22506.0,310.3089640443818,44.43244283408188,61.608139095529
381108.0,10573.0,381108.0,24230.0,381108.0,22522.0,297.5458326422654,39.931760280119335,55.384267957543955
381108.0,10562.0,381108.0,24213.0,381108.0,22497.0,284.6931541696496,35.4178679669956,49.13541946489153
381118.0,10554.0,381118.0,24230.0,381118.0,22483.0,271.7534085678034,30.88951205687431,42.86183418508739
381118.0,10556.0,381118.0,24238.0,381118.0,22510.0,258.72923712066995,26.345551122851475,36.563853373172776
381118.0,10556.0,381118.0,24296.0,381118.0,22513.0,245.62369343220462,21.785467323816647,30.24203632833337
381118.0,10529.0,381118.0,24232.0,381118.0,22493.0,232.44055599160345,17.210086529546942,23.89754162021029
381118.0,10479.0,381118.0,24177.0,381118.0,22456.0,219.18444116036062,12.621932667886938,17.532351228295397
381118.0,10456.0,381118.0,24174.0,381118.0,22433.0,205.8604634897472,8.024665812697037,11.148995545396417
381129.0,10433.0,381129.0,24135.0,381129.0,22416.0,192.47361523505265,3.422091650946811,4.749963340424699
381129.0,10427.0,381129.0,24114.0,381129.0,22424.0,179.02826964736073,-1.1826263796226613,-1.6628027006573234
381129.0,10408.0,381129.0,24124.0,381129.0,22416.0,165.52796978103902,-5.7875442994280775,-8.08808815686399
381129.0,10404.0,381129.0,24166.0,381129.0,22428.0,151.97540553662134,-10.392166625406276,-14.525297194789857
381129.0,10402.0,381129.0,24131.0,381129.0,22419.0,138.37249787213818,-14.9971229054442,-20.97420285257158
381129.0,10396.0,381129.0,24138.0,381129.0,22401.0,124.72060425594066,-19.603706630951933,-27.434721230586717
381139.0,10391.0,381139.0,24152.0,381139.0,22421.0,111.02081493547053,-24.213673161940505,-33.90680673969541
381139.0,10400.0,381139.0,24219.0,381139.0,22436.0,97.2742853287848,-28.828922242475244,-40.39028830385837
381139.0,10383.0,381139.0,24183.0,381139.0,22424.0,83.48261461222364,-33.450690671118195,-46.884454271436766
381139.0,10366.0,381139.0,24179.0,381139.0,22404.0,69.64818546065987,-38.078728626101,-53.387643059821585
381139.0,10321.0,381139.0,24090.0,381139.0,22370.0,55.774248342321016,-42.71119624798263,-59.89721799756836
381139.0,10276.0,381139.0,24089.0,381139.0,22335.0,41.86459850743233,-47.34540798438093,-66.40998308401629
381149.0,10281.0,381149.0,24064.0,381149.0,22322.0,27.922962941003107,-51.978894535537904,-72.92285154255921
381149.0,10255.0,381149.0,24048.0,381149.0,22318.0,13.952503926615577,-56.6101955981091,-79.43345965942478
381149.0,10252.0,381149.0,24089.0,381149.0,22339.0,-0.04433019370662805,-61.23921550832327,-85.94042649188037
381149.0,10245.0,381149.0,24086.0,381149.0,22330.0,-14.065746803532988,-65.86711349575955,-92.4431866668503
381149.0,10257.0,381149.0,24102.0,381149.0,22333.0,-28.110414254342004,-70.49579533634287,-98.94162095046914
381149.0,10222.0,381149.0,24087.0,381149.0,22324.0,-42.177132655485366,-75.12736861964348,-105.43575781483759
381160.0,10237.0,381160.0,24117.0,381160.0,22335.0,-56.264538232083396,-79.76376799674915,-111.92557839184633
381160.0,10236.0,381160.0,24159.0,381160.0,22349.0,-70.37085951238919,-84.40630345631985,-118.41076292208339
381160.0,10215.0,381160.0,24111.0,381160.0,22331.0,-84.49357766682442,-89.05495956012152,-124.89030787594965
381160.0,10158.0,381160.0,24073.0,381160.0,22271.0,-98.62920557857421,-93.70795558177718,-131.36231327349128
381160.0,10136.0,381160.0,24007.0,381160.0,22273.0,-112.77355809681649,-98.36218581095014,-137.82430855495926
381160.0,10110.0,381160.0,24008.0,381160.0,22243.0,-126.92237799747477,-103.01433365731421,-144.27390457144912
381170.0,10099.0,381170.0,23999.0,381170.0,22245.0,-141.0718705428967,-107.66190479692273,-150.70929214933034
381170.0,10082.0,381170.0,23983.0,381170.0,22241.0,-155.21896666455154,-112.303748404316,-157.12946587750906
381170.0,10086.0,381170.0,24020.0,381170.0,22253.0,-169.3613715555406,-116.94016368196986,-163.53420960108656
381170.0,10067.0,381170.0,24028.0,381170.0,22251.0,-183.49744936852778,-121.57266660105836,-169.92385984583336
381170.0,10061.0,381170.0,24023.0,381170.0,22238.0,-197.62603111895044,-126.20345125201777,-176.29899491648376
381170.0,10053.0,381170.0,24033.0,381170.0,22240.0,-211.74624299185302,-130.83486348743355,-182.6602358457174
381181.0,10072.0,381181.0,24092.0,381181.0,22266.0,-225.8572822440159,-135.46893941248754,-189.00809239793853
381181.0,10058.0,381181.0,24079.0,381181.0,22263.0,-239.95800717338068,-140.1066747447996,-195.34260924417197
381181.0,10017.0,381181.0,24034.0,381181.0,22218.0,-254.04651118383458,-144.74725164578518,-201.6629418160805
381181.0,9985.0,381181.0,23960.0,381181.0,22197.0,-268.120083710646,-149.3880304628936,-207.96735158267035
381181.0,9957.0,381181.0,23945.0,381181.0,22170.0,-282.1756309266027,-154.02552901805268,-214.2537158930815
381181.0,9940.0,381181.0,23962.0,381181.0,22158.0,-296.21021835573185,-158.6566164587191,-220.520163884309
381191.0,9935.0,381191.0,23908.0,381191.0,22169.0,-310.22143395860473,-163.27917501984604,-226.7655086504953
381191.0,9919.0,381191.0,23964.0,381191.0,22164.0,-324.20749285826366,-167.89230668954764,-232.98934418851542
381191.0,9911.0,381191.0,23964.0,381191.0,22172.0,-338.1671728305081,-172.49624674133634,-239.19185775123862
381191.0,9906.0,381191.0,23969.0,381191.0,22164.0,-352.0996939490484,-177.09189512182638,-245.3735478544205
381191.0,9889.0,381191.0,23944.0,381191.0,22153.0,-366.00456671584107,-181.68030163004477,-251.5350037628703
381191.0,9894.0,381191.0,24010.0,381191.0,22153.0,-379.88141477968486,-186.26238009248146,-257.676809179805
381201.0,9910.0,381201.0,24040.0,381201.0,22186.0,-393.7297034602284,-190.838396172697,-263.79943048822065
381201.0,9874.0,381201.0,23988.0,381201.0,22162.0,-407.54830933963865,-195.40704059105315,-269.90287704007835
381201.0,9837.0,381201.0,23927.0,381201.0,22137.0,-421.3352264112277,-199.96494581258355,-275.9863419269076
381201.0,9810.0,381201.0,23899.0,381201.0,22114.0,-435.08775893098743,-204.5073120528353,-282.0482502405414
381201.0,9776.0,381201.0,23871.0,381201.0,22096.0,-448.8030593789058,-209.02911249177998,-288.08668854288226
381201.0,9773.0,381201.0,23847.0,381201.0,22075.0,-462.4786534172946,-213.52612906262164,-294.0998998927857
381212.0,9751.0,381212.0,23870.0,381212.0,22088.0,-476.11275968219365,-217.9956125452199,-300.08666032868524
381212.0,9766.0,381212.0,23866.0,381212.0,22072.0,-489.7043498469699,-222.4365023326667,-306.0464316269545
381212.0,9757.0,381212.0,23885.0,381212.0,22070.0,-503.2529530663053,-226.84921607636636,-311.97932275401627
381212.0,9737.0,381212.0,23883.0,381212.0,22072.0,-516.7583201922505,-231.235235903364,-317.8860138334504
381212.0,9731.0,381212.0,23912.0,381212.0,22093.0,-530.2201805129662,-235.59664702553067,-323.7676062007348
381212.0,9740.0,381212.0,23956.0,381212.0,22107.0,-543.6381092435186,-239.93551942128232,-329.6252305603705
381222.0,9735.0,381222.0,23923.0,381222.0,22100.0,-557.011271034102,-244.2530718225446,-335.45946381018484
381222.0,9693.0,381222.0,23904.0,381222.0,22068.0,-570.3380799916483,-248.54904090860373,-341.2698904420903
381222.0,9649.0,381222.0,23854.0,381222.0,22034.0,-583.6161850393839,-252.82175148616767,-347.0551444439975
381222.0,9644.0,381222.0,23812.0,381222.0,22026.0,-596.8429263765468,-257.0688451663927,-352.81340338544635
381222.0,9611.0,381222.0,23809.0,381222.0,22009.0,-610.0158867020598,-261.2882851026569,-358.5429603395737
381222.0,9587.0,381222.0,23815.0,381222.0,21999.0,-623.1332701544325,-265.4791531851521,-364.2426065639165
381232.0,9601.0,381232.0,23806.0,381232.0,21998.0,-636.1941616601582,-269.64193012004176,-369.9118432039902
381232.0,9592.0,381232.0,23839.0,381232.0,21984.0,-649.1985655632204,-273.7783717467387,-375.5509827679002
381232.0,9580.0,381232.0,23836.0,381232.0,21987.0,-662.1471608336858,-277.8911495483816,-381.1611747910267
381232.0,9559.0,381232.0,23821.0,381232.0,21988.0,-675.0410541577603,-281.9834010121513,-386.7443698475854
381232.0,9567.0,381232.0,23863.0,381232.0,22029.0,-687.8816948149959,-286.0583901079708,-392.3031004516921
381232.0,9582.0,381232.0,23930.0,381232.0,22017.0,-700.670722633407,-290.11900863803675,-397.8399593912691
381243.0,9558.0,381243.0,23858.0,381243.0,21995.0,-713.4095668483947,-294.1668350421641,-403.3570243381041
381243.0,9514.0,381243.0,23812.0,381243.0,21967.0,-726.0991014017313,-298.20152565996466,-408.85570018378496
381243.0,9507.0,381243.0,23757.0,381243.0,21941.0,-738.739747218194,-302.221384317681,-414.3370761757931
381243.0,9463.0,381243.0,23742.0,381243.0,21943.0,-751.3318959638777,-306.2246832411773,-419.80247198773566
381243.0,9470.0,381243.0,23740.0,381243.0,21940.0,-763.8763233818624,-310.2108145445998,-425.2538124616235
381243.0,9435.0,381243.0,23764.0,381243.0,21932.0,-776.3744667197518,-314.1808190236099,-430.6937095526164
381253.0,9450.0,381253.0,23785.0,381253.0,21931.0,-788.8285480095626,-318.137247743631,-436.1254011678508
381253.0,9446.0,381253.0,23773.0,381253.0,21952.0,-801.2415047045154,-322.08361340312524,-441.55263383632484
381253.0,9432.0,381253.0,23784.0,381253.0,21940.0,-813.6167255815399,-326.02386244780496,-446.97940006512476
381253.0,9417.0,381253.0,23768.0,381253.0,21916.0,-825.9577820501108,-329.9620884152555,-452.4096537121802
381253.0,9423.0,381253.0,23846.0,381253.0,21985.0,-838.2683004719479,-333.9022678277884,-457.8471428874859
381253.0,9443.0,381253.0,23831.0,381253.0,21933.0,-850.551768963543,-337.8476319787501,-463.29510324837963
381263.0,9399.0,381263.0,23781.0,381263.0,21941.0,-862.8111348874706,-341.7998930546704,-468.7558439529412
381263.0,9357.0,381263.0,23732.0,381263.0,21897.0,-875.0485794565491,-345.75917445725645,-474.23069364995706
381263.0,9337.0,381263.0,23681.0,381263.0,21883.0,-887.2658538658479,-349.72492454299544,-479.7203691675054
381263.0,9326.0,381263.0,23717.0,381263.0,21867.0,-899.4648854662532,-353.69712975056905,-485.2254956760769
381263.0,9332.0,381263.0,23720.0,381263.0,21850.0,-911.6481237058422,-357.67697715980256,-490.7470799726557
381263.0,9305.0,381263.0,23729.0,381263.0,21872.0,-923.818524588909,-361.66672969938395,-496.28679924707103
381274.0,9295.0,381274.0,23728.0,381274.0,21865.0,-935.9794447527681,-365.669273348307,-501.8470000619177
381274.0,9297.0,381274.0,23707.0,381274.0,21856.0,-948.1346191097073,-369.68780374144416,-507.43047427478893
381274.0,9275.0,381274.0,23706.0,381274.0,21861.0,-960.2881167160517,-373.72577351368994,-513.0402607470743
381274.0,9277.0,381274.0,23762.0,381274.0,21873.0,-972.4442261820814,-377.7868736261488,-518.679499061162
381274.0,9296.0,381274.0,23793.0,381274.0,21884.0,-984.6072725193203,-381.87454263763567,-524.3511327805744
381274.0,9276.0,381274.0,23744.0,381274.0,21855.0,-996.7812539883648,-385.9910260714408,-530.0575066786668
381284.0,9231.0,381284.0,23702.0,381284.0,21845.0,-1008.9694930912588,-390.1368701402436,-535.8001755691918
381284.0,9206.0,381284.0,23681.0,381284.0,21831.0,-1021.1747366834375,-394.3113739044391,-541.5800460891512
381284.0,9185.0,381284.0,23643.0,381284.0,21813.0,-1033.3996706956195,-398.51351819818234,-547.3976530590253
381284.0,9178.0,381284.0,23635.0,381284.0,21802.0,-1045.6474122510463,-402.74282088410996,-553.25342872819
381284.0,9173.0,381284.0,23635.0,381284.0,21792.0,-1057.921724098886,-406.9999545364898,-559.1479547660498
381284.0,9167.0,381284.0,23650.0,381284.0,21777.0,-1070.22697149893,-411.2869990657184,-565.0821706734342
381294.0,9159.0,381294.0,23672.0,381294.0,21784.0,-1082.5679448846595,-415.6072523581473,-571.0575163320001
381294.0,9166.0,381294.0,23652.0,381294.0,21783.0,-1094.949635187769,-419.9647607637351,-577.0759499722059
381294.0,9142.0,381294.0,23680.0,381294.0,21806.0,-1107.3769778645774,-424.36386884089944,-583.1397524706325
381294.0,9160.0,381294.0,23730.0,381294.0,21809.0,-1119.8545978482684,-428.80875787994563,-589.2511057748203
381294.0,9152.0,381294.0,23752.0,381294.0,21807.0,-1132.3865249179466,-433.3026047581054,-595.4115708588221
381294.0,9129.0,381294.0,23712.0,381294.0,21770.0,-1144.975859104349,-437.84652087767273,-601.6217403714235
381305.0,9092.0,381305.0,23647.0,381305.0,21743.0,-1157.624622782523,-442.43910689126193,-607.881326990421
381305.0,9073.0,381305.0,23594.0,381305.0,21734.0,-1170.333995654671,-447.0771189932091,-614.1896388939556
381305.0,9047.0,381305.0,23607.0,381305.0,21734.0,-1183.1047605410065,-451.7567651706589,-620.5460618947193
381305.0,9025.0,381305.0,23557.0,381305.0,21745.0,-1195.9377211380981,-456.47477547223826,-626.9502163648108
381305.0,9048.0,381305.0,23569.0,381305.0,21743.0,-1208.8339621973894,-461.22900760314116,-633.4017748030459
381305.0,9022.0,381305.0,23630.0,381305.0,21730.0,-1221.794814483552,-466.01865674892105,-639.9001626676451
381315.0,9023.0,381315.0,23588.0,381315.0,21711.0,-1234.821595309495,-470.8438997032018,-646.4444096190514
381315.0,9011.0,381315.0,23597.0,381315.0,21708.0,-1247.9153775735851,-475.7052991476631,-653.0332321422926
381315.0,9008.0,381315.0,23653.0,381315.0,21737.0,-1261.0768216647925,-480.6034274691094,-659.6651087822365
381315.0,9026.0,381315.0,23677.0,381315.0,21744.0,-1274.3059285459194,-485.53828917141215,-666.3380161450588
381315.0,9008.0,381315.0,23674.0,381315.0,21721.0,-1287.6016350746272,-490.50828081569114,-673.0488965492638
381315.0,8984.0,381315.0,23621.0,381315.0,21725.0,-1300.9614094189908,-495.5093745409312,-679.7932884493922
381325.0,8955.0,381325.0,23548.0,381325.0,21651.0,-1314.3811521890423,-500.53523757402087,-686.5653727005275
381325.0,8914.0,381325.0,23520.0,381325.0,21660.0,-1327.8554822936335,-505.57831214219533,-693.3584408784495
381325.0,8891.0,381325.0,23518.0,381325.0,21645.0,-1341.3782639689466,-510.6311800586873,-700.1655288262153
381325.0,8885.0,381325.0,23508.0,381325.0,21649.0,-1354.94315051444,-515.6874492681635,-706.9797744666839
381325.0,8889.0,381325.0,23574.0,381325.0,21668.0,-1368.5438575612693,-520.7419116386438,-713.7943685601397
381325.0,8883.0,381325.0,23554.0,381325.0,21652.0,-1382.1740466768078,-525.7900551762544,-720.6022504077121
381336.0,8864.0,381336.0,23519.0,381336.0,21648.0,-1395.8270198581642,-530.8273922435956,-727.3957753806708
381336.0,8869.0,381336.0,23558.0,381336.0,21648.0,-1409.4954760649528,-535.8492049786898,-734.1665427140246
381336.0,8872.0,381336.0,23601.0,381336.0,21670.0,-1423.171295610016,-540.8504085557878,-740.9052542975334
381336.0,8874.0,381336.0,23624.0,381336.0,21679.0,-1436.8451765864677,-545.8248200992889,-747.601347728069
381336.0,8863.0,381336.0,23572.0,381336.0,21612.0,-1450.506162050923,-550.7641248406221,-754.2425658262658
381336.0,8806.0,381336.0,23510.0,381336.0,21591.0,-1464.1413456382118,-555.6575313493406,-760.8150215084828
381346.0,8792.0,381346.0,23486.0,381346.0,21599.0,-1477.7360332149717,-560.4924965694344,-767.3038170969852
381346.0,8762.0,381346.0,23489.0,381346.0,21584.0,-1491.274255755306,-565.2558592473954,-773.693560804092
381346.0,8772.0,381346.0,23464.0,381346.0,21589.0,-1504.739208928646,-569.9345848004679,-779.9684611189107
381346.0,8747.0,381346.0,23470.0,381346.0,21559.0,-1518.1133811131242,-574.5160613279435,-786.1122849352645
381346.0,8755.0,381346.0,23499.0,381346.0,21572.0,-1531.3784573959294,-578.988145505376,-792.1084005161136
381346.0,8747.0,381346.0,23486.0,381346.0,21575.0,-1544.515125599008,-583.3389061527862,-797.9398066574771
381356.0,8742.0,381356.0,23516.0,381356.0,21584.0,-1557.5028112345165,-587.5561508695209,-803.5889563375904
381356.0,8723.0,381356.0,23525.0,381356.0,21590.0,-1570.3194189202957,-591.6269121914913,-809.0373875464113
381356.0,8745.0,381356.0,23577.0,381356.0,21605.0,-1582.9411355657771,-595.536792488467,-814.2652873385928
381356.0,8720.0,381356.0,23543.0,381356.0,21580.0,-1595.342180695614,-599.2691316047731,-819.2510787571838
381356.0,8699.0,381356.0,23516.0,381356.0,21550.0,-1607.494545160035,-602.8044227004178,-823.9712518592576
381356.0,8651.0,381356.0,23429.0,381356.0,21524.0,-1619.3680266734852,-606.1205374068779,-828.4006540567631
381367.0,8625.0,381367.0,23399.0,381367.0,21516.0,-1630.9306966519628,-609.193851991708,-832.5130867269564
381367.0,8617.0,381367.0,23400.0,381367.0,21501.0,-1642.1495524271763,-612.0007025217258,-836.2818527246801
381367.0,8591.0,381367.0,23394.0,381367.0,21499.0,-1652.991013854389,-614.5183906398051,-839.6801038573556
381367.0,8636.0,381367.0,23423.0,381367.0,21516.0,-1663.4210913354239,-616.7254675047848,-842.6809871569548
381367.0,8606.0,381367.0,23437.0,381367.0,21494.0,-1673.40517170075,-618.6014929233463,-845.2575908150776
381367.0,8600.0,381367.0,23409.0,381367.0,21493.0,-1682.907623400518,-620.1265799984708,-847.3828545705674
381377.0,8592.0,381377.0,23439.0,381377.0,21507.0,-1691.8915985396648,-621.2810861820109,-849.029587080687
381377.0,8593.0,381377.0,23491.0,381377.0,21523.0,-1700.31902077087,-622.0453623368171,-850.1703948516606
381377.0,8616.0,381377.0,23514.0,381377.0,21542.0,-1708.150454658415,-622.3990605929712,-850.7773313572601
381377.0,8569.0,381377.0,23469.0,381377.0,21506.0,-1715.3448152491317,-622.3201756833932,-850.8214615124957
381377.0,8529.0,381377.0,23429.0,381377.0,21470.0,-1721.8593137529526,-621.7846966958411,-850.2728058414211
381377.0,8511.0,381377.0,23364.0,381377.0,21446.0,-1727.6499765977542,-620.7672989838621,-849.1009182384519
381387.0,8496.0,381387.0,23371.0,381387.0,21439.0,-1732.6724397260996,-619.2426560717788,-847.275790680535
381387.0,8488.0,381387.0,23350.0,381387.0,21434.0,-1736.8825459968841,-617.1866417946703,-844.7686021950306
381387.0,8493.0,381387.0,23365.0,381387.0,21452.0,-1740.236656050466,-614.5770207561889,-841.5521228133216
381387.0,8494.0,381387.0,23378.0,381387.0,21444.0,-1742.6917347715673,-611.3936764420775,-837.600819980756
381387.0,8480.0,381387.0,23411.0,381387.0,21446.0,-1744.2053078501797,-607.6184768662139,-832.8908484110478
381387.0,8472.0,381387.0,23386.0,381387.0,21452.0,-1744.7354861320864,-603.2349038713343,-827.4001002727841
381398.0,8480.0,381398.0,23409.0,381398.0,21480.0,-1744.2411279379173,-598.2277745164208,-821.1082456482982
381398.0,8502.0,381398.0,23479.0,381398.0,21503.0,-1742.681932261052,-592.583044970517,-813.9965535133199
381398.0,8495.0,381398.0,23440.0,381398.0,21470.0,-1740.0182982292758,-586.2873209979416,-806.0475728215778
381398.0,8479.0,381398.0,23416.0,381398.0,21474.0,-1736.211160576697,-579.3273992888265,-797.2450932108441
381398.0,8447.0,381398.0,23354.0,381398.0,21435.0,-1731.2221727463057,-571.6906313430522,-787.574596359749
381398.0,8432.0,381398.0,23344.0,381398.0,21436.0,-1725.01433804424,-563.3661163990523,-777.0240163778492
381408.0,8422.0,381408.0,23344.0,381408.0,21437.0,-1717.5528573489262,-554.3460357374254,-765.5845405325156
381408.0,8429.0,381408.0,23361.0,381408.0,21442.0,-1708.8058829064648,-544.6265397917887,-753.2512179626865
381408.0,8466.0,381408.0,23424.0,381408.0,21484.0,-1698.7449486220626,-534.2079616495791,-740.0232532072393
381408.0,8474.0,381408.0,23396.0,381408.0,21496.0,-1687.3449766839253,-523.0944724138394,-725.9039604172577
381408.0,8482.0,381408.0,23430.0,381408.0,21512.0,-1674.5840496428336,-511.2936539896449,-710.900499698975
381408.0,8497.0,381408.0,23460.0,381408.0,21540.0,-1660.4432867187195,-498.81629879230843,-695.0236423741845
381419.0,8541.0,381419.0,23542.0,381419.0,21576.0,-1644.906823019211,-485.6760496062952,-678.2875709991854
381419.0,8560.0,381419.0,23532.0,381419.0,21609.0,-1627.9616231262926,-471.8885574809958,-660.7095316614382
381419.0,8551.0,381419.0,23511.0,381419.0,21594.0,-1609.597190275735,-457.4707036336742,-642.3094332122446
381419.0,8529.0,381419.0,23517.0,381419.0,21628.0,-1589.8056289098286,-442.44058101781616,-623.1097106029022
381419.0,8545.0,381419.0,23499.0,381419.0,21621.0,-1568.5822653329924,-426.81809942093594,-603.1354921537338
381419.0,8572.0,381419.0,23507.0,381419.0,21653.0,-1545.9264199481336,-410.6256994740179,-582.414845393664
381429.0,8583.0,381429.0,23510.0,381429.0,21661.0,-1521.841869804724,-393.88898063926104,-560.978979228246
381429.0,8619.0,381429.0,23544.0,381429.0,21707.0,-1496.3370217066065,-376.63714934737555,-538.8623468818313
381429.0,8657.0,381429.0,23613.0,381429.0,21738.0,-1469.4249535996228,-358.90306181557423,-516.1025534852889
381429.0,8681.0,381429.0,23633.0,381429.0,21773.0,-1441.1233178913385,-340.72271084420817,-492.7400530270399
