c_ts,c_val,d_ts,d_val,e_ts,e_val,c_val_filtered,d_val_filtered,e_val_filtered
207311,22069,207311.0,62794.0,207311.0,92453.0,-54.25349972156073,143.66016394633237,131.04633023822532
207311,22140,207311.0,62902.0,207311.0,92563.0,-9.989505119957073,194.8015998008483,182.31221182689694
207311,22213,207311.0,62939.0,207311.0,92615.0,34.98126724740109,246.72242517738323,234.290482337237
207311,22276,207311.0,62983.0,207311.0,92696.0,80.55145843482035,299.29677569992737,286.8483637633078
207311,22334,207311.0,63065.0,207311.0,92777.0,126.61164958499285,352.3953434297986,339.8507463112403
207311,22408,207311.0,63178.0,207311.0,92844.0,173.05096280576538,405.88560453266257,393.16088872080945
207321,22454,207321.0,63206.0,207321.0,92901.0,219.75758167387107,459.6324836181593,446.6410883172117
207321,22544,207321.0,63303.0,207321.0,93022.0,266.61925566221123,513.4991554799832,500.15327866774817
207321,22608,207321.0,63438.0,207321.0,93105.0,313.5238791260422,567.34777004046,553.5598284486384
207321,22706,207321.0,63496.0,207321.0,93179.0,360.3602638281475,621.0405379937155,606.7246815702077
207321,22762,207321.0,63594.0,207321.0,93262.0,407.01908433967446,674.4411229092012,659.5144827832783
207321,22814,207321.0,63757.0,207321.0,93360.0,453.3937692030614,727.4160062791435,711.7995272125594
207331,22883,207331.0,63809.0,207331.0,93455.0,499.3811127077887,779.8361031054184,763.4547971576178
207331,22967,207331.0,63861.0,207331.0,93473.0,544.8817442878172,831.57845019261,814.3610721335383
207331,22991,207331.0,63856.0,207331.0,93513.0,589.8006996991744,882.5270565887181,864.4055839508769
207331,23031,207331.0,63901.0,207331.0,93561.0,634.0478664875117,932.5726489679646,913.4819616531925
207331,23081,207331.0,63933.0,207331.0,93607.0,677.5380255220723,981.6119046160966,961.4899030401759
207331,23125,207331.0,63980.0,207331.0,93647.0,720.1907222189511,1029.5467847063605,1008.3349688273088
207342,23181,207342.0,64019.0,207342.0,93720.0,761.9302677029298,1076.284137168934,1053.9285148378174
207342,23230,207342.0,64112.0,207342.0,93791.0,802.6858907298074,1121.735558171442,1098.1878523085165
207342,23268,207342.0,64215.0,207342.0,93827.0,842.3919578254249,1165.8177479576734,1141.0367100092517
207342,23309,207342.0,64212.0,207342.0,93875.0,880.9881425104618,1208.4533962830717,1182.4057114588202
207342,23377,207342.0,64268.0,207342.0,93908.0,918.4195416894745,1249.571916120607,1222.2325904314894
207342,23386,207342.0,64363.0,207342.0,93952.0,954.6368605573757,1289.1096841014962,1260.4622137809604
207352,23458,207352.0,64456.0,207352.0,94032.0,989.5966151850555,1327.0105205316463,1297.0466604925405
207352,23454,207352.0,64433.0,207352.0,94039.0,1023.2612390291515,1363.2267064992625,1331.9455327878952
207352,23464,207352.0,64413.0,207352.0,93990.0,1055.5989854952948,1397.7195320742314,1365.1261122806975
207352,23495,207352.0,64376.0,207352.0,94010.0,1086.5834962352992,1430.4585433719533,1396.562684550023
207352,23513,207352.0,64391.0,207352.0,94032.0,1116.1932385864523,1461.419906632291,1426.235284143504
207352,23530,207352.0,64381.0,207352.0,94052.0,1144.4110943132775,1490.5847827812834,1454.1287452236381
207362,23556,207362.0,64420.0,207362.0,94101.0,1171.2240436949014,1517.938156466817,1480.2323216024647
207362,23587,207362.0,64491.0,207362.0,94134.0,1196.6229030223376,1543.4682679294049,1504.5396985780317
207362,23619,207362.0,64477.0,207362.0,94117.0,1220.6022252144935,1567.166688679204,1527.0491722911572
207362,23631,207362.0,64558.0,207362.0,94145.0,1243.1603456410567,1589.0286953074922,1547.763610278732
207362,23673,207362.0,64618.0,207362.0,94184.0,1264.2994438137075,1609.0537555202825,1566.6901791149096
207362,23684,207362.0,64677.0,207362.0,94223.0,1284.0256068351043,1627.2464321199584,1583.8403287898986
207373,23703,207373.0,64636.0,207373.0,94194.0,1302.3489087025741,1643.6174782842334,1599.2300943069615
207373,23690,207373.0,64574.0,207373.0,94227.0,1319.283361587603,1658.1841505770883,1612.8802102217667
207373,23678,207373.0,64557.0,207373.0,94211.0,1334.8465627059677,1670.969237461298,1624.8158817786912
207373,23677,207373.0,64546.0,207373.0,94146.0,1349.059030261682,1681.9994564269937,1635.0663192347065
207373,23693,207373.0,64507.0,207373.0,94164.0,1361.9434768235221,1691.3040750517648,1643.663868619278
207373,23698,207373.0,64490.0,207373.0,94182.0,1373.5243189917521,1698.913801695955,1650.643003105098
207383,23707,207383.0,64600.0,207383.0,94187.0,1383.8274469141636,1704.8599671650609,1656.0398539239234
207383,23713,207383.0,64598.0,207383.0,94185.0,1392.880088946569,1709.1746156121615,1659.892247340519
207383,23725,207383.0,64574.0,207383.0,94174.0,1400.7106997940784,1711.8913620061078,1662.2397284474994
207383,23737,207383.0,64606.0,207383.0,94203.0,1407.3489117291788,1713.045950646667,1663.1234531811588
207383,23764,207383.0,64679.0,207383.0,94205.0,1412.8256127264983,1712.6764852979534,1662.586206315106
207383,23744,207383.0,64679.0,207383.0,94210.0,1417.1731323418473,1710.8241696164155,1660.6726533788665
207393,23753,207393.0,64640.0,207393.0,94119.0,1420.42533803491,1707.5343340207303,1657.429446680422
207393,23739,207393.0,64550.0,207393.0,94129.0,1422.6175073243598,1702.8566508058213,1652.9047023434891
207393,23693,207393.0,64482.0,207393.0,94107.0,1423.7859868246853,1696.8440462939648,1647.1470775602925
207393,23697,207393.0,64505.0,207393.0,94112.0,1423.9675884604426,1689.550937803982,1640.2051406470719
207393,23701,207393.0,64416.0,207393.0,94061.0,1423.1989078730307,1681.031799534025,1632.127121380451
207393,23692,207393.0,64429.0,207393.0,94073.0,1421.515950367684,1671.3402498945723,1622.9606474474776
207404,23712,207404.0,64404.0,207404.0,94116.0,1418.9540814363236,1660.5283489159494,1612.752564613695
207404,23701,207404.0,64465.0,207404.0,94086.0,1415.5481226066042,1648.646316494262,1601.5492620238442
207404,23700,207404.0,64460.0,207404.0,94059.0,1411.3324923100104,1635.7429875156158,1589.3972198182228
207404,23688,207404.0,64423.0,207404.0,94055.0,1406.341265170797,1621.8666460532238,1576.3431522293097
207404,23708,207404.0,64512.0,207404.0,94093.0,1400.608162767094,1607.0657068317491,1562.433961187161
207404,23714,207404.0,64457.0,207404.0,94006.0,1394.1666852271496,1591.3894083277892,1547.7169623496998
207414,23648,207414.0,64407.0,207414.0,93990.0,1387.0503279274753,1574.888517950525,1532.2399732468261
207414,23651,207414.0,64301.0,207414.0,93956.0,1379.2924450855135,1557.615199764569,1516.0508350030364
207414,23627,207414.0,64256.0,207414.0,93900.0,1370.9257166673858,1539.6217294384512,1499.1967040559123
207414,23625,207414.0,64225.0,207414.0,93871.0,1361.9816890628151,1520.95882578075,1481.7233470816268
207414,23595,207414.0,64175.0,207414.0,93847.0,1352.4905422785353,1501.6743783465552,1463.6744173742932
207414,23599,207414.0,64214.0,207414.0,93860.0,1342.4809065707254,1481.8127738858045,1445.090980360806
207424,23601,207424.0,64220.0,207424.0,93867.0,1331.9797518271243,1461.4149030644762,1426.0115802810997
207424,23602,207424.0,64223.0,207424.0,93831.0,1321.012506622759,1440.5188682808619,1406.4727333751257
207424,23598,207424.0,64222.0,207424.0,93819.0,1309.6033696476318,1419.160958167662,1386.509374796311
207424,23598,207424.0,64229.0,207424.0,93843.0,1297.7756447109682,1397.376498978147,1366.1550921171643
207424,23609,207424.0,64257.0,207424.0,93844.0,1285.5520722247943,1375.200688922504,1345.4425490317108
207424,23587,207424.0,64181.0,207424.0,93785.0,1272.9552029524525,1352.669464888005,1324.4041588700215
207435,23557,207435.0,64112.0,207435.0,93740.0,1260.0076574543014,1329.8198661303015,1303.0723734358046
207435,23517,207435.0,64039.0,207435.0,93721.0,1246.7320094385361,1306.6893817675527,1281.4793068405525
207435,23502,207435.0,64023.0,207435.0,93682.0,1233.1503084761262,1283.314677533156,1259.656176953169
207435,23501,207435.0,63983.0,207435.0,93662.0,1219.2835914570132,1259.730542452322,1237.6329398414698
207435,23499,207435.0,63985.0,207435.0,93639.0,1205.1517220635883,1235.9694084188795,1215.4380757250078
207435,23485,207435.0,64046.0,207435.0,93644.0,1190.773559606214,1212.0614982154084,1193.098535589836
207445,23473,207445.0,63990.0,207445.0,93626.0,1176.1671955167308,1188.0356515147225,1170.6399507506476
207445,23475,207445.0,63952.0,207445.0,93612.0,1161.3501172496085,1163.9202531371702,1148.087023534708
207445,23467,207445.0,63951.0,207445.0,93606.0,1146.3393981631816,1139.743528008527,1125.463912068521
207445,23483,207445.0,63992.0,207445.0,93595.0,1131.152024114876,1115.5336147279236,1102.7945921698963
207445,23462,207445.0,63984.0,207445.0,93573.0,1115.805342045658,1091.3192404759714,1080.1032421000943
207445,23416,207445.0,63853.0,207445.0,93540.0,1100.317403341137,1067.1305976690328,1057.4145299937122
207455,23403,207455.0,63732.0,207455.0,93493.0,1084.706901893243,1042.9990655320053,1034.7536271136642
207455,23384,207455.0,63769.0,207455.0,93450.0,1068.9928175817556,1018.9555266985639,1012.1458833961632
207455,23358,207455.0,63713.0,207455.0,93416.0,1053.1941247947145,995.0287996725166,989.6162717294822
207455,23332,207455.0,63692.0,207455.0,93412.0,1037.3295916849388,971.2451373139963,967.1888774001127
207455,23335,207455.0,63685.0,207455.0,93412.0,1021.41757443661,947.6282035488482,944.8867496248176
207455,23332,207455.0,63703.0,207455.0,93370.0,1005.4759678327841,924.1992016328113,922.7321427210398
207466,23316,207466.0,63704.0,207466.0,93351.0,989.5224208092195,900.9774304469843,900.7467697537061
207466,23297,207466.0,63685.0,207466.0,93339.0,973.5746039215837,877.9811446804819,878.9518352060178
207466,23299,207466.0,63717.0,207466.0,93341.0,957.6503480395188,855.2283742292129,857.3680948831839
207466,23273,207466.0,63751.0,207466.0,93340.0,941.7677427349425,832.7378236258811,836.0162034170705
207466,23249,207466.0,63657.0,207466.0,93319.0,925.9452160450558,810.529943990538,814.917263695579
207466,23236,207466.0,63580.0,207466.0,93228.0,910.2014756232379,788.6273916788252,794.0931566068014
207476,23200,207476.0,63521.0,207476.0,93186.0,894.555330917767,767.054217275749,773.5661566224207
207476,23172,207476.0,63420.0,207476.0,93194.0,879.0254362481696,745.8342800187185,753.3580186963787
207476,23160,207476.0,63414.0,207476.0,93128.0,863.6299420306625,724.9896012612857,733.4892987058369
207476,23130,207476.0,63421.0,207476.0,93137.0,848.3861689038115,704.539172272943,713.9790787527683
207476,23136,207476.0,63385.0,207476.0,93108.0,833.3104174979896,684.4986183951792,694.8448173915272
207476,23117,207476.0,63414.0,207476.0,93084.0,818.4179416209597,664.8804760968533,676.1023039267246
207486,23103,207486.0,63399.0,207486.0,93087.0,803.7230479040419,645.6946695799709,657.7656919296417
207486,23080,207486.0,63449.0,207486.0,93056.0,789.2391635627597,626.9492168745448,639.8475750318821
207486,23107,207486.0,63514.0,207486.0,93072.0,774.9788576400034,608.6513836466493,622.3591611974346
207486,23092,207486.0,63453.0,207486.0,93073.0,760.9540561155754,590.8092540826175,605.3105996994739
207486,23063,207486.0,63355.0,207486.0,92985.0,747.1764261853184,573.4328119663372,588.711343056113
207486,23022,207486.0,63259.0,207486.0,92980.0,733.6574921958813,556.5334348201063,572.5700720643331
207497,23013,207497.0,63236.0,207497.0,92950.0,720.4083027437708,540.1220982748156,556.8941208897485
207497,22997,207497.0,63239.0,207497.0,92937.0,707.4389905751373,524.2076785875478,541.6889766689251
207497,22960,207497.0,63207.0,207497.0,92950.0,694.7584880149032,508.7962069779822,526.9581427809565
207497,22979,207497.0,63183.0,207497.0,92898.0,682.3743267703613,493.8907517124213,512.7032381171111
207497,22973,207497.0,63233.0,207497.0,92939.0,670.2925845559082,479.4914319314558,498.924146048883
207497,22962,207497.0,63224.0,207497.0,92908.0,658.518105787261,465.5957614409608,485.61921101315585
207507,22944,207507.0,63203.0,207507.0,92918.0,647.0547654404136,452.1993669753951,472.7855758019299
207507,22967,207507.0,63272.0,207507.0,92956.0,635.9055998500484,439.29667423411126,460.41963936473473
207507,22960,207507.0,63297.0,207507.0,92925.0,625.0730228774845,426.88174395114726,448.5176898452064
207507,22955,207507.0,63247.0,207507.0,92907.0,614.5592244820126,414.9494605324507,437.0765166558534
207507,22917,207507.0,63179.0,207507.0,92849.0,604.3664622191818,403.49623156914845,426.0935038669391
207507,22890,207507.0,63132.0,207507.0,92829.0,594.4969622697487,392.5194840106503,415.5661179893191
207518,22873,207518.0,63107.0,207518.0,92826.0,584.952474446895,382.0164448309142,405.49120307614294
207518,22856,207518.0,63053.0,207518.0,92789.0,575.733768480518,371.9829833893472,395.86449404557806
207518,22850,207518.0,63118.0,207518.0,92806.0,566.8402860402049,362.4128454550234,386.680382733895
207518,22857,207518.0,63119.0,207518.0,92797.0,558.2700010915994,353.29757449728436,377.9318558692537
207518,22856,207518.0,63113.0,207518.0,92830.0,550.0195128884742,344.62714068003004,369.61070835424755
207518,22856,207518.0,63136.0,207518.0,92801.0,542.0843129748646,336.3906848744845,361.70800981661574
207528,22850,207528.0,63121.0,207528.0,92800.0,534.4590684516943,328.577044088503,354.21452112736364
207528,22867,207528.0,63198.0,207528.0,92801.0,527.1378670068336,321.17530756737006,347.12086284190565
207528,22859,207528.0,63177.0,207528.0,92822.0,520.1145068466701,314.17566497244485,340.4176503702609
207528,22842,207528.0,63081.0,207528.0,92789.0,513.3827892156088,307.57016449363175,334.09579449649647
207528,22809,207528.0,63039.0,207528.0,92754.0,506.93656680521826,301.3524381515494,328.14666398793366
207528,22799,207528.0,63016.0,207528.0,92729.0,500.76943492298915,295.5163722868716,322.56175036285913
207538,22812,207538.0,63017.0,207538.0,92731.0,494.87432870360817,290.05481828415714,317.3320354443058
207538,22789,207538.0,62980.0,207538.0,92725.0,489.2433564375883,284.95892454814907,312.44754564764213
207538,22782,207538.0,62984.0,207538.0,92751.0,483.8677984165315,280.2177864154422,307.89729971502567
207538,22796,207538.0,63047.0,207538.0,92709.0,478.73806513005013,275.81830703379273,303.66950855759785
207538,22801,207538.0,63075.0,207538.0,92726.0,473.843748659183,271.7456925144629,299.7517118562917
207538,22803,207538.0,63074.0,207538.0,92733.0,469.1738991138328,267.98456558023827,296.13077894418325
207549,22806,207549.0,63122.0,207549.0,92741.0,464.7173645479145,264.52006879452983,292.79305161695527
207549,22814,207549.0,63124.0,207549.0,92768.0,460.46307529979936,261.33874535883183,289.72474261828245
207549,22794,207549.0,63095.0,207549.0,92786.0,456.4002751355986,258.42926472369777,286.9125113077381
207549,22774,207549.0,63037.0,207549.0,92739.0,452.5185821723064,255.78260892971593,284.3440449298222
207549,22787,207549.0,62968.0,207549.0,92687.0,448.80781314299475,253.39134362954485,282.00814200072836
207549,22741,207549.0,62975.0,207549.0,92688.0,445.2577332365362,251.248249314639,279.8940310775722
207559,22734,207559.0,62957.0,207559.0,92672.0,441.85774600865255,249.34507796520097,277.99047168006774
207559,22758,207559.0,62958.0,207559.0,92689.0,438.5965075080953,247.67191296761132,276.28524888216316
207559,22751,207559.0,62951.0,207559.0,92714.0,435.4617867332843,246.2169484155262,274.7651570566999
207559,22760,207559.0,63007.0,207559.0,92701.0,432.4406759948516,244.9665059821133,273.41633555240617
207559,22755,207559.0,62982.0,207559.0,92687.0,429.51985206564416,243.90539699772125,272.22461876378304
207559,22767,207559.0,63004.0,207559.0,92699.0,426.6857610355543,243.01745612750062,271.1755954536179
207569,22780,207569.0,63098.0,207569.0,92728.0,423.9248365766325,242.2861054689473,270.25460443678014
207569,22777,207569.0,63066.0,207569.0,92731.0,421.2238168092048,241.69528349053348,269.4470414731808
207569,22768,207569.0,62998.0,207569.0,92710.0,418.5700387778757,241.2303669679069,268.73881796330124
207569,22748,207569.0,62947.0,207569.0,92672.0,415.9515085886666,240.87797945295813,268.11646193469994
207569,22764,207569.0,62941.0,207569.0,92646.0,413.35675368415735,240.62471305630856,267.5666351148842
207569,22737,207569.0,62948.0,207569.0,92667.0,410.7746640620071,240.45589726705452,267.0753862764467
207580,22717,207580.0,62942.0,207580.0,92627.0,408.1943349499227,240.35505474972751,266.6276188878094
207580,22717,207580.0,62967.0,207580.0,92649.0,405.60475344733766,240.3038685362759,266.2068220953861
207580,22737,207580.0,62961.0,207580.0,92697.0,402.9944974562091,240.28237377689788,265.7950189807269
207580,22730,207580.0,62956.0,207580.0,92685.0,400.3517548619543,240.2691965499115,265.3731572555621
207580,22730,207580.0,62993.0,207580.0,92703.0,397.6645580983885,240.24173311267577,264.9217689276585
207580,22749,207580.0,63082.0,207580.0,92739.0,394.92098960385465,240.1765981186254,264.4215170601761
207590,22762,207590.0,63164.0,207590.0,92757.0,392.109437473963,240.0509354659829,263.85378404301935
207590,22753,207590.0,63028.0,207590.0,92733.0,389.2189927560073,239.84420598257066,263.20137079503104
207590,22720,207590.0,62972.0,207590.0,92689.0,386.23971757499993,239.53879524071885,262.44880560592253
207590,22712,207590.0,62940.0,207590.0,92658.0,383.1624950474208,239.11872171485936,261.5819009227001
207590,22688,207590.0,62930.0,207590.0,92648.0,379.9785705833647,238.56777948940976,260.5868419034608
207590,22705,207590.0,63000.0,207590.0,92617.0,376.6791147400787,237.86852253394284,259.4493171815191
207600,22708,207600.0,62905.0,207600.0,92643.0,373.2550527820798,237.0021902442678,258.15391895205954
207600,22699,207600.0,62962.0,207600.0,92687.0,369.69717944644145,235.94880782746498,256.6839868889092
207600,22701,207600.0,63028.0,207600.0,92689.0,365.9963325470132,234.68722940675787,255.02208256904066
207600,22689,207600.0,62979.0,207600.0,92675.0,362.14345571827226,233.19569921971856,253.15073471365542
207600,22694,207600.0,63080.0,207600.0,92705.0,358.12959511245424,231.45279801671347,251.05290129932177
207600,22717,207600.0,63078.0,207600.0,92739.0,353.9459699753072,229.43838679335363,248.71230491833967
207611,22730,207611.0,63145.0,207611.0,92704.0,349.58428940051857,227.1347731620756,246.11398798416576
207611,22682,207611.0,63008.0,207611.0,92698.0,345.0371981636301,224.52776303319388,243.24474831295186
207611,22670,207611.0,62973.0,207611.0,92671.0,340.2983662043935,221.60658428162833,240.09305890914516
207611,22660,207611.0,62952.0,207611.0,92652.0,335.36209449735856,218.36254726772404,236.64864439398434
207611,22665,207611.0,62935.0,207611.0,92612.0,330.22289689910133,214.78756370979272,232.9019289653662
207611,22639,207611.0,62915.0,207611.0,92641.0,324.8753394545749,210.87328512195495,228.84344931682756
207621,22660,207621.0,62918.0,207621.0,92646.0,319.3140017510456,206.61064252860797,224.46355460010886
207621,22647,207621.0,62974.0,207621.0,92675.0,313.53350585254486,201.98971487577103,219.7526547954766
207621,22650,207621.0,62977.0,207621.0,92652.0,307.52865953145215,197.0001935593009,214.70179316319798
207621,22652,207621.0,62978.0,207621.0,92642.0,301.2946390882728,191.63224910396877,209.3030715503836
207621,22661,207621.0,63049.0,207621.0,92673.0,294.8271997788709,185.8773672360785,203.54978919607856
207621,22658,207621.0,63067.0,207621.0,92653.0,288.12297470935505,179.72931047515237,197.43660693443326
207631,22643,207631.0,63028.0,207631.0,92666.0,281.17976923712564,173.18527430623647,190.95987461757636
207631,22618,207631.0,62931.0,207631.0,92616.0,273.99665467934636,166.24639625105885,184.1178487214977
207631,22594,207631.0,62899.0,207631.0,92630.0,266.5737622332504,158.9169602125536,176.9106120409076
207631,22586,207631.0,62828.0,207631.0,92575.0,258.91188237033543,151.2027878241871,169.3397825454673
207631,22564,207631.0,62796.0,207631.0,92544.0,251.01208016824688,143.1096099786431,161.40805794049743
207631,22559,207631.0,62857.0,207631.0,92548.0,242.87542167102833,134.6418898921189,153.11858981144803
207642,22563,207642.0,62895.0,207642.0,92541.0,234.50282540992055,125.80265405154444,144.47449284970605
207642,22571,207642.0,62891.0,207642.0,92550.0,225.8951280916698,116.5944300599391,135.47878856937575
207642,22563,207642.0,62872.0,207642.0,92554.0,217.05337656188976,107.02037857196183,126.13467817810306
207642,22549,207642.0,62869.0,207642.0,92555.0,207.97914161384188,97.08484008921346,116.44595629062792
207642,22560,207642.0,62956.0,207642.0,92574.0,198.67469777454141,86.79363648169885,106.41749454112914
207642,22543,207642.0,62892.0,207642.0,92536.0,189.1431621009507,76.15479490751886,96.05572210521677
207652,22516,207652.0,62844.0,207652.0,92492.0,179.38861619089937,65.17928513801087,85.36882773853597
207652,22492,207652.0,62736.0,207652.0,92455.0,169.41601095532178,53.880703520235784,74.36638563136557
207652,22485,207652.0,62724.0,207652.0,92458.0,159.23083985128335,42.27383036880656,63.058631470591536
207652,22468,207652.0,62701.0,207652.0,92430.0,148.83883540352622,30.373047932928444,51.455930758518434
207652,22442,207652.0,62641.0,207652.0,92405.0,138.24578395171056,18.191316658499773,39.56854227040378
207652,22451,207652.0,62687.0,207652.0,92405.0,127.45736737009872,5.739597988172136,27.4064273986329
207662,22433,207662.0,62721.0,207662.0,92415.0,116.47908418722022,-6.973224099448657,14.979157666384594
207662,22439,207662.0,62722.0,207662.0,92407.0,105.31633896185019,-19.939611519289315,2.2961406689167916
207662,22425,207662.0,62722.0,207662.0,92408.0,93.97462890217935,-33.152263854637,-10.6329431320612
207662,22438,207662.0,62738.0,207662.0,92404.0,82.45977290621704,-46.603261091897934,-23.797719731492407
207662,22423,207662.0,62757.0,207662.0,92394.0,70.77820509852984,-60.28336650351548,-37.18676186830419
207662,22397,207662.0,62708.0,207662.0,92373.0,58.93723957569273,-74.18131591288568,-50.787316931037594
207673,22365,207673.0,62623.0,207673.0,92314.0,46.94507746550005,-88.2835591081589,-64.58528880426161
207673,22349,207673.0,62583.0,207673.0,92276.0,34.81049737155752,-102.57496375173196,-78.56567037306252
207673,22324,207673.0,62532.0,207673.0,92270.0,22.54244345118684,-117.04015235361544,-92.71329762217715
207673,22286,207673.0,62565.0,207673.0,92198.0,10.14964238594473,-131.66463496854544,-107.01354737571819
207673,22301,207673.0,62532.0,207673.0,92214.0,-2.3597652087182723,-146.43523217509755,-121.45290428447493
207673,22299,207673.0,62555.0,207673.0,92222.0,-14.978393034524174,-161.33989201262466,-136.01932670017527
207683,22283,207683.0,62535.0,207683.0,92212.0,-27.69941943813069,-176.36727974269184,-150.70211034100794
207683,22272,207683.0,62530.0,207683.0,92195.0,-40.516301119608556,-191.5063654676626,-165.49142620702446
207683,22262,207683.0,62525.0,207683.0,92181.0,-53.42264139036661,-206.74608890900856,-180.37801069837928
207683,22268,207683.0,62563.0,207683.0,92213.0,-66.41210189478124,-222.07498636137507,-195.3529819555073
207683,22253,207683.0,62573.0,207683.0,92188.0,-79.47820015933405,-237.4804887778447,-210.40745286537503
207683,22242,207683.0,62474.0,207683.0,92162.0,-92.61405389278423,-252.9481119571285,-225.53203614584743
207693,22183,207693.0,62350.0,207693.0,92124.0,-105.81231105243569,-268.46156932224073,-240.71669309459412
207693,22169,207693.0,62349.0,207693.0,92086.0,-119.06546422739154,-284.00429952230274,-255.95105785363728
207693,22161,207693.0,62355.0,207693.0,92066.0,-132.366379584701,-299.56122549807424,-271.2249926461134
207693,22136,207693.0,62274.0,207693.0,92033.0,-145.70864397100627,-315.11956165707875,-286.5291213529232
207693,22133,207693.0,62294.0,207693.0,92048.0,-159.08666361685096,-330.6690905681015,-301.8551758101644
207693,22142,207693.0,62315.0,207693.0,92031.0,-172.49562595743157,-346.20237099358667,-317.1960296596035
207704,22120,207704.0,62342.0,207704.0,92022.0,-185.93128428134992,-361.71438987910506,-332.54546049803514
207704,22119,207704.0,62311.0,207704.0,92012.0,-199.38966048471207,-377.2016302191422,-347.8978753140723
207704,22114,207704.0,62359.0,207704.0,91997.0,-212.86681987832765,-392.66116411567964,-363.2481188210694
207704,22125,207704.0,62379.0,207704.0,92013.0,-226.35861699924203,-408.0898177077688,-378.59127178440053
207704,22081,207704.0,62306.0,207704.0,91989.0,-239.86036399310035,-423.4832502356958,-393.9223322611564
207704,22057,207704.0,62233.0,207704.0,91942.0,-253.36669895830573,-438.8356050656221,-409.23593372269625
207714,22021,207714.0,62163.0,207714.0,91887.0,-266.8718628512149,-454.14035207816073,-424.52651104230404
207714,21992,207714.0,62122.0,207714.0,91876.0,-280.3702293002151,-469.39185817327245,-439.78898332956544
207714,21983,207714.0,62093.0,207714.0,91851.0,-293.85683252390345,-484.58685231602465,-455.0194741666504
207714,21973,207714.0,62122.0,207714.0,91828.0,-307.3277073501424,-499.72530162094165,-470.21571930346727
207714,21966,207714.0,62186.0,207714.0,91875.0,-320.7799564996018,-514.810362636213,-485.37714776842927
207714,21969,207714.0,62156.0,207714.0,91862.0,-334.2116100234805,-529.8473815257256,-500.5045190963343
207725,21960,207725.0,62152.0,207725.0,91826.0,-347.62135996710083,-544.842685766138,-515.5992563374566
207725,21961,207725.0,62134.0,207725.0,91823.0,-361.0082290186908,-559.8029362167379,-530.6630576645666
207725,21953,207725.0,62247.0,207725.0,91823.0,-374.3712359297074,-574.7347034373297,-545.6978593956508
207725,21948,207725.0,62179.0,207725.0,91844.0,-387.7090840556208,-589.6435010655807,-560.705640408657
207725,21937,207725.0,62176.0,207725.0,91787.0,-401.01989127113825,-604.5326241379244,-575.6879586129571
207725,21878,207725.0,62040.0,207725.0,91745.0,-414.3010827321003,-619.4028971403543,-590.645743563696
207735,21871,207735.0,61985.0,207735.0,91742.0,-427.5496347548775,-634.253746549497,-605.5796608742282
207735,21847,207735.0,61972.0,207735.0,91685.0,-440.7625585928039,-649.0849886894791,-620.4906780563551
207735,21837,207735.0,61928.0,207735.0,91691.0,-453.937263984036,-663.8983028328539,-635.3805039220263
207735,21815,207735.0,61992.0,207735.0,91696.0,-467.07171757009075,-678.6978411083335,-650.2518306820821
207735,21797,207735.0,62032.0,207735.0,91676.0,-480.1645541186317,-693.4898861117256,-665.1082289326826
207735,21807,207735.0,61971.0,207735.0,91673.0,-493.2151669265071,-708.2817625129826,-679.9538229411467
207745,21797,207745.0,61989.0,207745.0,91655.0,-506.2236337662897,-723.0808868355914,-694.7930436088905
207745,21788,207745.0,61991.0,207745.0,91683.0,-519.1904561401418,-737.894412547311,-709.630408393381
207745,21803,207745.0,62056.0,207745.0,91686.0,-532.1162514816477,-752.7287841961204,-724.4700750894422
207745,21782,207745.0,61995.0,207745.0,91661.0,-545.0014185350146,-767.588795630111,-739.3151835012679
207745,21758,207745.0,61895.0,207745.0,91602.0,-557.8458426827353,-782.4769514741988,-754.1674543833501
207745,21724,207745.0,61900.0,207745.0,91586.0,-570.6488881088391,-797.3939837018315,-769.0274260151164
207756,21706,207756.0,61864.0,207756.0,91555.0,-583.4097193028165,-812.3399666969638,-783.8950632485917
207756,21676,207756.0,61820.0,207756.0,91536.0,-596.1277374104268,-827.3150755805777,-798.770273552921
207756,21681,207756.0,61809.0,207756.0,91510.0,-608.8029371793141,-842.3200687385229,-813.6532430335405
207756,21659,207756.0,61871.0,207756.0,91512.0,-621.4360732126027,-857.3565714413007,-828.5446612322771
207756,21671,207756.0,61832.0,207756.0,91541.0,-634.0286173181266,-872.4267193630778,-843.44568292485
207756,21663,207756.0,61839.0,207756.0,91505.0,-646.5825514541411,-887.532388610919,-858.3574953564628
207766,21653,207766.0,61817.0,207766.0,91477.0,-659.1000630128199,-902.6746800332137,-873.280855155366
207766,21658,207766.0,61900.0,207766.0,91517.0,-671.5832496417431,-917.8535363359556,-888.2159369021883
207766,21639,207766.0,61813.0,207766.0,91525.0,-684.0338699672516,-933.0670366474326,-903.1620703826536
207766,21627,207766.0,61759.0,207766.0,91454.0,-696.4531502773855,-948.3108663788562,-918.1171378468059
207766,21593,207766.0,61713.0,207766.0,91408.0,-708.8417543700907,-963.5787759836733,-933.0773821035111
207766,21579,207766.0,61705.0,207766.0,91377.0,-721.1999711704855,-978.8636604369656,-948.0380626447388
207776,21564,207776.0,61643.0,207776.0,91359.0,-733.5280027210611,-994.1584197859252,-962.9943649451013
207776,21554,207776.0,61591.0,207776.0,91340.0,-745.8261724240813,-1009.4566434885533,-977.9419822756804
207776,21532,207776.0,61651.0,207776.0,91346.0,-758.0950130553574,-1024.7533191088853,-992.877325659995
207776,21536,207776.0,61652.0,207776.0,91329.0,-770.3353073936712,-1040.044992859739,-1007.7974552016185
207776,21519,207776.0,61637.0,207776.0,91340.0,-782.548069308694,-1055.3291089558093,-1022.6998199229799
207776,21500,207776.0,61629.0,207776.0,91321.0,-794.7344713564084,-1070.6032544117138,-1037.5819114496899
207787,21500,207787.0,61696.0,207787.0,91322.0,-806.8958200382613,-1085.8646412704263,-1052.4409166278406
207787,21508,207787.0,61689.0,207787.0,91345.0,-819.0335038124147,-1101.1092961407246,-1067.2733489258158
207787,21491,207787.0,61617.0,207787.0,91311.0,-831.1487559694394,-1116.331046193048,-1082.0745615833798
207787,21460,207787.0,61578.0,207787.0,91228.0,-843.2424023252568,-1131.5212427832475,-1096.8384542815274
207787,21437,207787.0,61508.0,207787.0,91209.0,-855.3149073720488,-1146.6695183719266,-1111.5579219144267
207787,21413,207787.0,61431.0,207787.0,91180.0,-867.3667148149902,-1161.7650852498537,-1126.225819001459
207797,21409,207797.0,61429.0,207797.0,91151.0,-879.3986234428071,-1176.7981817643688,-1140.8357417789746
207797,21401,207797.0,61450.0,207797.0,91161.0,-891.4119858254364,-1191.7611361648187,-1155.3824359407486
207797,21403,207797.0,61428.0,207797.0,91147.0,-903.4086691011071,-1206.648542442473,-1169.8618909414772
207797,21395,207797.0,61449.0,207797.0,91166.0,-915.3908445943928,-1221.4568276838504,-1184.2711109157901
207797,21374,207797.0,61431.0,207797.0,91130.0,-927.3607559646912,-1236.1837372844177,-1198.6077080552202
207797,21360,207797.0,61460.0,207797.0,91112.0,-939.3206277171162,-1250.8278231447202,-1212.8696221043745
207807,21375,207807.0,61469.0,207807.0,91190.0,-951.2726775804863,-1265.3878074387906,-1227.054951894421
207807,21364,207807.0,61436.0,207807.0,91098.0,-963.2189878142447,-1279.8618543933387,-1241.161516505594
207807,21345,207807.0,61412.0,207807.0,91079.0,-975.161221210953,-1294.2471083285436,-1255.1864476609005
207807,21306,207807.0,61321.0,207807.0,91044.0,-987.10050957371,-1308.5398744378945,-1269.126477205331
207807,21297,207807.0,61286.0,207807.0,90991.0,-999.0376927044333,-1322.736503109803,-1282.9786890580658
207807,21260,207807.0,61271.0,207807.0,90985.0,-1010.9737318024866,-1336.8346095837944,-1296.7412723053899
207818,21241,207818.0,61251.0,207818.0,90936.0,-1022.9101272506866,-1350.8339895515983,-1310.4141844518235
207818,21248,207818.0,61274.0,207818.0,90962.0,-1034.8492759943256,-1364.7369312587637,-1323.9996216695456
207818,21254,207818.0,61234.0,207818.0,90973.0,-1046.794568114206,-1378.548096124881,-1337.5020936721198
207818,21242,207818.0,61257.0,207818.0,90951.0,-1058.7501233548596,-1392.2742632725187,-1350.928032311317
207818,21233,207818.0,61253.0,207818.0,90987.0,-1070.7204326095696,-1405.9240491230607,-1364.2852150541896
207818,21228,207818.0,61299.0,207818.0,90974.0,-1082.7101410095747,-1419.5074055468122,-1377.582191346989
207828,21242,207828.0,61341.0,207828.0,90964.0,-1094.723871292164,-1433.0346696429046,-1390.8276954353382
207828,21225,207828.0,61275.0,207828.0,90948.0,-1106.7659193344932,-1446.5153510242167,-1404.030241673633
207828,21192,207828.0,61241.0,207828.0,90908.0,-1118.8399633691574,-1459.9574293479186,-1417.1980619214978
207828,21153,207828.0,61210.0,207828.0,90839.0,-1130.9491287546193,-1473.367631295529,-1430.3394454646093
207828,21149,207828.0,61129.0,207828.0,90864.0,-1143.096436513705,-1486.7522799761803,-1443.4634589282937
207828,21139,207828.0,61059.0,207828.0,90842.0,-1155.2852449584602,-1500.1184514173292,-1456.5805602162354
207838,21136,207838.0,61087.0,207838.0,90822.0,-1167.5193807422995,-1513.475363043448,-1469.7027317862453
207838,21121,207838.0,61151.0,207838.0,90871.0,-1179.8030381543629,-1526.8351621497202,-1482.8433271990887
207838,21097,207838.0,61180.0,207838.0,90874.0,-1192.140685332176,-1540.212316721189,-1496.0166184131763
207838,21095,207838.0,61160.0,207838.0,90852.0,-1204.537098681636,-1553.6221364010858,-1509.2370069744095
207838,21099,207838.0,61157.0,207838.0,90808.0,-1216.9973978670937,-1567.0795908413254,-1522.5184774312256
207838,21114,207838.0,61194.0,207838.0,90855.0,-1229.5268383729565,-1580.5987143484267,-1535.8745798841799
207849,21099,207849.0,61184.0,207849.0,90877.0,-1242.1303412384402,-1594.1920418556927,-1549.3182875617117
207849,21065,207849.0,61140.0,207849.0,90811.0,-1254.8120755016714,-1607.8699685203267,-1562.8613566247907
207849,21035,207849.0,61081.0,207849.0,90801.0,-1267.5754473495215,-1621.6406254953215,-1576.5138940632257
207849,21015,207849.0,61028.0,207849.0,90786.0,-1280.4234857207944,-1635.5105750972186,-1590.2845663832272
207849,21002,207849.0,60978.0,207849.0,90731.0,-1293.3592964070228,-1649.4860013028542,-1604.1810096117601
207849,21001,207849.0,60987.0,207849.0,90734.0,-1306.386317417436,-1663.5738712040961,-1618.2102278418236
207859,21011,207859.0,61072.0,207859.0,90725.0,-1319.5082783663427,-1677.78240747424,-1632.3789557807618
207859,21001,207859.0,61051.0,207859.0,90712.0,-1332.7288860335605,-1692.1204041372591,-1646.6937523426886
207859,20989,207859.0,61019.0,207859.0,90720.0,-1346.0514282346467,-1706.5960127325002,-1661.1608372077342
207859,20993,207859.0,61027.0,207859.0,90721.0,-1359.4784881396317,-1721.2160853380808,-1675.785795607779
207859,20992,207859.0,61069.0,207859.0,90744.0,-1373.0117001329322,-1735.985958848345,-1690.5730924544823
207859,20979,207859.0,61090.0,207859.0,90776.0,-1386.6514297602887,-1750.908820212404,-1705.525308616646
207869,20963,207869.0,61087.0,207869.0,90734.0,-1400.3964890190146,-1765.9845715227307,-1720.64219635254
207869,20936,207869.0,61019.0,207869.0,90699.0,-1414.2440488808068,-1781.2089153066377,-1735.9200415404134
207869,20922,207869.0,60937.0,207869.0,90674.0,-1428.1897551582938,-1796.5733824999306,-1751.3517253237212
207869,20913,207869.0,60912.0,207869.0,90625.0,-1442.2279081695544,-1812.0663801415246,-1766.9272444687072
207869,20900,207869.0,60868.0,207869.0,90605.0,-1456.351544442528,-1827.6745568201277,-1782.6343344839963
207869,20876,207869.0,60880.0,207869.0,90609.0,-1470.5524267135231,-1843.3837576922683,-1798.4590015395763
207880,20892,207880.0,60927.0,207880.0,90608.0,-1484.821021369881,-1859.1792497421654,-1814.3856883490403
207880,20881,207880.0,60963.0,207880.0,90646.0,-1499.146360394689,-1875.0450416749673,-1830.3969206631793
207880,20863,207880.0,60916.0,207880.0,90605.0,-1513.5157456265908,-1890.9626186751684,-1846.472602850477
207880,20879,207880.0,60934.0,207880.0,90601.0,-1527.9144656852575,-1906.909952640972,-1862.589394189433
207880,20872,207880.0,61005.0,207880.0,90639.0,-1542.3255057408892,-1922.8609038600162,-1878.7203527128013
207880,20848,207880.0,60930.0,207880.0,90608.0,-1556.729175731247,-1938.784393570731,-1894.8344891685203
207890,20837,207890.0,60894.0,207890.0,90577.0,-1571.1028680478148,-1954.6436781313362,-1910.896229951659
207890,20795,207890.0,60877.0,207890.0,90521.0,-1585.4210971096513,-1970.3964826777037,-1926.8653546311741
207890,20779,207890.0,60783.0,207890.0,90510.0,-1599.655764891966,-1985.9957404694096,-1942.6975205264064
207890,20780,207890.0,60726.0,207890.0,90481.0,-1613.7764893095264,-2001.3906336997263,-1958.3449061262143
207890,20734,207890.0,60717.0,207890.0,90440.0,-1627.7508020831308,-2016.5279453694557,-1973.7566853846897
207890,20738,207890.0,60778.0,207890.0,90498.0,-1641.5442757559874,-2031.3530236448544,-1988.879310147874
207901,20747,207901.0,60804.0,207901.0,90491.0,-1655.1206213825337,-2045.8095327103342,-2003.6563311744742
207901,20730,207901.0,60718.0,207901.0,90453.0,-1668.4415434890439,-2059.8384107938737,-2018.0277493663568
207901,20727,207901.0,60739.0,207901.0,90434.0,-1681.466414193451,-2073.3772918998784,-2031.929603294213
207901,20711,207901.0,60774.0,207901.0,90444.0,-1694.1520429519676,-2086.360548993891,-2045.2940600700388
207901,20730,207901.0,60777.0,207901.0,90445.0,-1706.452520989774,-2098.718983206503,-2058.0494571394916
207901,20702,207901.0,60763.0,207901.0,90406.0,-1718.3189859901165,-2110.379015477365,-2070.120072555741
207911,20681,207911.0,60691.0,207911.0,90346.0,-1729.6994178107548,-2121.262212608454,-2081.426117816588
207911,20642,207911.0,60650.0,207911.0,90321.0,-1740.5387420351576,-2131.2856803241166,-2091.884352359893
207911,20622,207911.0,60584.0,207911.0,90299.0,-1750.7792814899753,-2140.3631882564578,-2101.409030874611
207911,20613,207911.0,60522.0,207911.0,90261.0,-1760.3613065637583,-2148.4066450152545,-2109.9127125582454
207911,20604,207911.0,60556.0,207911.0,90241.0,-1769.2234170312552,-2155.3275476748213,-2117.306916867411
207911,20579,207911.0,60568.0,207911.0,90239.0,-1777.302726953614,-2161.0378236532515,-2123.5027297644256
207921,20589,207921.0,60588.0,207921.0,90276.0,-1784.5350043917783,-2165.4497238032536,-2128.4111265385272
207921,20571,207921.0,60588.0,207921.0,90273.0,-1790.8547821307368,-2168.4752127553597,-2131.9427671802455
207921,20565,207921.0,60569.0,207921.0,90234.0,-1796.1954030402328,-2170.0254887329975,-2134.0075747945757
207921,20574,207921.0,60615.0,207921.0,90265.0,-1800.4890568286685,-2170.010793542865,-2134.514642301257
207921,20569,207921.0,60583.0,207921.0,90251.0,-1803.6667658241313,-2168.34027884182,-2133.3723934361246
207921,20518,207921.0,60524.0,207921.0,90209.0,-1805.658388758276,-2164.9220145568806,-2130.4887379093325
207932,20476,207932.0,60401.0,207932.0,90174.0,-1806.3930394059976,-2159.6638587865364,-2125.7715454478
207932,20510,207932.0,60455.0,207932.0,90132.0,-1805.7999587694171,-2152.475372251649,-2119.1296966792715
207932,20465,207932.0,60459.0,207932.0,90138.0,-1803.8092643054026,-2143.269614590967,-2110.4743859795
207932,20465,207932.0,60372.0,207932.0,90095.0,-1800.352388244806,-2131.9640159148494,-2099.720282562359
207932,20445,207932.0,60420.0,207932.0,90115.0,-1795.3625634278997,-2118.4810812551164,-2086.786485882747
207932,20439,207932.0,60450.0,207932.0,90104.0,-1788.775429695097,-2102.749258408525,-2071.597322617009
207942,20450,207942.0,60456.0,207942.0,90111.0,-1780.529580848547,-2084.703269439259,-2054.082963538632
207942,20441,207942.0,60460.0,207942.0,90110.0,-1770.5669672374197,-2064.2840234983387,-2034.1799497439624
207942,20445,207942.0,60488.0,207942.0,90141.0,-1758.833208561602,-2041.438736370479,-2011.8316992816697
207942,20481,207942.0,60597.0,207942.0,90181.0,-1745.2778693576256,-2016.1210239053512,-1986.9888282604634
207942,20463,207942.0,60559.0,207942.0,90180.0,-1729.8546119005537,-1988.2904893942855,-1959.609201237783
207942,20456,207942.0,60514.0,207942.0,90182.0,-1712.5213698080042,-1957.912421601468,-1929.6580362746865
207952,20454,207952.0,60488.0,207952.0,90168.0,-1693.2408534669971,-1924.958673272602,-1897.1084606373352
207952,20440,207952.0,60502.0,207952.0,90193.0,-1671.9813400648181,-1889.4094986177738,-1861.942477782035
207952,20477,207952.0,60522.0,207952.0,90210.0,-1648.7174802622437,-1851.2552618923644,-1824.1519720886902
207952,20499,207952.0,60554.0,207952.0,90278.0,-1623.4308695564087,-1810.4975319929863,-1783.7394098971563
207952,20527,207952.0,60631.0,207952.0,90312.0,-1596.110261694902,-1767.1496382341898,-1740.7180954332073
207952,20561,207952.0,60742.0,207952.0,90361.0,-1566.7515805547127,-1721.236602244404,-1695.1121231938528
207963,20585,207963.0,60781.0,207963.0,90436.0,-1535.3579150027176,-1672.7943686441038,-1646.9562570580827
207963,20619,207963.0,60860.0,207963.0,90492.0,-1501.939549481809,-1621.8688193909163,-1596.2957110546397
207963,20686,207963.0,61005.0,207963.0,90573.0,-1466.5139735541234,-1568.5149207383552,-1543.185747686806
207963,20711,207963.0,61043.0,207963.0,90649.0,-1429.105722333334,-1512.7956613477588,-1487.6911550853556
207963,20759,207963.0,61107.0,207963.0,90702.0,-1389.7461140200453,-1454.780903230287,-1429.885688221859
207963,20774,207963.0,61104.0,207963.0,90775.0,-1348.47315492162,-1394.546918570036,-1369.851629936022
207973,20831,207973.0,61152.0,207973.0,90824.0,-1305.3316837926363,-1332.1768570586516,-1307.6795827171884
207973,20877,207973.0,61214.0,207973.0,90912.0,-1260.3735599825575,-1267.7616636636176,-1243.4684015529738
207973,20923,207973.0,61299.0,207973.0,91011.0,-1213.657711797686,-1201.4007762942203,-1177.3250342042554
207973,20995,207973.0,61421.0,207973.0,91095.0,-1165.2500514871526,-1133.2021814955065,-1109.3640491647602
207973,21079,207973.0,61504.0,207973.0,91177.0,-1115.2232164910345,-1063.2818168480492,-1039.7069510527183
207973,21138,207973.0,61618.0,207973.0,91262.0,-1063.6560255353459,-991.7626221585969,-968.4815792367262
207983,21201,207983.0,61745.0,207983.0,91391.0,-1010.6328253115878,-918.7734967537987,-895.8215715986845
207983,21284,207983.0,61854.0,207983.0,91522.0,-956.2429680383791,-844.4481042658199,-821.8655290772894
207983,21384,207983.0,62036.0,207983.0,91637.0,-900.5802694469992,-768.9233932552024,-746.7556884665984
207983,21435,207983.0,62073.0,207983.0,91702.0,-843.7422480017799,-692.3379143550152,-670.6364814765692
207983,21482,207983.0,62161.0,207983.0,91809.0,-785.8294337378517,-614.8304799692885,-593.6535400793855
207983,21557,207983.0,62158.0,207983.0,91873.0,-726.9451078309257,-536.5398359470366,-515.9532143031936
207994,21620,207994.0,62262.0,207994.0,91955.0,-667.1952854857707,-457.6052901425701,-437.68235693835663
207994,21690,207994.0,62305.0,207994.0,92051.0,-606.6886048827823,-378.1676093401495,-358.98824089606546
207994,21785,207994.0,62423.0,207994.0,92123.0,-545.5360641061692,-298.3696133733556,-280.01847494171784
207994,21856,207994.0,62556.0,207994.0,92292.0,-483.8505843214094,-218.35620687762412,-200.92070256345824
207994,21946,207994.0,62702.0,207994.0,92361.0,-421.74641382255777,-138.27364167282963,-121.84186872849432
207994,22018,207994.0,62805.0,207994.0,92461.0,-359.3385069089188,-58.26810222649192,-42.92722581357202
208003,22106,208003.0,62940.0,208003.0,92576.0,-296.74194270195665,21.515854241604757,35.680464635269345
208003,22221,208003.0,63057.0,208003.0,92710.0,-234.07128304616606,100.9366960784514,113.84165841006825
208003,22293,208003.0,63173.0,208003.0,92789.0,-171.43971804197133,179.8572415782089,191.42103813370022
208003,22340,208003.0,63215.0,208003.0,92810.0,-108.95819180841443,258.1457905468542,268.28838931777113
208003,22413,208003.0,63249.0,208003.0,92906.0,-46.7349480100396,335.6765635800705,344.31869370343725
208003,22478,208003.0,63308.0,208003.0,92999.0,15.124526656290072,412.32920440370617,419.39173552116563
208013,22534,208013.0,63393.0,208013.0,93071.0,76.5175105775852,487.9878633857379,493.39199778527313
208013,22629,208013.0,63455.0,208013.0,93136.0,137.34413583487435,562.5405622931821,566.2088585961353
208013,22697,208013.0,63585.0,208013.0,93257.0,197.50763146746203,635.8790444094025,637.7367512123215
208013,22751,208013.0,63680.0,208013.0,93334.0,256.9147226030574,707.8991217424434,707.8754655176217
208013,22839,208013.0,63775.0,208013.0,93402.0,315.47597609777813,778.501470215117,776.5306975123362
208013,22907,208013.0,63843.0,208013.0,93493.0,373.1060957063971,847.59249170145,843.6145222319601
208024,22977,208024.0,63999.0,208024.0,93561.0,429.7243315758893,915.0850356537585,909.0457020796337
208024,23057,208024.0,64088.0,208024.0,93647.0,485.25496027818076,980.8993476132164,972.7500135308292
208024,23107,208024.0,64126.0,208024.0,93719.0,539.627748951701,1044.964273725952,1034.6606332931215
208024,23149,208024.0,64114.0,208024.0,93731.0,592.7782926745131,1107.2178495949834,1094.7184244284076
208024,23190,208024.0,64114.0,208024.0,93791.0,644.6480431863197,1167.6065816392693,1152.8718210484649
208024,23230,208024.0,64153.0,208024.0,93830.0,695.1840472396459,1226.0838074887092,1209.0763135072489
208034,23265,208034.0,64217.0,208034.0,93852.0,744.3385705242329,1282.6081207005773,1263.2938595671376
208034,23332,208034.0,64249.0,208034.0,93923.0,792.0687525739318,1337.1424644042195,1315.4923322768768
208034,23369,208034.0,64370.0,208034.0,93967.0,838.3364338483793,1389.653852738867,1365.6450948513034
208034,23426,208034.0,64434.0,208034.0,94018.0,883.108172575156,1440.1136545133086,1413.7308513370085
208034,23465,208034.0,64475.0,208034.0,94053.0,926.3553190288599,1488.4983065934402,1459.7336221578353
208034,23500,208034.0,64506.0,208034.0,94126.0,968.0540491726324,1534.789850828869,1503.642699529512
208044,23570,208044.0,64646.0,208044.0,94203.0,1008.185368713212,1578.9761171935538,1545.452793733591
208044,23602,208044.0,64679.0,208044.0,94223.0,1046.7352198868302,1621.0512175002277,1585.1645102365273
208044,23612,208044.0,64663.0,208044.0,94193.0,1083.6946430257017,1661.0163379390851,1622.7846559454279
208044,23623,208044.0,64629.0,208044.0,94220.0,1119.059627072618,1698.879729730102,1658.3257411628642
208044,23658,208044.0,64628.0,208044.0,94251.0,1152.83056434571,1734.6554485950192,1691.8049583291577
208044,23659,208044.0,64648.0,208044.0,94265.0,1185.011639560939,1768.3616401475933,1723.243398082118
208055,23692,208055.0,64627.0,208055.0,94248.0,1215.6103150107037,1800.019135740611,1752.665540546449
208055,23727,208055.0,64706.0,208055.0,94308.0,1244.6369138001894,1829.6504715383317,1780.0986589409831
208055,23769,208055.0,64745.0,208055.0,94317.0,1272.1044466180524,1857.2794414653158,1805.5723026939045
208055,23774,208055.0,64820.0,208055.0,94361.0,1298.0286857623225,1882.931389732776,1829.1181526338237
208055,23800,208055.0,64814.0,208055.0,94365.0,1322.4281986379228,1906.6339365938006,1850.7700833877916
208055,23821,208055.0,64835.0,208055.0,94387.0,1345.3242026074797,1928.4174828445985,1870.564168883378
208065,23864,208065.0,64923.0,208065.0,94439.0,1366.7404429715575,1948.3153586103017,1888.5386501002981
208065,23868,208065.0,64885.0,208065.0,94446.0,1386.7032532704516,1966.3640667200466,1904.7340804455516
208065,23859,208065.0,64825.0,208065.0,94407.0,1405.241590724485,1982.6033909148637,1919.1935018099925
208065,23845,208065.0,64808.0,208065.0,94380.0,1422.3866978869837,1997.0755400153425,1931.9620631214798
208065,23851,208065.0,64789.0,208065.0,94433.0,1438.1713814874856,2009.8235433162827,1943.0860921542453
208065,23849,208065.0,64856.0,208065.0,94373.0,1452.6292373330048,2020.8899502219629,1952.612323401072
208075,23886,208075.0,64823.0,208075.0,94379.0,1465.7941096116215,2030.3163589176115,1960.587373616268
208075,23878,208075.0,64864.0,208075.0,94444.0,1477.6998725662916,2038.143454990538,1967.0572227080784
208075,23933,208075.0,64870.0,208075.0,94439.0,1488.3804666685196,2044.4111093958786,1972.067129533215
208075,23919,208075.0,64892.0,208075.0,94424.0,1497.8700991555006,2049.1585405237606,1975.6620317030588
208075,23922,208075.0,64906.0,208075.0,94456.0,1506.2034398650892,2052.4246119322484,1977.8867682065902
208075,23924,208075.0,65012.0,208075.0,94478.0,1513.4155724646885,2054.2483616133804,1978.7861395852447
208086,23952,208086.0,64988.0,208086.0,94470.0,1519.5418031648842,2054.670022587669,1978.4052190704188
208086,23947,208086.0,64957.0,208086.0,94453.0,1524.617635415273,2053.7321085728363,1976.7896845533005
208086,23936,208086.0,64902.0,208086.0,94430.0,1528.6788426611101,2051.479590009434,1973.9857570908393
208086,23911,208086.0,64830.0,208086.0,94396.0,1531.7613061262591,2047.9589344368937,1970.039736378851
208086,23924,208086.0,64839.0,208086.0,94383.0,1533.9005618301953,2043.2166047520577,1964.9973219348067
208086,23900,208086.0,64799.0,208086.0,94378.0,1535.1313268642236,2037.2977403833684,1958.9029573032394
208096,23927,208096.0,64805.0,208096.0,94365.0,1535.4871960391297,2030.2453720254875,1951.7994123541348
208096,23923,208096.0,64868.0,208096.0,94387.0,1535.0005482623417,2022.100188726276,1943.7276508143063
208096,23942,208096.0,64850.0,208096.0,94408.0,1533.702673703736,2012.9009652200575,1934.7270221267036
208096,23933,208096.0,64869.0,208096.0,94386.0,1531.6240195175344,2002.6854093891452,1924.8357661928699
208096,23916,208096.0,64873.0,208096.0,94391.0,1528.794350735885,1991.4908842115146,1914.0915099740018
208096,23972,208096.0,64901.0,208096.0,94394.0,1525.2428030877961,1979.354998917926,1902.5315482902388
208107,23952,208107.0,64903.0,208107.0,94351.0,1520.9981202187582,1966.316327176004,1890.193020925164
208107,23918,208107.0,64821.0,208107.0,94324.0,1516.0890359161108,1952.415020372905,1877.1128836432054
208107,23905,208107.0,64786.0,208107.0,94308.0,1510.5442600773156,1937.6927137007528,1863.3275363320813
208107,23882,208107.0,64747.0,208107.0,94316.0,1504.3919986875942,1922.1916508954528,1848.8724308752626
208107,23862,208107.0,64695.0,208107.0,94245.0,1497.6594075810342,1905.953615195634,1833.7819065001413
208107,23875,208107.0,64594.0,208107.0,94249.0,1490.3721774059788,1889.018843259451,1818.0889721880876
208117,23887,208117.0,64703.0,208117.0,94240.0,1482.5544007024153,1871.424896422192,1801.8249480214004
208117,23887,208117.0,64696.0,208117.0,94268.0,1474.2288295439437,1853.2063116595766,1785.019415691846
208117,23863,208117.0,64690.0,208117.0,94250.0,1465.4172659519227,1834.3954641211171,1767.7006835780444
208117,23878,208117.0,64675.0,208117.0,94231.0,1456.140766619672,1815.0236322993765,1749.8963910428004
208117,23875,208117.0,64748.0,208117.0,94251.0,1446.4197523061318,1795.1216859922572,1731.6339150915694
208117,23862,208117.0,64738.0,208117.0,94240.0,1436.274221564163,1774.721001124103,1712.940736341382
208127,23855,208127.0,64695.0,208127.0,94169.0,1425.7239588607251,1753.8546510055987,1693.8448200732569
208127,23826,208127.0,64587.0,208127.0,94130.0,1414.7885725200524,1732.557901621544,1674.3745278088645
208127,23799,208127.0,64554.0,208127.0,94132.0,1403.4873274473664,1710.8674533509377,1654.5579836320405
208127,23802,208127.0,64492.0,208127.0,94103.0,1391.8388286664142,1688.8200209365011,1634.4225621709156
208127,23776,208127.0,64456.0,208127.0,94052.0,1379.860759447965,1666.4510620450133,1613.9947280418
208127,23770,208127.0,64486.0,208127.0,94055.0,1367.56977259399,1643.7939851388965,1593.2998373215553
208138,23795,208138.0,64460.0,208138.0,94086.0,1354.9815120476949,1620.880021706038,1572.3620074523983
208138,23770,208138.0,64473.0,208138.0,94034.0,1342.1108634526545,1597.7386868924,1551.2044696205946
208138,23772,208138.0,64488.0,208138.0,94025.0,1328.9723441089707,1574.398475395659,1529.8500770075377
208138,23759,208138.0,64430.0,208138.0,94017.0,1315.5803748291414,1550.8875872599524,1508.3214986545597
208138,23783,208138.0,64502.0,208138.0,94067.0,1301.9495000027082,1527.234559192555,1486.6414523476494
208138,23764,208138.0,64472.0,208138.0,94014.0,1288.0947638417185,1503.4689563054499,1464.833396715314
208148,23728,208148.0,64414.0,208148.0,93988.0,1274.0320946008922,1479.622177987322,1442.9222487214868
208148,23694,208148.0,64323.0,208148.0,93913.0,1259.7783097527717,1455.7276403085932,1420.9344458183812
208148,23677,208148.0,64276.0,208148.0,93876.0,1245.350699105346,1431.8198806310404,1398.897303383676
208148,23656,208148.0,64219.0,208148.0,93832.0,1230.7665435207018,1407.9331661817548,1376.8380834797488
208148,23654,208148.0,64204.0,208148.0,93841.0,1216.0428337887308,1384.100317839804,1354.7832354706934
208148,23661,208148.0,64180.0,208148.0,93862.0,1201.1962599312544,1360.3520232693977,1332.7582143911914
208158,23633,208158.0,64248.0,208158.0,93817.0,1186.2434400318239,1336.7167800074753,1310.7879268072895
208158,23632,208158.0,64198.0,208158.0,93812.0,1171.2011796063339,1313.221552509119,1288.8972832458846
208158,23608,208158.0,64180.0,208158.0,93787.0,1156.0865930053421,1289.8926646236073,1267.111435447492
208158,23632,208158.0,64251.0,208158.0,93797.0,1140.9172016537063,1266.7564206881575,1245.455895955504
208158,23609,208158.0,64219.0,208158.0,93762.0,1125.7111967766375,1243.8398530466277,1223.9567942117278
208158,23577,208158.0,64186.0,208158.0,93736.0,1110.4877567610788,1221.171728693846,1202.6411266693392
208169,23543,208169.0,64063.0,208169.0,93644.0,1095.2670603631202,1198.7828933692695,1181.5366378300916
208169,23515,208169.0,64027.0,208169.0,93612.0,1080.069904073958,1176.705389573061,1160.6710986076832
208169,23493,208169.0,63957.0,208169.0,93641.0,1064.9171881025986,1154.9708918966553,1140.0713676578866
208169,23482,208169.0,63871.0,208169.0,93587.0,1049.8295111311063,1133.6091507616593,1119.7629835615116
208169,23467,208169.0,63917.0,208169.0,93524.0,1034.8269622153737,1112.6466722451776,1099.7701514086534
208169,23458,208169.0,63891.0,208169.0,93576.0,1019.9290848834738,1092.106015529331,1080.11548751474
208179,23429,208179.0,63939.0,208179.0,93545.0,1005.1548994542668,1072.0060491334966,1060.8198594465453
208179,23401,208179.0,63925.0,208179.0,93500.0,990.5228250943661,1052.3628292596914,1041.9026707290366
208179,23409,208179.0,63928.0,208179.0,93520.0,976.0504767142257,1033.1905795338164,1023.382057318026
208179,23426,208179.0,63941.0,208179.0,93509.0,961.7546295471906,1014.5025145960792,1005.2749264012823
208179,23399,208179.0,63907.0,208179.0,93483.0,947.6515673778077,996.3114888530607,987.5972093005315
208179,23357,208179.0,63857.0,208179.0,93449.0,933.7574415088765,978.6303505538352,970.3640850782875
208189,23347,208189.0,63786.0,208189.0,93398.0,920.0881785297217,961.4716526907304,953.5897898255321
208189,23325,208189.0,63717.0,208189.0,93362.0,906.6590962363014,944.8466272223388,937.2870232835087
208189,23283,208189.0,63676.0,208189.0,93339.0,893.484553009676,928.7637359022353,921.466187096991
208189,23259,208189.0,63709.0,208189.0,93315.0,880.577547190197,913.227402459669,906.1347396417826
208189,23275,208189.0,63797.0,208189.0,93326.0,867.94925991752,898.2377515490447,891.2968431611001
208189,23264,208189.0,63684.0,208189.0,93346.0,855.6088911230888,883.7914980111655,876.9534203492732
208200,23275,208200.0,63738.0,208200.0,93341.0,843.5639036663017,869.8828531531246,863.1026607201206
208200,23254,208200.0,63758.0,208200.0,93312.0,831.820404135661,856.5038511451114,849.740650904801
208200,23255,208200.0,63814.0,208200.0,93368.0,820.3834293643474,843.6449679314418,836.8618071575645
208200,23274,208200.0,63799.0,208200.0,93366.0,809.2571728601046,831.2964032404834,824.4593874356937
208200,23217,208200.0,63710.0,208200.0,93314.0,798.4452460961129,819.44912138461,812.5262046470423
208200,23211,208200.0,63694.0,208200.0,93310.0,787.9507498909243,808.0947850045793,801.054952373248
208210,23193,208210.0,63656.0,208210.0,93266.0,777.7759918387433,797.2248188241515,790.0379186638827
208210,23184,208210.0,63607.0,208210.0,93253.0,767.9221552725089,786.8294010379169,779.4664847872048
208210,23177,208210.0,63596.0,208210.0,93250.0,758.3891483680568,776.8966011851867,769.330682394402
208210,23176,208210.0,63667.0,208210.0,93262.0,749.1755868074495,767.4118125708953,759.6189975862683
208210,23169,208210.0,63684.0,208210.0,93283.0,740.2788756008242,758.3580523357812,750.3185921982539
208210,23152,208210.0,63631.0,208210.0,93263.0,731.6953192796279,749.7169495331236,741.4158273207307
208220,23167,208220.0,63661.0,208220.0,93257.0,723.4201856655422,741.4694058452876,732.896721146082
208220,23167,208220.0,63693.0,208220.0,93267.0,715.4478305888315,733.59579798235,724.7471452764465
208220,23173,208220.0,63754.0,208220.0,93279.0,707.771999057453,726.0765743553634,716.9529987368195
208220,23168,208220.0,63722.0,208220.0,93308.0,700.3861998447376,718.8934409242075,709.5006454893671
208220,23142,208220.0,63680.0,208220.0,93245.0,693.2839553680502,712.0302990190413,702.377474236935
208220,23123,208220.0,63613.0,208220.0,93212.0,686.4587712382809,705.4731505142151,695.5720183579369
208231,23110,208231.0,63598.0,208231.0,93167.0,679.9038337839038,699.2090801558122,689.0733085368271
208231,23100,208231.0,63556.0,208231.0,93198.0,673.611646228756,693.22502178324,682.8699259459702
208231,23090,208231.0,63560.0,208231.0,93177.0,667.5737676686429,687.5067986177926,676.9494666679102
208231,23096,208231.0,63587.0,208231.0,93187.0,661.7806753295231,682.0386161407456,671.2985249902465
208231,23121,208231.0,63625.0,208231.0,93225.0,656.2218232347155,676.8032002785304,665.9029349162848
208231,23105,208231.0,63613.0,208231.0,93201.0,650.8859643693445,671.7825125962411,660.748213655745
208241,23110,208241.0,63652.0,208241.0,93200.0,645.7615363303154,666.9585694990315,655.8200274356687
208241,23114,208241.0,63704.0,208241.0,93233.0,640.8368963055652,662.3142223273828,651.1044412941131
208241,23132,208241.0,63707.0,208241.0,93225.0,636.1005312214911,657.8341741377005,646.5881880645603
208241,23112,208241.0,63635.0,208241.0,93201.0,631.5413729474672,653.5059119362083,642.2590399673408
208241,23088,208241.0,63587.0,208241.0,93195.0,627.1489963162753,649.31968869954,638.1059047977574
208241,23076,208241.0,63551.0,208241.0,93162.0,622.9134534222698,645.2674382106208,634.118549965066
208251,23065,208251.0,63567.0,208251.0,93132.0,618.824874052879,641.3414729964112,630.2871146166998
208251,23044,208251.0,63536.0,208251.0,93129.0,614.8730855432227,637.5336921571997,626.6014810145282
208251,23078,208251.0,63532.0,208251.0,93155.0,611.047359634279,633.8352366122884,623.0507726191079
208251,23073,208251.0,63589.0,208251.0,93158.0,607.3364323729686,630.2363572782942,619.6233333640167
208251,23077,208251.0,63582.0,208251.0,93171.0,603.7288115653558,626.7266968134538,616.3071135932684
208251,23079,208251.0,63573.0,208251.0,93158.0,600.2131009647168,623.2959103598934,613.0900906695035
208262,23060,208262.0,63614.0,208262.0,93171.0,596.778167521089,619.9341399181787,609.9605222637996
208262,23076,208262.0,63690.0,208262.0,93222.0,593.4131763410811,616.6325430257949,606.9072027010483
208262,23095,208262.0,63635.0,208262.0,93174.0,590.1076596597984,613.3842990018477,603.919949389453
208262,23063,208262.0,63616.0,208262.0,93167.0,586.8517557607079,610.1854515118838,600.9899877995898
208262,23047,208262.0,63508.0,208262.0,93144.0,583.6363429530046,607.0346547303245,598.1097921227249
208262,23042,208262.0,63498.0,208262.0,93114.0,580.452799769094,603.9318434675057,595.2725539081852
208272,23013,208272.0,63514.0,208272.0,93080.0,577.2925920260707,600.8766934689207,592.4715217732992
208272,23026,208272.0,63433.0,208272.0,93095.0,574.146909642372,597.8676368712172,589.6992751499769
208272,23035,208272.0,63491.0,208272.0,93146.0,571.0064647934729,594.9013012981211,586.9473289414094
208272,23031,208272.0,63524.0,208272.0,93152.0,567.86156906784,591.9722532551718,584.2064862159008
208272,23049,208272.0,63505.0,208272.0,93124.0,564.7023927827548,589.0733879399364,581.4675830328453
208272,23041,208272.0,63551.0,208272.0,93111.0,561.5192448711632,586.196653984418,578.721832391878
208282,23050,208282.0,63601.0,208282.0,93153.0,558.3028311532994,583.3337591974341,575.9606967646808
208282,23051,208282.0,63603.0,208282.0,93170.0,555.0444710635111,580.477128729669,573.175971480929
208282,23043,208282.0,63562.0,208282.0,93132.0,551.7362731274794,577.6208568779006,570.3602755404072
208282,23019,208282.0,63452.0,208282.0,93100.0,548.3711945887525,574.7607522074894,567.5072822839478
208282,23004,208282.0,63441.0,208282.0,93079.0,544.9428518725261,571.8931220328845,564.6112631547531
208282,22993,208282.0,63438.0,208282.0,93054.0,541.4451306842993,569.013091724227,561.6662908123549
208293,22980,208293.0,63391.0,208293.0,93057.0,537.8717882058589,566.1134566697368,558.6655389150853
208293,22982,208293.0,63435.0,208293.0,93067.0,534.2161609180936,563.1841217075049,555.6008770945094
208293,22992,208293.0,63488.0,208293.0,93077.0,530.4710389661586,560.2120270811531,552.4628544366564
208293,22999,208293.0,63480.0,208293.0,93107.0,526.6287760883218,557.1817899229268,549.2410292332175
208293,22990,208293.0,63506.0,208293.0,93074.0,522.6815604606358,554.0766791939371,545.9244490009581
208293,22980,208293.0,63511.0,208293.0,93098.0,518.6216159960386,550.8793417345994,542.5019957552144
208303,23017,208303.0,63594.0,208303.0,93122.0,514.4412918472271,547.5724560141284,538.9625928353803
208303,22994,208303.0,63597.0,208303.0,93069.0,510.13326701595497,544.1397552951913,535.2954820782334
208303,22960,208303.0,63540.0,208303.0,93072.0,505.6907812676416,540.5671313651806,531.490328845519
208303,22974,208303.0,63471.0,208303.0,93070.0,501.1075283153825,536.8428499861078,527.5369549026456
208303,22957,208303.0,63398.0,208303.0,93047.0,496.3773551743927,532.9564474647113,523.4250495856878
208303,22934,208303.0,63410.0,208303.0,93020.0,491.49407549615654,528.8969785831397,519.1439445826447
208314,22943,208314.0,63393.0,208314.0,93006.0,486.45129387299363,524.6516321535566,514.6822057721768
208314,22938,208314.0,63514.0,208314.0,93075.0,481.24223928987897,520.2053722737464,510.02727519426253
208314,22953,208314.0,63524.0,208314.0,93080.0,475.85980827711467,515.5418060479169,505.1657443286763
208314,22961,208314.0,63470.0,208314.0,93063.0,470.2968382168068,510.6446427994742,500.08417610838984
208314,22943,208314.0,63481.0,208314.0,93069.0,464.54647139031954,505.4984845126521,494.76972326804605
208314,22966,208314.0,63545.0,208314.0,93077.0,458.60244607009224,500.08886099500035,489.21032691293397
208324,22961,208324.0,63555.0,208324.0,93082.0,452.4593371309896,494.4026394822605,483.39490450622304
208324,22943,208324.0,63558.0,208324.0,93079.0,446.1128232780288,488.4290317512998,477.31367134131665
208324,22914,208324.0,63427.0,208324.0,93001.0,439.5597726174424,482.1601872952932,470.9582801522594
208324,22886,208324.0,63405.0,208324.0,93001.0,432.7979463601516,475.5905168709683,464.3214027644973
208324,22883,208324.0,63389.0,208324.0,93023.0,425.8254725386636,468.7151271358416,457.39601511705837
208324,22877,208324.0,63345.0,208324.0,92985.0,418.6404196791673,461.52848163899534,450.17507193779045
208334,22863,208334.0,63394.0,208334.0,92986.0,411.24062631847414,454.02371736720363,442.65153082624056
208334,22885,208334.0,63398.0,208334.0,92993.0,403.62371357487166,446.1925623932399,434.8183212280801
208334,22871,208334.0,63399.0,208334.0,92988.0,395.7872525078205,438.02580830132626,426.6683799484897
208334,22862,208334.0,63436.0,208334.0,92970.0,387.72902360296496,429.5139915932027,418.1948404481917
208334,22858,208334.0,63414.0,208334.0,92978.0,379.4471721546645,420.64804556138006,409.39116163237463
208334,22882,208334.0,63468.0,208334.0,93015.0,370.9403102049257,411.4199613723701,400.25129348647704
208345,22851,208345.0,63471.0,208345.0,92950.0,362.2077694880951,401.82354161090433,390.7700679688782
208345,22839,208345.0,63417.0,208345.0,92960.0,353.2498455465043,391.8551554623114,380.9434632224775
208345,22804,208345.0,63339.0,208345.0,92925.0,344.0677254287145,381.5138724169094,370.76844378003216
208345,22784,208345.0,63319.0,208345.0,92913.0,334.6631090773399,370.8005799864156,360.2426379498096
208345,22784,208345.0,63236.0,208345.0,92883.0,325.0377631680263,359.71659949354546,349.36403056827163
208345,22760,208345.0,63251.0,208345.0,92875.0,315.1932299558825,348.2623969173417,338.1306327464974
208355,22766,208355.0,63287.0,208355.0,92940.0,305.13072750037406,336.43679755677965,326.5403654513314
208355,22757,208355.0,63297.0,208355.0,92896.0,294.85117038754527,324.2371274604836,314.5914929182987
208355,22755,208355.0,63306.0,208355.0,92900.0,284.35530078803544,311.6600752368188,302.2833104921561
208355,22756,208355.0,63317.0,208355.0,92876.0,273.6439014840472,298.7026145861381,289.61648792034384
208355,22755,208355.0,63360.0,208355.0,92879.0,262.71806047901663,285.36283991312797,276.59310049230584
208355,22771,208355.0,63372.0,208355.0,92875.0,251.57952358375127,271.64097413423696,263.2167041700595
208365,22732,208365.0,63293.0,208365.0,92859.0,240.2310944606703,257.5403564696885,249.49253963383035
208365,22704,208365.0,63230.0,208365.0,92812.0,228.6768149310965,243.06762499651973,235.4276647736122
208365,22689,208365.0,63187.0,208365.0,92744.0,216.92173319671957,228.23179029190385,221.03065725567654
208365,22668,208365.0,63169.0,208365.0,92758.0,204.97149459438378,213.04292849642604,206.31083634387642
208365,22647,208365.0,63114.0,208365.0,92702.0,192.83202590021466,197.5112018188923,191.27748737170486
208365,22636,208365.0,63142.0,208365.0,92739.0,180.50930085994474,181.64625676101798,175.9394811709019
208376,22619,208376.0,63120.0,208376.0,92724.0,168.00915842198816,165.4569977151226,160.30532256079903
208376,22619,208376.0,63138.0,208376.0,92713.0,155.33722204835618,148.95180645187259,144.38352439781158
208376,22604,208376.0,63117.0,208376.0,92711.0,142.49894014928918,132.13900685557883,128.1830215577137
208376,22599,208376.0,63147.0,208376.0,92704.0,129.4997090050951,115.0273763014576,111.71347278654002
208376,22605,208376.0,63170.0,208376.0,92693.0,116.34504763783252,97.6268146966944,94.98555940213566
208376,22595,208376.0,63115.0,208376.0,92669.0,103.0408689733892,79.94919314712774,78.0112542166861
208386,22567,208386.0,63087.0,208386.0,92652.0,89.59377425401703,62.008884080319035,60.803936880152605
208386,22540,208386.0,63025.0,208386.0,92616.0,76.01112361001606,43.8225494740949,43.37833501424461
208386,22528,208386.0,62942.0,208386.0,92559.0,62.30082388470862,25.408302075774145,25.750248202817374
208386,22497,208386.0,62916.0,208386.0,92540.0,48.47103786850755,6.78446776067733,7.93598555657934
208386,22481,208386.0,62881.0,208386.0,92534.0,34.52992801468895,-12.03167715542395,-10.048250928415086
208386,22487,208386.0,62942.0,208386.0,92511.0,20.48546270508757,-31.024587115751956,-28.186653237138216
208396,22486,208396.0,62976.0,208396.0,92456.0,6.345448721082562,-50.180090229300845,-46.46386815913104
208396,22441,208396.0,62902.0,208396.0,92490.0,-7.882228555423012,-69.48425445575242,-64.86515637700393
208396,22439,208396.0,62868.0,208396.0,92462.0,-22.189507571868603,-88.9226108235813,-83.37645199524445
208396,22445,208396.0,62905.0,208396.0,92479.0,-36.568232352730206,-108.48024007482627,-101.98404169486048
208396,22454,208396.0,62966.0,208396.0,92461.0,-51.010009087583285,-128.1416749292748,-120.67404408780283
208396,22401,208396.0,62854.0,208396.0,92461.0,-65.50580545008665,-147.88998706117673,-139.43190828795912
208407,22376,208407.0,62777.0,208407.0,92368.0,-80.04580492661239,-167.7062532931052,-158.24213857753432
208407,22344,208407.0,62714.0,208407.0,92370.0,-94.61975929717232,-187.5704700829125,-177.08855122777788
208407,22326,208407.0,62716.0,208407.0,92284.0,-109.21752388651748,-207.46314789848668,-195.95499314583685
208407,22291,208407.0,62683.0,208407.0,92273.0,-123.82949664097305,-227.36634557593857,-214.82618288187655
208407,22295,208407.0,62667.0,208407.0,92285.0,-138.44694516622314,-247.26397933572707,-233.6883851203728
208407,22280,208407.0,62659.0,208407.0,92286.0,-153.0621633476511,-267.14184820411015,-252.52953059198762
208417,22274,208417.0,62657.0,208417.0,92275.0,-167.66839914955995,-286.98752814162754,-271.3387413790158
208417,22269,208417.0,62663.0,208417.0,92245.0,-182.25965705621468,-306.7900382065998,-290.10578817927365
208417,22248,208417.0,62651.0,208417.0,92237.0,-196.83049073100085,-326.5393074967418,-308.8208461838035
208417,22250,208417.0,62695.0,208417.0,92238.0,-211.37583263986664,-346.2255140668324,-327.47440622444026
208417,22253,208417.0,62654.0,208417.0,92217.0,-225.89080415782894,-365.8382860443563,-346.0570703381219
208417,22202,208417.0,62610.0,208417.0,92173.0,-240.37047597345156,-385.3660485964466,-364.5593251538395
208427,22180,208427.0,62537.0,208427.0,92148.0,-254.80984203811704,-404.7960715931114,-382.97161518233565
208427,22155,208427.0,62504.0,208427.0,92091.0,-269.20416709590245,-424.1152851266204,-401.2847689355473
208427,22158,208427.0,62437.0,208427.0,92101.0,-283.5493861851912,-443.3113917671062,-419.4905515274827
208427,22138,208427.0,62413.0,208427.0,92059.0,-297.84223651694083,-462.3739258625184,-437.58206477719693
208427,22124,208427.0,62434.0,208427.0,92071.0,-312.0801906685265,-481.29502551822065,-455.55386960786075
208427,22129,208427.0,62464.0,208427.0,92080.0,-326.2613632178153,-500.06949867968456,-473.40183501473007
208438,22102,208438.0,62417.0,208438.0,92046.0,-340.38438685684616,-518.6941511961923,-491.1227319974156
208438,22099,208438.0,62419.0,208438.0,92044.0,-354.44826816989587,-537.1670833207177,-508.71381949229294
208438,22107,208438.0,62505.0,208438.0,92039.0,-368.4522514576736,-555.4871955850501,-526.1726187191516
208438,22098,208438.0,62493.0,208438.0,92023.0,-382.3955591045775,-573.6532282064677,-543.4967040232486
208438,22069,208438.0,62422.0,208438.0,91997.0,-396.27704899495313,-591.6624575264411,-560.6834718497421
208438,22041,208438.0,62375.0,208438.0,91962.0,-410.0951026863295,-609.5102374609326,-577.7301064961166
208448,22019,208448.0,62305.0,208448.0,91943.0,-423.84785366160463,-627.1907381854478,-594.6338074897458
208448,22001,208448.0,62260.0,208448.0,91910.0,-437.53354524691815,-644.6982103276123,-611.3921329745863
208448,21985,208448.0,62253.0,208448.0,91893.0,-451.1508138589721,-662.0281798701315,-628.0033276553247
208448,21992,208448.0,62219.0,208448.0,91898.0,-464.6988126417365,-679.1782299048764,-644.4665402616624
208448,21973,208448.0,62271.0,208448.0,91898.0,-478.17713506367,-696.1482155722301,-660.7817646461085
208448,21955,208448.0,62286.0,208448.0,91868.0,-491.5856457635715,-712.9398333394222,-676.9495187129082
208458,21949,208458.0,62262.0,208458.0,91861.0,-504.92440686836153,-729.5556721261555,-692.9705748609056
208458,21947,208458.0,62247.0,208458.0,91864.0,-518.1936532463036,-745.9983756130596,-708.8458491877279
208458,21949,208458.0,62324.0,208458.0,91902.0,-531.3936284926489,-762.2701504154131,-724.576117547565
208458,21938,208458.0,62298.0,208458.0,91879.0,-544.5242695035413,-778.3720250791043,-740.1613297627014
208458,21901,208458.0,62219.0,208458.0,91810.0,-557.584946056072,-794.3029448379091,-755.5999631449954
208458,21874,208458.0,62192.0,208458.0,91807.0,-570.5745103903924,-810.0596836129519,-770.8890568567876
208469,21848,208469.0,62108.0,208469.0,91753.0,-583.49167907705,-825.637747331305,-786.0248016931112
208469,21850,208469.0,62081.0,208469.0,91717.0,-596.3354679324423,-841.032635237611,-801.0032057574463
208469,21822,208469.0,62058.0,208469.0,91700.0,-609.105423009431,-856.2410161358616,-815.820759245536
208469,21822,208469.0,62099.0,208469.0,91688.0,-621.8016719784906,-871.2614129266324,-830.4750013211672
208469,21819,208469.0,62024.0,208469.0,91689.0,-634.424893053864,-886.0942154298111,-844.9647524181421
208469,21808,208469.0,62066.0,208469.0,91693.0,-646.9761731319975,-900.7414768768429,-859.2899897863228
208479,21799,208479.0,62067.0,208479.0,91707.0,-659.456799646861,-915.2067348864668,-873.4514472734575
208479,21813,208479.0,62144.0,208479.0,91698.0,-671.8680569425553,-929.4944055775254,-887.450034466292
208479,21786,208479.0,62187.0,208479.0,91671.0,-684.2109684402336,-943.6084228768552,-901.2863119532783
208479,21790,208479.0,62087.0,208479.0,91666.0,-696.4860311096425,-957.5506207351011,-914.9602655347676
208479,21746,208479.0,62014.0,208479.0,91620.0,-708.6931061390794,-971.3201047531531,-928.4713753215901
208479,21721,208479.0,61972.0,208479.0,91627.0,-720.8315710246205,-984.9142061176849,-941.8188400885626
208490,21696,208490.0,61942.0,208490.0,91584.0,-732.9007351068278,-998.3300646977091,-955.0018354764359
208490,21684,208490.0,61925.0,208490.0,91547.0,-744.9003263191436,-1011.5657890397058,-968.0198141616488
208490,21669,208490.0,61900.0,208490.0,91550.0,-756.8308245338175,-1024.6210820340239,-980.8729431322156
208490,21678,208490.0,61928.0,208490.0,91555.0,-768.6935767527195,-1037.4975124156847,-993.5624433331229
208490,21667,208490.0,61950.0,208490.0,91545.0,-780.4906921043679,-1050.198343064217,-1006.0905159754698
208490,21660,208490.0,61936.0,208490.0,91526.0,-792.2247995794378,-1062.7278816540295,-1018.4600537960084
208500,21640,208500.0,61937.0,208500.0,91522.0,-803.8988566471037,-1075.0907583029755,-1030.6744852797976
208500,21662,208500.0,61990.0,208500.0,91546.0,-815.5160450991252,-1087.2913607959122,-1042.7376728329277
208500,21653,208500.0,61952.0,208500.0,91527.0,-827.0795577306749,-1099.3331601155867,-1054.6535976691755
208500,21622,208500.0,61883.0,208500.0,91482.0,-838.5922696894063,-1111.218160901695,-1066.4260073549788
208500,21579,208500.0,61832.0,208500.0,91452.0,-850.0566768767769,-1122.9472255066853,-1078.0585136044397
208500,21582,208500.0,61787.0,208500.0,91435.0,-861.4752733264252,-1134.5212533669487,-1089.555154368991
208510,21574,208510.0,61784.0,208510.0,91409.0,-872.8509667816011,-1145.942448660831,-1100.92098904935
208510,21539,208510.0,61694.0,208510.0,91401.0,-884.1872227594217,-1157.215273488693,-1112.1625081311506
208510,21539,208510.0,61724.0,208510.0,91399.0,-895.488143425423,-1168.3472726707882,-1123.2878631467852
208510,21549,208510.0,61800.0,208510.0,91395.0,-906.7585681859155,-1179.3495433522182,-1134.306884372567
208510,21533,208510.0,61754.0,208510.0,91405.0,-918.0039631398595,-1190.2362461011035,-1145.230890045604
208510,21537,208510.0,61827.0,208510.0,91391.0,-929.230131616373,-1201.0235133221968,-1156.072373806739
208521,21535,208521.0,61859.0,208521.0,91413.0,-940.4429399029964,-1211.728347491493,-1166.8446509576547
208521,21527,208521.0,61879.0,208521.0,91404.0,-951.6480519117856,-1222.3673285995924,-1177.5614611112212
208521,21508,208521.0,61821.0,208521.0,91398.0,-962.8506989075877,-1232.9553609775992,-1188.2365470492646
208521,21475,208521.0,61725.0,208521.0,91355.0,-974.0556480403613,-1243.5053676333646,-1198.8834198161023
208521,21456,208521.0,61700.0,208521.0,91314.0,-985.2674504625177,-1254.02927767503,-1209.5155625710952
208521,21423,208521.0,61674.0,208521.0,91317.0,-996.490875784074,-1264.5395596421656,-1220.1470181209224
208531,21425,208531.0,61616.0,208531.0,91301.0,-1007.731354626914,-1275.0504321659855,-1230.7929286379044
208531,21414,208531.0,61624.0,208531.0,91281.0,-1018.9952490083808,-1285.5787151099003,-1241.4697619971573
208531,21419,208531.0,61655.0,208531.0,91294.0,-1030.289855261465,-1296.144353096495,-1252.1953739938763
208531,21412,208531.0,61711.0,208531.0,91296.0,-1041.6232040453149,-1306.7701616067807,-1262.9889382869253
208531,21400,208531.0,61716.0,208531.0,91303.0,-1053.003806968534,-1317.4807241814874,-1273.870624094313
208531,21394,208531.0,61713.0,208531.0,91313.0,-1064.440473016445,-1328.301093660461,-1284.8610999502578
208541,21412,208541.0,61796.0,208541.0,91311.0,-1075.9421520132005,-1339.2557520193136,-1295.9809964443252
208541,21400,208541.0,61804.0,208541.0,91322.0,-1087.517634846104,-1350.3674819565615,-1307.2503819230428
208541,21391,208541.0,61733.0,208541.0,91276.0,-1099.1751587372328,-1361.6561251729015,-1318.6883557277283
208541,21358,208541.0,61622.0,208541.0,91216.0,-1110.9221925087957,-1373.1382870464472,-1330.3130598577545
208541,21328,208541.0,61592.0,208541.0,91242.0,-1122.7655655000083,-1384.8285881064753,-1342.142235935163
208541,21333,208541.0,61619.0,208541.0,91242.0,-1134.7118265650633,-1396.7414154938263,-1354.1937379764788
208552,21308,208552.0,61532.0,208552.0,91219.0,-1146.7675293707794,-1408.8919374239017,-1366.4854802982697
208552,21322,208552.0,61593.0,208552.0,91237.0,-1158.939277834307,-1421.296467189506,-1379.0351296061217
208552,21307,208552.0,61623.0,208552.0,91239.0,-1171.2335861288348,-1433.9724433357505,-1391.8598057975407
208552,21297,208552.0,61620.0,208552.0,91212.0,-1183.6566582789865,-1446.9377300186686,-1404.9757038926218
208552,21291,208552.0,61640.0,208552.0,91216.0,-1196.214212608828,-1460.2095385261675,-1418.3977883225803
208552,21283,208552.0,61684.0,208552.0,91261.0,-1208.9113690584384,-1473.8034571129058,-1432.1395428670678
208562,21282,208562.0,61711.0,208562.0,91252.0,-1221.7525040722103,-1487.732361952874,-1446.212379114133
208562,21280,208562.0,61647.0,208562.0,91194.0,-1234.7410283743905,-1502.0052289593382,-1460.624881101944
208562,21270,208562.0,61625.0,208562.0,91208.0,-1247.8791077313604,-1516.626552347117,-1475.3825515831452
208562,21234,208562.0,61486.0,208562.0,91149.0,-1261.167456112053,-1531.596843202019,-1490.4880616619982
208562,21213,208562.0,61513.0,208562.0,91152.0,-1274.605395455573,-1546.9139893439185,-1505.9415867387554
208562,21199,208562.0,61486.0,208562.0,91129.0,-1288.1911577377657,-1562.5746345838415,-1521.7410849865803
208572,21189,208572.0,61502.0,208572.0,91105.0,-1301.9221622252103,-1578.5747436549536,-1537.8824697813318
208572,21206,208572.0,61521.0,208572.0,91137.0,-1315.7950473857748,-1594.9093508929432,-1554.3596275785912
208572,21207,208572.0,61528.0,208572.0,91111.0,-1329.8053765908153,-1611.5718773034287,-1571.1641862553895
208572,21185,208572.0,61523.0,208572.0,91106.0,-1343.9471411685277,-1628.553283316543,-1588.285080663082
208572,21178,208572.0,61487.0,208572.0,91114.0,-1358.2123827288688,-1645.8414055317119,-1605.7081645844924
208572,21187,208572.0,61602.0,208572.0,91143.0,-1372.591011861365,-1663.4204656129596,-1623.4157662501614
208583,21170,208583.0,61530.0,208583.0,91132.0,-1387.0705826455937,-1681.2702235492495,-1641.3859349157242
208583,21157,208583.0,61487.0,208583.0,91043.0,-1401.6359969962461,-1699.365018647777,-1659.5917575162036
208583,21116,208583.0,61438.0,208583.0,91055.0,-1416.2693861420269,-1717.6736905448581,-1678.001383585062
208583,21089,208583.0,61373.0,208583.0,91025.0,-1430.9503174591914,-1736.1604296341684,-1696.5785387240066
208583,21098,208583.0,61432.0,208583.0,90957.0,-1445.6561734330144,-1754.785716046066,-1715.282934701064
208583,21054,208583.0,61320.0,208583.0,90941.0,-1460.3623937755772,-1773.5067796600129,-1734.0707270971016
208593,21065,208593.0,61363.0,208593.0,90949.0,-1475.04254095361,-1792.2777625309516,-1752.8950966744078
208593,21053,208593.0,61344.0,208593.0,90957.0,-1489.668291105109,-1811.0498542627085,-1771.7063953101517
208593,21048,208593.0,61360.0,208593.0,90943.0,-1504.209286441725,-1829.7711083727797,-1790.4517001581771
208593,21040,208593.0,61352.0,208593.0,90930.0,-1518.6328804110851,-1848.3858683769502,-1809.074245128209
208593,21044,208593.0,61373.0,208593.0,90940.0,-1532.9038757668404,-1866.8340946729727,-1827.5130187693978
208593,21037,208593.0,61414.0,208593.0,90945.0,-1546.9842181564168,-1885.0505535604461,-1845.7023563629004
208603,21026,208603.0,61345.0,208603.0,90886.0,-1560.8326564886252,-1902.9638440441852,-1863.5714654691326
208603,20988,208603.0,61261.0,208603.0,90850.0,-1574.404539285076,-1920.4959242743819,-1881.0443039445406
208603,20957,208603.0,61174.0,208603.0,90808.0,-1587.651936557659,-1937.562890734996,-1898.0400656834856
208603,20924,208603.0,61132.0,208603.0,90727.0,-1600.5241007969146,-1954.0767354453442,-1914.474055953669
208603,20931,208603.0,61116.0,208603.0,90747.0,-1612.9680156515278,-1969.9470821278596,-1930.2587100100707
208603,20937,208603.0,61105.0,208603.0,90716.0,-1624.9286575230763,-1985.0822282442991,-1945.3043914210427
208614,20912,208614.0,61156.0,208614.0,90710.0,-1636.348858459614,-1999.3893683143106,-1959.519675441729
208614,20897,208614.0,61108.0,208614.0,90710.0,-1647.169108065107,-2012.77417754156,-1972.8113227016063
208614,20882,208614.0,61073.0,208614.0,90690.0,-1657.327595785543,-2025.1403517018528,-1985.0841768657604
208614,20874,208614.0,61089.0,208614.0,90664.0,-1666.760390263632,-2036.3896588230443,-1996.241094521374
208614,20874,208614.0,61158.0,208614.0,90715.0,-1675.401549317401,-2046.4220221064556,-2006.1829447715834
208614,20854,208614.0,61086.0,208614.0,90642.0,-1683.1831241587904,-2055.1349714678386,-2014.8084954991455
208624,20825,208624.0,61039.0,208624.0,90617.0,-1690.0352158104758,-2062.4231428610806,-2022.0143999737115
208624,20798,208624.0,60958.0,208624.0,90577.0,-1695.886292335995,-2068.178866867609,-2027.6957626482522
208624,20779,208624.0,60919.0,208624.0,90521.0,-1700.663759020666,-2072.293724480564,-2031.747170104241
208624,20766,208624.0,60889.0,208624.0,90488.0,-1704.2945733429149,-2074.6602903686135,-2034.0638991086887
208624,20738,208624.0,60869.0,208624.0,90471.0,-1706.7057816047736,-2075.17355105393,-2034.543177680421
208624,20737,208624.0,60884.0,208624.0,90473.0,-1707.8250180259813,-2073.731847654768,-2033.085215167071
208634,20735,208634.0,60892.0,208634.0,90457.0,-1707.5809443688822,-2070.2373303845825,-2029.5938265542804
208634,20719,208634.0,60906.0,208634.0,90431.0,-1705.903549455876,-2064.5959968940824,-2023.976878855919
208634,20710,208634.0,60845.0,208634.0,90460.0,-1702.7244161144258,-2056.7176818868024,-2016.1468055333314
208634,20726,208634.0,60906.0,208634.0,90466.0,-1697.9770508998392,-2046.5163895991898,-2006.0210199000376
208634,20724,208634.0,60906.0,208634.0,90467.0,-1691.59712702534,-2033.9107109976374,-1993.5220461796855
208634,20701,208634.0,60853.0,208634.0,90428.0,-1683.5226345507424,-2018.8240309815571,-1978.5777007491351
208645,20669,208645.0,60851.0,208645.0,90447.0,-1673.6942738183711,-2001.1850442654898,-1961.1216923583934
208645,20652,208645.0,60813.0,208645.0,90407.0,-1662.0562965048846,-1980.9289021530692,-1941.0945242526677
208645,20644,208645.0,60770.0,208645.0,90390.0,-1648.5575796561438,-1957.9986767912674,-1918.4445384275618
208645,20654,208645.0,60788.0,208645.0,90415.0,-1633.1525823652246,-1932.3469587954391,-1893.1290998756263
208645,20674,208645.0,60789.0,208645.0,90456.0,-1615.80198435977,-1903.9373310241342,-1865.1155743958611
208645,20706,208645.0,60872.0,208645.0,90522.0,-1596.4729593906673,-1872.745274795152,-1834.3816358750328
208655,20699,208655.0,60967.0,208655.0,90531.0,-1575.13920813314,-1838.7582000760128,-1800.914993130413
208655,20720,208655.0,60942.0,208655.0,90538.0,-1551.7810511672112,-1801.9747299541557,-1764.7131522425007
208655,20763,208655.0,61049.0,208655.0,90609.0,-1526.3856719267596,-1762.4040047608,-1725.7836114203446
208655,20805,208655.0,61136.0,208655.0,90684.0,-1498.9472006201402,-1720.065242672481,-1684.144053376047
208655,20810,208655.0,61146.0,208655.0,90713.0,-1469.466532275855,-1674.9870525938131,-1639.8220411737705
208655,20834,208655.0,61201.0,208655.0,90710.0,-1437.951249439997,-1627.2067860708657,-1592.8546763610123
208665,20862,208665.0,61209.0,208665.0,90752.0,-1404.4158619826158,-1576.7705384720323,-1543.2889085728652
208665,20887,208665.0,61238.0,208665.0,90852.0,-1368.8821573417445,-1523.7336929888752,-1491.1822019604128
208665,20919,208665.0,61308.0,208665.0,90872.0,-1331.3794988290651,-1468.1616598963706,-1436.6027838522966
208665,20969,208665.0,61360.0,208665.0,90952.0,-1291.94506116421,-1410.1304389240609,-1379.6294980633913
208665,21051,208665.0,61449.0,208665.0,91065.0,-1250.6238505009483,-1349.7267617840555,-1320.351596572953
208665,21104,208665.0,61571.0,208665.0,91120.0,-1207.4683175087023,-1287.047792150036,-1258.8682605994657
208676,21152,208676.0,61617.0,208676.0,91223.0,-1162.5377279975287,-1222.200402538205,-1195.2878441362752
208676,21194,208676.0,61755.0,208676.0,91327.0,-1115.8977022293361,-1155.3002900547938,-1129.727113990511
208676,21297,208676.0,61936.0,208676.0,91470.0,-1067.6199675442567,-1086.4709113680237,-1062.3102905714607
208676,21354,208676.0,62074.0,208676.0,91550.0,-1017.7819376731255,-1015.8416543900519,-993.1676812626106
208676,21402,208676.0,62092.0,208676.0,91619.0,-966.4660536807403,-943.5455502976225,-922.4343273492107
208676,21459,208676.0,62122.0,208676.0,91671.0,-913.7593069931293,-869.7179787986111,-850.2492775268195
208686,21519,208686.0,62165.0,208686.0,91766.0,-859.7530895724665,-794.4970220789677,-776.7555281457462
208686,21584,208686.0,62255.0,208686.0,91864.0,-804.5431114101325,-718.0245806992834,-702.100079283282
208686,21648,208686.0,62330.0,208686.0,91963.0,-748.2292305972069,-640.4471723588882,-626.4336446497443
208686,21731,208686.0,62511.0,208686.0,92050.0,-690.9151888235599,-561.9159778644691,-549.9100652066016
208686,21794,208686.0,62581.0,208686.0,92180.0,-632.7082349054763,-482.5860647928404,-472.6856422032389
208686,21893,208686.0,62715.0,208686.0,92291.0,-573.7186370310146,-402.6151502488334,-394.91831989710533
208697,21960,208697.0,62829.0,208697.0,92391.0,-514.0590883478818,-322.1624319683617,-316.7666400493963
208697,22056,208697.0,62933.0,208697.0,92500.0,-453.84402458855516,-241.38752921679065,-238.38869177115362
208697,22138,208697.0,63096.0,208697.0,92659.0,-393.188894610848,-160.44935025251982,-159.9411001652968
208697,22228,208697.0,63185.0,208697.0,92704.0,-332.20938015512604,-79.504796203061,-81.57786652240134
208697,22284,208697.0,63263.0,208697.0,92793.0,-271.0206339405071,1.2925034309173498,-3.449386898185139
208697,22342,208697.0,63311.0,208697.0,92853.0,-209.7367569923856,81.79286409733754,74.2978681919767
208707,22408,208707.0,63379.0,208707.0,92940.0,-148.4706268268643,161.850408679491,151.5212141321017
208707,22485,208707.0,63465.0,208707.0,93040.0,-87.33387649565384,241.32253481570478,228.08164305831588
208707,22558,208707.0,63517.0,208707.0,93100.0,-26.436747631557978,320.06945117132796,303.8439380384614
208707,22644,208707.0,63657.0,208707.0,93195.0,34.11225695283247,397.95395526238735,378.67687342475415
208707,22724,208707.0,63754.0,208707.0,93321.0,94.20687813734742,474.84163342991724,452.4534612400016
208707,22809,208707.0,63869.0,208707.0,93403.0,153.74372587393032,550.6016068096565,525.0515170013118
208717,22856,208717.0,63961.0,208717.0,93485.0,212.62290708740852,625.1075301597766,596.3544823084828
208717,22951,208717.0,64098.0,208717.0,93567.0,270.74849956797004,698.2385806463433,666.252073050267
208717,23019,208717.0,64232.0,208717.0,93681.0,328.0289479406524,769.8806248251738,734.6407408091663
208717,23073,208717.0,64282.0,208717.0,93730.0,384.37752242883084,839.9276324788807,801.4242181632619
208717,23133,208717.0,64271.0,208717.0,93782.0,439.7126875488734,908.2826165025372,866.5139812450404
208717,23174,208717.0,64300.0,208717.0,93837.0,493.9582196237193,974.8572583785433,929.8292643584152
208728,23211,208728.0,64353.0,208728.0,93881.0,547.0431000434062,1039.57053404397,991.2967064280992
208728,23270,208728.0,64426.0,208728.0,93908.0,598.9012454349613,1102.3474540522475,1050.8498605860311
208728,23313,208728.0,64470.0,208728.0,93992.0,649.4712308524659,1163.118458984443,1108.4286380913336
208728,23392,208728.0,64586.0,208728.0,94087.0,698.6961922936359,1221.8193066111758,1163.979008494749
208728,23439,208728.0,64645.0,208728.0,94142.0,746.5239732736159,1278.391349856624,1217.4533040582096
208728,23497,208728.0,64685.0,208728.0,94174.0,792.9074302806291,1332.7820619399972,1268.8107800788853
208738,23533,208738.0,64783.0,208738.0,94210.0,837.8046984559867,1384.9454260877883,1318.0177830500525
208738,23603,208738.0,64959.0,208738.0,94298.0,881.1793421249456,1434.842476859385,1365.0475441700714
208738,23638,208738.0,64962.0,208738.0,94345.0,923.0005149826407,1482.4426300165778,1409.8801618888447
208738,23649,208738.0,64918.0,208738.0,94323.0,963.2430946904412,1527.724968417127,1452.5028006719044
208738,23685,208738.0,64900.0,208738.0,94349.0,1001.8875298030991,1570.677922609244,1492.9094307127452
208738,23706,208738.0,64906.0,208738.0,94379.0,1038.919403894782,1611.2974722845966,1531.0999714067866
208748,23725,208748.0,64953.0,208748.0,94412.0,1074.3289644208396,1649.5852855920384,1567.079486386781
208748,23757,208748.0,64967.0,208748.0,94429.0,1108.1106856005147,1685.5476059592434,1600.857739767359
208748,23791,208748.0,65045.0,208748.0,94481.0,1140.2628980273876,1719.1948216334072,1632.4489313142367
208748,23825,208748.0,65055.0,208748.0,94497.0,1170.7875985245823,1750.5414708596527,1661.8715515437825
208748,23855,208748.0,65095.0,208748.0,94513.0,1199.690430188045,1779.606425355808,1689.1483178508702
208748,23870,208748.0,65118.0,208748.0,94538.0,1226.980694946213,1806.4129824626789,1714.3060129862583
208759,23888,208759.0,65207.0,208759.0,94595.0,1252.6712588222485,1830.98897059514,1737.3753101512752
208759,23942,208759.0,65263.0,208759.0,94624.0,1276.778392101323,1853.3672942445978,1758.390905619187
208759,23941,208759.0,65217.0,208759.0,94612.0,1299.3217483874437,1873.5868022769519,1777.3918708737278
208759,23942,208759.0,65174.0,208759.0,94596.0,1320.3243848897953,1891.6925070739098,1794.4216686454638
208759,23932,208759.0,65154.0,208759.0,94548.0,1339.8124570159732,1907.7345724583442,1809.5274774375157
208759,23963,208759.0,65107.0,208759.0,94551.0,1357.8146087953241,1921.766645722816,1822.758987068722
208769,23952,208769.0,65068.0,208769.0,94550.0,1374.3614306608717,1933.8441514218553,1834.1671575142532
208769,23966,208769.0,65135.0,208769.0,94593.0,1389.485088907823,1944.0227941387361,1843.8034474089445
208769,23965,208769.0,65147.0,208769.0,94603.0,1403.2189740702902,1952.3577966474395,1851.7196906893146
208769,23992,208769.0,65170.0,208769.0,94630.0,1415.5973773029016,1958.9040740530318,1857.9684031787433
208769,24009,208769.0,65169.0,208769.0,94616.0,1426.6553535676999,1963.7167147760993,1862.6031470980533
208769,24009,208769.0,65208.0,208769.0,94604.0,1436.4287826642606,1966.85130924234,1865.6786502683153
208779,24043,208779.0,65218.0,208779.0,94633.0,1444.9544792402564,1968.3642863888235,1867.2506499409446
208779,24051,208779.0,65289.0,208779.0,94633.0,1452.2703364566767,1968.3135071245638,1867.3757873300656
208779,24045,208779.0,65241.0,208779.0,94611.0,1458.4155264013007,1966.7590866045111,1866.1117028249928
208779,24018,208779.0,65134.0,208779.0,94584.0,1463.4305091318995,1963.763771564441,1863.5169738796012
208779,24000,208779.0,65134.0,208779.0,94558.0,1467.3566163581245,1959.3920956895204,1859.6506407537386
208779,23992,208779.0,65093.0,208779.0,94545.0,1470.235344050257,1953.7088088329542,1854.571512496656
208790,23994,208790.0,65023.0,208790.0,94518.0,1472.1076926333274,1946.77754130714,1848.3375184042397
208790,24007,208790.0,65084.0,208790.0,94515.0,1473.0137962812369,1938.6597902184717,1841.005190078848
208790,24005,208790.0,65085.0,208790.0,94531.0,1472.9928642769305,1929.4144180572384,1832.6293511519698
208790,24008,208790.0,65083.0,208790.0,94529.0,1472.0832773177794,1919.0979711891064,1823.2631646254508
208790,23995,208790.0,65091.0,208790.0,94533.0,1470.3226492937276,1907.7653043434543,1812.9584773705978
208790,24010,208790.0,65169.0,208790.0,94546.0,1467.747806752086,1895.470205704859,1801.7662475723878
208800,24024,208800.0,65191.0,208800.0,94546.0,1464.3948366119553,1882.2664842526415,1789.737014985703
208800,24013,208800.0,65123.0,208800.0,94498.0,1460.2993223599974,1868.2093779563374,1776.9213192582802
208800,23979,208800.0,65009.0,208800.0,94472.0,1455.4965388794967,1853.3560769612714,1763.3697287448792
208800,23970,208800.0,64963.0,208800.0,94461.0,1450.0212809674128,1837.764635484302,1749.1324336573116
208800,23964,208800.0,64936.0,208800.0,94400.0,1443.9074397535644,1821.4920982823942,1734.2587358324427
208800,23946,208800.0,64887.0,208800.0,94374.0,1437.1876679106226,1804.5930318085734,1718.796490168017
208810,23936,208810.0,64909.0,208810.0,94352.0,1429.8931770866075,1787.1187314340946,1702.791417216305
208810,23956,208810.0,64912.0,208810.0,94377.0,1422.0536098446294,1769.117009894747,1686.2866132396352
208810,23942,208810.0,64908.0,208810.0,94352.0,1413.697110573121,1750.6325592349724,1669.3225881447509
208810,23936,208810.0,64861.0,208810.0,94338.0,1404.8505600047968,1731.7074860283108,1651.9376113420553
208810,23941,208810.0,64879.0,208810.0,94358.0,1395.5397599425053,1712.3815509447772,1634.168012089858
208810,23930,208810.0,64922.0,208810.0,94330.0,1385.7895733917194,1692.6923824763612,1616.0484958165532
208821,23924,208821.0,64926.0,208821.0,94323.0,1375.624090093476,1672.6762544525727,1597.6125278571978
208821,23912,208821.0,64816.0,208821.0,94297.0,1365.0667458223345,1652.3690719691247,1578.8925750349872
208821,23872,208821.0,64779.0,208821.0,94269.0,1354.1403036025758,1631.8064535275582,1559.920135195528
208821,23880,208821.0,64733.0,208821.0,94232.0,1342.8666535880277,1611.0227463271895,1540.7255839996521
208821,23853,208821.0,64685.0,208821.0,94173.0,1331.2665644378599,1590.0498579320506,1521.337777247462
208821,23829,208821.0,64661.0,208821.0,94171.0,1319.3595129784135,1568.9163787911825,1501.783434066236
208831,23855,208831.0,64697.0,208831.0,94150.0,1307.1635570800256,1547.6470775663813,1482.0866056181867
208831,23845,208831.0,64756.0,208831.0,94155.0,1294.6954008756354,1526.2631913053058,1462.2685441706594
208831,23849,208831.0,64653.0,208831.0,94156.0,1281.970767088067,1504.7834975120572,1442.3479656820105
208831,23831,208831.0,64668.0,208831.0,94160.0,1269.0048209336808,1483.2251312752576,1422.3415676002987
208831,23814,208831.0,64722.0,208831.0,94163.0,1255.8124062907661,1461.6037805431972,1402.2646960284533
208831,23832,208831.0,64762.0,208831.0,94149.0,1242.4081422079603,1439.9343396465597,1382.1320301652786
208841,23815,208841.0,64747.0,208841.0,94124.0,1228.8066018788852,1418.2324414812763,1361.9581135235276
208841,23796,208841.0,64592.0,208841.0,94098.0,1215.0225999160616,1396.515647552285,1341.7575877594495
208841,23754,208841.0,64572.0,208841.0,94057.0,1201.0712838931238,1374.8030770839653,1321.5451164974181
208841,23741,208841.0,64538.0,208841.0,94061.0,1186.9678677787172,1353.1139279449148,1301.3351443841357
208841,23730,208841.0,64493.0,208841.0,94019.0,1172.7272435502816,1331.4662568158276,1281.1417155333436
208841,23706,208841.0,64483.0,208841.0,93997.0,1158.3637497731454,1309.876380242211,1260.978383275822
208852,23730,208852.0,64512.0,208852.0,94019.0,1143.8911492835966,1288.3586632714414,1240.8581460034716
208852,23705,208852.0,64510.0,208852.0,94001.0,1129.3228175364584,1266.925867164282,1220.7936191353674
208852,23705,208852.0,64506.0,208852.0,93963.0,1114.6720703394367,1245.5899747626622,1200.7974448058271
208852,23681,208852.0,64493.0,208852.0,93951.0,1099.9524160239948,1224.3629891848327,1180.882501740197
208852,23682,208852.0,64560.0,208852.0,93976.0,1085.1776709068865,1203.257622475662,1161.0619209764773
208852,23692,208852.0,64518.0,208852.0,93958.0,1070.3621096183638,1182.2882198654738,1141.349384609974
208862,23653,208862.0,64421.0,208862.0,93920.0,1055.5207510328805,1161.4715812525556,1121.7596524910027
208862,23624,208862.0,64356.0,208862.0,93835.0,1040.6695324439493,1140.8267040065389,1102.3086587204943
208862,23596,208862.0,64329.0,208862.0,93829.0,1025.825096270795,1120.3734688135046,1083.012867837437
208862,23588,208862.0,64264.0,208862.0,93837.0,1011.0043688939936,1100.1312737492701,1063.8884750428103
208862,23550,208862.0,64260.0,208862.0,93807.0,996.2242346437544,1080.118087482193,1044.951176449174
208862,23547,208862.0,64271.0,208862.0,93762.0,981.5013084456364,1060.3499311107148,1026.2163105123082
208873,23546,208873.0,64263.0,208873.0,93754.0,966.8517944385632,1040.840945910933,1007.6987589752723
208873,23504,208873.0,64218.0,208873.0,93734.0,952.2914988353428,1021.6038238666084,989.4126553990211
208873,23499,208873.0,64239.0,208873.0,93733.0,937.835830557208,1002.6500784009044,971.3712792339261
208873,23506,208873.0,64261.0,208873.0,93732.0,923.4997122297511,983.9902702450156,953.5872199722322
208873,23497,208873.0,64304.0,208873.0,93747.0,909.297674242588,965.6347385142637,936.0727745207278
208873,23475,208873.0,64243.0,208873.0,93699.0,895.2441516250199,947.5947536652802,918.8404680999618
208883,23453,208883.0,64128.0,208883.0,93685.0,881.3536493510256,929.8831064367653,901.9033582801353
208883,23432,208883.0,64105.0,208883.0,93626.0,867.6406420390002,912.5133451782154,885.2748788983838
208883,23399,208883.0,64090.0,208883.0,93587.0,854.1193148340719,895.4983087489732,868.9682861713181
208883,23385,208883.0,64000.0,208883.0,93580.0,840.8032259563862,878.849031182212,852.9959231123887
208883,23367,208883.0,64048.0,208883.0,93540.0,827.7049714092227,862.5740399757932,837.3686134862975
208883,23361,208883.0,64061.0,208883.0,93561.0,814.835970811489,846.6790294497948,822.0953609719501
208893,23355,208893.0,64066.0,208893.0,93540.0,802.2064245422947,831.1673075687006,807.1833450927761
208893,23347,208893.0,64055.0,208893.0,93543.0,789.8254114725216,816.0406740296896,792.6381529110818
208893,23336,208893.0,64039.0,208893.0,93537.0,777.7010460028084,801.3000454831597,778.4640924475807
208893,23359,208893.0,64086.0,208893.0,93572.0,765.8406718501828,786.9458257922691,764.6645795447324
208893,23334,208893.0,64135.0,208893.0,93546.0,754.2511732648978,772.9785717421397,751.2427214725934
208893,23328,208893.0,64029.0,208893.0,93498.0,742.9393123674508,759.4000411928716,738.2018239567321
208904,23287,208904.0,63991.0,208904.0,93474.0,731.9118272714559,746.2136360733284,725.5453297577117
208904,23264,208904.0,63925.0,208904.0,93454.0,721.1751855386303,733.4235885175506,713.2762696438906
208904,23256,208904.0,63903.0,208904.0,93449.0,710.7351364338035,721.0335720339945,701.3967538397656
208904,23259,208904.0,63867.0,208904.0,93401.0,700.596371403632,709.0455248121655,689.9076839686481
208904,23215,208904.0,63973.0,208904.0,93427.0,690.7624261618773,697.4590796876321,678.8085174574567
208904,23262,208904.0,63920.0,208904.0,93472.0,681.2356684049121,686.2719386690985,668.0972644864627
208914,23229,208914.0,63910.0,208914.0,93423.0,672.0173993741334,675.4807346749785,657.7710170084688
208914,23225,208914.0,63925.0,208914.0,93428.0,663.1081035889308,665.0814698720733,647.826556582429
208914,23219,208914.0,63945.0,208914.0,93441.0,654.507589692742,655.069676423417,638.2605655342777
208914,23240,208914.0,64014.0,208914.0,93450.0,646.2150487013824,645.4410343751799,629.0698159293363
208914,23216,208914.0,63954.0,208914.0,93432.0,638.2292785733159,636.1924630051792,620.2516035882084
208914,23204,208914.0,63912.0,208914.0,93389.0,630.5489294167844,627.322878296161,611.8040265489685
208924,23181,208924.0,63847.0,208924.0,93362.0,623.1724820016423,618.8328779681726,603.7257377193956
208924,23167,208924.0,63838.0,208924.0,93328.0,616.0979818796485,610.7236151661203,596.0152709448997
208924,23143,208924.0,63765.0,208924.0,93326.0,609.3226890380556,602.9955893332301,588.6703007642255
208924,23146,208924.0,63763.0,208924.0,93319.0,602.8427362445889,595.6475809054787,581.6871333953493
208924,23151,208924.0,63797.0,208924.0,93341.0,596.6529297412621,588.675851248803,575.0605686688455
208924,23144,208924.0,63798.0,208924.0,93333.0,590.746797646748,582.074012630319,568.7841087445693
208935,23153,208935.0,63811.0,208935.0,93337.0,585.1167870720037,575.8335258473327,562.8503134285415
208935,23156,208935.0,63850.0,208935.0,93348.0,579.7544948029846,569.9443703776626,557.2511161118819
208935,23166,208935.0,63890.0,208935.0,93382.0,574.6509560744615,564.395867078328,551.9781936566388
208935,23172,208935.0,63880.0,208935.0,93344.0,569.7970058668404,559.1777427847614,547.0234876195029
208935,23179,208935.0,63876.0,208935.0,93329.0,565.1836705112178,554.2810384675889,542.3795391143232
208935,23133,208935.0,63807.0,208935.0,93294.0,560.8024482324865,549.6983775981081,538.0392854426742
208945,23115,208945.0,63730.0,208945.0,93305.0,556.6452036912879,545.4233521617612,533.9955211059189
208945,23102,208945.0,63830.0,208945.0,93267.0,552.7036484685545,541.4493503590155,530.2404200799982
208945,23094,208945.0,63709.0,208945.0,93258.0,548.9687781005457,537.7687490268471,526.7651539953383
208945,23112,208945.0,63712.0,208945.0,93300.0,545.4305755670235,534.3725114800751,523.5595761235852
208945,23115,208945.0,63793.0,208945.0,93284.0,542.0780462857563,531.2496709320395,520.6122406132241
208945,23120,208945.0,63750.0,208945.0,93279.0,538.8994958926245,528.3872603594231,517.910720873248
208955,23113,208955.0,63777.0,208955.0,93292.0,535.882832597221,525.7708753460113,515.4418126095496
208955,23106,208955.0,63799.0,208955.0,93301.0,533.0157224712641,523.385162017929,513.1916340529986
208955,23133,208955.0,63881.0,208955.0,93337.0,530.2856486496951,521.2143823044221,511.1459314063222
208955,23120,208955.0,63833.0,208955.0,93296.0,527.680067093025,519.2434496085708,509.2905595963775
208955,23107,208955.0,63809.0,208955.0,93280.0,525.1866228852481,517.4587837459364,507.61171582978744
208955,23074,208955.0,63766.0,208955.0,93252.0,522.7931117704921,515.8482125691279,506.09562082461747
208966,23096,208966.0,63711.0,208966.0,93261.0,520.4871326873368,514.4000502341977,504.727907202223
208966,23078,208966.0,63658.0,208966.0,93248.0,518.2557777529947,513.1017774933838,503.49315868419603
208966,23086,208966.0,63674.0,208966.0,93229.0,516.0855543775626,511.9386218961971,502.3746572284444
208966,23100,208966.0,63731.0,208966.0,93305.0,513.9624468353652,510.8926636489231,501.35427789438614
208966,23099,208966.0,63752.0,208966.0,93270.0,511.8720974903198,509.94302616539915,500.41274851455455
208966,23082,208966.0,63782.0,208966.0,93275.0,509.80003527097205,509.06685035186337,499.5301492830921
208976,23098,208976.0,63793.0,208976.0,93289.0,507.7317596026041,508.2403348690842,498.6861611149452
208976,23114,208976.0,63860.0,208976.0,93319.0,505.6527875179324,507.4396346512567,497.86019697901963
208976,23132,208976.0,63884.0,208976.0,93329.0,503.5489457079263,506.64189365900586,497.0318296941085
208976,23100,208976.0,63795.0,208976.0,93292.0,501.40681286086715,505.82624465194976,496.1813104270714
208976,23074,208976.0,63763.0,208976.0,93270.0,499.2138614534667,504.97390246255645,495.28964226269665
208976,23078,208976.0,63735.0,208976.0,93277.0,496.9581193147413,504.0671207406385,494.33813460408976
208986,23074,208986.0,63750.0,208986.0,93279.0,494.62773182778,503.0879598841974,493.30794494904376
208986,23073,208986.0,63713.0,208986.0,93275.0,492.21077931015867,502.01758111603715,492.17994863506095
208986,23066,208986.0,63724.0,208986.0,93295.0,489.69526698571053,500.8358892098296,490.93481574033626
208986,23081,208986.0,63748.0,208986.0,93286.0,487.0691462724841,499.5213180610915,489.55317231031364
208986,23079,208986.0,63776.0,208986.0,93304.0,484.32041836515737,498.050982361945,488.01581819862145
208986,23082,208986.0,63828.0,208986.0,93296.0,481.4373387115691,496.40135594542653,486.303945480268
208997,23086,208997.0,63843.0,208997.0,93321.0,478.40862765215786,494.5493257488884,484.3993600760253
208997,23099,208997.0,63920.0,208997.0,93339.0,475.2236795021653,492.4734278629716,482.2848063523725
208997,23081,208997.0,63845.0,208997.0,93331.0,471.8728048390217,490.1550377133969,479.94443372857336
208997,23076,208997.0,63802.0,208997.0,93292.0,468.34738086249615,487.578903889927,477.36412656837626
208997,23048,208997.0,63786.0,208997.0,93301.0,464.6397644299095,484.7325850470871,474.53138216378954
208997,23032,208997.0,63743.0,208997.0,93260.0,460.742974115735,481.6053428474754,471.4348829739806
209006,23028,209006.0,63713.0,209006.0,93271.0,456.6502629679895,478.18713085604526,468.06405696504834
209006,23028,209006.0,63682.0,209006.0,93242.0,452.3547886097208,474.46765141458167,464.4087053462532
209006,23036,209006.0,63756.0,209006.0,93251.0,447.84953470833136,470.4356204695931,460.45871626132543
209006,23018,209006.0,63758.0,209006.0,93255.0,443.12742129835726,466.0787850722701,456.20391940691877
209006,23029,209006.0,63756.0,209006.0,93268.0,438.18142407092,461.3846534384446,451.6341709482233
209006,23030,209006.0,63800.0,209006.0,93265.0,433.00467249911406,456.34127012860586,446.7396548907841
209016,23061,209016.0,63846.0,209016.0,93297.0,427.5906929663362,450.9379598360041,441.5112818306703
209016,23051,209016.0,63848.0,209016.0,93296.0,421.93388008526335,445.1663902555845,435.9411833679736
209016,23019,209016.0,63816.0,209016.0,93262.0,416.02994142035334,439.02161032970616,430.0231972340437
209016,23012,209016.0,63703.0,209016.0,93261.0,409.8759474714576,432.5022364257957,423.7530135133298
209016,22990,209016.0,63676.0,209016.0,93211.0,403.47002348078496,425.609404120242,417.1279032290081
209016,22976,209016.0,63660.0,209016.0,93212.0,396.81098671586835,418.3451028766994,410.1462318041466
209027,22961,209027.0,63633.0,209027.0,93190.0,389.89803047758323,410.7109095048983,402.80695581408486
209027,22971,209027.0,63648.0,209027.0,93197.0,382.73048522954264,402.7073955764606,395.1092933167431
209027,22981,209027.0,63652.0,209027.0,93204.0,375.30781270111265,394.33399424061946,387.0526750525637
209027,22969,209027.0,63680.0,209027.0,93204.0,367.6298754810467,385.5892818986896,378.63696237154033
209027,22959,209027.0,63702.0,209027.0,93197.0,359.697241291171,376.4716383213411,369.8627942873009
209027,22952,209027.0,63706.0,209027.0,93147.0,351.51130135327423,366.98012132062064,360.731776287908
209037,22966,209037.0,63752.0,209037.0,93218.0,343.0743100823578,357.11539209206757,351.24643599962997
209037,22929,209037.0,63700.0,209037.0,93205.0,334.3895079539722,346.88057588779446,341.41040705346865
209037,22925,209037.0,63679.0,209037.0,93174.0,325.461189855993,336.28175645029114,331.22901510501873
209037,22896,209037.0,63561.0,209037.0,93124.0,316.2945548959277,325.32765078471346,320.7095636522892
209037,22862,209037.0,63548.0,209037.0,93046.0,306.89538204580305,314.02839122141063,309.8607669997373
209037,22843,209037.0,63524.0,209037.0,93042.0,297.269563837758,302.3940216136,298.6915709594921
209047,22840,209047.0,63475.0,209047.0,93060.0,287.42260518419994,290.4334176830694,287.21009765046153
209047,22850,209047.0,63526.0,209047.0,93076.0,277.3593765264684,278.15373845892196,275.4234082504625
209047,22856,209047.0,63544.0,209047.0,93065.0,267.0842769599554,265.56045102530055,263.33801463260187
209047,22832,209047.0,63546.0,209047.0,93045.0,256.60162908643923,252.6580558355592,250.96046777621757
209047,22817,209047.0,63545.0,209047.0,93041.0,245.9159452227064,239.45104492548984,238.29761596439033
209047,22823,209047.0,63596.0,209047.0,93052.0,235.03194541959056,225.94469216731875,225.35670051572606
209058,22835,209058.0,63647.0,209058.0,93044.0,223.95462260282397,212.1460416933287,212.14561059252947
209058,22806,209058.0,63506.0,209058.0,93013.0,212.68954693048164,198.06509227493336,198.67324017973687
209058,22787,209058.0,63460.0,209058.0,92968.0,201.24312587903614,183.7150441327252,184.94956246645302
209058,22757,209058.0,63393.0,209058.0,92942.0,189.62252238593868,169.11105537508683,170.985235156599
209058,22726,209058.0,63405.0,209058.0,92951.0,177.83528952692836,154.2685964070447,156.79104399182785
209058,22705,209058.0,63367.0,209058.0,92925.0,165.88888744271185,139.202476428031,142.37763745663273
209068,22722,209068.0,63305.0,209068.0,92888.0,153.79028262170056,123.92640594167494,127.755513866868
209068,22716,209068.0,63354.0,209068.0,92912.0,141.54590452441528,108.45258685222825,112.93494681980678
209068,22705,209068.0,63366.0,209068.0,92898.0,129.16195122668648,92.79159683539979,97.92598829902101
209068,22685,209068.0,63334.0,209068.0,92866.0,116.64468971738495,76.95294399577892,82.73871504138003
209068,22684,209068.0,63359.0,209068.0,92897.0,104.00055636644538,60.9457875535212,67.38347296559812
209068,22698,209068.0,63378.0,209068.0,92887.0,91.23624960740023,44.77950449217303,51.87115170729646
209079,22670,209079.0,63386.0,209079.0,92880.0,78.3590109205216,28.46445195885383,36.21368117009615
209079,22644,209079.0,63311.0,209079.0,92812.0,65.37689152170759,12.012777366945329,20.42440974595945
209079,22612,209079.0,63270.0,209079.0,92773.0,52.29867667525673,-4.561436494291797,4.517884191460553
209079,22583,209079.0,63256.0,209079.0,92752.0,39.133485581223795,-21.24280102257228,-11.490894395158307
209079,22576,209079.0,63140.0,209079.0,92718.0,25.8903015427843,-38.015516513987905,-27.587226961692522
209079,22550,209079.0,63140.0,209079.0,92710.0,12.577636516938924,-54.86441918299056,-43.75719229447441
209089,22550,209089.0,63173.0,209089.0,92706.0,-0.7966236949969243,-71.77597052411306,-59.98785482964172
209089,22558,209089.0,63146.0,209089.0,92669.0,-14.225191869579703,-88.73846096073544,-76.26725755006169
209089,22522,209089.0,63186.0,209089.0,92694.0,-27.701167631440967,-105.74142821968792,-92.58432181317835
209089,22532,209089.0,63178.0,209089.0,92679.0,-41.21781787615964,-122.77485543696412,-108.92864033531976
209089,22536,209089.0,63207.0,209089.0,92720.0,-54.768412310764006,-139.828286961814,-125.28998561292963
209089,22524,209089.0,63235.0,209089.0,92687.0,-68.34592006024116,-156.88980756145202,-141.65756448399497
209099,22499,209099.0,63164.0,209099.0,92662.0,-81.9426505378276,-173.94503311529763,-158.0193733249862
209099,22455,209099.0,63054.0,209099.0,92594.0,-95.55018689266944,-190.97679114521304,-174.36210148481575
209099,22426,209099.0,63032.0,209099.0,92584.0,-109.15974180516207,-207.96607448277678,-190.6716541792548
209099,22421,209099.0,63002.0,209099.0,92525.0,-122.76271126880147,-224.89357651106945,-206.93391279179002
209099,22398,209099.0,62899.0,209099.0,92543.0,-136.35106844175175,-241.7408877903763,-223.135364714483
209099,22401,209099.0,62969.0,209099.0,92554.0,-149.91747642133532,-258.49139919844094,-239.26333807406309
209110,22378,209110.0,62972.0,209110.0,92507.0,-163.45523757740705,-275.1307158710449,-255.30575678501236
209110,22382,209110.0,62966.0,209110.0,92492.0,-176.95818087133978,-291.6461413103241,-271.2508635854514
209110,22357,209110.0,62964.0,209110.0,92485.0,-190.42053190386844,-308.02579068089494,-287.0872757218009
209110,22353,209110.0,62923.0,209110.0,92463.0,-203.8368063709044,-324.2580561846479,-302.80410451238356
209110,22359,209110.0,62980.0,209110.0,92472.0,-217.2017008109865,-340.33135408191526,-318.3908983395189
209110,22342,209110.0,62941.0,209110.0,92438.0,-230.5098755942568,-356.2337368591524,-333.83747823297506
209120,22302,209120.0,62804.0,209120.0,92438.0,-243.75573961119295,-371.95260365417926,-349.1337857875146
209120,22281,209120.0,62830.0,209120.0,92383.0,-256.93354039614655,-387.4753309572204,-364.2698732671066
209120,22259,209120.0,62763.0,209120.0,92349.0,-270.0377497497316,-402.79054674186875,-379.23617383642943
209120,22251,209120.0,62734.0,209120.0,92326.0,-283.06343339290106,-417.88909525306406,-394.02406438354103
209120,22232,209120.0,62736.0,209120.0,92297.0,-296.0064368612925,-432.76464626294205,-408.6264783926765
209120,22217,209120.0,62746.0,209120.0,92315.0,-308.86345458196024,-447.41400574825184,-423.0382858215469
209130,22227,209130.0,62789.0,209130.0,92297.0,-321.6320409562121,-461.83680642366846,-437.25631271566294
209130,22208,209130.0,62741.0,209130.0,92302.0,-334.3104927288168,-476.0346976414986,-451.27906751098624
209130,22200,209130.0,62727.0,209130.0,92295.0,-346.89763308322006,-490.0106822708233,-465.10638055290326
209130,22204,209130.0,62814.0,209130.0,92300.0,-359.3926270413531,-503.76880288721054,-478.7390398607565
209130,22193,209130.0,62799.0,209130.0,92306.0,-371.79478369067294,-517.3134810301283,-492.1783664887528
209130,22180,209130.0,62748.0,209130.0,92263.0,-384.1033108685392,-530.6484446524601,-505.42579220259233
209141,22150,209141.0,62677.0,209141.0,92203.0,-396.31718625327267,-543.7763465579512,-518.4827895396035
209141,22128,209141.0,62631.0,209141.0,92213.0,-408.4352744094091,-556.6995594038967,-531.3513666990849
209141,22098,209141.0,62613.0,209141.0,92176.0,-420.4566513710063,-569.4214591144221,-544.0346981849817
209141,22090,209141.0,62593.0,209141.0,92167.0,-432.3809971617534,-581.9474235550747,-556.5374722225068
209141,22096,209141.0,62622.0,209141.0,92165.0,-444.2088518842446,-594.2852529095637,-568.8660418619835
209141,22088,209141.0,62602.0,209141.0,92168.0,-455.94157146752764,-606.44504598341,-581.0284140221283
209151,22080,209151.0,62605.0,209151.0,92172.0,-467.5810680544794,-618.438797292376,-593.0339852030337
209151,22054,209151.0,62631.0,209151.0,92149.0,-479.12960212085545,-630.2799696047055,-604.8931551579742
209151,22056,209151.0,62647.0,209151.0,92162.0,-490.5897517399154,-641.9829241839093,-616.6170246462038
209151,22059,209151.0,62670.0,209151.0,92180.0,-501.96440309739705,-653.5620565304246,-628.2171061085187
209151,22038,209151.0,62653.0,209151.0,92155.0,-513.2565901615095,-665.0308496631812,-639.7048647800304
209151,22027,209151.0,62586.0,209151.0,92131.0,-524.4693088893283,-676.4013058972196,-651.0913124852389
209161,22003,209161.0,62568.0,209161.0,92096.0,-535.6055062236562,-687.684137149161,-662.3870281384445
209161,21976,209161.0,62511.0,209161.0,92072.0,-546.6682539046462,-698.8895575564286,-673.602574239756
209161,21957,209161.0,62476.0,209161.0,92046.0,-557.6610584316971,-710.0282409333952,-684.7490439151859
209161,21949,209161.0,62444.0,209161.0,92049.0,-568.5882079122201,-721.1122747536756,-695.8385216160525
209161,21959,209161.0,62493.0,209161.0,92045.0,-579.4549492629769,-732.1558775741596,-706.8842830756023
209161,21957,209161.0,62512.0,209161.0,92044.0,-590.2673539654854,-743.1753877406827,-717.9006896089136
209172,21939,209172.0,62487.0,209172.0,92060.0,-601.0319916088501,-754.1885330361231,-728.9028795398392
209172,21935,209172.0,62507.0,209172.0,92024.0,-611.7556842309968,-765.2136688156816,-739.9063898617551
209172,21944,209172.0,62556.0,209172.0,92077.0,-622.4453776787999,-776.2692066771924,-750.9268027643179
209172,21938,209172.0,62582.0,209172.0,92050.0,-633.1079233528048,-787.3727251347893,-761.9793214177835
209172,21918,209172.0,62527.0,209172.0,92040.0,-643.7497721413505,-798.5398021902731,-773.078264400745
209172,21881,209172.0,62446.0,209172.0,91998.0,-654.3768656716663,-809.7835082530478,-784.2368425561322
209182,21868,209182.0,62408.0,209182.0,91966.0,-664.9948825219763,-821.1151316225144,-795.4674343543463
209182,21858,209182.0,62422.0,209182.0,91984.0,-675.6096348065057,-832.5454662548757,-806.7820901808041
209182,21847,209182.0,62347.0,209182.0,91940.0,-686.227317460953,-844.0857082656967,-818.1928583769238
209182,21829,209182.0,62371.0,209182.0,91958.0,-696.8545837302022,-855.7479425933952,-829.7118618115996
209182,21828,209182.0,62385.0,209182.0,91931.0,-707.4985822468682,-867.5454177784204,-841.3512885142234
209182,21828,209182.0,62418.0,209182.0,91936.0,-718.166941320797,-879.4922725296124,-853.1233263341
209192,21821,209192.0,62400.0,209192.0,91951.0,-728.8676111674201,-891.6027075844529,-865.0399845716042
209192,21822,209192.0,62392.0,209192.0,91937.0,-739.6086103778636,-903.8901953658451,-877.112739456122
209192,21841,209192.0,62463.0,209192.0,91957.0,-750.3977128061384,-916.3669293608796,-889.3520516588067
209192,21809,209192.0,62452.0,209192.0,91923.0,-761.2420483126562,-929.0430473443969,-901.7669193983813
209192,21783,209192.0,62382.0,209192.0,91911.0,-772.1478336570899,-941.9256948495554,-914.3646206115545
209192,21767,209192.0,62303.0,209192.0,91861.0,-783.120490326293,-955.0189141174051,-927.1507875860871
209203,21736,209203.0,62254.0,209203.0,91817.0,-794.1650135078578,-968.324758991326,-940.1298725086931
209203,21720,209203.0,62256.0,209203.0,91810.0,-805.2863633511397,-981.8448099381437,-953.3058762461294
209203,21703,209203.0,62214.0,209203.0,91809.0,-816.4898237095168,-995.5811865350731,-966.6829496310693
209203,21729,209203.0,62230.0,209203.0,91814.0,-827.7811986822159,-1009.5369480766797,-980.2655068955187
209203,21707,209203.0,62243.0,209203.0,91787.0,-839.1666767921209,-1023.7160845987801,-994.057964444853
209203,21693,209203.0,62235.0,209203.0,91781.0,-850.6525204642688,-1038.1231164353278,-1008.0644933862602
209213,21698,209213.0,62210.0,209213.0,91785.0,-862.2448861907003,-1052.762547055394,-1022.2889030491049
209213,21704,209213.0,62293.0,209213.0,91823.0,-873.9496901877069,-1067.6383896276866,-1036.7343599047192
209213,21707,209213.0,62300.0,209213.0,91791.0,-885.7722704344786,-1082.7533482697054,-1051.4027393981817
209213,21674,209213.0,62240.0,209213.0,91750.0,-897.7169602595491,-1098.1076113682648,-1066.294019389186
209213,21631,209213.0,62168.0,209213.0,91708.0,-909.786959838065,-1113.6982869698156,-1081.4062959557436
209213,21623,209213.0,62100.0,209213.0,91686.0,-921.984673430317,-1129.5201298538204,-1096.7363669220915
209223,21602,209223.0,62071.0,209223.0,91679.0,-934.3122046510066,-1145.5669917114753,-1112.2803428358334
209223,21595,209223.0,62024.0,209223.0,91635.0,-946.7716535129717,-1161.833168906758,-1128.033988004646
209223,21580,209223.0,62062.0,209223.0,91622.0,-959.3652070788602,-1178.3142351623974,-1143.9929495631966
209223,21582,209223.0,62052.0,209223.0,91627.0,-972.0951207903903,-1195.0071711390644,-1160.1529799373122
209223,21575,209223.0,62071.0,209223.0,91623.0,-984.9635863584301,-1211.9098517608707,-1176.509918094282
209223,21566,209223.0,62063.0,209223.0,91597.0,-997.9725023337498,-1229.0202779217925,-1193.0593872201364
209234,21567,209234.0,62084.0,209234.0,91614.0,-1011.1232241931646,-1246.3358258549833,-1209.796478117222
209234,21562,209234.0,62122.0,209234.0,91626.0,-1024.4163040031037,-1263.8524110340627,-1226.7153921616364
209234,21547,209234.0,62090.0,209234.0,91598.0,-1037.8512074797532,-1281.5634574255841,-1243.8088739947934
209234,21519,209234.0,62034.0,209234.0,91552.0,-1051.426129855687,-1299.4590891253126,-1261.0677559160047
209234,21510,209234.0,61947.0,209234.0,91512.0,-1065.1380239015264,-1317.5262265930799,-1278.4810695518813
209234,21476,209234.0,61939.0,209234.0,91482.0,-1078.9827713555153,-1335.7495918525146,-1296.0366360557591
209244,21473,209244.0,61888.0,209244.0,91468.0,-1092.9553845304838,-1354.1128682220303,-1313.7216919918608
209244,21455,209244.0,61844.0,209244.0,91399.0,-1107.0501593044467,-1372.5995293648161,-1331.5233590373812
209244,21431,209244.0,61887.0,209244.0,91452.0,-1121.2607452517273,-1391.19337662355,-1349.4290206433632
209244,21422,209244.0,61842.0,209244.0,91449.0,-1135.5802120232038,-1409.8786495784132,-1367.4263389367675
209244,21419,209244.0,61876.0,209244.0,91437.0,-1150.0011101571504,-1428.6396597590922,-1385.5026714517114
209244,21424,209244.0,61858.0,209244.0,91431.0,-1164.5153606009558,-1447.460237416555,-1403.6443495031756
209255,21430,209255.0,61877.0,209255.0,91453.0,-1179.1138922390426,-1466.3230991282346,-1421.8361646780495
209255,21419,209255.0,61952.0,209255.0,91443.0,-1193.786126856438,-1485.208970826739,-1440.0608048601466
209255,21390,209255.0,61870.0,209255.0,91382.0,-1208.5195465899176,-1504.0953858779062,-1458.2982807650965
209255,21359,209255.0,61768.0,209255.0,91359.0,-1223.299591108432,-1522.955919764075,-1476.5258373385082
209255,21331,209255.0,61753.0,209255.0,91331.0,-1238.109917309291,-1541.7607889685219,-1494.7183891162863
209255,21331,209255.0,61673.0,209255.0,91300.0,-1252.9327811768667,-1560.4782786254218,-1512.8490188724184
209265,21304,209265.0,61644.0,209265.0,91265.0,-1267.749263055957,-1579.076018380224,-1530.889366319671
209265,21299,209265.0,61655.0,209265.0,91276.0,-1282.5393065551625,-1597.5218929538187,-1548.8099583207447
209265,21286,209265.0,61687.0,209265.0,91287.0,-1297.281691090831,-1615.7843213147444,-1566.580252844011
209265,21286,209265.0,61702.0,209265.0,91269.0,-1311.953938721421,-1633.831638365388,-1584.1682256022264
209265,21272,209265.0,61678.0,209265.0,91251.0,-1326.532119534056,-1651.631017294197,-1601.539832256704
209265,21276,209265.0,61699.0,209265.0,91270.0,-1340.9905988119797,-1669.14757919738,-1618.6586609057947
209275,21290,209275.0,61714.0,209275.0,91245.0,-1355.3017024770568,-1686.343727473331,-1635.4856160927416
209275,21264,209275.0,61784.0,209275.0,91270.0,-1369.4352550973936,-1703.1782325588556,-1651.9784756433914
209275,21228,209275.0,61646.0,209275.0,91213.0,-1383.358228136555,-1719.605090499343,-1668.0914531469364
209275,21210,209275.0,61603.0,209275.0,91169.0,-1397.0348070295804,-1735.5731746280119,-1683.77508315064
209275,21167,209275.0,61554.0,209275.0,91141.0,-1410.4267951819181,-1751.027236343243,-1698.9766612540782
209275,21159,209275.0,61506.0,209275.0,91120.0,-1423.4941010571583,-1765.9093864296844,-1713.6409594016839
209286,21153,209286.0,61502.0,209286.0,91115.0,-1436.1951254248945,-1780.1602208737424,-1727.71073440239
209286,21146,209286.0,61511.0,209286.0,91130.0,-1448.4868861399552,-1793.7194270847158,-1741.1268432505083
209286,21133,209286.0,61511.0,209286.0,91074.0,-1460.324918223759,-1806.5257935093484,-1753.828076378589
209286,21123,209286.0,61507.0,209286.0,91071.0,-1471.6631550345423,-1818.5168067245236,-1765.7510932379757
209286,21125,209286.0,61520.0,209286.0,91076.0,-1482.4538526781528,-1829.6281860719564,-1776.830603848272
209286,21131,209286.0,61568.0,209286.0,91105.0,-1492.6474397529396,-1839.793331556838,-1786.9993531471061
209296,21111,209296.0,61563.0,209296.0,91106.0,-1502.1922474307805,-1848.9424685391305,-1796.1876127687894
209296,21114,209296.0,61493.0,209296.0,91061.0,-1511.0342712367403,-1857.0018293443898,-1804.3225588443431
209296,21064,209296.0,61464.0,209296.0,91007.0,-1519.1171341703673,-1863.8936370009485,-1811.3282018643229
209296,21045,209296.0,61380.0,209296.0,90980.0,-1526.3823621966374,-1869.5370513391783,-1817.1261057104655
209296,21027,209296.0,61356.0,209296.0,90946.0,-1532.7699415469087,-1873.8496124782857,-1821.636477373476
