c_ts,c_val,d_ts,d_val,e_ts,e_val,c_val_filtered,d_val_filtered,e_val_filtered
276755,5095,276755,17708,276755.0,45769.0,249.28659188256796,48.150102022560844,337.9046462454304
276755,5050,276755,17625,276755.0,45716.0,245.66601774052836,47.90815260987319,334.11882816539816
276765,5031,276765,17571,276765.0,45687.0,241.96083129393813,47.782762807907076,330.22590244789666
276765,5015,276765,17551,276765.0,45668.0,238.1812261913131,47.79142521610788,326.23976989114726
276765,5019,276765,17614,276765.0,45717.0,234.33567807395423,47.947414976885085,322.1723049172816
276765,5077,276765,17671,276765.0,45697.0,230.43081643231199,48.25957950524545,318.0333272163141
276765,5083,276765,17705,276765.0,45706.0,226.47195022463228,48.733370171209486,313.8310314100679
276765,5026,276765,17633,276765.0,45694.0,222.46387062401652,49.37213615929782,309.5723441985932
276775,5029,276775,17613,276775.0,45627.0,218.4111131310317,50.17750048861207,305.26293349210613
276775,5015,276775,17670,276775.0,45685.0,214.3175959187609,51.1488221262561,300.90686727833236
276775,5063,276775,17758,276775.0,45745.0,210.186360776919,52.283065628455745,296.50651094237537
276775,5066,276775,17770,276775.0,45772.0,206.0198779348019,53.57590400314111,292.06340560622783
276775,5039,276775,17699,276775.0,45710.0,201.82066371854543,55.02313813674005,287.5796255163673
276775,5006,276775,17651,276775.0,45643.0,197.59156538943023,56.62096976474583,283.0582747135911
276786,4952,276786,17617,276786.0,45592.0,193.33535285604174,58.36492372349896,278.502633171697
276786,4981,276786,17659,276786.0,45630.0,189.05390251492565,60.24848611519663,273.91476584450436
276786,5011,276786,17710,276786.0,45623.0,184.74769155600364,62.26255944756564,269.2947359040446
276786,5011,276786,17758,276786.0,45707.0,180.41606610627935,64.39606280785574,264.6408389963592
276786,5003,276786,17758,276786.0,45645.0,176.05789261534738,66.63715928782274,259.95048614524046
276786,4976,276786,17688,276786.0,45632.0,171.67191859815335,68.97413962101572,255.2209258613881
276796,4955,276796,17683,276796.0,45604.0,167.25665455949215,71.39527838947059,250.4492065102125
276796,4984,276796,17722,276796.0,45662.0,162.81005034067502,73.8880578033833,245.63178983789174
276796,5019,276796,17853,276796.0,45711.0,158.32949210268052,76.43905663974948,240.76476284776692
276796,5009,276796,17843,276796.0,45665.0,153.8123749968523,79.03521506678763,235.8448080088198
276796,4968,276796,17712,276796.0,45611.0,149.25673959955756,81.66531618618545,230.86994636109117
276796,4923,276796,17687,276796.0,45544.0,144.66125376814998,84.31982288497576,225.83913889719776
276806,4924,276806,17661,276806.0,45525.0,140.02452783772668,86.98914523969897,220.75099722727953
276806,4958,276806,17717,276806.0,45571.0,135.3444796018345,89.66208728933115,215.60260126506498
276806,4964,276806,17786,276806.0,45641.0,130.6183744546956,92.32558452559009,210.38935490046762
276806,4967,276806,17793,276806.0,45579.0,125.84339910042067,94.96562318737304,205.10592225069078
276806,4917,276806,17765,276806.0,45565.0,121.01712536877724,97.56840681633895,199.74710932364965
276806,4894,276806,17744,276806.0,45525.0,116.13740483836625,100.12077282267914,194.30780689119098
276817,4904,276817,17749,276817.0,45551.0,111.20182588620185,102.60981902691552,188.7824217403546
276817,4951,276817,17845,276817.0,45624.0,106.2074071331511,105.02260270737793,183.16474559154986
276817,4943,276817,17832,276817.0,45612.0,101.15099281798345,107.34665932242692,177.4487232687044
276817,4922,276817,17801,276817.0,45577.0,96.02994949480725,109.57093455357011,171.62954152837017
276817,4891,276817,17737,276817.0,45476.0,90.8424376332188,111.68597249955415,165.7038831891066
276817,4849,276817,17716,276817.0,45451.0,85.5870538059101,113.68301027549998,159.66893185114924
276827,4866,276827,17764,276827.0,45475.0,80.26216731950464,115.552796913869,153.52093478490968
276827,4880,276827,17812,276827.0,45520.0,74.8654896477851,117.28519324311087,147.25455046457242
276827,4906,276827,17831,276827.0,45548.0,69.39425313377228,118.86983636826693,140.86341192483673
276827,4878,276827,17804,276827.0,45513.0,63.84579868313244,120.297126371814,134.34123423294375
276827,4836,276827,17758,276827.0,45453.0,58.21794113144523,121.55859453207488,127.68242810145671
276827,4837,276827,17766,276827.0,45466.0,52.508746073101236,122.6464388513156,120.88180295019646
276837,4866,276837,17829,276837.0,45496.0,46.716131059539435,123.55295166094436,113.93405170691528
276837,4888,276837,17866,276837.0,45537.0,40.83798131661837,124.27075427924316,106.83395651890578
276837,4858,276837,17865,276837.0,45531.0,34.872765878601,124.79381670660055,99.57733982586569
276837,4844,276837,17769,276837.0,45448.0,28.819996491553383,125.11822239683934,92.16190289474946
276837,4793,276837,17720,276837.0,45378.0,22.68011244327434,125.24170488605968,84.58702507965302
276837,4780,276837,17735,276837.0,45375.0,16.45390466265917,125.16218711517749,76.852515786872
276848,4783,276848,17754,276848.0,45389.0,10.141857513991226,124.87657823910509,68.95738769815017
276848,4802,276848,17813,276848.0,45448.0,3.7438494363549353,124.38065570359218,60.89962670062016
276848,4812,276848,17844,276848.0,45445.0,-2.7406054515144547,123.66988293755072,52.67698081714195
276848,4781,276848,17793,276848.0,45388.0,-9.311868220033318,122.7404888907554,44.287962752903184
276848,4761,276848,17747,276848.0,45347.0,-15.96994034400393,121.58989280858478,35.732098782216724
276848,4762,276848,17784,276848.0,45350.0,-22.714633012570744,120.21620318241747,27.009334973973864
276858,4791,276858,17841,276858.0,45437.0,-29.545723650392688,118.6177765106924,18.11960655866136
276858,4778,276858,17872,276858.0,45415.0,-36.46270705730342,116.79377493695665,9.063426469491105
276858,4779,276858,17848,276858.0,45361.0,-43.46432331316589,114.74533425785208,-0.15705942352445845
276858,4728,276858,17716,276858.0,45295.0,-50.54831578359358,112.47608963659938,-9.537849640338322
276858,4689,276858,17702,276858.0,45255.0,-57.711696520764235,109.99123532904892,-19.074004657154546
276858,4692,276858,17732,276858.0,45273.0,-64.95143008730196,107.2958266157749,-28.760856897937913
276868,4710,276868,17772,276868.0,45294.0,-72.2649915148532,104.39391240623145,-38.59458643805215
276868,4718,276868,17807,276868.0,45332.0,-79.6503188710756,101.28901643301927,-48.571842819370715
276868,4698,276868,17767,276868.0,45269.0,-87.10535479523637,97.98514932094277,-58.68887046622967
276868,4677,276868,17753,276868.0,45223.0,-94.627729549724,94.48738204614826,-68.9410646838416
276868,4666,276868,17684,276868.0,45200.0,-102.21482041094879,90.80159411845008,-79.3234217983823
276868,4668,276868,17739,276868.0,45246.0,-109.8639608227692,86.93373226123578,-89.83123599838206
276879,4694,276879,17830,276879.0,45293.0,-117.57243715320789,82.88954269289246,-100.46001903692235
276879,4681,276879,17806,276879.0,45253.0,-125.33713148372908,78.67548106997428,-111.20452557602135
276879,4637,276879,17750,276879.0,45176.0,-133.15412420089024,74.29996207777168,-122.05793666291049
276879,4599,276879,17634,276879.0,45110.0,-141.0187867100861,69.77338006857909,-133.0122255175305
276879,4579,276879,17628,276879.0,45090.0,-148.9264311811699,65.10662525082718,-144.05948931271638
276879,4605,276879,17671,276879.0,45128.0,-156.87297713857834,60.30937409668255,-155.1931301037717
276889,4609,276889,17733,276889.0,45138.0,-164.85508459176793,55.3896046379868,-166.4080473335431
276889,4612,276889,17731,276889.0,45169.0,-172.86974979062506,50.35450431209269,-177.69991295590432
276889,4569,276889,17643,276889.0,45089.0,-180.91385952989543,45.211539672600054,-189.06427610362874
276889,4553,276889,17617,276889.0,45052.0,-188.98415944246807,39.968435042069586,-200.49633122363463
276889,4538,276889,17649,276889.0,45049.0,-197.07761210040587,34.632250093214026,-211.99150160777526
276889,4576,276889,17744,276889.0,45124.0,-205.1916856447408,29.208984857310128,-223.5459217304815
276899,4578,276899,17705,276899.0,45113.0,-213.32414806203093,23.704458683922255,-235.15592405912565
276899,4560,276899,17688,276899.0,45079.0,-221.47248659354307,18.12551180238819,-246.81695747481535
276899,4496,276899,17603,276899.0,44997.0,-229.63358780357345,12.480250296284893,-258.52313142702246
276899,4482,276899,17546,276899.0,44947.0,-237.8041155153873,6.7771096339962185,-270.26790000040853
276899,4500,276899,17600,276899.0,44968.0,-245.98121232635714,1.0234528985738223,-282.0452850358322
276899,4508,276899,17632,276899.0,44999.0,-254.16276793592522,-4.775140999294209,-293.8505497479582
276910,4513,276910,17663,276910.0,45013.0,-262.3470742669409,-10.6143306919774,-305.67980090918866
276910,4508,276910,17658,276910.0,44998.0,-270.5322863628553,-16.489857107820725,-317.5290256880779
276910,4444,276910,17554,276910.0,44905.0,-278.716136365178,-22.396844234002316,-329.3935022845776
276910,4446,276910,17551,276910.0,44896.0,-286.89615764783514,-28.33018541064476,-341.2681410226719
276910,4460,276910,17608,276910.0,44925.0,-295.0701540750271,-34.285485097922475,-353.14828452709867
276910,4473,276910,17681,276910.0,44977.0,-303.2362709191157,-40.25912955593965,-365.0298237463235
276920,4468,276920,17660,276920.0,44928.0,-311.39255013561,-46.24707171966212,-376.9083486781602
276920,4415,276920,17566,276920.0,44870.0,-319.53651039318856,-52.24363974217023,-388.77837817821694
276920,4395,276920,17501,276920.0,44803.0,-327.66525178552905,-58.241767735813056,-400.6336444338433
276920,4368,276920,17482,276920.0,44764.0,-335.7760387602868,-64.23451330355704,-412.46827442985034
276920,4378,276920,17541,276920.0,44809.0,-343.86688982863825,-70.21647380467735,-424.2779619732445
276920,4398,276920,17572,276920.0,44831.0,-351.93676332449246,-76.18398244903614,-436.06025823420975
276931,4389,276931,17560,276931.0,44803.0,-359.9852623755915,-82.1342402173552,-447.813922253073
276931,4375,276931,17513,276931.0,44774.0,-368.01217887190455,-88.06448261152173,-459.53822193483177
276931,4345,276931,17478,276931.0,44738.0,-376.01730750215046,-93.97199689183535,-471.2328817387397
276931,4334,276931,17510,276931.0,44757.0,-384.00062700770155,-99.85473692792391,-482.89844031675045
276931,4367,276931,17591,276931.0,44812.0,-391.96253296158767,-105.71152186623397,-494.53628552530563
276931,4387,276931,17571,276931.0,44812.0,-399.9036505483742,-111.54120347163453,-506.14790134306736
276941,4352,276941,17548,276941.0,44763.0,-407.8242091235149,-117.34149632560832,-517.7337921156196
276941,4308,276941,17451,276941.0,44692.0,-415.7236443421071,-123.1086770644294,-529.293114163781
276941,4263,276941,17410,276941.0,44630.0,-423.60096009171104,-128.8385250982577,-540.8244356774552
276941,4294,276941,17443,276941.0,44665.0,-431.45552645073997,-134.52778852556202,-552.3270036353157
276941,4295,276941,17474,276941.0,44704.0,-439.2875204016823,-140.17498137145057,-563.8013865278962
276941,4292,276941,17523,276941.0,44725.0,-447.0977219481558,-145.7799597714573,-575.2489161449427
276951,4288,276951,17501,276951.0,44667.0,-454.8870966837279,-151.34280939014045,-586.6705840992921
276951,4259,276951,17401,276951.0,44595.0,-462.6565756073338,-156.86311463653394,-598.0665971676094
276951,4235,276951,17396,276951.0,44587.0,-470.40713334428733,-162.34038881158133,-609.4370143789538
276951,4252,276951,17460,276951.0,44626.0,-478.14006355781487,-167.77508236777624,-620.782617904478
276951,4280,276951,17522,276951.0,44673.0,-485.8570447522136,-173.1686595981095,-632.1048844601646
276951,4266,276951,17500,276951.0,44629.0,-493.5597151313784,-178.52241387518106,-643.4050167256822
276962,4234,276962,17422,276962.0,44537.0,-501.2491490651191,-183.83635098550715,-654.6832024257952
276962,4193,276962,17367,276962.0,44494.0,-508.92583615997285,-189.1093770182804,-665.9391088533572
276962,4184,276962,17343,276962.0,44486.0,-516.5902053992561,-194.34060260122516,-677.1732141522375
276962,4181,276962,17387,276962.0,44501.0,-524.2432187590664,-199.53060391605993,-688.387787437038
276962,4203,276962,17420,276962.0,44551.0,-531.8865870396617,-204.68170757502918,-699.5868883484229
276962,4217,276962,17458,276962.0,44569.0,-539.5224864566865,-209.7972325531984,-710.7754871573459
276972,4164,276972,17393,276972.0,44486.0,-547.153059261181,-214.88042169437415,-721.9583670536182
276972,4149,276972,17363,276972.0,44455.0,-554.7802629404771,-219.93402800706093,-733.1397980680873
276972,4150,276972,17341,276972.0,44450.0,-562.4062075698266,-224.96083492347532,-744.3241524716786
276972,4182,276972,17461,276972.0,44539.0,-570.0333984205472,-229.96422404219078,-755.5163707281931
276972,4178,276972,17451,276972.0,44535.0,-577.6644344915076,-234.94768531327372,-766.7213226655858
276972,4163,276972,17417,276972.0,44476.0,-585.3014381124813,-239.91356907258995,-777.9425757143456
276982,4129,276982,17355,276982.0,44386.0,-592.9457659928908,-244.86250249607167,-789.1819866689317
276982,4094,276982,17292,276982.0,44350.0,-600.5982384262719,-249.79409168438912,-800.4406652884259
276982,4106,276982,17303,276982.0,44371.0,-608.2596741150301,-254.70827997471326,-811.7203949481365
276982,4091,276982,17360,276982.0,44421.0,-615.9312873902823,-259.6063020499444,-823.0242393986841
276982,4109,276982,17415,276982.0,44457.0,-623.6147130452696,-264.49043649285096,-834.3558761858519
276982,4103,276982,17380,276982.0,44413.0,-631.3117619524493,-269.3628016172679,-845.7182819681086
276993,4081,276993,17295,276993.0,44312.0,-639.0241259762078,-274.2244836212544,-857.1130000470188
276993,4050,276993,17279,276993.0,44303.0,-646.7533093755808,-279.0759461245517,-868.5407084416116
276993,4053,276993,17353,276993.0,44366.0,-654.5008858056694,-283.91803906075586,-880.0022648015772
276993,4109,276993,17396,276993.0,44388.0,-662.2686599354312,-288.75209113890986,-891.4987568890622
276993,4097,276993,17358,276993.0,44357.0,-670.0582297269748,-293.5788672857967,-903.0304877718796
276993,4034,276993,17322,276993.0,44275.0,-677.8703014501682,-298.3976862127783,-914.5962212360778
277002,4002,277002,17278,277002.0,44234.0,-685.7046822250716,-303.20659054992643,-926.1935859453434
277002,3987,277002,17214,277002.0,44195.0,-693.561049231625,-308.003316603812,-937.8202741150782
277002,4004,277002,17264,277002.0,44215.0,-701.4396901471531,-312.78644048600586,-949.4751261165171
277002,3996,277002,17284,277002.0,44239.0,-709.341680553131,-317.5559660627205,-961.1584757446752
277002,4023,277002,17351,277002.0,44224.0,-717.2686035322077,-322.31285490734564,-972.8717258270688
277002,3993,277002,17283,277002.0,44215.0,-725.2221109338751,-327.0579313358674,-984.6166965226515
277012,3972,277012,17215,277012.0,44165.0,-733.2036399391833,-331.79132209365724,-996.3953291031111
277012,3952,277012,17220,277012.0,44170.0,-741.2145135545776,-336.51306814241707,-1008.2098443246482
277012,3980,277012,17316,277012.0,44218.0,-749.2562165457381,-341.22395941637205,-1020.0628959444258
277012,3995,277012,17344,277012.0,44239.0,-757.3303388150127,-345.9251577270413,-1031.9570818416778
277012,3979,277012,17282,277012.0,44190.0,-765.4380768957117,-350.61685671249444,-1043.893930040205
277012,3934,277012,17196,277012.0,44104.0,-773.5798115882548,-355.2976605124275,-1055.873393677741
277023,3906,277023,17161,277023.0,44068.0,-781.7552696561241,-359.9655129147663,-1067.8945247268575
277023,3903,277023,17191,277023.0,44074.0,-789.9641258840292,-364.6192400290912,-1079.9567274421743
277023,3917,277023,17247,277023.0,44081.0,-798.2064586236618,-369.2592717226232,-1092.0605027920446
277023,3918,277023,17268,277023.0,44144.0,-806.4827107534497,-373.8870703220285,-1104.2072305727343
277023,3910,277023,17244,277023.0,44108.0,-814.7933300890537,-378.50398903817154,-1116.3982441791907
277023,3868,277023,17191,277023.0,44058.0,-823.1385202850195,-383.1106366948145,-1128.633960938715
277033,3864,277033,17157,277033.0,44022.0,-831.5183693460458,-387.70721620297195,-1140.913843057024
277033,3871,277033,17236,277033.0,44082.0,-839.9331594400276,-392.2942680947096,-1153.2369078690097
277033,3905,277033,17284,277033.0,44117.0,-848.3833642213958,-396.87265749181455,-1165.6016541292897
277033,3883,277033,17282,277033.0,44100.0,-856.8691677119706,-401.4424462961687,-1178.0050441564033
277033,3883,277033,17217,277033.0,43992.0,-865.3898973301335,-406.0017211307885,-1190.4415881500254
277033,3810,277033,17148,277033.0,43952.0,-873.9438648550408,-410.5465690093207,-1202.9036660916854
277043,3802,277043,17111,277043.0,43925.0,-882.5287974833545,-415.072253412264,-1215.3828486044122
277043,3814,277043,17137,277043.0,43974.0,-891.142523091232,-419.5746640210357,-1227.8709744421687
277043,3823,277043,17185,277043.0,43994.0,-899.7832561076672,-424.05098386614503,-1240.360147051214
277043,3837,277043,17205,277043.0,43979.0,-908.4492756231375,-428.4992198633464,-1252.841871050755
277043,3793,277043,17171,277043.0,43938.0,-917.1384227976674,-432.91722823139594,-1265.3062355211725
277043,3774,277043,17115,277043.0,43865.0,-925.8479397472249,-437.30225684146944,-1277.7418789917187
277054,3790,277054,17120,277054.0,43908.0,-934.5747046205486,-441.65138098332443,-1290.1366372870916
277054,3814,277054,17219,277054.0,44005.0,-943.3153226226202,-445.9620170773065,-1302.4778141690135
277054,3808,277054,17255,277054.0,43963.0,-952.0657027461923,-450.2313507885422,-1314.751200921647
277054,3803,277054,17184,277054.0,43906.0,-960.8204441201094,-454.45490224308287,-1326.939723594224
277054,3746,277054,17125,277054.0,43857.0,-969.5725481605502,-458.6258150431192,-1339.0232138986892
277054,3736,277054,17066,277054.0,43789.0,-978.3136712166369,-462.73566859992195,-1350.9793549104684
277064,3719,277064,17074,277064.0,43794.0,-987.0346953248617,-466.7760045114754,-1362.7849421351716
277064,3732,277064,17120,277064.0,43820.0,-995.7261437859373,-470.7393550337742,-1374.4167118721157
277064,3748,277064,17160,277064.0,43908.0,-1004.3781585333121,-474.61914048314225,-1385.8511305003633
277064,3733,277064,17182,277064.0,43829.0,-1012.9801144767661,-478.4086503248536,-1397.0632182961824
277064,3708,277064,17098,277064.0,43755.0,-1021.5202414833233,-482.100016819674,-1408.0256511151933
277064,3692,277064,17071,277064.0,43741.0,-1029.9856024216685,-485.68412450721473,-1418.7091910636477
277074,3699,277074,17144,277074.0,43811.0,-1038.3623203942843,-489.15130400367684,-1429.0836355296965
277074,3718,277074,17220,277074.0,43856.0,-1046.6356326174687,-492.4914160655648,-1439.117715111051
277074,3718,277074,17187,277074.0,43844.0,-1054.7895568840763,-495.6926745978577,-1448.7778038050167
277074,3666,277074,17133,277074.0,43757.0,-1062.8064705993188,-498.7404373409302,-1458.0267558761693
277074,3657,277074,17023,277074.0,43652.0,-1070.6671149096946,-501.617381228882,-1466.8241231798222
277074,3636,277074,17032,277074.0,43602.0,-1078.3510406839691,-504.3050264630773,-1475.1278431818378
277085,3640,277085,17053,277085.0,43684.0,-1085.8370436517484,-506.7853490688534,-1482.8961705672154
277085,3636,277085,17086,277085.0,43696.0,-1093.103322224547,-509.04132899603013,-1490.0883278939818
277085,3656,277085,17120,277085.0,43714.0,-1100.1273647530827,-511.05641005234287,-1496.663716759036
277085,3633,277085,17080,277085.0,43678.0,-1106.8856559700591,-512.8136250464216,-1502.5808787206938
277085,3606,277085,17020,277085.0,43611.0,-1113.3534704794167,-514.2952346210835,-1507.7972029693367
277085,3579,277085,17020,277085.0,43624.0,-1119.5050515396451,-515.4832810244786,-1512.2694933946323
277095,3604,277095,17124,277095.0,43706.0,-1125.314042372822,-516.3602944472148,-1515.954572770442
277095,3623,277095,17147,277095.0,43694.0,-1130.7536385907465,-516.9089139879986,-1518.808931805356
277095,3622,277095,17110,277095.0,43637.0,-1135.7962177192983,-517.1105877383667,-1520.787833248547
277095,3544,277095,17019,277095.0,43583.0,-1140.4129505952706,-516.9448986779526,-1521.8452222815117
277095,3549,277095,16991,277095.0,43525.0,-1144.5740674040408,-516.3903851593482,-1521.9348170047108
277095,3536,277095,16976,277095.0,43522.0,-1148.2496113179711,-515.4261422619159,-1521.0116681464137
277105,3559,277105,17032,277105.0,43573.0,-1151.4099359625134,-514.0329803418482,-1519.03331117703
277105,3576,277105,17081,277105.0,43620.0,-1154.02564209074,-512.1934776605963,-1515.9598808674582
277105,3570,277105,17050,277105.0,43577.0,-1156.0671669140502,-509.89117055533546,-1511.7533819135174
277105,3524,277105,16992,277105.0,43543.0,-1157.504476307648,-507.1099441715658,-1506.3772056784283
277105,3518,277105,16984,277105.0,43504.0,-1158.3072736862928,-503.8344398518769,-1499.7966369875262
277105,3509,277105,17047,277105.0,43592.0,-1158.4455949764854,-500.0509191289518,-1491.9798097965895
277116,3550,277116,17132,277116.0,43676.0,-1157.8902321120381,-495.74729772932545,-1482.897852072174
277116,3562,277116,17089,277116.0,43610.0,-1156.612625794848,-490.91206468870035,-1472.5238869989212
277116,3531,277116,17037,277116.0,43576.0,-1154.5844389310878,-485.53332953988445,-1460.832255437581
277116,3497,277116,16993,277116.0,43517.0,-1151.7774612807416,-479.5991757554402,-1447.7991686639398
277116,3482,277116,16949,277116.0,43522.0,-1148.1641801480948,-473.0990678598358,-1433.4043105639773
277116,3489,277116,17007,277116.0,43557.0,-1143.7186213689195,-466.0253047684188,-1417.6322527048578
277126,3525,277126,17039,277126.0,43620.0,-1138.4168604290735,-458.3736717375805,-1400.4729746165503
277126,3550,277126,17107,277126.0,43662.0,-1132.2369333683037,-450.1429936789516,-1381.9214128709032
277126,3504,277126,17061,277126.0,43632.0,-1125.1584396558746,-441.3341363795792,-1361.9766585392472
277126,3495,277126,17001,277126.0,43604.0,-1117.1625278356287,-431.9495444331138,-1340.6417462472505
277126,3491,277126,17039,277126.0,43649.0,-1108.2324932768583,-421.9938582121801,-1317.9243121032014
277126,3555,277126,17153,277126.0,43763.0,-1098.35437544666,-411.4746222239478,-1293.837167222455
277136,3568,277136,17184,277136.0,43799.0,-1087.5169218128501,-400.40171868577283,-1268.3977585461726
277136,3569,277136,17173,277136.0,43778.0,-1075.7110786995495,-388.78588832682743,-1241.6269880667064
277136,3548,277136,17094,277136.0,43758.0,-1062.9297137136596,-376.6379408910649,-1213.548776146445
277136,3525,277136,17068,277136.0,43768.0,-1049.1679727536518,-363.9694543674341,-1184.1907831151161
277136,3554,277136,17098,277136.0,43802.0,-1034.4240471915268,-350.79428262000596,-1153.5854889920943
277136,3590,277136,17161,277136.0,43887.0,-1018.6997644954236,-337.1295515622134,-1121.7707602236414
277147,3637,277147,17232,277147.0,43949.0,-1002.0005611712215,-322.99541689924774,-1088.7895542927338
277147,3637,277147,17238,277147.0,44007.0,-984.3349917624216,-308.4139431052882,-1054.6889835828026
277147,3667,277147,17208,277147.0,43975.0,-965.7142938285106,-293.4081188982395,-1019.519449458479
277147,3660,277147,17205,277147.0,44022.0,-946.1522838519779,-278.00178156624315,-983.3345128692132
277147,3696,277147,17250,277147.0,44097.0,-925.6654906178787,-262.22018631947026,-946.1912752099926
277147,3758,277147,17358,277147.0,44219.0,-904.2732200335684,-246.09016755849598,-908.1502477473535
277157,3794,277157,17382,277157.0,44289.0,-881.9972088428299,-229.6392436517841,-869.274179572288
277157,3781,277157,17365,277157.0,44242.0,-858.8610285074069,-212.8942876666303,-829.6266151895254
277157,3776,277157,17287,277157.0,44271.0,-834.8899164985926,-195.8810765654771,-789.2714668048984
277157,3806,277157,17283,277157.0,44304.0,-810.1112527944896,-178.62524416556494,-748.273734843193
277157,3847,277157,17353,277157.0,44354.0,-784.5551100698415,-161.15373646194803,-706.7003141896857
277157,3907,277157,17422,277157.0,44478.0,-758.2543120658238,-143.49535591327992,-664.6201069304892
277168,3942,277168,17440,277168.0,44586.0,-731.2439809478092,-125.6800497775337,-622.1031945504093
277168,3954,277168,17431,277168.0,44557.0,-703.560967213744,-107.73793521279339,-579.2193891342567
277168,3975,277168,17433,277168.0,44561.0,-675.2435981409815,-89.69900323292114,-536.0374018507868
277168,4004,277168,17451,277168.0,44622.0,-646.3318022657429,-71.59344792939999,-492.6252841703542
277168,4089,277168,17571,277168.0,44766.0,-616.8672039073596,-53.45185097352723,-449.05099011559616
277168,4118,277168,17604,277168.0,44795.0,-586.8927736032678,-35.30448985937841,-405.38182489168344
277178,4178,277178,17606,277178.0,44858.0,-556.4521241750523,-17.180023893081966,-361.68322493793914
277178,4162,277178,17569,277178.0,44824.0,-525.5889367301395,0.8952915456784467,-318.01807133911984
277178,4178,277178,17515,277178.0,44843.0,-494.34691588521844,18.89716723326336,-274.4470323143631
277178,4209,277178,17533,277178.0,44881.0,-462.77025458013486,36.8019515694555,-231.0295725174227
277178,4270,277178,17628,277178.0,44990.0,-430.90409303460007,54.58545834727943,-187.82473470876323
277178,4331,277178,17669,277178.0,45073.0,-398.79445840803794,72.22296953495479,-144.89093094362704
277188,4388,277188,17680,277188.0,45108.0,-366.48767155532977,89.69022767437804,-102.28491135298759
277188,4387,277188,17671,277188.0,45133.0,-334.0296382998785,106.96426314801016,-60.0608354935174
277188,4400,277188,17645,277188.0,45142.0,-301.4655762022028,124.02338521870115,-18.270096070851196
277188,4454,277188,17705,277188.0,45214.0,-268.8402866412788,140.84662090697333,23.03830504310622
277188,4545,277188,17844,277188.0,45345.0,-236.1983312454123,157.41358796268588,63.817651798066436
277188,4587,277188,17816,277188.0,45355.0,-203.5835162458426,173.70554328974902,104.02427247367655
277199,4577,277199,17780,277199.0,45371.0,-171.03806984139703,189.7066927549772,143.6185419373934
277199,4591,277199,17728,277199.0,45352.0,-138.6024036177081,205.40419864625807,182.5650160183277
277199,4622,277199,17709,277199.0,45342.0,-106.31559628854166,220.7868448191648,220.83153333996745
277199,4659,277199,17754,277199.0,45429.0,-74.21595287700654,235.84351145862024,258.3879859806382
277199,4727,277199,17848,277199.0,45507.0,-42.34115236888704,250.5625324081551,295.20571724034846
277199,4768,277199,17848,277199.0,45569.0,-10.727934022006025,264.9322814925064,331.25801700327963
277209,4783,277209,17859,277209.0,45587.0,20.588411759058772,278.94221110173856,366.5211166049777
277209,4794,277209,17838,277209.0,45532.0,51.574277645957864,292.5833113098113,400.9746337566246
277209,4806,277209,17826,277209.0,45562.0,82.19748129071877,305.84781177774505,434.60094213134573
277209,4891,277209,17925,277209.0,45690.0,112.42686003757251,318.72870349530456,467.38417863164864
277209,4957,277209,17984,277209.0,45760.0,142.23235696214942,331.21996295720646,499.3103055226236
277209,4969,277209,17955,277209.0,45750.0,171.58574293315314,343.3176429189342,530.3682987785464
277219,4976,277219,17892,277219.0,45734.0,200.46126736647443,355.0206258080443,560.550965542983
277219,4968,277219,17862,277219.0,45713.0,228.83559099467777,366.3300138909078,589.8544884799521
277219,4989,277219,17855,277219.0,45722.0,256.68713505573135,377.2476399077366,618.2771809266601
277219,5041,277219,17904,277219.0,45806.0,283.9954122849326,387.7748375113541,645.818394019014
277219,5102,277219,18006,277219.0,45867.0,310.740864563247,397.91226273984,672.4783246376123
277219,5111,277219,17984,277219.0,45886.0,336.9052665799293,407.66083933810603,698.2587242035504
277230,5146,277230,17947,277230.0,45835.0,362.472198309638,417.0228261602947,723.1635430049114
277230,5150,277230,17923,277230.0,45850.0,387.4271882214207,426.00183893092117,747.1986256336395
277230,5186,277230,17969,277230.0,45914.0,411.7576026303899,434.60205294768537,770.3708318000381
277230,5258,277230,18049,277230.0,46054.0,435.4526155779273,442.8278392958995,792.6878856197816
277230,5271,277230,18070,277230.0,46029.0,458.5035611861632,450.68449417416355,814.1595218195573
277230,5270,277230,18002,277230.0,45978.0,480.90443408636406,458.1793285990882,834.7987244941951
277240,5258,277240,17924,277240.0,45947.0,502.65191489745075,465.32173004103527,854.6215342363103
277240,5241,277240,17925,277240.0,45927.0,523.7447428671321,472.12182541712116,873.6455689327772
277240,5284,277240,17974,277240.0,45998.0,544.1828243486175,478.5889310509258,891.8885427890339
277240,5325,277240,18015,277240.0,46023.0,563.9666660701089,484.73108446774745,909.3676977535242
277240,5372,277240,18047,277240.0,46068.0,583.0974914090109,490.55570630178295,926.1001629721809
277240,5378,277240,18008,277240.0,46046.0,601.5777947886879,496.07050768746956,942.1035657968673
277250,5344,277250,17990,277250.0,46036.0,619.4116825209057,501.2837989972156,957.3962037049012
277250,5379,277250,17976,277250.0,46042.0,636.6045972948798,506.2040357523674,971.9966247831287
277250,5418,277250,18062,277250.0,46133.0,653.1628248581108,510.8392712929699,985.9231767613676
277250,5464,277250,18086,277250.0,46176.0,669.0934991158147,515.1973780403937,999.1943253927689
277250,5460,277250,18091,277250.0,46163.0,684.4051094968518,519.2870269713942,1011.8296788517987
277250,5451,277250,18008,277250.0,46092.0,699.1078708606824,523.1184091351558,1023.850600455421
277261,5422,277261,17923,277261.0,46098.0,713.2134902167522,526.7027194498479,1035.279631965072
277261,5433,277261,17974,277261.0,46092.0,726.7344209999217,530.0505603072569,1046.1392812860258
277261,5475,277261,18053,277261.0,46144.0,739.6831387965583,533.170735882444,1056.451201899485
277261,5509,277261,18050,277261.0,46167.0,752.0719845335605,536.0705721234722,1066.2361619856847
277261,5508,277261,18086,277261.0,46145.0,763.9135504483017,538.7570963338958,1075.5144686304955
277261,5505,277261,18022,277261.0,46152.0,775.2210316820463,541.2378436574567,1084.306196831737
277271,5483,277271,17964,277271.0,46110.0,786.0081140620739,543.5207397784625,1092.6309069500278
277271,5524,277271,18016,277271.0,46148.0,796.2885291915475,545.6131972086554,1100.5070725704431
277271,5557,277271,18088,277271.0,46231.0,806.075802577737,547.5214914113637,1107.9518110997328
277271,5570,277271,18101,277271.0,46229.0,815.3835201779555,549.2513676747799,1114.9814548144166
277271,5561,277271,18075,277271.0,46208.0,824.2257790135181,550.8092430794685,1121.612504443094
277271,5536,277271,17999,277271.0,46149.0,832.6172628659995,552.2026656879386,1127.8618598006424
277281,5524,277281,17964,277281.0,46124.0,840.5727847527714,553.4395470768554,1133.745997076249
277281,5558,277281,17983,277281.0,46149.0,848.1066296283495,554.5267993765225,1139.2797479251624
277281,5582,277281,18038,277281.0,46199.0,855.2322472932851,555.4695017634107,1144.47561278102
277281,5587,277281,18087,277281.0,46247.0,861.9624711186518,556.2712377103705,1149.3440895650735
277281,5593,277281,18037,277281.0,46200.0,868.3098756231207,556.9351454685947,1153.8945822890164
277281,5550,277281,17970,277281.0,46192.0,874.2868373884332,557.4644654035238,1158.1359097283437
277292,5583,277292,17980,277292.0,46178.0,879.9052037943538,557.8619324425681,1162.076009115971
277292,5625,277292,18073,277292.0,46274.0,885.1759820164341,558.1289444439649,1165.721524661786
277292,5650,277292,18115,277292.0,46319.0,890.1096064533488,558.2659007441237,1169.0782439337088
277292,5637,277292,18100,277292.0,46262.0,894.7166284010491,558.2736136956394,1172.1522908147167
277292,5612,277292,18021,277292.0,46172.0,899.0081051657551,558.1543421657792,1174.9506946668243
277292,5584,277292,17978,277292.0,46142.0,902.9953159095135,557.9114472436754,1177.4803944753398
277302,5592,277302,17951,277302.0,46179.0,906.6890487459973,557.5480343559661,1179.746543910218
277302,5603,277302,18017,277302.0,46227.0,910.0989848987385,557.0657210496597,1181.751645006348
277302,5635,277302,18025,277302.0,46273.0,913.2335478993768,556.46440055474,1183.4960081436607
277302,5669,277302,18097,277302.0,46312.0,916.1002579918561,555.7430010785104,1184.9789877944406
277302,5628,277302,17973,277302.0,46201.0,918.7063121958736,554.9004515792187,1186.2000671543603
277302,5613,277302,17960,277302.0,46209.0,921.0588190951489,553.9357855232331,1187.1588992103964
277312,5624,277312,17995,277312.0,46221.0,923.1644533668807,552.8472652845018,1187.854445923481
277312,5669,277312,18085,277312.0,46325.0,925.029110633323,551.631901326853,1188.284561316521
277312,5655,277312,18106,277312.0,46309.0,926.6581007327532,550.2863659430888,1188.4467935892396
277312,5650,277312,18073,277312.0,46269.0,928.0565655443536,548.8085245312852,1188.339566481763
277312,5640,277312,17980,277312.0,46207.0,929.2295788384465,547.1981173067711,1187.9624265665536
277312,5596,277312,17928,277312.0,46166.0,930.1818450146457,545.4559398758137,1187.3150873654329
277323,5625,277323,17992,277323.0,46226.0,930.9171706094862,543.5822896766404,1186.396152658913
277323,5655,277323,18020,277323.0,46260.0,931.4381010306415,541.5761859464471,1185.2026421755636
277323,5692,277323,18078,277323.0,46297.0,931.7461878545005,539.4359824709809,1183.73067386436
277323,5644,277323,18014,277323.0,46232.0,931.8426822086778,537.1605656811431,1181.9765176411568
277323,5617,277323,17924,277323.0,46196.0,931.7288305330394,534.7498247474027,1179.9369218488337
277323,5627,277323,17921,277323.0,46182.0,931.4054488836659,532.2037805185269,1177.6084616097078
277333,5665,277333,18045,277333.0,46279.0,930.8724415468794,529.5214377905609,1174.9868319966035
277333,5686,277333,18067,277333.0,46334.0,930.1289661719236,526.7010628585465,1172.0672598949761
277333,5688,277333,18056,277333.0,46287.0,929.1741118603954,523.741766980405,1168.8459638609534
277333,5651,277333,17970,277333.0,46209.0,928.0074466931594,520.6446412328237,1165.321168615159
277333,5631,277333,17925,277333.0,46174.0,926.6289793841361,517.4124025862168,1161.4926118357184
277333,5611,277333,17872,277333.0,46157.0,925.0386038834722,514.0479761468475,1157.360158523566
277343,5623,277343,17948,277343.0,46197.0,923.235468108029,510.5531022535659,1152.9227513605238
277343,5674,277343,17989,277343.0,46255.0,921.2177464324232,506.9280044930997,1148.1783730000093
277343,5668,277343,18011,277343.0,46241.0,918.9830426284825,503.1723250006424,1143.1249434260503
277343,5641,277343,17936,277343.0,46148.0,916.5290286853623,499.2863171953999,1137.7612012923346
277343,5627,277343,17920,277343.0,46147.0,913.8536355675765,495.271124219055,1132.0865291122434
277343,5655,277343,17910,277343.0,46189.0,910.9548040797544,491.1281491355492,1126.1001149435344
277354,5661,277354,18037,277354.0,46286.0,907.830411116606,486.8586481152833,1119.8009157634945
277354,5679,277354,18009,277354.0,46249.0,904.4786223067621,482.46447746842347,1113.18891229916
277354,5670,277354,17938,277354.0,46209.0,900.8983938677475,477.94933474695785,1106.2664856264942
277354,5607,277354,17877,277354.0,46130.0,897.089706841975,473.31891534668955,1099.0386061822492
277354,5599,277354,17838,277354.0,46089.0,893.0532079289944,468.5796991443732,1091.5117845165285
277354,5600,277354,17863,277354.0,46108.0,888.7894714343947,463.7375083737884,1083.6926922861958
277364,5618,277364,17916,277364.0,46154.0,884.2985521735401,458.79690506929376,1075.5874732478806
277364,5661,277364,17929,277364.0,46179.0,879.5801794207662,453.761713239988,1067.2021973563049
277364,5638,277364,17898,277364.0,46143.0,874.6344178619233,448.63603422258814,1058.5439214810094
277364,5608,277364,17854,277364.0,46063.0,869.4622471259764,443.42475333925506,1049.621261705109
277364,5588,277364,17824,277364.0,46039.0,864.0655478884286,438.13317142876355,1040.4438759291888
277364,5612,277364,17857,277364.0,46070.0,858.4466968865485,432.7662852375336,1031.0214494555876
277374,5641,277374,17956,277374.0,46150.0,852.6084669471145,427.3286899114638,1021.3634339058286
277374,5617,277374,17924,277374.0,46112.0,846.5544687256588,421.8256053063117,1011.479984377319
277374,5593,277374,17846,277374.0,46058.0,840.289607898447,416.2640909998633,1001.383070524645
277374,5564,277374,17777,277374.0,45976.0,833.8200254498618,410.6529806081331,991.0864842625404
277374,5537,277374,17741,277374.0,45964.0,827.1525897041533,405.001472442807,980.6047194184638
277374,5567,277374,17779,277374.0,45982.0,820.2943588184075,399.31761070513085,969.9517772564668
277385,5573,277385,17814,277385.0,46040.0,813.2524465963673,393.60774164755844,959.1408930846658
277385,5567,277385,17856,277385.0,46009.0,806.0343743693907,387.8771447974582,948.1852867063316
277385,5528,277385,17790,277385.0,45968.0,798.6484392100638,382.1311327542294,937.0990478685994
277385,5506,277385,17731,277385.0,45920.0,791.1036307542331,376.3755022861733,925.8972354814682
277385,5502,277385,17760,277385.0,45951.0,783.4091813603524,370.61596013842933,914.5953237138275
277385,5557,277385,17843,277385.0,45974.0,775.5743017939618,364.85759593568935,903.2089294388117
277395,5544,277395,17834,277395.0,46019.0,767.6085514053657,359.10551301587606,891.7544053822664
277395,5519,277395,17779,277395.0,45911.0,759.5225348939279,353.3660038370091,880.2498330071309
277395,5460,277395,17689,277395.0,45856.0,751.3281259758522,347.6467803267001,868.715248935049
277395,5444,277395,17656,277395.0,45773.0,743.037930243059,341.95584208314455,857.1715498213456
277395,5449,277395,17698,277395.0,45815.0,734.6644947873472,336.299973810181,845.6388744147298
277395,5453,277395,17749,277395.0,45839.0,726.2199117799038,330.6841831106803,834.1357411318302
277406,5481,277406,17756,277406.0,45874.0,717.7159997636659,325.11242245649646,822.6794605997954
277406,5443,277406,17738,277406.0,45844.0,709.164793111835,319.58873508644535,811.2872417575275
277406,5408,277406,17672,277406.0,45752.0,700.578831312668,314.117790572633,799.976885994861
277406,5393,277406,17642,277406.0,45730.0,691.97090568059,308.7044618376953,788.7663827253134
277406,5407,277406,17731,277406.0,45785.0,683.3535787896103,303.35305868368465,777.6729684117669
277406,5449,277406,17768,277406.0,45811.0,674.7391298789644,298.06741571862347,766.7129638845051
277416,5394,277416,17726,277416.0,45787.0,666.1400512948635,292.8520369093257,755.9026484295529
277416,5368,277416,17653,277416.0,45716.0,657.5694338117958,287.71294073563473,745.2590429015116
277416,5320,277416,17586,277416.0,45640.0,649.0406495013488,282.657125128125,734.7996117296257
277416,5316,277416,17551,277416.0,45628.0,640.5665685031311,277.69102233987115,724.5410148107508
277416,5336,277416,17607,277416.0,45658.0,632.1589507914277,272.81905658655614,714.4979145239624
277416,5342,277416,17666,277416.0,45688.0,623.8284172713126,268.04331612079807,704.6827581309499
277426,5354,277426,17680,277426.0,45675.0,615.584920899424,263.36453185352445,695.1064844975369
277426,5320,277426,17641,277426.0,45625.0,607.4382844052454,258.78341939227465,685.7792703629749
277426,5290,277426,17564,277426.0,45576.0,599.3983793040919,254.30117427549754,676.7105346401835
277426,5287,277426,17564,277426.0,45580.0,591.4748507666139,249.91881074408974,667.9082530330691
277426,5312,277426,17655,277426.0,45661.0,583.6768028886324,245.6363234934343,659.3784751291217
277426,5310,277426,17682,277426.0,45665.0,576.0129196241344,241.4529736270813,651.1258774818157
277437,5300,277437,17663,277437.0,45604.0,568.4919138281475,237.3686117872028,643.1549194045962
277437,5239,277437,17545,277437.0,45553.0,561.1227577208724,233.38454092288393,635.4702798269677
277437,5204,277437,17472,277437.0,45485.0,553.9142897462316,229.50277327002306,628.076075205584
277437,5200,277437,17526,277437.0,45506.0,546.874351341793,225.7242016033547,620.9745504570606
277437,5232,277437,17581,277437.0,45548.0,540.0091292643966,222.0474493932152,614.1652667930565
277437,5238,277437,17595,277437.0,45594.0,533.32321522475,218.46934897259445,607.6454218400283
277447,5236,277447,17592,277447.0,45571.0,526.820174187843,214.9861816051293,601.4109944484954
277447,5197,277447,17527,277447.0,45503.0,520.5030059750519,211.59441876834418,595.4576295580894
277447,5192,277447,17525,277447.0,45502.0,514.3741357779329,208.2905499001604,589.7805225574696
277447,5212,277447,17561,277447.0,45550.0,508.435158117294,205.07052086381265,584.3738395623504
277447,5233,277447,17623,277447.0,45592.0,502.68687652514245,201.9297586777784,579.2308232386583
277447,5218,277447,17608,277447.0,45566.0,497.1297765084592,198.8640942907392,574.3447503005825
277457,5184,277457,17524,277457.0,45477.0,491.76444607178416,195.87067084336883,569.7096622516362
277457,5143,277457,17464,277457.0,45423.0,486.591443920756,192.947692120022,565.3198739110078
277457,5139,277457,17455,277457.0,45438.0,481.61065985051584,190.0930578308312,561.1685695518188
277457,5171,277457,17517,277457.0,45474.0,476.8207299001323,187.30313038086055,557.2467698840333
277457,5153,277457,17553,277457.0,45508.0,472.21898995048093,184.57269565734373,553.5434512680707
277457,5195,277457,17593,277457.0,45496.0,467.8018625772065,181.89604307513167,550.0464329423793
277468,5161,277468,17502,277468.0,45463.0,463.56532916108773,179.2681734159215,546.7431280111407
277468,5131,277468,17431,277468.0,45429.0,459.50518583145293,176.68496694856327,543.6205838407544
277468,5125,277468,17454,277468.0,45427.0,455.61683647603104,174.14209140464524,540.6649417877593
277468,5166,277468,17536,277468.0,45533.0,451.89492448772023,171.6339795323716,537.8610937867621
277468,5162,277468,17591,277468.0,45528.0,448.3334186080326,169.1542666684241,535.193321448024
277468,5167,277468,17512,277468.0,45500.0,444.92612065918627,166.69725542713442,532.6465538753165
277478,5122,277478,17466,277478.0,45387.0,441.66702264299084,164.25870170638615,530.2068544068555
277478,5080,277478,17419,277478.0,45396.0,438.55010056511037,161.8351390073376,527.8605033386582
277478,5088,277478,17416,277478.0,45427.0,435.56860386903156,159.4225446253643,525.5926666857215
277478,5118,277478,17479,277478.0,45460.0,432.7144397015623,157.0154790948743,523.3869911365489
277478,5151,277478,17529,277478.0,45509.0,429.97826744325675,154.60732637894648,521.2263280567022
277478,5134,277478,17490,277478.0,45460.0,427.350190435917,152.1914042724429,519.0938362633044
277488,5109,277488,17431,277488.0,45389.0,424.8203389249781,149.7617795605444,516.9735008234672
277488,5086,277488,17399,277488.0,45396.0,422.37885074314494,147.31292401313516,514.8495746281624
277488,5116,277488,17457,277488.0,45454.0,420.01547670893535,144.8387820958001,512.7057264402602
277488,5156,277488,17521,277488.0,45521.0,417.7194910290685,142.3325659972643,510.5251911090182
277488,5135,277488,17554,277488.0,45508.0,415.4802004739403,139.78780838163092,508.2920378262942
277488,5107,277488,17456,277488.0,45416.0,413.2874981694243,137.1997563292189,505.99231236748017
277499,5074,277499,17373,277499.0,45347.0,411.1317965427488,134.565590897638,503.61379304540293
277499,5063,277499,17360,277499.0,45356.0,409.0034045081818,131.88308187740364,501.14450451388495
277499,5084,277499,17391,277499.0,45426.0,406.8919057302647,129.1489588578969,498.57146714224797
277499,5127,277499,17490,277499.0,45463.0,404.786052307932,126.35848409915221,495.8808500434726
277499,5132,277499,17487,277499.0,45449.0,402.67431587651845,123.50650254446279,493.05917604750664
277499,5110,277499,17428,277499.0,45390.0,400.5456472195954,120.58887833282057,490.0942778046168
277509,5068,277509,17374,277509.0,45371.0,398.38975871493477,117.60289124253086,486.9752121460012
277509,5079,277509,17344,277509.0,45360.0,396.19676199916944,114.54635641881328,483.6914933140794
277509,5126,277509,17477,277509.0,45453.0,393.95677032352387,111.41667158981971,480.232624899384
277509,5133,277509,17471,277509.0,45473.0,391.6601398191265,108.21112345252902,476.5886613859519
277509,5114,277509,17406,277509.0,45460.0,389.2981617824041,104.92813558499728,472.7515264338713
277509,5071,277509,17350,277509.0,45336.0,386.8634109648462,101.56773982702407,468.71581731173075
277519,5053,277519,17278,277519.0,45290.0,384.34938587552153,98.13057906474705,464.4780939920104
277519,5047,277519,17328,277519.0,45310.0,381.7497954893034,94.61638043106535,460.03517723286234
277519,5097,277519,17373,277519.0,45381.0,379.0581158820484,91.02316778637874,455.38307272177553
277519,5086,277519,17410,277519.0,45404.0,376.26777924507996,87.34779025514774,450.5174259945952
277519,5090,277519,17401,277519.0,45363.0,373.3727303805803,83.5871901169022,445.43477769256003
277519,5064,277519,17328,277519.0,45278.0,370.36778424313457,79.73928090511936,440.1331824463764
277530,5027,277530,17277,277530.0,45267.0,367.24852365848824,75.80272143014622,434.6115661625356
277530,5061,277530,17367,277530.0,45340.0,364.01088916530824,71.77599053650948,428.86871018871625
277530,5106,277530,17428,277530.0,45397.0,360.65102371760236,67.65720352829328,422.9033032836131
277530,5100,277530,17424,277530.0,45377.0,357.1658196186254,63.44532599322656,416.71524558456633
277530,5046,277530,17349,277530.0,45284.0,353.5536456853034,59.141554653668265,410.3068244260536
277530,5009,277530,17270,277530.0,45221.0,349.81433799283036,54.74937985601002,403.6824728917585
277540,4998,277540,17244,277540.0,45187.0,345.9484117530271,50.273279064574695,396.8472951845285
277540,5018,277540,17275,277540.0,45262.0,341.9562653738718,45.71720287234467,389.8056720754707
277540,5036,277540,17345,277540.0,45292.0,337.83799190055606,41.084071675937196,382.5611119399526
277540,5047,277540,17362,277540.0,45268.0,333.59378568434806,36.376596567570914,375.1172541481894
277540,5013,277540,17241,277540.0,45264.0,329.224484887325,31.598436767413318,367.4788772381296
277540,4991,277540,17213,277540.0,45144.0,324.7317398329645,26.754218208571274,359.65204154145795
277550,4964,277550,17221,277550.0,45166.0,320.1176655117928,21.848354467007482,351.6433013444845
277550,5016,277550,17322,277550.0,45245.0,315.3843849569052,16.884254463867308,343.4588323057318
277550,5023,277550,17327,277550.0,45256.0,310.5340705375179,11.865001513570235,335.1047144595919
277550,5005,277550,17303,277550.0,45180.0,305.56951750230985,6.794807440822751,326.5881014462018
277550,4957,277550,17156,277550.0,45121.0,300.494541395002,1.6796449397156152,317.91764869164194
277550,4918,277550,17128,277550.0,45053.0,295.3136467724421,-3.4738141892789827,309.1025749726689
277561,4919,277561,17181,277561.0,45105.0,290.0311957836308,-8.660054554329747,300.1512637173697
277561,4938,277561,17242,277561.0,45138.0,284.6507564398099,-13.87550886699728,291.07065441162246
277561,4970,277561,17272,277561.0,45162.0,279.1751242266595,-19.117648517612793,281.86688525143234
277561,4958,277561,17248,277561.0,45126.0,273.60692385051897,-24.3834396546153,272.5464683884241
277561,4919,277561,17169,277561.0,45068.0,267.949187952901,-29.668494449341893,263.1169189141522
277561,4887,277561,17118,277561.0,45012.0,262.2053420127286,-34.96750048635704,253.58637393109234
277571,4911,277571,17180,277571.0,45073.0,256.3787046164098,-40.275361778967806,243.96269727787222
277571,4961,277571,17279,277571.0,45131.0,250.4722740219781,-45.5875641431723,234.25325352300263
277571,4943,277571,17254,277571.0,45115.0,244.4892724342285,-50.89900417812885,224.46590344447566
277571,4898,277571,17169,277571.0,45016.0,238.43387112757685,-56.202522549947446,214.61015019866664
277571,4833,277571,17081,277571.0,44920.0,232.31115730025823,-61.4889064386594,204.69693633829888
277571,4835,277571,17032,277571.0,44894.0,226.1262514567344,-66.74849494600016,194.7369962580632
277581,4848,277581,17095,277581.0,44958.0,219.88339274202445,-71.97301566702464,184.73917425873884
277581,4880,277581,17161,277581.0,44999.0,213.5857509637068,-77.15618147792242,174.71013259331346
277581,4882,277581,17154,277581.0,45005.0,207.2359692127785,-82.29274222045268,164.6554694477946
277581,4839,277581,17088,277581.0,44926.0,200.83682985892995,-87.37722596251075,154.5809737103857
277581,4805,277581,17038,277581.0,44864.0,194.39138814198344,-92.40376233455572,144.4927980552094
277581,4802,277581,17043,277581.0,44865.0,187.9024923170503,-97.36696788643962,134.3965359812206
277592,4838,277592,17113,277592.0,44951.0,181.37231963194733,-102.26268751466944,124.29642898354746
277592,4874,277592,17219,277592.0,44994.0,174.8025877773665,-107.08746087382798,114.19590576541441
277592,4833,277592,17134,277592.0,44892.0,168.19535471455725,-111.83681914927706,104.0990566959972
277592,4799,277592,17013,277592.0,44829.0,161.55358923376224,-116.50412843278787,94.01130703864078
277592,4753,277592,16965,277592.0,44777.0,154.88091922034238,-121.0814753826333,83.93849146421019
277592,4748,277592,16974,277592.0,44797.0,148.1808287107321,-125.56175958069224,73.88537594026934
277602,4776,277602,17013,277602.0,44827.0,141.45600990404893,-129.940058149943,63.85493818797272
277602,4791,277602,17069,277602.0,44857.0,134.70837190337494,-134.21350597671136,53.84877082732089
277602,4783,277602,17049,277602.0,44822.0,127.93960693581806,-138.3802219106389,43.86807891854153
277602,4729,277602,16968,277602.0,44758.0,121.15167044055852,-142.43841230412687,33.914318664369716
277602,4705,277602,16953,277602.0,44732.0,114.34663260772595,-146.38656263466356,23.988908560234677
277602,4722,277602,16980,277602.0,44786.0,107.52608546202833,-150.2243347864736,14.092531014924816
277612,4758,277612,17071,277612.0,44831.0,100.69086634401316,-153.95284450177843,4.225157677886386
277612,4758,277612,17098,277612.0,44815.0,93.84151057519733,-157.57363297411848,-5.612902044358066
277612,4719,277612,17005,277612.0,44754.0,86.97895770018948,-161.08715216547955,-15.419922939926892
277612,4668,277612,16919,277612.0,44644.0,80.10471798318406,-164.49238480963157,-25.192801858322355
277612,4649,277612,16864,277612.0,44634.0,73.22028056357135,-167.78819406335896,-34.92834916203833
277612,4678,277612,16942,277612.0,44685.0,66.32634403202536,-170.97517240639894,-44.624730927485416
277623,4714,277623,17011,277623.0,44736.0,59.42266268082699,-174.05624536614727,-54.28169193112694
277623,4704,277623,17005,277623.0,44722.0,52.508674349765215,-177.03562327514197,-63.89946031800696
277623,4686,277623,16961,277623.0,44626.0,45.584278467815295,-179.91741032098133,-73.47764938907562
277623,4637,277623,16921,277623.0,44613.0,38.65008230597596,-182.70523070484137,-83.0153221737072
277623,4624,277623,16915,277623.0,44602.0,31.70701425318714,-185.4028434511922,-92.5119031042342
277623,4671,277623,16992,277623.0,44702.0,24.755816096665512,-188.01472782009517,-101.96763759366286
277633,4672,277633,17042,277633.0,44710.0,17.79709829433591,-190.54568602778858,-111.38281028643348
277633,4669,277633,17009,277633.0,44623.0,10.831972378168132,-192.99954408653758,-120.75636957504616
277633,4606,277633,16914,277633.0,44566.0,3.8625298993300703,-195.3782397295168,-130.08547617611157
277633,4579,277633,16847,277633.0,44493.0,-3.1083906729257365,-197.68241642089458,-139.3665161390196
277633,4561,277633,16842,277633.0,44544.0,-10.077981197408974,-199.91314697112387,-148.5965847274125
277633,4592,277633,16918,277633.0,44582.0,-17.04412560641299,-202.07332357259628,-157.77413800451382
277644,4596,277644,16993,277644.0,44582.0,-24.00544030703105,-204.16754247541348,-166.8983912786506
277644,4592,277644,16946,277644.0,44544.0,-30.960808659504153,-206.20070379638304,-175.9682901424536
277644,4569,277644,16901,277644.0,44481.0,-37.90893170259994,-208.17682792426587,-184.9821570693448
277644,4524,277644,16834,277644.0,44465.0,-44.848293841208715,-210.09922772787831,-193.93824228838173
277644,4541,277644,16884,277644.0,44496.0,-51.777531398760345,-211.97158919690713,-202.83548890317832
277644,4569,277644,16985,277644.0,44567.0,-58.69571434355515,-213.7985013018357,-211.67354699552482
277654,4567,277654,16974,277654.0,44544.0,-65.60206363683773,-215.58455463525792,-220.45175545605127
277654,4534,277654,16927,277654.0,44485.0,-72.49538351054065,-217.3328991312331,-229.1679981915786
277654,4502,277654,16845,277654.0,44375.0,-79.37389272304307,-219.04487565390588,-237.8186793297325
277654,4474,277654,16800,277654.0,44330.0,-86.23563696986167,-220.72109776916562,-246.40009878731007
277654,4480,277654,16840,277654.0,44387.0,-93.07910002255772,-222.36300619108619,-254.91019823449938
277654,4492,277654,16903,277654.0,44411.0,-99.9035340337349,-223.9735966415733,-263.3492467912869
277664,4515,277664,16916,277664.0,44446.0,-106.70877228076188,-225.5568029979741,-271.7191123661464
277664,4490,277664,16859,277664.0,44386.0,-113.49469436873017,-227.11638559810467,-280.02208192606884
277664,4435,277664,16816,277664.0,44346.0,-120.26089030876813,-228.6556076223751,-288.2603396485139
277664,4429,277664,16792,277664.0,44327.0,-127.00695048460182,-230.17796859006467,-296.4363740690085
277664,4460,277664,16924,277664.0,44413.0,-133.7330152277994,-231.687966812093,-304.5535087158205
277664,4496,277664,16950,277664.0,44419.0,-140.43976036099474,-233.19061169517505,-312.615522033066
277675,4472,277675,16954,277675.0,44392.0,-147.12767907137362,-234.6897626614326,-320.62549815286377
277675,4408,277675,16809,277675.0,44302.0,-153.79647161134153,-236.18693374884862,-328.58515299292014
277675,4376,277675,16754,277675.0,44248.0,-160.44530778227693,-237.68193181144846,-336.4954349564131
277675,4375,277675,16777,277675.0,44251.0,-167.07372948306363,-239.1748101928647,-344.35791448271596
277675,4410,277675,16804,277675.0,44309.0,-173.68228671870622,-240.6673408003531,-352.1757421053834
277675,4419,277675,16883,277675.0,44320.0,-180.27238091283095,-242.16297448978503,-359.95340189919
277685,4397,277685,16849,277685.0,44314.0,-186.8456291848986,-243.66574706276333,-367.6956791274248
277685,4377,277685,16827,277685.0,44237.0,-193.4034376182766,-245.17925393821685,-375.4069205975279
277685,4360,277685,16792,277685.0,44213.0,-199.94706679425474,-246.7064967955722,-383.091239217302
277685,4367,277685,16790,277685.0,44242.0,-206.47790420533096,-248.2504320854257,-390.75327810649753
277685,4404,277685,16922,277685.0,44332.0,-212.99749221876215,-249.81427016202912,-398.3983887049611
277685,4392,277685,16914,277685.0,44304.0,-219.50709298710711,-251.40065272191373,-406.03162573417103
277695,4363,277695,16798,277695.0,44255.0,-226.0071201285432,-253.01031354610177,-413.65646345315724
277695,4312,277695,16733,277695.0,44150.0,-232.49705640054458,-254.64205798199907,-421.2746273999761
277695,4275,277695,16708,277695.0,44138.0,-238.97606377461403,-256.29442136154347,-428.8872782850365
277695,4306,277695,16769,277695.0,44185.0,-245.44384677736264,-257.9673671686479,-436.4964126659461
277695,4324,277695,16849,277695.0,44228.0,-251.90103450875733,-259.66256993416334,-444.10516089176645
277695,4332,277695,16838,277695.0,44230.0,-258.34879397709176,-261.3822565475843,-451.7168446378431
277706,4294,277706,16773,277706.0,44161.0,-264.7881968539665,-263.1278849314311,-459.3338928183548
277706,4269,277706,16733,277706.0,44087.0,-271.2200216117344,-264.8999855541053,-466.95775311052
277706,4251,277706,16728,277706.0,44099.0,-277.64510231756174,-266.69908276550353,-474.5898718687258
277706,4317,277706,16806,277706.0,44161.0,-284.0646857501006,-268.52648170220505,-482.23259492869545
277706,4309,277706,16862,277706.0,44221.0,-290.48016136507704,-270.3839088816295,-489.88880739979277
277706,4294,277706,16843,277706.0,44178.0,-296.8923016875385,-272.27214001388353,-497.5605046295601
277716,4247,277716,16727,277716.0,44087.0,-303.300828652394,-274.1899546900404,-505.247739196722
277716,4230,277716,16664,277716.0,44027.0,-309.7046924044819,-276.1346888250475,-512.9490589478643
277716,4200,277716,16673,277716.0,44027.0,-316.1027286534742,-278.1040408570411,-520.6629928803467
277716,4219,277716,16750,277716.0,44078.0,-322.4942311807688,-280.09745006334,-528.3891683042651
277716,4245,277716,16807,277716.0,44091.0,-328.8790934753904,-282.11585710857355,-536.1282093599411
277716,4253,277716,16788,277716.0,44061.0,-335.2573798857477,-284.1602637304707,-543.880862121527
277726,4172,277726,16686,277726.0,44006.0,-341.62876746680604,-286.23062147663865,-551.6474451538556
277726,4174,277726,16652,277726.0,43980.0,-347.99260325420096,-288.32620096568024,-559.4281698854551
277726,4180,277726,16729,277726.0,44005.0,-354.34849400479663,-290.44684872392423,-567.2238511668354
277726,4221,277726,16815,277726.0,44069.0,-360.6965420349783,-292.5933264582174,-575.0360629283342
277726,4217,277726,16809,277726.0,44064.0,-367.0368487348238,-294.76603256362586,-582.8663139328746
277726,4158,277726,16738,277726.0,44011.0,-373.3688685911611,-296.9634536490829,-590.7149336710343
277737,4110,277737,16664,277737.0,43934.0,-379.6914414230413,-299.181967080075,-598.5808137856649
277737,4120,277737,16613,277737.0,43872.0,-386.0035797491937,-301.4171362504738,-606.4623753591812
277737,4131,277737,16649,277737.0,43907.0,-392.3051876666958,-303.665391714586,-614.359037600056
277737,4147,277737,16700,277737.0,43972.0,-398.5970798674268,-305.92485371898897,-622.2719494513136
277737,4165,277737,16731,277737.0,43973.0,-404.88045257447436,-308.1948368562958,-630.2033567818631
277737,4118,277737,16681,277737.0,43941.0,-411.1562839762885,-310.4747472300647,-638.155374142846
277747,4090,277747,16623,277747.0,43844.0,-417.42515589102527,-312.7635965119999,-646.129492634741
277747,4076,277747,16609,277747.0,43850.0,-423.6876565064682,-315.06060646555983,-654.1272629702702
277747,4102,277747,16690,277747.0,43935.0,-429.9448805065887,-317.3660580507071,-662.1511701555593
277747,4124,277747,16757,277747.0,43942.0,-436.19842147187535,-319.68109399898196,-670.2043681302399
277747,4101,277747,16725,277747.0,43905.0,-442.449850448494,-322.006341289103,-678.2894726150496
277747,4065,277747,16630,277747.0,43822.0,-448.7002816845022,-324.34077414846865,-686.4079015314396
277757,4029,277757,16541,277757.0,43781.0,-454.95054153507965,-326.68219774477757,-694.5605076438649
277757,4011,277757,16552,277757.0,43778.0,-461.20183121943796,-329.02907534623,-702.7488659034359
277757,4048,277757,16640,277757.0,43829.0,-467.4563288986276,-331.3820274132026,-710.9760943147136
277757,4071,277757,16645,277757.0,43867.0,-473.71718260341447,-333.74373985639846,-719.2465546064304
277757,4069,277757,16694,277757.0,43860.0,-479.98785346911336,-336.1176983261463,-727.5646997405504
277757,4022,277757,16611,277757.0,43776.0,-486.27144058286933,-338.50701530493876,-735.9340840376184
277768,4001,277768,16581,277768.0,43753.0,-492.57062278640774,-340.914199865056,-744.3574140787849
277768,4008,277768,16600,277768.0,43767.0,-498.88811007988306,-343.3418133308152,-752.8373549279398
277768,4074,277768,16737,277768.0,43800.0,-505.2268476690159,-345.7928248637442,-761.3769704430051
277768,4042,277768,16726,277768.0,43845.0,-511.5894808058249,-348.2695538454297,-769.979196544251
277768,4012,277768,16688,277768.0,43777.0,-517.9776125714463,-350.77192751249396,-778.6457905414622
277768,3957,277768,16530,277768.0,43686.0,-524.3917510291797,-353.2969419121658,-787.376865432462
277778,3936,277778,16500,277778.0,43635.0,-530.8320387882426,-355.840121505181,-796.1717639660739
277778,3960,277778,16554,277778.0,43686.0,-537.2991011764494,-358.39774707826257,-805.0305702281096
277778,3980,277778,16617,277778.0,43753.0,-543.7943229217536,-360.9678567037169,-813.954690378013
277778,3975,277778,16571,277778.0,43698.0,-550.3194359442484,-363.5495807069451,-822.9460330259889
277778,3967,277778,16571,277778.0,43703.0,-556.8759302184776,-366.1422171900766,-832.0059528490464
277778,3908,277778,16521,277778.0,43633.0,-563.4648360841576,-368.7451166703486,-841.1350036565018
277788,3910,277788,16498,277788.0,43592.0,-570.0870418815803,-371.358222056518,-850.3334644397628
277788,3944,277788,16596,277788.0,43691.0,-576.7437461809315,-373.98260020092755,-859.6020171036489
277788,3957,277788,16633,277788.0,43709.0,-583.4363706772065,-376.62010089930965,-868.9415862694613
277788,3962,277788,16635,277788.0,43685.0,-590.1658790742737,-379.27199355524425,-878.3521347132521
277788,3894,277788,16543,277788.0,43561.0,-596.9321798645886,-381.93778355131866,-887.8317905479813
277788,3849,277788,16433,277788.0,43488.0,-603.734274734899,-384.61549942767465,-897.3775608616927
277799,3834,277799,16459,277799.0,43545.0,-610.5711525993383,-387.30339826316805,-906.9870854616499
277799,3870,277799,16529,277799.0,43579.0,-617.4426643187438,-390.00153104361,-916.6596580293692
277799,3894,277799,16601,277799.0,43621.0,-624.349605070898,-392.7116320575505,-926.3956263415175
277799,3880,277799,16549,277799.0,43568.0,-631.2930610396432,-395.4356439697949,-936.1950417821447
277799,3854,277799,16510,277799.0,43513.0,-638.2737590601429,-398.1745642852773,-946.0569059437322
277799,3804,277799,16443,277799.0,43474.0,-645.2920161888147,-400.9286432238891,-955.9795344200317
277809,3815,277809,16493,277809.0,43496.0,-652.3482365596087,-403.69841287892825,-965.9614428485957
277809,3860,277809,16595,277809.0,43586.0,-659.4433099475885,-406.4851492552502,-976.0016138750929
277809,3868,277809,16600,277809.0,43575.0,-666.578286696566,-409.2898888750287,-986.098550114532
277809,3818,277809,16535,277809.0,43515.0,-673.753610282576,-412.111849880937,-996.2488902602953
277809,3785,277809,16448,277809.0,43388.0,-680.9688343482517,-414.94798384744394,-1006.4471082131034
277809,3772,277809,16392,277809.0,43400.0,-688.2230953750684,-417.7941723533184,-1016.686746629681
277819,3778,277819,16458,277819.0,43413.0,-695.5157217475258,-420.64695535748575,-1026.9619364254913
277819,3792,277819,16476,277819.0,43475.0,-702.8464085434678,-423.5043121563174,-1037.2677615390824
277819,3823,277819,16512,277819.0,43467.0,-710.2148649795073,-426.36510647041473,-1047.599365933675
277819,3779,277819,16514,277819.0,43396.0,-717.6201834430146,-429.22798700296676,-1057.9508695009922
277819,3734,277819,16394,277819.0,43353.0,-725.0605068860834,-432.0907331149197,-1068.3151878658266
277819,3724,277819,16418,277819.0,43315.0,-732.5333892386789,-434.9506608767277,-1078.6848473509779
277830,3751,277830,16489,277830.0,43430.0,-740.0363814200746,-437.8054885217546,-1089.0527612064348
277830,3787,277830,16587,277830.0,43467.0,-747.5670335371937,-440.6530747904982,-1099.411765252021
277830,3754,277830,16525,277830.0,43419.0,-755.1222324011816,-443.48977323298413,-1109.7530022134242
277830,3721,277830,16414,277830.0,43328.0,-762.6976171515312,-446.30918140007,-1120.0647800430156
277830,3682,277830,16366,277830.0,43265.0,-770.2876963987603,-449.10278867315316,-1130.3330762546293
277830,3669,277830,16342,277830.0,43236.0,-777.8865010813649,-451.86190165163765,-1140.5431159343334
277840,3673,277840,16414,277840.0,43289.0,-785.4882045436992,-454.57913731282713,-1150.6806902346204
277840,3708,277840,16436,277840.0,43344.0,-793.0872749218169,-457.2485391316023,-1160.732256573368
277840,3714,277840,16466,277840.0,43345.0,-800.6780305064289,-459.8645956675479,-1170.683806829258
277840,3672,277840,16418,277840.0,43282.0,-808.2539605121162,-462.42113522903855,-1180.519548220988
277840,3646,277840,16323,277840.0,43198.0,-815.8074691512332,-464.9110621165543,-1190.2216216849233
277840,3641,277840,16389,277840.0,43245.0,-823.3302030998753,-467.3271329716122,-1199.7709392144648
277850,3676,277850,16493,277850.0,43309.0,-830.8133817935114,-469.6625410125725,-1209.1478131756498
277850,3683,277850,16507,277850.0,43317.0,-838.2475742987871,-471.90996059535894,-1218.3312752878187
277850,3660,277850,16426,277850.0,43262.0,-845.622076850589,-474.05984562596774,-1227.297757786227
277850,3598,277850,16322,277850.0,43162.0,-852.9245875234598,-476.1000057921192,-1236.0206592909663
277850,3585,277850,16317,277850.0,43132.0,-860.1416094376641,-478.0169769736617,-1244.471324337794
277850,3597,277850,16352,277850.0,43142.0,-867.2591821980594,-479.7977433030446,-1252.6205530568711
277861,3612,277861,16390,277861.0,43218.0,-874.2631891729005,-481.43030969529997,-1260.439304233786
277861,3629,277861,16430,277861.0,43232.0,-881.1390184517891,-482.90300990789393,-1267.8980381911465
277861,3584,277861,16396,277861.0,43184.0,-887.8709988751183,-484.20339238977147,-1274.9654309970902
277861,3564,277861,16323,277861.0,43100.0,-894.442192419575,-485.31765973953526,-1281.6078128107135
277861,3546,277861,16284,277861.0,43080.0,-900.8347154646365,-486.23123691590837,-1287.7899020705668
277861,3582,277861,16387,277861.0,43153.0,-907.0301341494494,-486.92985140763915,-1293.475911770693
277871,3596,277871,16479,277871.0,43190.0,-913.0093718025181,-487.3995453041043,-1298.6296305681617
277871,3584,277871,16430,277871.0,43167.0,-918.7521310655687,-487.62514820474036,-1303.2133584557432
277871,3544,277871,16321,277871.0,43067.0,-924.2364161881072,-487.5889356382547,-1307.1870560928394
277871,3498,277871,16215,277871.0,43014.0,-929.438686367072,-487.27128876544185,-1310.508872656621
277871,3474,277871,16243,277871.0,42999.0,-934.3346165560145,-486.6529592819528,-1313.136729707193
277871,3499,277871,16307,277871.0,43036.0,-938.899942353642,-485.7169204627266,-1315.02968746113
277881,3512,277881,16384,277881.0,43103.0,-943.1107806100456,-484.4483802531348,-1316.1481659321016
277881,3524,277881,16388,277881.0,43089.0,-946.9432990367758,-482.83331919982294,-1316.4530768986815
277881,3491,277881,16316,277881.0,43012.0,-950.3732010501502,-480.857063405386,-1315.9049021051337
277881,3483,277881,16275,277881.0,42976.0,-953.3755467184573,-478.50412946554667,-1314.4638603425367
277881,3466,277881,16286,277881.0,42993.0,-955.9249814311522,-475.7592123483422,-1312.0910230254788
277881,3522,277881,16397,277881.0,43076.0,-957.9959663283214,-472.60794867601106,-1308.749072219974
277892,3508,277892,16380,277892.0,43087.0,-959.5625721627929,-469.03641368444517,-1304.4018524129833
277892,3482,277892,16335,277892.0,43019.0,-960.5980155097869,-465.0300262253583,-1299.013383035172
277892,3432,277892,16254,277892.0,42955.0,-961.0746343237751,-460.5734063641776,-1292.5477677267436
277892,3405,277892,16209,277892.0,42908.0,-960.9645930983911,-455.6516393563834,-1284.9704791044692
277892,3417,277892,16252,277892.0,42947.0,-960.2408712737833,-450.2520074801456,-1276.2501034309562
277892,3447,277892,16342,277892.0,43006.0,-958.8778578346278,-444.3648403687926,-1266.3593057434664
277902,3454,277902,16374,277902.0,43043.0,-956.8512554781812,-437.98283058356753,-1255.2745246808358
277902,3453,277902,16307,277902.0,43007.0,-954.1376270689495,-431.0996788708459,-1242.9750576232836
277902,3414,277902,16228,277902.0,42952.0,-950.7141599041779,-423.7097267739863,-1229.4427450706976
277902,3403,277902,16230,277902.0,42981.0,-946.5589500829674,-415.8091151133476,-1214.6627021703903
277902,3436,277902,16383,277902.0,43055.0,-941.651566890663,-407.3970620237249,-1198.624185277366
277902,3484,277902,16462,277902.0,43131.0,-935.9732381695638,-398.4753988449754,-1181.3204121690173
277913,3470,277913,16412,277913.0,43106.0,-929.5063800853069,-389.0465176985648,-1162.7474232815061
277913,3443,277913,16345,277913.0,43041.0,-922.2340850846053,-379.1119264405921,-1142.9033238938832
277913,3413,277913,16277,277913.0,42997.0,-914.1402890584334,-368.6728194331892,-1121.7889678179881
277913,3397,277913,16252,277913.0,43017.0,-905.2105899216015,-357.7319861340274,-1099.4096819476645
277913,3436,277913,16345,277913.0,43079.0,-895.4331352870392,-346.2955598923876,-1075.7767020353513
277913,3468,277913,16394,277913.0,43171.0,-884.7989867396072,-334.37343713102126,-1050.9073825222094
277923,3482,277923,16435,277923.0,43231.0,-873.301829544491,-321.97830599568465,-1024.824198264409
277923,3470,277923,16377,277923.0,43172.0,-860.9375198420256,-309.1244477954403,-997.5534523201118
277923,3454,277923,16362,277923.0,43183.0,-847.7040422465747,-295.8274825647792,-969.1249053324427
277923,3467,277923,16389,277923.0,43227.0,-833.6019447642782,-282.1050522165466,-939.5724531523153
277923,3544,277923,16550,277923.0,43341.0,-818.6347330175154,-267.9772022606371,-908.934611192685
277923,3559,277923,16555,277923.0,43417.0,-802.8086328282491,-253.4653504962636,-877.253818861573
277933,3568,277933,16521,277933.0,43412.0,-786.1318910392486,-238.59055641094147,-844.5749918591323
277933,3546,277933,16455,277933.0,43346.0,-768.6143914825464,-223.37290790453977,-810.9447153158208
277933,3532,277933,16409,277933.0,43388.0,-750.267978430272,-207.8326034437942,-776.4118939024546
277933,3580,277933,16511,277933.0,43492.0,-731.107167454929,-191.99160379848155,-741.0289062488
277933,3619,277933,16580,277933.0,43564.0,-711.1495653609086,-175.87425799861683,-704.8516977415802
277933,3660,277933,16617,277933.0,43635.0,-690.4156303938195,-159.5063766266309,-667.938658222846
277944,3681,277944,16594,277944.0,43651.0,-668.9280736905371,-142.91385661145577,-630.3493128559155
277944,3684,277944,16558,277944.0,43619.0,-646.7114072403746,-126.12218223477223,-592.1437248334607
277944,3679,277944,16550,277944.0,43687.0,-623.7919229687298,-109.15703626681537,-553.3828468026768
277944,3756,277944,16643,277944.0,43787.0,-600.1979706063769,-92.04519472382904,-514.1290480219284
277944,3795,277944,16775,277944.0,43916.0,-575.9599547066225,-74.81441732388356,-474.44562734837143
277944,3826,277944,16770,277944.0,43910.0,-551.1097827607383,-57.49187744084708,-434.39527968537897
277954,3843,277954,16706,277954.0,43886.0,-525.6802410272167,-40.10247644382923,-394.03889200228866
277954,3830,277954,16633,277954.0,43886.0,-499.704802974717,-22.668800165824052,-353.4357880435252
277954,3827,277954,16608,277954.0,43915.0,-473.2179906994636,-5.212799666001871,-312.6449826270687
277954,3908,277954,16714,277954.0,44022.0,-446.2559968111218,12.242316181186169,-271.72617877225235
277954,3964,277954,16827,277954.0,44132.0,-418.8568431942059,29.6716526396915,-230.73962339070079
277954,3995,277954,16829,277954.0,44158.0,-391.0597678646121,47.04999420858849,-189.74488234007538
277964,4021,277964,16783,277964.0,44123.0,-362.90444176060265,64.35341753830221,-148.7996945108207
277964,4014,277964,16737,277964.0,44151.0,-334.43064155536274,81.55949149825307,-107.9600302339395
277964,4047,277964,16792,277964.0,44219.0,-305.67843387248985,98.64621694682083,-67.28097167883334
277964,4138,277964,16933,277964.0,44364.0,-276.68842034822796,115.59134817246456,-26.817008959783607
277964,4170,277964,16979,277964.0,44400.0,-247.50143310130994,132.37335142712874,13.378943971863805
277964,4176,277964,16944,277964.0,44432.0,-218.15780679082428,148.9732970099081,53.257036276897566
277975,4181,277975,16839,277975.0,44365.0,-188.69703542991948,165.37570638753363,92.77112392637218
277975,4204,277975,16797,277975.0,44358.0,-159.15808180423778,181.56738762265172,131.87796869314195
277975,4230,277975,16863,277975.0,44471.0,-129.5798808511272,197.5353079100346,170.53572248172873
277975,4293,277975,16935,277975.0,44562.0,-100.00158848824645,213.26539382303895,208.703270842925
277975,4350,277975,17009,277975.0,44607.0,-70.46236415847812,228.74307121858084,246.34106236772834
277975,4370,277975,16983,277975.0,44622.0,-41.000766771730696,243.9547013651205,283.412346648876
277985,4375,277985,16953,277985.0,44563.0,-11.654246447296941,258.8884991754602,319.8835430949199
277985,4400,277985,16923,277985.0,44599.0,17.540862422387022,273.5342418664144,355.7234402530046
277985,4452,277985,17007,277985.0,44711.0,46.54907465709675,287.88236340215724,390.9021030091136
277985,4533,277985,17101,277985.0,44852.0,75.33581654722389,301.9237666655037,425.39096802520214
277985,4558,277985,17094,277985.0,44856.0,103.86807504675602,315.650898047802,459.16446027304994
277985,4540,277985,17037,277985.0,44820.0,132.11512503981754,329.0589575336203,492.20160164795607
277995,4541,277995,16971,277995.0,44770.0,160.04856471022583,342.1457813694151,524.4860157669375
277995,4550,277995,16951,277995.0,44778.0,187.64161346637172,354.9103509300646,556.004424748973
277995,4597,277995,17038,277995.0,44858.0,214.86833105925524,367.35118257515194,586.7450146544111
277995,4661,277995,17097,277995.0,44941.0,241.70335374542321,379.4659220577056,616.6969247403231
277995,4692,277995,17140,277995.0,44984.0,268.12227785923005,391.252343888238,645.8510207993581
277995,4701,277995,17063,277995.0,44925.0,294.10227472978625,402.70960827602767,674.2009005997375
278005,4695,278005,17041,278005.0,44909.0,319.62232454388584,413.83846434120676,701.7428709430474
278005,4723,278005,17038,278005.0,44964.0,344.66291204462914,424.6403045090352,728.4748864328435
278005,4803,278005,17158,278005.0,45105.0,369.2056906802359,435.11629644325046,754.3958788298421
278005,4856,278005,17190,278005.0,45086.0,393.23377557079436,445.267776355412,779.5064889261996
278005,4854,278005,17188,278005.0,45100.0,416.73259910316665,455.0976304476434,803.8103024416205
278005,4823,278005,17088,278005.0,45031.0,439.690441284258,464.6111790264001,827.3141085536201
278015,4820,278015,17010,278015.0,45002.0,462.09801808931263,473.815446096762,850.0268733427183
278015,4860,278015,17077,278015.0,45081.0,483.9475491247438,482.71726758780824,871.958217197614
278015,4886,278015,17172,278015.0,45128.0,505.23215690329766,491.32204518071376,893.1176081167453
278015,4951,278015,17180,278015.0,45213.0,525.9459400020851,499.6343010744431,913.5148655805119
278015,4948,278015,17174,278015.0,45165.0,546.0844774835464,507.659068199995,933.1612947187903
278015,4917,278015,17081,278015.0,45161.0,565.6451920571952,515.4024643737863,952.0702787171031
278025,4926,278025,17059,278025.0,45109.0,584.6270479831629,522.8708977481957,970.2567826894497
278025,4970,278025,17153,278025.0,45189.0,603.0298509376352,530.0697452359575,987.7362947591332
278025,5031,278025,17276,278025.0,45277.0,620.8540059143953,537.0031672076803,1004.5243796553464
278025,5058,278025,17251,278025.0,45287.0,638.1010549443596,543.6756734984631,1020.6374656116086
278025,5022,278025,17181,278025.0,45215.0,654.7744016690151,550.0938438628707,1036.0939250547156
278025,4992,278025,17074,278025.0,45158.0,670.8793525164559,556.2662903059479,1050.913928736892
278036,5006,278036,17077,278036.0,45135.0,686.4223084282017,562.2018651264253,1065.11790070723
278036,5022,278036,17142,278036.0,45230.0,701.4098294428591,567.9077799312315,1078.7248686678565
278036,5072,278036,17171,278036.0,45298.0,715.8482579825878,573.3891065985803,1091.7521034150027
278036,5114,278036,17255,278036.0,45337.0,729.7440119424031,578.6496741311703,1104.216239009882
278036,5076,278036,17168,278036.0,45275.0,743.1041871555842,583.6933594887294,1116.1346690016155
278036,5080,278036,17122,278036.0,45240.0,755.936797150724,588.5245863658698,1127.5258663103534
278046,5086,278046,17151,278046.0,45249.0,768.2504071248973,593.1476108524239,1138.4085128780407
278046,5142,278046,17263,278046.0,45387.0,780.0537487558418,597.5658141385989,1148.800715462382
278046,5168,278046,17286,278046.0,45362.0,791.3558984110771,601.782390400059,1158.720500969871
278046,5156,278046,17259,278046.0,45339.0,802.1668606218823,605.8019177462711,1168.1869896965952
278046,5128,278046,17164,278046.0,45192.0,812.4978725094793,609.6311364778155,1177.2205034682927
278046,5099,278046,17076,278046.0,45227.0,822.3609896932428,613.2780379921265,1185.8410191640946
278056,5105,278056,17126,278056.0,45241.0,831.7681880756841,616.7498854118854,1194.0662479977946
278056,5168,278056,17225,278056.0,45330.0,840.7306610949538,620.05188990538,1201.9109204559777
278056,5200,278056,17236,278056.0,45356.0,849.2589151342581,623.1877061152601,1209.3875313202436
278056,5181,278056,17233,278056.0,45327.0,857.3634988064139,626.1609188250001,1216.5075850516996
278056,5143,278056,17157,278056.0,45281.0,865.055451049785,628.975881521681,1223.282173438734
278056,5147,278056,17082,278056.0,45247.0,872.3459395022924,631.6371883114593,1229.7214257480077
278067,5161,278067,17176,278067.0,45341.0,879.2455663979458,634.1483234321585,1235.833547421741
278067,5219,278067,17272,278067.0,45425.0,885.7641106448134,636.5110808911708,1241.6247826553558
278067,5235,278067,17266,278067.0,45378.0,891.9109769234701,638.7267113374814,1247.1006587882637
278067,5173,278067,17208,278067.0,45342.0,897.6958597240593,640.797537348309,1252.2671422404162
278067,5159,278067,17104,278067.0,45265.0,903.1287518161339,642.7271793045624,1257.1303984868396
278067,5156,278067,17071,278067.0,45262.0,908.2191774405602,644.5191044108634,1261.69543313018
278077,5192,278077,17141,278077.0,45328.0,912.975471537685,646.1747777473374,1265.9648078806779
278077,5213,278077,17221,278077.0,45395.0,917.4047199225454,647.6930564946778,1269.9385160092206
278077,5220,278077,17220,278077.0,45376.0,921.513220504415,649.0712381069834,1273.615055644779
278077,5194,278077,17180,278077.0,45338.0,925.3069310577345,650.3064774011821,1276.9924988210691
278077,5174,278077,17119,278077.0,45311.0,928.7914601438308,651.3961560355932,1280.068542430373
278077,5184,278077,17107,278077.0,45310.0,931.9716333714744,652.3370769707936,1282.8397860157067
278087,5221,278087,17206,278087.0,45384.0,934.8511447964438,653.1245505024779,1285.3011876299595
278087,5258,278087,17268,278087.0,45421.0,937.4327830471481,653.7526550128331,1287.4464284393603
278087,5259,278087,17231,278087.0,45439.0,939.7191774144638,654.2157049674007,1289.2690931397972
278087,5192,278087,17102,278087.0,45321.0,941.7134040775175,654.5092851022803,1290.763642378981
278087,5168,278087,17083,278087.0,45298.0,943.4187562178337,654.6294910405067,1291.9251088627293
278087,5180,278087,17101,278087.0,45311.0,944.837827681313,654.5711475238884,1292.7477662461017
278098,5208,278098,17160,278098.0,45362.0,945.971828858743,654.326805511678,1293.2241916332184
278098,5236,278098,17253,278098.0,45419.0,946.8206892078666,653.8872994792804,1293.3455900558295
278098,5239,278098,17233,278098.0,45358.0,947.383691390625,653.2433774367892,1293.1028853599287
278098,5195,278098,17144,278098.0,45333.0,947.6600197892211,652.3871026964105,1292.4873939019299
278098,5180,278098,17068,278098.0,45308.0,947.6487255853523,651.3117163058955,1291.4904944644961
278098,5197,278098,17135,278098.0,45366.0,947.3482278290986,650.0102174174199,1290.1029726201984
278108,5251,278108,17236,278108.0,45443.0,946.7560790703908,648.4745479250885,1288.3151407280163
278108,5256,278108,17273,278108.0,45405.0,945.8694691555376,646.6966322594162,1286.1179726571413
278108,5229,278108,17154,278108.0,45368.0,944.6860443067504,644.6701878777924,1283.5042254926784
278108,5190,278108,17070,278108.0,45261.0,943.2042219633765,642.3911392965072,1280.4683666554408
278108,5159,278108,17047,278108.0,45223.0,941.4227242093668,639.8561036269587,1277.0052075106155
278108,5186,278108,17102,278108.0,45309.0,939.3397993456433,637.0605687584855,1273.1082858742275
278118,5223,278118,17159,278118.0,45371.0,936.9528784085393,633.9984237632709,1268.7694911053843
278118,5242,278118,17189,278118.0,45361.0,934.2590309638056,630.6629711937554,1263.9802861478242
278118,5206,278118,17150,278118.0,45322.0,931.2557811089348,627.0483691277615,1258.733154693314
278118,5162,278118,17026,278118.0,45301.0,927.9414520239465,623.1501978659586,1253.022047355831
278118,5159,278118,17072,278118.0,45266.0,924.3147457087066,618.9646394641402,1246.8419768471704
278118,5225,278118,17172,278118.0,45335.0,920.3742257904244,614.4875067390551,1240.1885637427542
278129,5223,278129,17182,278129.0,45356.0,916.1185534074699,609.7147732283875,1233.058259516476
278129,5217,278129,17181,278129.0,45346.0,911.5473284822133,604.6442217515316,1225.4493198357068
278129,5165,278129,17044,278129.0,45247.0,906.6616318175174,599.2764267678475,1217.3625932649948
278129,5143,278129,16991,278129.0,45176.0,901.4638066169516,593.6140627835213,1208.8011074991105
278129,5130,278129,17021,278129.0,45227.0,895.9567829529418,587.6601479335573,1199.7687161859794
278129,5136,278129,17060,278129.0,45284.0,890.1435077076079,581.4168841405971,1190.269317969558
278139,5176,278139,17100,278139.0,45279.0,884.0268664280479,574.8859943187895,1180.3075421170606
278139,5166,278139,17123,278139.0,45243.0,877.6101536656769,568.0699939557164,1169.890002068565
278139,5123,278139,16983,278139.0,45154.0,870.8976667208775,560.973257650292,1159.025748715026
278139,5079,278139,16986,278139.0,45109.0,863.8947467597261,553.6018848450697,1147.7255326079173
278139,5100,278139,17005,278139.0,45182.0,856.6072165703222,545.962649954824,1136.0006559684261
278139,5157,278139,17111,278139.0,45265.0,849.0410465368092,538.0626496015539,1123.86285706649
278150,5136,278150,17092,278150.0,45230.0,841.2028780195045,529.9104319383266,1111.3257325307793
278150,5099,278150,16994,278150.0,45160.0,833.1008534918274,521.5174381123674,1098.4063129726794
278150,5049,278150,16896,278150.0,45062.0,824.7447757565852,512.8980313712046,1085.1251988033782
278150,5006,278150,16862,278150.0,45019.0,816.1454320551037,504.06786857174734,1071.5052334286665
278150,5037,278150,16929,278150.0,45047.0,807.3136878497011,495.0421091694558,1057.5699152549332
278150,5064,278150,16949,278150.0,45042.0,798.2601270465143,485.83497089112586,1043.3426992785564
278160,5057,278160,16986,278160.0,45066.0,788.9955277018717,476.46069029407465,1028.847351428045
278160,5031,278160,16895,278160.0,45011.0,779.5315961058532,466.93474434227954,1014.108672904739
278160,4985,278160,16812,278160.0,44949.0,769.8812182062591,457.2740879401018,999.152808542829
278160,4970,278160,16820,278160.0,44915.0,760.0581045433789,447.496133717529,984.0067720890645
278160,4988,278160,16909,278160.0,44978.0,750.0762937352624,437.6177322767627,968.6977359857744
278160,5028,278160,16924,278160.0,44979.0,739.9501495197615,427.65557299133377,953.2531108102135
278170,4992,278170,16882,278170.0,44951.0,729.6949986285028,417.6276101823555,937.7014600330015
278170,4927,278170,16764,278170.0,44855.0,719.3276966730693,407.55381824375786,922.0731361551843
278170,4856,278170,16740,278170.0,44771.0,708.8662736055351,397.4553968344744,906.3997367391989
278170,4875,278170,16705,278170.0,44757.0,698.3287938006123,387.35318236742813,890.7126161316747
278170,4881,278170,16758,278170.0,44813.0,687.7324602582469,377.2665603034373,875.041643838724
278170,4900,278170,16793,278170.0,44848.0,677.0936281537156,367.21352720033764,859.4152973094124
278181,4880,278181,16782,278181.0,44793.0,666.4284054083028,357.2116833274226,843.8618432889855
278181,4847,278181,16673,278181.0,44681.0,655.7531476337344,347.2791251800386,828.4101274719841
278181,4811,278181,16616,278181.0,44631.0,645.0844482503039,337.4341222480042,813.0889050336617
278181,4806,278181,16684,278181.0,44676.0,634.4387203859773,327.6938668454726,797.9253991740669
278181,4857,278181,16769,278181.0,44743.0,623.831922495943,318.07401252972954,782.9447785811883
278181,4823,278181,16765,278181.0,44730.0,613.2798906025542,308.58990717754267,768.1711863573934
278191,4792,278191,16643,278191.0,44668.0,602.798912365883,299.258186570148,753.6291782070779
278191,4737,278191,16595,278191.0,44570.0,592.4057592884724,290.09686817945914,739.3440836803597
278191,4699,278191,16510,278191.0,44479.0,582.1170186763767,281.12384545225916,725.340884929236
278191,4724,278191,16558,278191.0,44519.0,571.9482489621789,272.35510958132494,711.6424135587021
278191,4739,278191,16629,278191.0,44596.0,561.9136398533747,263.803999452546,698.2683684027523
278191,4738,278191,16648,278191.0,44631.0,552.0264095324414,255.48199125780184,685.2361127349968
278201,4705,278201,16570,278201.0,44515.0,542.2994264445003,247.40014499276177,672.5623395947983
278201,4656,278201,16494,278201.0,44442.0,532.7453874110822,239.56958645669044,660.2636456926859
278201,4638,278201,16472,278201.0,44421.0,523.3763857054144,232.00055488757377,648.3554487298625
278201,4676,278201,16587,278201.0,44520.0,514.2033523488462,224.70129081929676,636.8507714584032
278201,4697,278201,16589,278201.0,44543.0,505.23609270652616,217.67827150467338,625.76050489189
278201,4678,278201,16572,278201.0,44495.0,496.4839969508293,210.93758923808826,615.0948648960826
278212,4628,278212,16463,278212.0,44386.0,487.9566671970432,204.48582707330272,604.8642912778363
278212,4577,278212,16396,278212.0,44310.0,479.66377496020016,198.32939761097003,595.0786719402905
278212,4559,278212,16372,278212.0,44349.0,471.6142356421889,192.47279998503694,585.7455838831415
278212,4596,278212,16477,278212.0,44404.0,463.8154100677164,186.91720336446522,576.8692466171638
278212,4602,278212,16540,278212.0,44440.0,456.2730107323845,181.66065606343622,568.4510923577427
278212,4596,278212,16503,278212.0,44415.0,448.9916578845193,176.69974213121114,560.4912364579287
278222,4543,278222,16448,278222.0,44325.0,441.9753708779204,172.03100375894934,552.9894395110636
278222,4502,278222,16391,278222.0,44269.0,435.2274097860806,167.65091131995808,545.9447354302013
278222,4538,278222,16432,278222.0,44334.0,428.74963106864897,163.55489315120064,539.3542435834777
278222,4581,278222,16568,278222.0,44418.0,422.54221321982595,159.73696928979982,533.2127475695402
278222,4585,278222,16569,278222.0,44423.0,416.60428862272613,156.19100926351086,527.5138664015099
278222,4545,278222,16472,278222.0,44345.0,410.93489471803343,152.91263261041976,522.2516829491432
278232,4505,278232,16362,278232.0,44256.0,405.533299428475,149.89960919223196,517.4211035980734
278232,4468,278232,16317,278232.0,44202.0,400.3984883744233,147.15018672667236,513.0165769476931
278232,4492,278232,16375,278232.0,44270.0,395.5283562633441,144.6609200777918,509.0303636920512
278232,4504,278232,16457,278232.0,44320.0,390.9193067460244,142.42586015391473,505.4519120928602
278232,4532,278232,16460,278232.0,44326.0,386.5665441308372,140.43751941909431,502.2687278536939
278232,4498,278232,16401,278232.0,44265.0,382.46471506012733,138.68832104688406,499.4675791382183
278243,4452,278243,16319,278243.0,44191.0,378.6082365170627,137.17093523177516,497.03468730462396
278243,4458,278243,16315,278243.0,44215.0,374.9909764180806,135.87723576758188,494.95479247508894
278243,4493,278243,16430,278243.0,44327.0,371.6057908771255,134.7971804101694,493.2103895689395
278243,4533,278243,16488,278243.0,44352.0,368.4447075901113,133.91916748444368,491.782438567939
278243,4503,278243,16480,278243.0,44314.0,365.4997494949114,133.23182048432864,490.6520679249376
278243,4445,278243,16379,278243.0,44264.0,362.76352875736484,132.72547276813486,489.8015879806145
278253,4428,278253,16289,278253.0,44168.0,360.22893946048646,132.39189360173174,489.2140135936226
278253,4417,278253,16299,278253.0,44201.0,357.8882912449669,132.22252097029397,488.8716348667748
278253,4452,278253,16388,278253.0,44264.0,355.73270779035386,132.20690541015665,488.75490135395086
278253,4478,278253,16466,278253.0,44314.0,353.7522214424205,132.33288091516366,488.8426848042236
278253,4486,278253,16425,278253.0,44303.0,351.9364428484183,132.58819207503123,489.11362156093685
278253,4437,278253,16359,278253.0,44233.0,350.27523927311313,132.96181111849734,489.5471814173877
278263,4401,278263,16284,278263.0,44208.0,348.75877433394646,133.44365613594138,490.12355900535954
278263,4444,278263,16334,278263.0,44233.0,347.3769519784221,134.02319653006776,490.8227890730042
278263,4481,278263,16452,278263.0,44351.0,346.1191433163964,134.6886520237013,491.6243956407196
278263,4488,278263,16513,278263.0,44351.0,344.9747491074653,135.42801801216416,492.5084033787216
278263,4459,278263,16416,278263.0,44272.0,343.9340356468622,136.23112635515938,493.4568558231271
278263,4404,278263,16318,278263.0,44175.0,342.9883701375451,137.09053410138554,494.4540763804621
278274,4385,278274,16239,278274.0,44164.0,342.12962313180617,138.00019825161948,495.48522950349275
278274,4412,278274,16328,278274.0,44213.0,341.34928472928857,138.95323603842496,496.53460118198217
278274,4430,278274,16412,278274.0,44298.0,340.63808607476784,139.94093631497523,497.5851757183369
278274,4463,278274,16431,278274.0,44285.0,339.986373326925,140.95378927364112,498.6196934574235
278274,4420,278274,16381,278274.0,44229.0,339.38478310412233,141.9831869713334,499.62192518652716
278274,4390,278274,16280,278274.0,44181.0,338.82452962375606,143.02197158344993,500.57683821472943
278284,4381,278284,16278,278284.0,44203.0,338.29701848927334,144.06339655814526,501.4697275043695
278284,4438,278284,16384,278284.0,44289.0,337.7933358368848,145.09979811142395,502.285595380014
278284,4471,278284,16445,278284.0,44297.0,337.3044286786835,146.12269947255268,503.0097213197064
278284,4434,278284,16450,278284.0,44333.0,336.8219463699727,147.12444728585072,503.6290195844837
278284,4402,278284,16359,278284.0,44209.0,336.33881055077336,148.09972907293894,504.1330154368783
278284,4365,278284,16264,278284.0,44167.0,335.8489046855951,149.0454805074458,504.5135337336767
278294,4362,278294,16258,278294.0,44145.0,335.34623758141635,149.95923124256308,504.7632216558583
278294,4392,278294,16351,278294.0,44217.0,334.8242873655198,150.8374335011781,504.8741848413588
278294,4414,278294,16375,278294.0,44263.0,334.275979434921,151.67530750069022,504.83791901978185
278294,4421,278294,16392,278294.0,44234.0,333.6942358517024,152.46802978944876,504.646353245412
278294,4382,278294,16310,278294.0,44187.0,333.0725500020793,153.21180958568303,504.29274016860427
278294,4343,278294,16254,278294.0,44127.0,332.40500998119234,153.90377462181164,503.7714485195686
278305,4375,278305,16306,278305.0,44176.0,331.6857709114282,154.5408892240587,503.0769980046861
278305,4426,278305,16414,278305.0,44269.0,330.9087393279049,155.11936180230663,502.20361579020584
278305,4402,278305,16445,278305.0,44274.0,330.06803038878195,155.63567310615755,501.1461586384826
278305,4387,278305,16375,278305.0,44186.0,329.1586436030575,156.08838551443796,499.9015306725503
278305,4345,278305,16224,278305.0,44119.0,328.17654574791027,156.47870973746967,498.4689050929709
278305,4321,278305,16217,278305.0,44057.0,327.1181145883702,156.80897294091181,496.84837960183825
278315,4338,278315,16251,278315.0,44118.0,325.97940696445687,157.08038058261064,495.0392514691472
278315,4369,278315,16354,278315.0,44190.0,324.75580789068067,157.29214014604972,493.03935920990205
278315,4378,278315,16335,278315.0,44201.0,323.442340069731,157.442398029299,490.8459725432233
278315,4349,278315,16347,278315.0,44146.0,322.0342595770267,157.52971466481296,488.45720061989607
278315,4332,278315,16241,278315.0,44071.0,320.52730039845744,157.55371392807845,485.8724291345374
278315,4310,278315,16212,278315.0,44059.0,318.91739797721317,157.51446367811405,483.09145650880106
278325,4346,278325,16311,278325.0,44153.0,317.20028653179105,157.41131193568867,480.11346042579635
278325,4402,278325,16403,278325.0,44197.0,315.37156929677354,157.24278958164135,476.93719716126145
278325,4377,278325,16398,278325.0,44163.0,313.42747835691716,157.00820087275451,473.5624013516387
278325,4329,278325,16253,278325.0,44060.0,311.3656381664588,156.70925450039394,469.99079962921127
278325,4286,278325,16191,278325.0,43997.0,309.18495254959294,156.34975600409692,466.22551579559126
278325,4276,278325,16176,278325.0,44013.0,306.88470834848243,155.93356992900468,462.269395669657
278336,4318,278336,16238,278336.0,44083.0,304.4637659584107,155.46279843734666,458.1238563286929
278336,4329,278336,16316,278336.0,44114.0,301.92050662930285,154.9375766788918,453.78924318465505
278336,4346,278336,16293,278336.0,44082.0,299.25345359671053,154.35727843565405,449.26612617915794
278336,4294,278336,16236,278336.0,44014.0,296.4619174730254,153.72174982546997,444.5561427530121
278336,4264,278336,16180,278336.0,43996.0,293.5460588224672,153.03133053238741,439.66168532881056
278336,4269,278336,16200,278336.0,44002.0,290.50635174865323,152.28584065223785,434.5850221520516
278346,4300,278346,16326,278346.0,44097.0,287.3431082226544,151.4839315355898,429.3279867209814
278346,4327,278346,16349,278346.0,44107.0,284.05667227568955,150.62395010564555,423.8928448668084
278346,4303,278346,16291,278346.0,44011.0,280.64812619144107,149.7057115913029,418.28364122931856
278346,4232,278346,16198,278346.0,43915.0,277.1197254993291,148.73130877238853,412.5064303499051
278346,4207,278346,16123,278346.0,43893.0,273.47445156532456,147.70407336939587,406.56786810384864
278346,4222,278346,16151,278346.0,43923.0,269.7150297885229,146.62660423841183,400.47348274886656
278356,4247,278356,16234,278356.0,43972.0,265.8433705315469,145.4995136349366,394.22709460642693
278356,4268,278356,16288,278356.0,44008.0,261.8608495854692,144.32188714251765,387.83159871448476
278356,4234,278356,16219,278356.0,43922.0,257.7689869325746,143.0927995330772,381.2902016679897
278356,4194,278356,16152,278356.0,43863.0,253.56978509667226,141.8121421294891,374.60683152475264
278356,4181,278356,16115,278356.0,43812.0,249.2653971596465,140.4799117293132,367.7852390202391
278356,4210,278356,16227,278356.0,43929.0,244.8575756675533,139.09501545185637,360.82782206297463
278367,4246,278367,16275,278367.0,43952.0,240.34764708525546,137.65528536535717,353.7356932046808
278367,4230,278367,16266,278367.0,43959.0,235.7371574468503,136.1589174397533,346.5101174952188
278367,4168,278367,16137,278367.0,43871.0,231.02848692035195,134.6056976936252,339.15386763949135
278367,4137,278367,16105,278367.0,43781.0,226.2246682636992,132.99654636295483,331.6711951476416
278367,4116,278367,16090,278367.0,43765.0,221.32851432742933,131.33183543697612,324.06646595335474
278367,4148,278367,16154,278367.0,43843.0,216.34183566631458,129.61009649510882,316.34276364524055
278377,4181,278377,16223,278377.0,43863.0,211.26537147905213,127.82812867955568,308.50183023488364
278377,4179,278377,16203,278377.0,43857.0,206.09944798128123,125.98226197883534,300.5452249594733
278377,4125,278377,16142,278377.0,43797.0,200.84471254175537,124.06955358637993,292.47537349000737
278377,4100,278377,16066,278377.0,43693.0,195.50219883321347,122.0877436833392,284.2954996685206
278377,4105,278377,16087,278377.0,43720.0,190.07277761280733,120.03408001924015,276.0084862373634
278377,4151,278377,16202,278377.0,43837.0,184.55679651450663,117.90442594895407,267.6159576163925
278388,4157,278388,16276,278388.0,43852.0,178.9544673700873,115.69402207430042,259.1190133792911
278388,4127,278388,16179,278388.0,43747.0,173.26665903209556,113.39946853702187,250.51996072734488
278388,4074,278388,16098,278388.0,43681.0,167.49526191014274,111.01981736019101,241.8229129091353
278388,4039,278388,15986,278388.0,43617.0,161.64272753744171,108.55551618465071,233.03260995899586
278388,4044,278388,16063,278388.0,43648.0,155.71118582755452,106.00621327381276,224.15274668734662
278388,4081,278388,16125,278388.0,43722.0,149.70191300770472,103.36947179319395,215.18525676299964
278398,4088,278398,16184,278398.0,43710.0,143.61558526127442,100.64143560173784,206.1310222737834
278398,4058,278398,16126,278398.0,43659.0,137.4529659064338,97.81852178816033,196.9911061149885
278398,4010,278398,16083,278398.0,43596.0,131.21523480663342,94.89842394701927,187.76714317616768
278398,3990,278398,15996,278398.0,43565.0,124.90360380787473,91.87967549789283,178.46061910457104
278398,4028,278398,16134,278398.0,43621.0,118.51869980889944,88.76054415799379,169.07195131275955
278398,4069,278398,16154,278398.0,43697.0,112.06054515011982,85.53886242782858,159.60052975088274
278408,4050,278408,16211,278408.0,43684.0,105.5293376683673,82.21338709145772,150.04603312216955
278408,3996,278408,16040,278408.0,43558.0,98.92623913282563,78.78529951655165,140.40981036050403
278408,3947,278408,15982,278408.0,43503.0,92.25330589466876,75.25804162444149,130.69475088862157
278408,3940,278408,15932,278408.0,43471.0,85.51264265873834,71.63537821213606,120.90372658195349
278408,3965,278408,16024,278408.0,43521.0,78.70561915794383,67.91941581009507,111.03815552197125
278408,3978,278408,16042,278408.0,43564.0,71.83280332778668,64.11017468536897,101.09784299865589
278419,4000,278419,16076,278419.0,43528.0,64.89455629442074,60.20661476491733,91.08193377036764
278419,3946,278419,15974,278419.0,43484.0,57.89174679243206,56.2077858862869,80.98983622200183
278419,3896,278419,15963,278419.0,43429.0,50.82593740069018,52.11294685364055,70.82121181024763
278419,3903,278419,15980,278419.0,43439.0,43.69884626258528,47.92080915069215,60.57525848869
278419,3938,278419,16086,278419.0,43527.0,36.51178039937673,43.62922682250911,50.250322242884295
278419,3953,278419,16101,278419.0,43557.0,29.26582778744836,39.23622704740575,39.84470897882011
278429,3926,278429,16025,278429.0,43481.0,21.96261387518632,34.74161446559833,29.358265751374574
278429,3867,278429,15922,278429.0,43371.0,14.60475431994746,30.147459507833616,18.793096204900053
278429,3822,278429,15835,278429.0,43306.0,7.195463553032255,25.45674218676254,8.152495500314785
278429,3834,278429,15918,278429.0,43360.0,-0.2623753298282736,20.671223866151934,-2.5608956175224193
278429,3861,278429,15966,278429.0,43395.0,-7.766821394652482,15.790418869060034,-13.345953024769983
278429,3898,278429,16031,278429.0,43407.0,-15.31660288562614,10.81245917372047,-24.202389230200424
278439,3854,278439,15969,278439.0,43323.0,-22.91025393935672,5.735826178850573,-35.129628093106476
278439,3800,278439,15872,278439.0,43292.0,-30.545567674540848,0.560253704934496,-46.12653956846327
278439,3779,278439,15842,278439.0,43245.0,-38.21993437733357,-4.7139890044383606,-57.192166048175295
278439,3806,278439,15940,278439.0,43317.0,-45.931071068146025,-10.087428482921666,-68.32651549558568
278439,3828,278439,16015,278439.0,43388.0,-53.677215669780935,-15.561452412697747,-79.53035085743511
278439,3835,278439,15991,278439.0,43336.0,-61.45656121996046,-21.13673274232235,-90.80381184145324
278450,3764,278450,15868,278450.0,43221.0,-69.26657373544776,-26.811755013829327,-102.14523910907701
278450,3714,278450,15792,278450.0,43207.0,-77.10402351901388,-32.58318012259116,-113.55156285529733
278450,3699,278450,15766,278450.0,43125.0,-84.96585344002233,-38.447771426780434,-125.01977216275804
278450,3733,278450,15833,278450.0,43197.0,-92.85007075375216,-44.40415701949149,-136.5481538511077
278450,3754,278450,15863,278450.0,43210.0,-100.75583080527758,-50.45312397738388,-148.1365379675234
278450,3746,278450,15906,278450.0,43206.0,-108.68276327698243,-56.59655390795518,-159.78552973819694
278460,3705,278460,15831,278460.0,43151.0,-116.63028979150084,-62.83608449466482,-171.49558807710218
278460,3671,278460,15772,278460.0,43087.0,-124.59755214965423,-69.17264444290515,-183.26690584063556
278460,3685,278460,15766,278460.0,43112.0,-132.583848017705,-75.60715117337458,-195.10005741688803
278460,3694,278460,15904,278460.0,43184.0,-140.58892852660938,-82.14121973679505,-206.99638559658285
278460,3710,278460,15897,278460.0,43200.0,-148.6127490164306,-88.77646227152991,-218.95721501546132
278460,3703,278460,15880,278460.0,43130.0,-156.6548672167923,-95.51276854034484,-230.9824183050315
278470,3627,278470,15735,278470.0,43041.0,-164.71402515923694,-102.34741111818659,-243.0698345012147
278470,3593,278470,15684,278470.0,42969.0,-172.7884369613006,-109.27599722159255,-255.21620755115907
278470,3594,278470,15723,278470.0,43022.0,-180.87667526537098,-116.29440313387192,-267.4187727618654
278470,3620,278470,15791,278470.0,43053.0,-188.97831856589227,-123.39983357972159,-279.6759957584253
278470,3645,278470,15812,278470.0,43048.0,-197.0937725899567,-130.59014407055287,-291.986943942527
278470,3626,278470,15794,278470.0,43029.0,-205.22351669026352,-137.86234913311927,-304.35019713482836
278481,3580,278481,15686,278481.0,42964.0,-213.36749973853296,-145.21177965504518,-316.76332549543247
278481,3560,278481,15628,278481.0,42909.0,-221.5251934663857,-152.63266049085848,-329.2232241708864
278481,3578,278481,15713,278481.0,42975.0,-229.69604422366996,-160.11949529077458,-341.72686560238924
278481,3605,278481,15830,278481.0,43044.0,-237.87959058663733,-167.6674272677107,-354.2713444091646
278481,3609,278481,15760,278481.0,42979.0,-246.07493720856945,-175.27075850093627,-366.8527110469046
278481,3544,278481,15668,278481.0,42905.0,-254.28008479421703,-182.92137846337147,-379.46487131582546
278491,3494,278491,15568,278491.0,42785.0,-262.49191762757937,-190.60910747486167,-392.1000089350664
278491,3467,278491,15527,278491.0,42756.0,-270.7070288306995,-198.3237003542472,-404.75038364829936
278491,3491,278491,15607,278491.0,42799.0,-278.92267919541246,-206.056780303471,-417.4101492079212
278491,3521,278491,15632,278491.0,42897.0,-287.13707008613176,-213.80229685275623,-430.07576272927804
278491,3520,278491,15706,278491.0,42898.0,-295.3487949129328,-221.55539885303153,-442.7446274065968
278491,3464,278491,15625,278491.0,42766.0,-303.5561208776551,-229.31079327118027,-455.41335496878264
278501,3445,278501,15507,278501.0,42730.0,-311.7568660131151,-237.06203894571775,-468.07749765665255
278501,3435,278501,15524,278501.0,42725.0,-319.9488655055103,-244.80246354710363,-480.73272960323595
278501,3479,278501,15633,278501.0,42820.0,-328.13031502261265,-252.52640674498662,-493.3756827217619
278501,3494,278501,15677,278501.0,42834.0,-336.29943864433244,-260.22882476463485,-506.00325336582307
278501,3456,278501,15604,278501.0,42784.0,-344.45369597504055,-267.90352365344484,-518.6110355665974
278501,3389,278501,15471,278501.0,42659.0,-352.58937441898854,-275.5422333593777,-531.1925363665281
278512,3362,278512,15418,278512.0,42605.0,-360.7021050157583,-283.13576741674296,-543.740086099671
278512,3362,278512,15428,278512.0,42635.0,-368.78784054624896,-290.6762161648434,-556.2465979104971
278512,3372,278512,15532,278512.0,42673.0,-376.8434521535032,-298.1581925581616,-568.7065071803374
278512,3400,278512,15566,278512.0,42686.0,-384.86661676278663,-305.57816954718027,-581.1152556370804
278512,3396,278512,15553,278512.0,42661.0,-392.8552038484253,-312.9326681059764,-593.4681358936379
278512,3326,278512,15415,278512.0,42542.0,-400.8067019642418,-320.2170425082739,-605.7597047365033
278522,3324,278522,15383,278522.0,42517.0,-408.7182659216031,-327.42601244993966,-617.9844169631502
278522,3315,278522,15472,278522.0,42571.0,-416.5872531577976,-334.5551347043031,-630.1378404482952
278522,3360,278522,15527,278522.0,42645.0,-424.41148239748384,-341.60118670886936,-642.2168903041539
278522,3353,278522,15542,278522.0,42650.0,-432.18883018778547,-348.56083487523176,-654.2185136179407
278522,3315,278522,15434,278522.0,42547.0,-439.91657619879345,-355.429097432838,-666.1380816118412
278522,3256,278522,15322,278522.0,42452.0,-447.59125221294437,-362.1993301842419,-677.9691589094982
278532,3233,278532,15294,278532.0,42401.0,-455.20927821503915,-368.8649640138642,-689.7049515987222
278532,3262,278532,15403,278532.0,42465.0,-462.76781500332527,-375.42141382711225,-701.3400864929263
278532,3292,278532,15399,278532.0,42501.0,-470.26499156590467,-381.86637217369025,-712.8711392505179
278532,3285,278532,15481,278532.0,42485.0,-477.6993211327268,-388.1985119852724,-724.2957293884004
278532,3230,278532,15344,278532.0,42456.0,-485.0690102246183,-394.41603333093474,-735.6113864225531
278532,3196,278532,15276,278532.0,42339.0,-492.3719520293506,-400.5164404955928,-746.8153286037267
278543,3198,278543,15294,278543.0,42375.0,-499.6063596440624,-406.4977821712127,-757.9052838527128
278543,3242,278543,15427,278543.0,42453.0,-506.7712338107126,-412.35972776599465,-768.8802702945517
278543,3252,278543,15430,278543.0,42471.0,-513.8660520153227,-418.10282044255456,-779.7400433100601
278543,3230,278543,15381,278543.0,42379.0,-520.8899562383136,-423.7266597274151,-790.4836847194658
278543,3169,278543,15287,278543.0,42318.0,-527.8412812491109,-429.22907383553365,-801.1091028492893
278543,3134,278543,15213,278543.0,42235.0,-534.7179273850785,-434.6070709823644,-811.6140668246851
278553,3144,278553,15260,278553.0,42274.0,-541.5182358592806,-439.85861859969964,-821.9978118591181
278553,3161,278553,15312,278553.0,42337.0,-548.2415531246169,-444.9836639418196,-832.2618516151498
278553,3175,278553,15373,278553.0,42381.0,-554.8880694821551,-449.9835603435434,-842.4092731658068
278553,3167,278553,15340,278553.0,42318.0,-561.4582274205229,-454.8595345858318,-852.4431722260503
278553,3113,278553,15227,278553.0,42261.0,-567.9522926372198,-459.61168682103863,-862.3657362421275
278553,3086,278553,15173,278553.0,42200.0,-574.3705228330195,-464.23958143284375,-872.1786956952718
278563,3120,278563,15286,278563.0,42286.0,-580.7137399949229,-468.7437407606716,-881.8843462060009
278563,3145,278563,15348,278563.0,42341.0,-586.9835189317728,-473.1260159531762,-891.4856640662423
278563,3151,278563,15335,278563.0,42310.0,-593.1816237210975,-477.3881832971174,-900.9850861014455
278563,3109,278563,15243,278563.0,42211.0,-599.3092586644885,-481.5304598257086,-910.3833218126879
278563,3061,278563,15130,278563.0,42120.0,-605.3669027159693,-485.5516907016675,-919.67970135394
278563,3038,278563,15122,278563.0,42079.0,-611.3548993639947,-489.45116789241297,-928.8739459917425
278574,3060,278574,15198,278574.0,42138.0,-617.2742555442759,-493.2304793976615,-937.9679626643269
278574,3080,278574,15273,278574.0,42213.0,-623.126925075692,-496.89373970573496,-946.9662662682218
278574,3075,278574,15293,278574.0,42217.0,-628.9154248064498,-500.4461164294551,-955.8747847383959
278574,3047,278574,15211,278574.0,42163.0,-634.6423116020271,-503.8921323408424,-964.6992549493176
278574,3033,278574,15123,278574.0,42099.0,-640.3100482904748,-507.2353150837448,-973.4446420555583
278574,2991,278574,15132,278574.0,42062.0,-645.921300984206,-510.4793887006081,-982.1158350616652
278584,3053,278584,15237,278584.0,42173.0,-651.4793216423993,-513.6294991822884,-990.7185620787104
278584,3061,278584,15309,278584.0,42191.0,-656.9878734309334,-516.691810417829,-999.2591692163555
278584,3049,278584,15241,278584.0,42151.0,-662.4505712843431,-519.6717152535299,-1007.7432770968967
278584,3006,278584,15154,278584.0,42029.0,-667.870319548501,-522.5726487687446,-1016.1749519863581
278584,2955,278584,15065,278584.0,41970.0,-673.2494881118361,-525.3968352110367,-1024.5575732196216
278584,2942,278584,15108,278584.0,42027.0,-678.5907257448368,-528.1472176748067,-1032.895611579296
278594,2979,278594,15179,278594.0,42088.0,-683.897754879812,-530.8287268276451,-1041.1954789466615
278594,3007,278594,15218,278594.0,42103.0,-689.1754475326608,-533.4478423152377,-1049.464688156069
278594,2992,278594,15199,278594.0,42071.0,-694.429164033242,-536.0111286814882,-1057.7103670921952
278594,2952,278594,15134,278594.0,41964.0,-699.6641193788081,-538.5242310171852,-1065.9385980457296
278594,2938,278594,15043,278594.0,41924.0,-704.8853942783159,-540.9922043818856,-1074.1551649361327
278594,2945,278594,15132,278594.0,42022.0,-710.0983640654001,-543.4207842136226,-1082.3668643105952
278605,3001,278605,15254,278605.0,42099.0,-715.3088329665193,-545.8169401302493,-1090.5816314332405
278605,3007,278605,15246,278605.0,42077.0,-720.5224586904056,-548.1875452520705,-1098.80697127141
278605,2956,278605,15162,278605.0,41973.0,-725.743879997133,-550.5374479179354,-1107.0483596573863
278605,2903,278605,15046,278605.0,41877.0,-730.9764779827013,-552.8691716781555,-1115.3093851511035
278605,2879,278605,15029,278605.0,41852.0,-736.223092703033,-555.1845833952718,-1123.5935221460634
278605,2904,278605,15077,278605.0,41926.0,-741.4869927926218,-557.4868962163507,-1131.9058958759801
278615,2926,278615,15151,278615.0,41981.0,-746.7722338502043,-559.781305390414,-1140.2535234292218
278615,2949,278615,15197,278615.0,42029.0,-752.0832132292908,-562.0739451672732,-1148.6439294178494
278615,2912,278615,15091,278615.0,41907.0,-757.4239189417277,-564.3703383515287,-1157.0834474580297
278615,2873,278615,15050,278615.0,41838.0,-762.7975808414335,-566.6749431358057,-1165.5768282337933
278615,2866,278615,15049,278615.0,41839.0,-768.2069991896791,-568.9921127403009,-1174.1284352417745
278615,2909,278615,15180,278615.0,41940.0,-773.6550202828707,-571.326962064258,-1182.7434171776822
278626,2915,278626,15236,278626.0,41960.0,-779.1444305124074,-573.6846132991957,-1191.4272985540697
278626,2897,278626,15165,278626.0,41906.0,-784.6773355494184,-576.0682473526183,-1200.1844862221185
278626,2834,278626,15020,278626.0,41822.0,-790.2548037010492,-578.4780939319069,-1209.0174664316937
278626,2796,278626,14943,278626.0,41737.0,-795.8773116819285,-580.9127646525353,-1217.9275968970114
278626,2798,278626,15009,278626.0,41781.0,-801.5457215837516,-583.3718242002535,-1226.9167713136253
278626,2863,278626,15080,278626.0,41852.0,-807.2619147727983,-585.8572237235159,-1235.988387887305
278636,2863,278636,15165,278636.0,41897.0,-813.0284492589518,-588.372527932311,-1245.1466524448633
278636,2854,278636,15118,278636.0,41865.0,-818.847620937912,-590.9209396101533,-1254.3948757568214
278636,2796,278636,15019,278636.0,41736.0,-824.7208939462431,-593.5039974292849,-1263.734424401025
278636,2758,278636,14951,278636.0,41701.0,-830.6491938484977,-596.1221106164185,-1273.165355142931
278636,2800,278636,15026,278636.0,41788.0,-836.6336750539454,-598.7762241385602,-1282.6878929424015
278636,2840,278636,15166,278636.0,41848.0,-842.6760153280342,-601.468505670302,-1292.302773379965
278646,2837,278646,15165,278646.0,41879.0,-848.7777779764237,-604.2009088852594,-1302.0098140480561
278646,2773,278646,15047,278646.0,41738.0,-854.9395803098791,-606.97310449442,-1311.806216494916
278646,2749,278646,14937,278646.0,41644.0,-861.1610498495244,-609.7822378015621,-1321.686486870588
278646,2721,278646,14927,278646.0,41618.0,-867.4415561114629,-612.624848725407,-1331.644214164618
278646,2749,278646,14988,278646.0,41682.0,-873.7809550352968,-615.4989731446311,-1341.6739941319374
278646,2779,278646,15061,278646.0,41724.0,-880.1797227647046,-618.4046022873554,-1351.7718092918985
278657,2767,278657,15086,278657.0,41728.0,-886.6384281903723,-621.3424536763399,-1361.9339238569023
278657,2756,278657,15020,278657.0,41654.0,-893.1570724352979,-624.3123913181939,-1372.1556435492985
278657,2718,278657,14945,278657.0,41587.0,-899.7348538171411,-627.3129420869607,-1382.4311485986416
278657,2688,278657,14925,278657.0,41596.0,-906.3704574530973,-630.3422422255592,-1392.7544142402853
278657,2730,278657,15025,278657.0,41673.0,-913.0625376414215,-633.3992382259062,-1403.1200006196518
278657,2767,278657,15126,278657.0,41732.0,-919.809745469467,-636.4835029290897,-1413.5225061573476
278667,2739,278667,15075,278667.0,41684.0,-926.6100426574451,-639.5934665360853,-1423.954927404538
278667,2684,278667,14953,278667.0,41546.0,-933.4600565341102,-642.7249264022875,-1434.407580979555
278667,2647,278667,14894,278667.0,41490.0,-940.3552998680547,-645.8715983363829,-1444.8688951418249
278667,2644,278667,14907,278667.0,41528.0,-947.2910391239966,-649.027102419667,-1455.3273427709132
278667,2685,278667,14967,278667.0,41577.0,-954.2629289405828,-652.1863881456845,-1465.7725409590234
278667,2692,278667,15047,278667.0,41626.0,-961.2668544304729,-655.3454981689251,-1476.1946392852078
278677,2679,278677,15003,278677.0,41595.0,-968.2982425035184,-658.5001403290486,-1486.5828106454828
278677,2644,278677,14915,278677.0,41492.0,-975.3515668430055,-661.6445838554441,-1496.9242575268845
278677,2608,278677,14882,278677.0,41453.0,-982.4204615499544,-664.7720496093586,-1507.2046224972146
278677,2629,278677,14934,278677.0,41506.0,-989.4982250723223,-667.8759813604704,-1517.4092184674182
278677,2656,278677,15053,278677.0,41598.0,-996.5780811975782,-670.9504336272705,-1527.523405568354
278677,2676,278677,15031,278677.0,41576.0,-1003.6527662722136,-673.9888153745947,-1537.5313966958074
278688,2633,278688,14961,278688.0,41521.0,-1010.7137686900545,-676.9822606664607,-1547.414708462154
278688,2575,278688,14847,278688.0,41420.0,-1017.7510303777103,-679.9194761784818,-1557.1518588393424
278688,2559,278688,14814,278688.0,41362.0,-1024.7534950606628,-682.7883714382106,-1566.719599461318
278688,2581,278688,14890,278688.0,41439.0,-1031.7099471077927,-685.5780231607257,-1576.0945884372381
278688,2588,278688,14972,278688.0,41481.0,-1038.6093136034465,-688.2792174641932,-1585.2539643616255
278688,2614,278688,15004,278688.0,41534.0,-1045.4402802505736,-690.8831574743708,-1594.1742940802844
278698,2567,278698,14947,278698.0,41407.0,-1052.1906929917996,-693.3796399017128,-1602.8300484789186
278698,2535,278698,14811,278698.0,41349.0,-1058.8473366450448,-695.7564534319649,-1611.1932806790849
278698,2530,278698,14849,278698.0,41352.0,-1065.396303438787,-698.0005416222225,-1619.234798885223
278698,2574,278698,14975,278698.0,41466.0,-1071.8234176103451,-700.0993643320801,-1626.9252279466918
278698,2591,278698,15024,278698.0,41478.0,-1078.114020355726,-702.0404141495791,-1634.2344549260483
278698,2580,278698,14956,278698.0,41430.0,-1084.2521904695304,-703.8092808235472,-1641.1300525770685
278708,2504,278708,14867,278708.0,41366.0,-1090.2202045713339,-705.3885812782578,-1647.5764504480767
278708,2481,278708,14773,278708.0,41270.0,-1095.9988809793276,-706.7589415836551,-1653.535643916306
278708,2477,278708,14798,278708.0,41275.0,-1101.5685325747197,-707.9011430216075,-1658.968859465329
278708,2506,278708,14889,278708.0,41330.0,-1106.9096449029796,-708.7976459098805,-1663.8379571138344
278708,2534,278708,14911,278708.0,41386.0,-1112.002768140202,-709.4323645778393,-1668.1055087824593
278708,2503,278708,14912,278708.0,41354.0,-1116.8278825908947,-709.7892971281938,-1671.7337056077326
278719,2485,278719,14770,278719.0,41292.0,-1121.3639304623816,-709.8516861531415,-1674.683437145978
278719,2456,278719,14748,278719.0,41254.0,-1125.5889314530687,-709.6027834984693,-1676.9145454369827
278719,2462,278719,14834,278719.0,41305.0,-1129.4804480834596,-709.0274809530765,-1678.3868018778935
278719,2505,278719,14964,278719.0,41381.0,-1133.0158510252456,-708.1127310592121,-1679.0602664739145
278719,2510,278719,14999,278719.0,41395.0,-1136.1720107639617,-706.8458215500573,-1678.8943811512934
278719,2477,278719,14906,278719.0,41298.0,-1138.9246753652978,-705.2120378310799,-1677.846743507339
278729,2426,278729,14782,278729.0,41196.0,-1141.2482960147704,-703.1940149041127,-1675.8731873615216
278729,2408,278729,14756,278729.0,41133.0,-1143.1166390755216,-700.7733883546086,-1672.929653118039
278729,2423,278729,14815,278729.0,41239.0,-1144.5036815776455,-697.9330976419078,-1668.9745157160137
278729,2443,278729,14913,278729.0,41276.0,-1145.3840664862885,-694.6582558104665,-1663.9695077227875
278729,2460,278729,14909,278729.0,41297.0,-1145.73290811668,-690.9351611814163,-1657.8789090362766
278729,2441,278729,14829,278729.0,41250.0,-1145.5253168322881,-686.7499429904842,-1650.6684291326023
278739,2407,278739,14774,278739.0,41160.0,-1144.736192261109,-682.0885372998479,-1642.305173314685
278739,2397,278739,14759,278739.0,41182.0,-1143.3405590371744,-676.9380644616776,-1632.7588620366018
278739,2426,278739,14874,278739.0,41263.0,-1141.3141281509866,-671.2881535223236,-1622.003167024459
278739,2457,278739,14948,278739.0,41340.0,-1138.63346140562,-665.1307791556121,-1610.015742485642
278739,2450,278739,14928,278739.0,41296.0,-1135.2755798874348,-658.4586843155214,-1596.7770372502932
278739,2416,278739,14821,278739.0,41211.0,-1131.2175676616087,-651.2641211821094,-1582.269554092111
278750,2388,278750,14734,278750.0,41167.0,-1126.4367704567062,-643.5394830719301,-1566.4787812100826
278750,2374,278750,14772,278750.0,41226.0,-1120.911571861279,-635.279439000953,-1549.395110383405
278750,2400,278750,14830,278750.0,41313.0,-1114.6222215880773,-626.4826850185813,-1531.014985660081
278750,2441,278750,14942,278750.0,41372.0,-1107.5511700899035,-617.1519383607871,-1511.3404248173617
278750,2427,278750,14920,278750.0,41385.0,-1099.6828069496905,-607.2924881369797,-1490.3776462935177
278750,2412,278750,14854,278750.0,41297.0,-1091.0031378722447,-596.9108668069993,-1468.136220159532
278760,2388,278760,14803,278760.0,41329.0,-1081.4999795647236,-586.0150143675048,-1444.6295645625935
278760,2426,278760,14883,278760.0,41398.0,-1071.1635555782113,-574.6155829074052,-1419.8760931885495
278760,2498,278760,15048,278760.0,41544.0,-1059.9867771013783,-562.7264708763075,-1393.8994024183912
278760,2527,278760,15061,278760.0,41593.0,-1047.9646848761413,-550.3633704648745,-1366.7268560606835
278760,2484,278760,15015,278760.0,41542.0,-1035.0935158989544,-537.5415580802343,-1338.3877204253508
278760,2451,278760,14889,278760.0,41463.0,-1021.370481809038,-524.2752324402459,-1308.9126843771362
278770,2453,278770,14855,278770.0,41454.0,-1006.7945768072956,-510.57910404943857,-1278.3353462505822
278770,2481,278770,14948,278770.0,41583.0,-991.3676259356635,-496.47075421832915,-1246.694237869577
278770,2530,278770,15032,278770.0,41673.0,-975.0947480583317,-481.9716483395698,-1214.033425601034
278770,2582,278770,15117,278770.0,41752.0,-957.984051341663,-467.10610870300115,-1180.40129862925
278770,2559,278770,15083,278770.0,41762.0,-940.045947596012,-451.89942801177256,-1145.8488341615773
278770,2545,278770,14984,278770.0,41702.0,-921.2928238763246,-436.3768935808184,-1110.4287647321926
278781,2565,278781,15012,278781.0,41743.0,-901.7394433676826,-420.56454708333183,-1074.196143792866
278781,2632,278781,15155,278781.0,41931.0,-881.403494341886,-404.490444552918,-1037.2092555430613
278781,2700,278781,15233,278781.0,42043.0,-860.3054488814506,-388.1843515982331,-999.5289952711876
278781,2706,278781,15260,278781.0,42047.0,-838.4677004414409,-371.6757838814714,-961.2166474948883
278781,2666,278781,15148,278781.0,41985.0,-815.913859907529,-354.99235087113226,-922.3322232979933
278781,2684,278781,15080,278781.0,41969.0,-792.6689804638634,-338.1600553035194,-882.9348888683526
278791,2712,278791,15119,278791.0,42039.0,-768.7603745641266,-321.20525806231126,-843.0846960603795
278791,2788,278791,15212,278791.0,42158.0,-744.2180690133216,-304.1563668686255,-802.8437289651017
278791,2831,278791,15300,278791.0,42239.0,-719.0744621685157,-287.04372809716864,-762.2756627861629
278791,2861,278791,15361,278791.0,42292.0,-693.3635141753354,-269.8980061402741,-721.444315839334
278791,2871,278791,15269,278791.0,42259.0,-667.1200945247025,-252.7485003562989,-680.4125039914265
278791,2860,278791,15251,278791.0,42309.0,-640.3798804589601,-235.6228111793124,-639.241980681741
278801,2908,278801,15286,278801.0,42387.0,-613.1797383137925,-218.54788682365069,-597.9940031305499
278801,3003,278801,15446,278801.0,42526.0,-585.5579916617772,-201.55078213871246,-556.729298379423
278801,3026,278801,15478,278801.0,42573.0,-557.5539638970523,-184.65773034783723,-515.5068868458659
278801,3065,278801,15432,278801.0,42564.0,-529.207079365708,-167.89230998092586,-474.382629607971
278801,3033,278801,15330,278801.0,42498.0,-500.5563656633302,-151.27478856938978,-433.4089100704026
278801,3047,278801,15332,278801.0,42545.0,-471.64074235441456,-134.823435639857,-392.6358468718472
278812,3098,278812,15370,278812.0,42623.0,-442.49975081154395,-118.55648689577225,-352.1128564930393
278812,3179,278812,15501,278812.0,42735.0,-413.17391644049627,-102.49297203108779,-311.88909267923907
278812,3237,278812,15543,278812.0,42811.0,-383.70424416985804,-86.65179845874172,-272.012500005907
278812,3222,278812,15490,278812.0,42796.0,-354.1312971826919,-71.05011029653735,-232.52844126458945
278812,3222,278812,15418,278812.0,42761.0,-324.49480264264935,-55.70270288127347,-193.47919027925946
278812,3255,278812,15419,278812.0,42807.0,-294.83408463497346,-40.623121634679364,-154.90473794833656
278822,3329,278822,15554,278822.0,42972.0,-265.18860461007114,-25.825070687318885,-116.84374042434797
278822,3426,278822,15617,278822.0,43020.0,-235.59774999306092,-11.322333748027745,-79.33308831333261
278822,3444,278822,15650,278822.0,43046.0,-206.0998008747414,2.8728498897665986,-42.40639110426855
278822,3439,278822,15556,278822.0,42999.0,-176.73090323933843,16.751276977264524,-6.093063420850967
278822,3417,278822,15458,278822.0,42948.0,-147.52495007348637,30.306569555939177,29.581034819549586
278822,3424,278822,15498,278822.0,43005.0,-118.51440965765414,43.53329045538294,64.59186266574625
278832,3518,278832,15613,278832.0,43110.0,-89.73129044346092,56.42520054463773,98.9157701089714
278832,3582,278832,15665,278832.0,43218.0,-61.207288281298474,68.97539225759135,132.5296170899203
278832,3593,278832,15661,278832.0,43252.0,-32.973019841004884,81.17783009553864,165.41223793589393
278832,3599,278832,15617,278832.0,43197.0,-5.05728830043779,93.02848911736328,197.54579286970284
278832,3588,278832,15543,278832.0,43176.0,22.512874959099236,104.52508176887272,228.91571411340237
278832,3645,278832,15619,278832.0,43261.0,49.71162833789674,115.6657900713509,259.5094920394797
278843,3726,278843,15772,278843.0,43420.0,76.5139938878159,126.44857770759086,289.31603618069425
278843,3778,278843,15789,278843.0,43467.0,102.89635657429062,136.87235903461385,318.32681562330663
278843,3771,278843,15721,278843.0,43367.0,128.83742951623583,146.93899500758926,346.5376458567064
278843,3733,278843,15636,278843.0,43331.0,154.3186720819416,156.65385351987436,373.94889423507925
278843,3744,278843,15551,278843.0,43325.0,179.32366774422394,166.02426627026887,400.56374801781567
278843,3800,278843,15664,278843.0,43374.0,203.83709168136056,175.05722777369772,426.3862226605138
278853,3856,278853,15717,278853.0,43488.0,227.84428255181365,183.75827704911023,451.4203572394881
278853,3919,278853,15775,278853.0,43558.0,251.33172452946235,192.13228424068222,475.670912596524
278853,3886,278853,15737,278853.0,43521.0,274.2878714099885,200.18496823472185,499.1448172261614
