c_ts,c_val,d_ts,d_val,e_ts,e_val,c_val_filtered,d_val_filtered,e_val_filtered
380130,6856,380130.0,18788.0,380130.0,26524.0,58.44234282832139,2.639599702579263,25.950575959334877
380130,6851,380130.0,18805.0,380130.0,26539.0,54.233949537133384,1.0995018602069067,22.151955910115134
380140,6855,380140.0,18802.0,380140.0,26497.0,49.90629550234645,-0.4747822715859904,18.271324570547755
380140,6836,380140.0,18825.0,380140.0,26497.0,45.46304133593679,-2.0867680796145542,14.31356836725044
380140,6824,380140.0,18787.0,380140.0,26489.0,40.90795730293559,-3.739466670314881,10.283284247874349
380140,6844,380140.0,18825.0,380140.0,26499.0,36.244799196816636,-5.435278247212917,6.184551375885846
380140,6840,380140.0,18795.0,380140.0,26499.0,31.47731517699995,-7.175977329759316,2.0209580459262853
380140,6824,380140.0,18819.0,380140.0,26507.0,26.609436061818087,-8.962656171985813,-2.204195238146191
380150,6816,380150.0,18791.0,380150.0,26486.0,21.64536968019921,-10.795668822489521,-6.487676515233041
380150,6799,380150.0,18753.0,380150.0,26463.0,16.58946963502207,-12.674755901305165,-10.8262874069016
380150,6786,380150.0,18774.0,380150.0,26468.0,11.445993693863883,-14.599461384197834,-15.217093499331142
380150,6803,380150.0,18754.0,380150.0,26478.0,6.218889280688444,-16.569586409683613,-19.657659110113023
380150,6796,380150.0,18773.0,380150.0,26486.0,0.9117678290918434,-18.58536441897845,-24.14597892915573
380150,6792,380150.0,18787.0,380150.0,26496.0,-4.471928084121032,-20.647369774867883,-28.68013696982132
380161,6786,380161.0,18755.0,380161.0,26471.0,-9.928775411045763,-22.75629746575683,-33.25794586457482
380161,6774,380161.0,18752.0,380161.0,26456.0,-15.455344458192513,-24.91288303263535,-37.876829655151994
380161,6769,380161.0,18778.0,380161.0,26454.0,-21.048253480117282,-27.118047693719262,-42.5340108619164
380161,6766,380161.0,18815.0,380161.0,26468.0,-26.704243441479946,-29.372815331315977,-47.22671657129912
380161,6767,380161.0,18801.0,380161.0,26470.0,-32.42019413264363,-31.67774834996972,-51.952110191833626
380161,6762,380161.0,18782.0,380161.0,26447.0,-38.19304936603962,-34.032377952365636,-56.70705015550136
380171,6746,380171.0,18764.0,380171.0,26437.0,-44.01973230494002,-36.43514284509917,-61.48801361944345
380171,6736,380171.0,18746.0,380171.0,26419.0,-49.89717244836659,-38.88376960853623,-66.29129859914188
380171,6719,380171.0,18750.0,380171.0,26424.0,-55.82247068073475,-41.375738603740686,-71.11331239277145
380171,6727,380171.0,18781.0,380171.0,26417.0,-61.79309725161005,-43.908517761461496,-75.95073999499485
380171,6730,380171.0,18770.0,380171.0,26437.0,-67.80695481012651,-46.47939231654891,-80.80051369012065
380171,6720,380171.0,18739.0,380171.0,26403.0,-73.86224788877246,-49.08516782020462,-85.65964869172237
380181,6712,380181.0,18739.0,380181.0,26399.0,-79.95732485146641,-51.72221804599087,-90.52517765734737
380181,6710,380181.0,18729.0,380181.0,26403.0,-86.09063807446898,-54.3868293237227,-95.39428738562592
380181,6715,380181.0,18740.0,380181.0,26413.0,-92.26073134883953,-57.07545286237241,-100.26439673269562
380181,6703,380181.0,18747.0,380181.0,26396.0,-98.46614122855286,-59.78470530591613,-105.13300989479117
380181,6706,380181.0,18705.0,380181.0,26408.0,-104.70526701425078,-62.51126334396796,-109.99753132447444
380181,6685,380181.0,18697.0,380181.0,26366.0,-110.9763045373573,-65.25198437615364,-114.8552184271285
380192,6662,380192.0,18691.0,380192.0,26360.0,-117.27731867568178,-68.0043322606045,-119.70335307147411
380192,6665,380192.0,18707.0,380192.0,26360.0,-123.60648299080665,-70.76673385664242,-124.5395854556327
380192,6666,380192.0,18729.0,380192.0,26384.0,-129.96230036651542,-73.53854466949034,-129.36212257197667
380192,6674,380192.0,18749.0,380192.0,26374.0,-136.3435740028315,-76.31961757772991,-134.1695367134283
380192,6664,380192.0,18724.0,380192.0,26361.0,-142.74917536097192,-79.10972358709022,-138.9604429986165
380192,6647,380192.0,18711.0,380192.0,26339.0,-149.1778499235797,-81.9082435316726,-143.73342642418373
380202,6646,380202.0,18688.0,380202.0,26348.0,-155.6282125888542,-84.71433310560741,-148.48724277548067
380202,6625,380202.0,18711.0,380202.0,26335.0,-162.09887000559823,-87.5272981613659,-153.22101619147946
380202,6621,380202.0,18711.0,380202.0,26380.0,-168.58856870805946,-90.3467593660282,-157.93420069582436
380202,6626,380202.0,18744.0,380202.0,26357.0,-175.09631445442446,-93.17243422083152,-162.62624501256033
380202,6615,380202.0,18711.0,380202.0,26322.0,-181.62137376581984,-96.00371252215675,-167.29624400874047
380202,6604,380202.0,18685.0,380202.0,26316.0,-188.16319817315954,-98.83944418703508,-171.94303009768348
380212,6598,380212.0,18669.0,380212.0,26322.0,-194.7214249994119,-101.67823087971213,-176.56558523271167
380212,6607,380212.0,18695.0,380212.0,26326.0,-201.29591826945628,-104.51893410632832,-181.16324331306294
380212,6616,380212.0,18702.0,380212.0,26317.0,-207.88665953161424,-107.36083722542683,-185.73557982325462
380212,6595,380212.0,18714.0,380212.0,26326.0,-214.4934764558748,-110.20334605775457,-190.28223966917471
380212,6577,380212.0,18698.0,380212.0,26310.0,-221.1158763437525,-113.04557620057942,-194.8028206028344
380212,6575,380212.0,18684.0,380212.0,26293.0,-227.75315657387117,-115.88617110227023,-199.29685272377594
380223,6563,380223.0,18667.0,380223.0,26301.0,-234.40461188892033,-118.72344806673983,-203.7639206163566
380223,6560,380223.0,18684.0,380223.0,26282.0,-241.06964629260784,-121.55569211994387,-208.20381683290626
380223,6579,380223.0,18691.0,380223.0,26292.0,-247.74775315201396,-124.38127197210746,-212.61661138336046
380223,6557,380223.0,18685.0,380223.0,26288.0,-254.43833924155223,-127.19847087339173,-217.00264330851746
380223,6539,380223.0,18638.0,380223.0,26265.0,-261.14055262135975,-130.00535823488872,-221.3624808805891
380223,6521,380223.0,18652.0,380223.0,26268.0,-267.85337947824627,-132.80004003137822,-225.69697386712355
380233,6531,380233.0,18656.0,380233.0,26255.0,-274.5759229369815,-135.5810593659406,-230.00741402918257
380233,6525,380233.0,18665.0,380233.0,26277.0,-281.30753805495107,-138.3474858472254,-234.29562169093504
380233,6523,380233.0,18655.0,380233.0,26271.0,-288.04774005619595,-141.09871406219168,-238.56382882090026
380233,6530,380233.0,18667.0,380233.0,26292.0,-294.7960295110561,-143.83426866243562,-242.8143869001297
380233,6509,380233.0,18670.0,380233.0,26256.0,-301.551725547556,-146.5536606083669,-247.04946140655912
380233,6497,380233.0,18633.0,380233.0,26252.0,-308.313898180952,-149.25627435219667,-251.27095164176595
380244,6498,380244.0,18640.0,380244.0,26258.0,-315.08146049660735,-151.9414600159867,-255.48066213995085
380244,6478,380244.0,18650.0,380244.0,26259.0,-321.85329726979927,-154.6087779670964,-259.6804220397533
380244,6487,380244.0,18662.0,380244.0,26263.0,-328.62833089496974,-157.258023446855,-263.871974273186
380244,6476,380244.0,18616.0,380244.0,26241.0,-335.4055246603572,-159.88904138494888,-268.0568085530632
380244,6466,380244.0,18624.0,380244.0,26221.0,-342.18383756958013,-162.50176448174346,-272.23618499745
380244,6448,380244.0,18620.0,380244.0,26220.0,-348.9622380016107,-165.0965211083575,-276.41140500661913
380254,6450,380254.0,18608.0,380254.0,26220.0,-355.73983290710356,-167.67426696841423,-280.58410674027544
380254,6437,380254.0,18627.0,380254.0,26240.0,-362.51599519841466,-170.23664539321908,-284.75631801973134
380254,6441,380254.0,18648.0,380254.0,26238.0,-369.290398294273,-172.7858782622239,-288.9302220800067
380254,6442,380254.0,18618.0,380254.0,26239.0,-376.0629558159398,-175.32445714188373,-293.1078061013584
380254,6421,380254.0,18613.0,380254.0,26212.0,-382.83370489747267,-177.85493813149722,-297.29064541851477
380254,6409,380254.0,18632.0,380254.0,26206.0,-389.6027788221698,-180.38002651950433,-301.4799731011168
380264,6417,380264.0,18627.0,380264.0,26198.0,-396.37052362512935,-182.90262130251975,-305.67694378687554
380264,6408,380264.0,18648.0,380264.0,26227.0,-403.13756235715834,-185.42561103738694,-309.8828043576436
380264,6405,380264.0,18629.0,380264.0,26212.0,-409.90471390813696,-187.95158687940264,-314.098765000836
380264,6394,380264.0,18629.0,380264.0,26191.0,-416.6729060071233,-190.48267104082595,-318.3257628699131
380264,6387,380264.0,18609.0,380264.0,26184.0,-423.4431693939804,-193.02055570256184,-322.56448459914964
380264,6376,380264.0,18587.0,380264.0,26186.0,-430.216690872425,-195.56674826235977,-326.8156112155467
380275,6390,380275.0,18623.0,380275.0,26187.0,-436.9948523575713,-198.1228852489177,-331.0799596056138
380275,6361,380275.0,18638.0,380275.0,26210.0,-443.77918707350017,-200.6907667709978,-335.35837682999727
380275,6371,380275.0,18624.0,380275.0,26177.0,-450.5713257107464,-203.27197181256355,-339.6514803517043
380275,6360,380275.0,18595.0,380275.0,26174.0,-457.3729972538935,-205.86752786830644,-343.95951330740377
380275,6339,380275.0,18574.0,380275.0,26151.0,-464.1860439529399,-208.4780902071163,-348.2825009850204
380275,6350,380275.0,18609.0,380275.0,26161.0,-471.012478714508,-211.10440204874655,-352.62054660106054
380285,6355,380285.0,18647.0,380285.0,26155.0,-477.854507952041,-213.74737792139092,-356.9740053144043
380285,6336,380285.0,18622.0,380285.0,26158.0,-484.71438626546734,-216.40757542512296,-361.34346968840157
380285,6330,380285.0,18586.0,380285.0,26156.0,-491.59427287271654,-219.08469284663417,-365.7296596802727
380285,6339,380285.0,18589.0,380285.0,26139.0,-498.49622733459955,-221.7777037736246,-370.13333653913173
380285,6306,380285.0,18544.0,380285.0,26147.0,-505.4222170102967,-224.48541015639245,-374.5553073728025
380285,6318,380285.0,18555.0,380285.0,26114.0,-512.3741341532309,-227.20701314761493,-378.9965142877082
380295,6300,380295.0,18581.0,380295.0,26162.0,-519.3538711525591,-229.94248926081457,-383.45811903129777
380295,6323,380295.0,18596.0,380295.0,26136.0,-526.3633182699537,-232.69249664360711,-387.9414070428982
380295,6294,380295.0,18582.0,380295.0,26142.0,-533.4042190521809,-235.45789039220378,-392.44752301911797
380295,6285,380295.0,18574.0,380295.0,26133.0,-540.478059423039,-238.23935889066277,-396.97730306157484
380295,6278,380295.0,18560.0,380295.0,26127.0,-547.586150272753,-241.0374341155937,-401.5312681310164
380295,6267,380295.0,18588.0,380295.0,26120.0,-554.7297962392934,-243.852649229169,-406.10966747701343
380306,6282,380306.0,18572.0,380306.0,26114.0,-561.9103624321735,-246.68552774262295,-410.7125477412087
380306,6245,380306.0,18587.0,380306.0,26133.0,-569.1292269133173,-249.53639209075996,-415.3397809425575
380306,6270,380306.0,18552.0,380306.0,26108.0,-576.387740313855,-252.4052283767265,-419.9909683705256
380306,6248,380306.0,18557.0,380306.0,26065.0,-583.687206708869,-255.29176917484415,-424.66542680963687
380306,6245,380306.0,18552.0,380306.0,26081.0,-591.0288209482185,-258.1957174896162,-429.3625303081321
380306,6226,380306.0,18488.0,380306.0,26104.0,-598.4136575162843,-261.11702688022234,-434.082083714704
380316,6248,380316.0,18585.0,380316.0,26101.0,-605.8427290954469,-264.0562316841553,-438.824209929119
380316,6253,380316.0,18580.0,380316.0,26098.0,-613.3168820716309,-267.0143962871232,-443.58892086577214
380316,6234,380316.0,18550.0,380316.0,26075.0,-620.8364702633548,-269.99248307581865,-448.37586794017335
380316,6205,380316.0,18519.0,380316.0,26072.0,-628.4011488578924,-272.9909788859086,-453.1844096934556
380316,6199,380316.0,18556.0,380316.0,26066.0,-636.010047580352,-276.0101947789748,-458.0138184790187
380316,6208,380316.0,18587.0,380316.0,26082.0,-643.6620762120278,-279.05044785949525,-462.86338540753604
380326,6201,380326.0,18557.0,380326.0,26078.0,-651.3559901196824,-282.11164752452686,-467.73230214975575
380326,6186,380326.0,18558.0,380326.0,26056.0,-659.090252256404,-285.1928365894819,-472.6194572332985
380326,6176,380326.0,18524.0,380326.0,26044.0,-666.8629749948182,-288.2922033443242,-477.52342815734295
380326,6159,380326.0,18490.0,380326.0,26043.0,-674.6720308859651,-291.40750588324016,-482.4427057874599
380326,6155,380326.0,18544.0,380326.0,26044.0,-682.5152291940237,-294.53661532217984,-487.3758900149035
380326,6169,380326.0,18544.0,380326.0,26055.0,-690.3904105421939,-297.67767608921974,-492.3216705448406
380337,6167,380337.0,18570.0,380337.0,26020.0,-698.2953160558122,-300.8286526516075,-497.27868594896256
380337,6145,380337.0,18531.0,380337.0,26080.0,-706.2273160698605,-303.9867403402646,-502.2454026859794
380337,6138,380337.0,18498.0,380337.0,26043.0,-714.1832919149138,-307.14823329202414,-507.21989473690184
380337,6124,380337.0,18515.0,380337.0,26036.0,-722.1597457451307,-310.30893055007505,-512.1995461685212
380337,6134,380337.0,18523.0,380337.0,26055.0,-730.1529300655143,-313.46455629648455,-517.1809600101337
380337,6125,380337.0,18524.0,380337.0,26034.0,-738.1588250542535,-316.6107430596553,-522.1599662727331
380347,6123,380347.0,18517.0,380347.0,26043.0,-746.1729901094155,-319.7427804052622,-527.1315308970206
380347,6105,380347.0,18511.0,380347.0,26006.0,-754.1904415296555,-322.85548340374754,-532.0897296859632
380347,6088,380347.0,18473.0,380347.0,26005.0,-762.2056778962352,-325.9432903084298,-537.0279290438407
380347,6069,380347.0,18507.0,380347.0,25984.0,-770.2128776010518,-329.00054104111535,-541.9391129989147
380347,6096,380347.0,18488.0,380347.0,26014.0,-778.2061229882187,-332.02167762622025,-546.8161442295448
380347,6097,380347.0,18530.0,380347.0,26005.0,-786.1793538089032,-335.00113402691284,-551.6517367085585
380357,6072,380357.0,18504.0,380357.0,26017.0,-794.1260400624647,-337.93299651261873,-556.4381725759083
380357,6070,380357.0,18494.0,380357.0,25981.0,-802.0389670229766,-340.8107261562385,-561.1670488214008
380357,6062,380357.0,18474.0,380357.0,25977.0,-809.9102803955132,-343.62721280895073,-565.8293069935855
380357,6051,380357.0,18499.0,380357.0,25994.0,-817.7315712504753,-346.3750535065647,-570.4154551388118
380357,6064,380357.0,18479.0,380357.0,25994.0,-825.4938775420196,-349.0466892421521,-574.9156139453147
380357,6050,380357.0,18498.0,380357.0,25976.0,-833.1875862922122,-351.634331535873,-579.3193226394384
380368,6050,380368.0,18443.0,380368.0,25996.0,-840.8022731582662,-354.1299279627316,-583.6153882744951
380368,6032,380368.0,18510.0,380368.0,25976.0,-848.3266071889411,-356.52528224135546,-587.7918252976632
380368,6007,380368.0,18444.0,380368.0,25950.0,-855.748418245822,-358.8121328426813,-591.8358533779353
380368,6018,380368.0,18413.0,380368.0,25951.0,-863.0549112644364,-360.9822794248805,-595.7341076837239
380368,6020,380368.0,18458.0,380368.0,25957.0,-870.2328132320796,-363.0280528197992,-599.4729446446049
380368,6019,380368.0,18528.0,380368.0,25919.0,-877.2682590174425,-364.942527788267,-603.0386028032026
380378,5991,380378.0,18472.0,380378.0,25964.0,-884.1465925445876,-366.7188554876217,-606.4172900248873
380378,5999,380378.0,18465.0,380378.0,25944.0,-890.852354938314,-368.34953143821957,-609.5951752474693
380378,5981,380378.0,18448.0,380378.0,25942.0,-897.3694095216865,-369.8264653666291,-612.558214386866
380378,5990,380378.0,18482.0,380378.0,25952.0,-903.6810159584347,-371.14140795180697,-615.2920192895776
380378,5995,380378.0,18468.0,380378.0,25941.0,-909.769779183002,-372.2860466693305,-617.7818187564196
380378,5980,380378.0,18456.0,380378.0,25908.0,-915.6174878255313,-373.2518539701301,-620.012481747227
380388,5967,380388.0,18460.0,380388.0,25935.0,-921.2050005449312,-374.0300826865878,-621.9687266889648
380388,5940,380388.0,18439.0,380388.0,25912.0,-926.5123731117501,-374.61194941539054,-623.6353676184532
380388,5936,380388.0,18437.0,380388.0,25914.0,-931.519206619904,-374.9888746155914,-624.9974155157493
380388,5943,380388.0,18456.0,380388.0,25907.0,-936.20499081092,-375.15270280085815,-626.0401709050483
380388,5959,380388.0,18481.0,380388.0,25917.0,-940.5491800824921,-375.09568656276093,-626.7493446321365
380388,5943,380388.0,18472.0,380388.0,25930.0,-944.5309805816855,-374.81013957444884,-627.111053489409
380399,5921,380399.0,18441.0,380399.0,25915.0,-948.129174865891,-374.2881352389751,-627.1116749601222
380399,5933,380399.0,18441.0,380399.0,25898.0,-951.3222316975855,-373.52164990447284,-626.7377881869289
380399,5930,380399.0,18432.0,380399.0,25912.0,-954.0884972621661,-372.50301126399177,-625.9763614778002
380399,5923,380399.0,18498.0,380399.0,25916.0,-956.4062297039552,-371.22514626558626,-624.8149661955001
380399,5938,380399.0,18470.0,380399.0,25934.0,-958.2535545796671,-369.68132319678665,-623.2417523424164
380399,5917,380399.0,18464.0,380399.0,25922.0,-959.6084309749108,-367.86471803915185,-621.245259095117
380409,5925,380409.0,18420.0,380409.0,25905.0,-960.448661369694,-365.7684407595963,-618.8143399448824
380409,5887,380409.0,18419.0,380409.0,25883.0,-960.7520431020312,-363.3861330615236,-615.9384233982948
380409,5869,380409.0,18444.0,380409.0,25896.0,-960.4967633288961,-360.7126480718412,-612.6080326921726
380409,5906,380409.0,18470.0,380409.0,25918.0,-959.6619349858981,-357.7442677813293,-608.8151803513074
380409,5908,380409.0,18470.0,380409.0,25935.0,-958.227847439575,-354.47838757060185,-604.5533404031758
380409,5898,380409.0,18508.0,380409.0,25936.0,-956.1758070326025,-350.9130342363454,-599.8171260002418
380419,5894,380419.0,18453.0,380419.0,25923.0,-953.4880214698212,-347.04652925885716,-594.6020571680034
380419,5889,380419.0,18471.0,380419.0,25922.0,-950.1477755416115,-342.87751391534687,-588.9046495572745
380419,5904,380419.0,18491.0,380419.0,25941.0,-946.1396903138977,-338.40526343824547,-582.7226907779115
380419,5921,380419.0,18506.0,380419.0,25947.0,-941.4498254985766,-333.62979444882455,-576.0553968174654
380419,5929,380419.0,18491.0,380419.0,25952.0,-936.0655587158296,-328.55165640658674,-568.9033798058572
380419,5923,380419.0,18479.0,380419.0,25973.0,-929.9754039952808,-323.1718664564484,-561.2685789277253
380430,5914,380430.0,18477.0,380430.0,25978.0,-923.1690249115204,-317.4922102631316,-553.1541868409074
380430,5933,380430.0,18509.0,380430.0,25984.0,-915.6374771259098,-311.51561940385255,-544.5645593950535
380430,5927,380430.0,18489.0,380430.0,25995.0,-907.3734661500514,-305.24630348528126,-535.5051894944951
380430,5971,380430.0,18530.0,380430.0,26004.0,-898.3714425276144,-298.6896895024059,-525.9827449625625
380430,5963,380430.0,18539.0,380430.0,26045.0,-888.6275043107153,-291.8522775827347,-516.0050366621932
380430,5952,380430.0,18544.0,380430.0,26028.0,-878.1392891424587,-284.7413846089292,-505.58084177827914
380440,5975,380440.0,18539.0,380440.0,26028.0,-866.9061231995566,-277.36494955074005,-494.7197944981862
380440,5995,380440.0,18557.0,380440.0,26051.0,-854.9292813594221,-269.73156621449453,-483.43255629460816
380440,6014,380440.0,18590.0,380440.0,26076.0,-842.2120145766739,-261.85052661493086,-471.7310084833725
380440,6049,380440.0,18605.0,380440.0,26098.0,-828.7593444241971,-253.73159744147054,-459.6281489841771
380440,6030,380440.0,18561.0,380440.0,26112.0,-814.5778290876424,-245.38472157194485,-447.1377981312898
380440,6045,380440.0,18592.0,380440.0,26094.0,-799.6755414720244,-236.82010370150198,-434.27442071870735
380451,6068,380451.0,18596.0,380451.0,26114.0,-784.0623077740311,-228.04858262404343,-421.05326013190023
380451,6073,380451.0,18597.0,380451.0,26142.0,-767.7499330514888,-219.08183854226812,-407.4906201731907
380451,6107,380451.0,18648.0,380451.0,26161.0,-750.7522738292799,-209.93237029199622,-393.6039257661781
380451,6131,380451.0,18635.0,380451.0,26192.0,-733.0852039000579,-200.61330685980047,-379.41150332037824
380451,6157,380451.0,18665.0,380451.0,26198.0,-714.7664566785616,-191.13812766769462,-364.9322926817918
380451,6169,380451.0,18667.0,380451.0,26217.0,-695.815424542738,-181.52047535968495,-350.1856560217521
380461,6195,380461.0,18659.0,380461.0,26228.0,-676.253062317515,-171.7741152951341,-335.1913316202337
380461,6214,380461.0,18694.0,380461.0,26271.0,-656.1018861765087,-161.91301499799232,-319.96941656370944
380461,6248,380461.0,18727.0,380461.0,26272.0,-635.3859579995449,-151.9513447903909,-304.5402259384476
380461,6262,380461.0,18711.0,380461.0,26294.0,-614.1308079083984,-141.90321297587514,-288.92410679252623
380461,6281,380461.0,18714.0,380461.0,26278.0,-592.3633731236149,-131.78245890867328,-273.1414328639272
380461,6307,380461.0,18709.0,380461.0,26304.0,-570.1120352848593,-121.60283538113131,-257.2128482192807
380471,6337,380471.0,18724.0,380471.0,26316.0,-547.4066804812121,-111.3783876247384,-241.15958105099543
380471,6370,380471.0,18761.0,380471.0,26360.0,-524.2786515506551,-101.12367027615986,-225.0035658988707
380471,6409,380471.0,18770.0,380471.0,26389.0,-500.7605633461401,-90.85362780976814,-208.76724813453
380471,6440,380471.0,18802.0,380471.0,26402.0,-476.8860163791898,-80.58324319817581,-192.47318535001716
380471,6454,380471.0,18770.0,380471.0,26399.0,-452.6893170657124,-70.32725180528632,-176.14376467260718
380471,6486,380471.0,18787.0,380471.0,26436.0,-428.2053532407158,-60.10017703987762,-159.80122145798458
380482,6501,380482.0,18818.0,380482.0,26445.0,-403.46962787659976,-49.91658812890856,-143.46774614496616
380482,6531,380482.0,18878.0,380482.0,26487.0,-378.518344638292,-39.79106146627328,-127.16542760817799
380482,6593,380482.0,18873.0,380482.0,26518.0,-353.38841055586107,-29.73760019603114,-110.91599990898175
380482,6614,380482.0,18866.0,380482.0,26518.0,-328.11718869466307,-19.769017491733052,-94.74048482117678
380482,6640,380482.0,18838.0,380482.0,26518.0,-302.74210283679207,-9.896902339760913,-78.65900667804937
380482,6657,380482.0,18849.0,380482.0,26537.0,-277.3004329485876,-0.13216538694484825,-62.6909650410189
380492,6693,380492.0,18870.0,380492.0,26549.0,-251.82935486165087,9.514351577649222,-46.85533787791826
380492,6731,380492.0,18914.0,380492.0,26578.0,-226.3659760637354,19.031696655355518,-31.170835343981537
380492,6787,380492.0,18926.0,380492.0,26621.0,-200.94715187857344,28.409148783529645,-15.655814502852422
380492,6788,380492.0,18942.0,380492.0,26636.0,-175.6091071400889,37.63675110508524,-0.32794426175041735
380492,6812,380492.0,18917.0,380492.0,26602.0,-150.3871819148037,46.70561617193391,14.796102823472893
380492,6843,380492.0,18929.0,380492.0,26636.0,-125.31589235127444,55.60781509703719,29.70051353689496
380502,6907,380502.0,18983.0,380502.0,26689.0,-100.42899385682097,64.33612617012687,44.36999922122391
380502,6925,380502.0,18940.0,380502.0,26694.0,-75.7592054966326,72.88405805872401,58.78989716613518
380502,6936,380502.0,18971.0,380502.0,26710.0,-51.337811058798934,81.24596974380376,72.9465953350176
380502,6959,380502.0,18960.0,380502.0,26716.0,-27.194562729550057,89.41694741786662,86.82774259572187
380502,6981,380502.0,18964.0,380502.0,26714.0,-3.3578721972253334,97.392576143692,100.42215382882625
380502,7011,380502.0,18987.0,380502.0,26757.0,20.145011293747643,105.16877035819118,113.71962078282655
380513,7043,380513.0,18995.0,380513.0,26746.0,43.2879724539838,112.74172610357675,126.71083141455273
380513,7068,380513.0,19015.0,380513.0,26781.0,66.04612762789111,120.1080497606772,139.38741626285702
380513,7115,380513.0,19019.0,380513.0,26802.0,88.39600901415622,127.26496019822758,151.7420412108401
380513,7114,380513.0,19024.0,380513.0,26796.0,110.31578968968824,134.2104329057563,163.76855500386716
380513,7140,380513.0,19020.0,380513.0,26807.0,131.78540246706734,140.94321334620923,175.4620561729447
380513,7166,380513.0,19022.0,380513.0,26820.0,152.78647234635582,147.46268340562062,186.818764213294
380523,7208,380523.0,19052.0,380523.0,26838.0,173.30227975250443,153.76870645395672,197.83588743345047
380523,7222,380523.0,19063.0,380523.0,26846.0,193.31793324398188,159.86166960123683,208.51162926141717
380523,7213,380523.0,19029.0,380523.0,26878.0,212.82053367534604,165.7426583958882,218.8452845319493
380523,7248,380523.0,19029.0,380523.0,26864.0,231.79904697895972,171.41335111605474,228.83737117439824
380523,7248,380523.0,19030.0,380523.0,26878.0,250.2440053881602,176.87555369772036,238.48967792593987
380523,7288,380523.0,19072.0,380523.0,26866.0,268.14731471546736,182.13084272989295,247.8051127042744
380533,7313,380533.0,19064.0,380533.0,26878.0,285.5022570425143,187.1806422820399,256.7874163455174
380533,7324,380533.0,19088.0,380533.0,26902.0,302.30365266118633,192.0265422612133,265.44092375371895
380533,7325,380533.0,19119.0,380533.0,26888.0,318.5479770908654,196.67062349973037,273.7704937695977
380533,7342,380533.0,19082.0,380533.0,26904.0,334.23323704242557,201.11577535226843,281.7814902470619
380533,7362,380533.0,19081.0,380533.0,26896.0,349.3587349661574,205.36578514779404,289.479652286946
380533,7393,380533.0,19104.0,380533.0,26932.0,363.92498331369677,209.42506988592493,296.8709505966867
380544,7404,380544.0,19117.0,380544.0,26934.0,377.9338312767102,213.29848920455044,303.96161597574417
380544,7418,380544.0,19113.0,380544.0,26953.0,391.3886441151385,216.9914944670037,310.7583377118499
380544,7425,380544.0,19083.0,380544.0,26943.0,404.2943630013482,220.5102394253247,317.2684455049723
380544,7432,380544.0,19070.0,380544.0,26947.0,416.65742301347484,223.86128194523627,323.4999148295219
380544,7440,380544.0,19102.0,380544.0,26935.0,428.485589834301,227.0510465909665,329.4611793101262
380544,7455,380544.0,19099.0,380544.0,26960.0,439.7877857834334,230.08554772250113,335.1608672332478
380554,7462,380554.0,19121.0,380554.0,26945.0,450.57397172024355,232.97051658616448,340.6076258482084
380554,7475,380554.0,19142.0,380554.0,26978.0,460.85508655812146,235.71170757218823,345.8100756813034
380554,7475,380554.0,19115.0,380554.0,26968.0,470.6429874086148,238.31521548277766,350.77685613598624
380554,7480,380554.0,19091.0,380554.0,26982.0,479.9503333423377,240.787534468167,355.5167135326993
380554,7498,380554.0,19102.0,380554.0,26972.0,488.7904265543002,243.13517630054503,360.0385281007775
380554,7513,380554.0,19166.0,380554.0,27007.0,497.1771359996858,245.36432942455195,364.35128571237817
380564,7512,380564.0,19172.0,380564.0,26995.0,505.1249516431975,247.48118592847794,368.4641418040036
380564,7508,380564.0,19119.0,380564.0,26995.0,512.6489968609503,249.4926164868067,372.38653672199393
380564,7510,380564.0,19113.0,380564.0,26986.0,519.7648507988433,251.40626216053954,376.12814161237407
380564,7528,380564.0,19103.0,380564.0,26986.0,526.4882935316564,253.22992343425142,379.6986122918054
380564,7537,380564.0,19124.0,380564.0,27001.0,532.835192086124,254.97095859729177,383.10734506839503
380564,7539,380564.0,19123.0,380564.0,27005.0,538.8215490831993,256.6361040631859,386.3633981258854
380575,7558,380575.0,19147.0,380575.0,27017.0,544.4635738530179,258.2316091368753,389.4755822179651
380575,7550,380575.0,19147.0,380575.0,27020.0,549.7777228904793,259.76350287762864,392.45260907649174
380575,7555,380575.0,19124.0,380575.0,27017.0,554.7806909161657,261.2378107189317,395.3031980867679
380575,7572,380575.0,19096.0,380575.0,27018.0,559.4893378474206,262.66044340062086,398.03608023713514
380575,7572,380575.0,19159.0,380575.0,27035.0,563.9206624473512,264.0368086137966,400.65994156049476
380575,7582,380575.0,19173.0,380575.0,27043.0,568.0918646074871,265.37176645173224,403.18346363706803
380585,7573,380585.0,19145.0,380585.0,27029.0,572.0203763175614,266.67012276905865,405.6154649259066
380585,7564,380585.0,19138.0,380585.0,27032.0,575.7237555357966,267.9369580602091,407.964930155282
380585,7571,380585.0,19130.0,380585.0,27007.0,579.2194363292296,269.17740314631595,410.2408161841971
380585,7566,380585.0,19116.0,380585.0,27013.0,582.5244581687849,270.3962116116735,412.4517069027555
380585,7570,380585.0,19147.0,380585.0,27026.0,585.6552790548777,271.59744857685104,414.6054889038137
380585,7578,380585.0,19157.0,380585.0,27053.0,588.6276597858547,272.7844636281688,416.7092985945367
380595,7587,380595.0,19168.0,380595.0,27036.0,591.4566330074038,273.9601922950692,418.76977489825015
380595,7607,380595.0,19135.0,380595.0,27027.0,594.1566051051998,275.12747431285334,420.79326316550396
380595,7570,380595.0,19136.0,380595.0,27039.0,596.7414993889013,276.2890182340944,422.7857211624721
380595,7591,380595.0,19128.0,380595.0,27037.0,599.224709399684,277.4470547962846,424.7525373999523
380595,7605,380595.0,19172.0,380595.0,27047.0,601.6189104632438,278.6030816816871,426.69849231710873
380595,7609,380595.0,19183.0,380595.0,27061.0,603.9360629717455,279.7580395846503,428.6278419109908
380606,7603,380606.0,19116.0,380606.0,27034.0,606.1875867503126,280.91269085760007,430.5444265199668
380606,7583,380606.0,19170.0,380606.0,27032.0,608.3843681625004,282.06761382638615,432.4516164188377
380606,7586,380606.0,19130.0,380606.0,27035.0,610.5364862605079,283.22287750986936,434.3520293456943
380606,7612,380606.0,19128.0,380606.0,27035.0,612.6529025031272,284.37780349580476,436.24726270206475
380606,7625,380606.0,19192.0,380606.0,27059.0,614.7414577526101,285.53084937864753,438.1378305760978
380606,7618,380606.0,19164.0,380606.0,27092.0,616.8091620972986,286.6797857989563,440.02336827441536
380616,7624,380616.0,19166.0,380616.0,27073.0,618.8624251199956,287.82210844516527,441.90308208404326
380616,7614,380616.0,19179.0,380616.0,27054.0,620.9070584167855,288.95520951391205,443.7760759564709
380616,7619,380616.0,19152.0,380616.0,27063.0,622.9481493230435,290.0763107319997,445.64122527253846
380616,7625,380616.0,19199.0,380616.0,27074.0,624.9899291091883,291.18241301310735,447.49687901558036
380616,7633,380616.0,19206.0,380616.0,27075.0,627.0357326241115,292.2704287847265,449.3407931128986
380616,7637,380616.0,19181.0,380616.0,27083.0,629.0880674659662,293.33752338932743,451.1702484563822
380626,7638,380626.0,19172.0,380626.0,27084.0,631.1487075784107,294.3812629382617,452.98216344683794
380626,7632,380626.0,19154.0,380626.0,27073.0,633.2187181018894,295.399311698383,454.7731343675148
380626,7636,380626.0,19166.0,380626.0,27078.0,635.2983790455085,296.3889725329814,456.53936321354945
380626,7637,380626.0,19191.0,380626.0,27096.0,637.3870664362502,297.34695296099534,458.2765540385427
380626,7664,380626.0,19186.0,380626.0,27112.0,639.4832204579782,298.2695006093998,459.97999448058465
380626,7657,380626.0,19228.0,380626.0,27109.0,641.584485599028,299.1527745996519,461.64484689168853
380637,7659,380637.0,19201.0,380637.0,27104.0,643.687905484377,299.9932607327387,463.2663962569833
380637,7674,380637.0,19201.0,380637.0,27087.0,645.7900085479805,300.78803833954476,464.8400385216504
380637,7669,380637.0,19180.0,380637.0,27113.0,647.8868453531915,301.53470665496127,466.36107828580396
380637,7687,380637.0,19218.0,380637.0,27131.0,649.9740727895523,302.23112663754915,467.8246598136982
380637,7673,380637.0,19186.0,380637.0,27124.0,652.0470407533735,302.8753243706884,469.2260055503433
380637,7681,380637.0,19196.0,380637.0,27155.0,654.1008086003729,303.4655156427506,470.56075790622845
380647,7679,380647.0,19210.0,380647.0,27127.0,656.1300773570796,304.0000655899709,471.8252301852841
380647,7692,380647.0,19185.0,380647.0,27106.0,658.1291268973072,304.4774664329157,473.0164393010825
380647,7689,380647.0,19189.0,380647.0,27113.0,660.0918351592902,304.8963070525525,474.131794931925
380647,7712,380647.0,19214.0,380647.0,27120.0,662.011767448388,305.255165649941,475.16870222810303
380647,7709,380647.0,19222.0,380647.0,27138.0,663.882331976921,305.55268457182586,476.12446671386664
380647,7749,380647.0,19209.0,380647.0,27146.0,665.6970301810019,305.7878779401724,476.9965115896111
380658,7724,380658.0,19189.0,380658.0,27123.0,667.4497878599352,305.96027952682675,477.78264443766597
380658,7710,380658.0,19189.0,380658.0,27135.0,669.1351487854025,306.0697265095474,478.4811143781167
380658,7726,380658.0,19219.0,380658.0,27155.0,670.7481265819805,306.116078636704,479.09053664664674
380658,7742,380658.0,19215.0,380658.0,27147.0,672.2839963548695,306.0992573146836,479.60998213777935
380658,7724,380658.0,19223.0,380658.0,27159.0,673.7383419293691,306.0195479589356,480.0392016026719
380658,7730,380658.0,19193.0,380658.0,27131.0,675.1071443437256,305.87779526905763,480.3787295422775
380668,7721,380668.0,19199.0,380668.0,27129.0,676.3866850840677,305.67529714076494,480.62975245234156
380668,7737,380668.0,19200.0,380668.0,27125.0,677.5733977594458,305.41354896725977,480.7938061646915
380668,7733,380668.0,19216.0,380668.0,27123.0,678.6638282141962,305.09413375347503,480.87249652776995
380668,7761,380668.0,19228.0,380668.0,27142.0,679.6547315274111,304.71888144294326,480.8673870652493
380668,7735,380668.0,19209.0,380668.0,27148.0,680.5432513716034,304.29014967359115,480.78009403759216
380668,7744,380668.0,19201.0,380668.0,27140.0,681.3270138670993,303.81094055712083,480.6125180257453
380678,7743,380678.0,19212.0,380678.0,27127.0,682.0040510292968,303.28476840856354,480.3669711611706
380678,7745,380678.0,19182.0,380678.0,27138.0,682.5727056663528,302.71547463074927,480.046082564743
380678,7760,380678.0,19221.0,380678.0,27157.0,683.0316432637869,302.10710904175784,479.6527166716573
380678,7778,380678.0,19194.0,380678.0,27152.0,683.3800053140534,301.46391597377294,479.19013303790774
380678,7769,380678.0,19202.0,380678.0,27133.0,683.6176980622724,300.7904027520931,478.662207424262
380678,7749,380678.0,19173.0,380678.0,27134.0,683.7455920617336,300.0912920932319,478.07340442285295
380689,7735,380689.0,19156.0,380689.0,27117.0,683.7653714827408,299.37123078404943,477.4285298339296
380689,7751,380689.0,19161.0,380689.0,27111.0,683.6791505253236,298.6343415133265,476.73244276267644
380689,7756,380689.0,19186.0,380689.0,27142.0,683.4892434162632,297.88391114990736,475.9898487080439
380689,7779,380689.0,19203.0,380689.0,27129.0,683.1982761315082,297.1225148474233,475.20533336293323
380689,7758,380689.0,19182.0,380689.0,27115.0,682.8094798960389,296.3524443267927,474.38354185947304
380689,7739,380689.0,19175.0,380689.0,27113.0,682.3268263905895,295.57596669991847,473.52916332650256
380699,7738,380699.0,19176.0,380699.0,27115.0,681.7548082604753,294.7952275757706,472.64672870466194
380699,7753,380699.0,19206.0,380699.0,27127.0,681.0981056234458,294.01212419360513,471.74051106062
380699,7768,380699.0,19220.0,380699.0,27126.0,680.3615310361535,293.2285148063677,470.8146253938584
380699,7758,380699.0,19196.0,380699.0,27138.0,679.5502709831171,292.44666711209237,469.87322863502004
380699,7745,380699.0,19193.0,380699.0,27121.0,678.6700877948381,291.6694984276139,468.92069827786634
380699,7735,380699.0,19157.0,380699.0,27109.0,677.7272349332096,290.9003869438245,467.9616599906822
380709,7728,380709.0,19194.0,380709.0,27094.0,676.7281664081918,290.14277860244056,467.00077704645923
380709,7728,380709.0,19148.0,380709.0,27119.0,675.6792485705009,289.39990923650544,466.0424491561331
380709,7732,380709.0,19192.0,380709.0,27113.0,674.5865934754926,288.6746985314719,465.0907180436607
380709,7739,380709.0,19172.0,380709.0,27121.0,673.456048018751,287.96975904028466,464.14942212032327
380709,7749,380709.0,19165.0,380709.0,27098.0,672.2933265043764,287.28748170757285,463.2223431148159
380709,7732,380709.0,19157.0,380709.0,27096.0,671.1041974124713,286.6300075889577,462.3131441864221
380720,7727,380720.0,19169.0,380720.0,27091.0,669.8945460927924,285.9990533095331,461.42514594520736
380720,7727,380720.0,19160.0,380720.0,27122.0,668.6702484390798,285.39581887342035,460.5611831091081
380720,7738,380720.0,19167.0,380720.0,27106.0,667.4370415370903,284.8210182446346,459.7237278737651
380720,7748,380720.0,19165.0,380720.0,27106.0,666.2005853744528,284.274925403652,458.9151200289354
380720,7715,380720.0,19165.0,380720.0,27092.0,664.9666284070943,283.75741561882825,458.13761232489725
380720,7708,380720.0,19183.0,380720.0,27100.0,663.7409651466958,283.26803632625933,457.39323303615873
380730,7701,380730.0,19165.0,380730.0,27101.0,662.5290965414525,282.8061339290448,456.6836761172536
380730,7710,380730.0,19165.0,380730.0,27102.0,661.3358884293598,282.3709414145774,456.01032007204896
380730,7718,380730.0,19198.0,380730.0,27111.0,660.1654808549504,281.9615903829989,455.37432691274427
380730,7711,380730.0,19160.0,380730.0,27105.0,659.021405596209,281.57720940767643,454.77676247507094
380730,7716,380730.0,19160.0,380730.0,27091.0,657.9067235618626,281.21699745057595,454.2186611496233
380730,7716,380730.0,19160.0,380730.0,27081.0,656.8240908763091,280.8800457047548,453.70091559527634
380740,7714,380740.0,19177.0,380740.0,27099.0,655.7758021213798,280.56514668970857,453.2240521142919
380740,7739,380740.0,19190.0,380740.0,27091.0,654.763877430888,280.27089621136207,452.78813248456026
380740,7707,380740.0,19172.0,380740.0,27088.0,653.7902115760012,279.99598299129656,452.3928105654488
380740,7730,380740.0,19158.0,380740.0,27091.0,652.8566736703144,279.7393240003055,452.03735951738486
380740,7697,380740.0,19169.0,380740.0,27090.0,651.9650602942503,279.49990792443,451.72064536147775
380740,7696,380740.0,19147.0,380740.0,27094.0,651.1169201926704,279.27656333734626,451.4411379698222
380751,7701,380751.0,19154.0,380751.0,27081.0,650.3132990595343,279.06779125092487,451.1969372622308
380751,7721,380751.0,19182.0,380751.0,27100.0,649.5546087578688,278.87168434526416,450.9857660896264
380751,7719,380751.0,19200.0,380751.0,27118.0,648.8407909346104,278.68613125079025,450.80504521666535
380751,7711,380751.0,19155.0,380751.0,27085.0,648.1715847864102,278.5092351110933,450.6521172583125
380751,7710,380751.0,19148.0,380751.0,27079.0,647.5466257741652,278.3394061591506,450.52432418938724
380751,7692,380751.0,19147.0,380751.0,27078.0,646.9653449377003,278.1749705177661,450.4187503073557
380761,7703,380761.0,19213.0,380761.0,27079.0,646.4267801277996,278.0138942980674,450.33192215168344
380761,7702,380761.0,19158.0,380761.0,27106.0,645.9294347652507,277.85405815063814,450.25975284472304
380761,7720,380761.0,19173.0,380761.0,27102.0,645.4713055825708,277.69363306844195,450.1977532280048
380761,7697,380761.0,19141.0,380761.0,27089.0,645.0500348749372,277.5310131275194,450.14131564711624
380761,7687,380761.0,19161.0,380761.0,27084.0,644.6629485256989,277.36447926407345,450.0857791124067
380761,7712,380761.0,19146.0,380761.0,27104.0,644.3069009577009,277.1919644827718,450.02630229146985
380771,7715,380771.0,19175.0,380771.0,27098.0,643.9782225600833,277.0110176932625,449.9578480416795
380771,7717,380771.0,19183.0,380771.0,27120.0,643.6729336131241,276.8189824316227,449.8753646348805
380771,7708,380771.0,19170.0,380771.0,27078.0,643.3869698396492,276.6133197134123,449.7739675349541
380771,7708,380771.0,19163.0,380771.0,27111.0,643.116217337747,276.3918039224499,449.64893570770505
380771,7703,380771.0,19150.0,380771.0,27096.0,642.8564238077603,276.15241979930016,449.49561571135627
380771,7710,380771.0,19161.0,380771.0,27124.0,642.603111677556,275.89312047531183,449.3094745422661
380782,7723,380782.0,19176.0,380782.0,27116.0,642.3515904026311,275.6117218447526,449.08632364605427
380782,7725,380782.0,19171.0,380782.0,27120.0,642.0971186780871,275.3060446462565,448.8225624590112
380782,7718,380782.0,19170.0,380782.0,27085.0,641.8351195736163,274.97413433056454,448.51525543036666
380782,7707,380782.0,19140.0,380782.0,27102.0,641.5612544656162,274.61429367599754,448.1619414549873
380782,7706,380782.0,19142.0,380782.0,27076.0,641.271299249324,274.22484119470334,447.76032961567057
380782,7711,380782.0,19143.0,380782.0,27081.0,640.9609707033424,273.8037674029999,447.3080513100931
380792,7720,380792.0,19206.0,380792.0,27096.0,640.6258812315409,273.34867149517345,446.8025052667203
380792,7720,380792.0,19166.0,380792.0,27118.0,640.2616545004954,272.8571808567355,446.2409331401248
380792,7712,380792.0,19186.0,380792.0,27097.0,639.8640705713676,272.3274689839764,445.6207520761724
380792,7706,380792.0,19143.0,380792.0,27104.0,639.4290868635711,271.75838214155726,444.9398266090734
380792,7702,380792.0,19172.0,380792.0,27081.0,638.952718896258,271.14922338356797,444.1964634324835
380792,7726,380792.0,19158.0,380792.0,27109.0,638.4309367649695,270.4995461027793,443.38927481986815
380802,7709,380802.0,19159.0,380802.0,27089.0,637.8597312848934,269.8091170060043,442.5171353815897
380802,7717,380802.0,19166.0,380802.0,27091.0,637.2352608865096,269.07794734494314,441.579230179817
380802,7706,380802.0,19124.0,380802.0,27085.0,636.5538972569764,268.30625479711415,440.57503638739445
380802,7712,380802.0,19128.0,380802.0,27075.0,635.8121819923829,267.4942305269624,439.5042162557864
380802,7698,380802.0,19141.0,380802.0,27059.0,635.0067712789483,266.64168225291576,438.36645176548063
380802,7705,380802.0,19151.0,380802.0,27086.0,634.1343666914843,265.74791960957407,437.16125132727007
380813,7699,380813.0,19177.0,380813.0,27091.0,633.1916484072896,264.81203156667664,435.88794103579227
380813,7705,380813.0,19142.0,380813.0,27084.0,632.1752574876018,263.83330093530094,434.5459214386228
380813,7696,380813.0,19134.0,380813.0,27065.0,631.0818192386328,262.8113694562199,433.134874140033
380813,7690,380813.0,19138.0,380813.0,27074.0,629.9079369300005,261.74603004434323,431.65469362348944
380813,7701,380813.0,19134.0,380813.0,27067.0,628.6501357418656,260.63696797236923,430.105328460306
380813,7717,380813.0,19181.0,380813.0,27101.0,627.3048966861799,259.4837828912019,428.4867970147124
380823,7714,380823.0,19134.0,380823.0,27063.0,625.8688959639994,258.2862896725418,426.799399906462
380823,7722,380823.0,19144.0,380823.0,27061.0,624.3393203508555,257.04475405146854,425.04384995484213
380823,7692,380823.0,19115.0,380823.0,27050.0,622.7140421752714,255.75976760978796,423.22110305507266
380823,7678,380823.0,19129.0,380823.0,27072.0,620.9915123183258,254.4319300602281,421.3321226914703
380823,7686,380823.0,19109.0,380823.0,27046.0,619.1704198725308,253.06160999287692,419.37785328292426
380823,7675,380823.0,19149.0,380823.0,27069.0,617.2494038566686,251.6488751342586,417.35930721469174
380833,7687,380833.0,19120.0,380833.0,27034.0,615.2269809523723,250.1936265104052,415.27759957983716
380833,7684,380833.0,19134.0,380833.0,27057.0,613.1016124056968,248.6958029443371,413.1339063112586
380833,7683,380833.0,19125.0,380833.0,27043.0,610.8718271674478,247.15546768262587,410.9294144738106
380833,7686,380833.0,19092.0,380833.0,27041.0,608.5363385839504,245.5727467952601,408.66533348384354
380833,7700,380833.0,19157.0,380833.0,27027.0,606.094168848536,243.9477023187468,406.3428842445815
380833,7682,380833.0,19135.0,380833.0,27039.0,603.544835891959,242.2804335765885,403.9632094934216
380844,7666,380844.0,19116.0,380844.0,27041.0,600.8884590559998,240.57143095703455,401.5273530522233
380844,7655,380844.0,19106.0,380844.0,27018.0,598.125603453086,238.82166204652822,399.03635246406054
380844,7656,380844.0,19099.0,380844.0,27002.0,595.2569803838421,237.03226867856094,396.4912102303494
380844,7641,380844.0,19097.0,380844.0,27003.0,592.2832284286728,235.2042573504727,393.8926262390829
380844,7659,380844.0,19110.0,380844.0,27029.0,589.2048257848936,233.33837725086374,391.24078276804914
380844,7650,380844.0,19122.0,380844.0,27022.0,586.0221318048218,231.43522229276306,388.5354795268765
380854,7667,380854.0,19095.0,380854.0,27024.0,582.735561764486,229.49547617753058,385.77647706917423
380854,7651,380854.0,19091.0,380854.0,27010.0,579.3458159223647,227.52000905215723,382.9637187108078
380854,7632,380854.0,19093.0,380854.0,27000.0,575.8540029767528,225.50972252633753,380.09732572439424
380854,7631,380854.0,19096.0,380854.0,27007.0,572.2615344494665,223.4654081278667,377.1774730667994
380854,7632,380854.0,19103.0,380854.0,27010.0,568.5699215006576,221.38780332551238,374.2043338407564
380854,7623,380854.0,19108.0,380854.0,26995.0,564.7806987615985,219.27778438064735,371.1781633139153
380865,7635,380865.0,19095.0,380865.0,26984.0,560.8954771596386,217.13657660122726,368.0993444010956
380865,7595,380865.0,19072.0,380865.0,26995.0,556.9159961659428,214.96580995049777,364.96829543766
380865,7609,380865.0,19060.0,380865.0,26989.0,552.8440458941045,212.76729045182526,361.7854183176473
380865,7594,380865.0,19060.0,380865.0,26956.0,548.6812893482438,210.54261483286226,358.55111936146903
380865,7602,380865.0,19074.0,380865.0,27001.0,544.4291770153781,208.2929278638283,355.2657511207408
380865,7597,380865.0,19072.0,380865.0,26975.0,540.0890043402447,206.01897614253645,351.9296228366105
380875,7584,380875.0,19064.0,380875.0,26971.0,535.662004776402,203.7213105568391,348.5431766763507
380875,7608,380875.0,19047.0,380875.0,26976.0,531.1494257518772,201.40036621964327,345.1070767706907
380875,7578,380875.0,19059.0,380875.0,26959.0,526.5526421461468,199.0563550978801,341.62217865532926
380875,7589,380875.0,19084.0,380875.0,26961.0,521.8732768785931,196.6892303559168,338.0895045635291
380875,7581,380875.0,19107.0,380875.0,26967.0,517.1132455880507,194.29901989042997,334.51023263573245
380875,7584,380875.0,19066.0,380875.0,26950.0,512.2748083198899,191.88638941620093,330.8857445329934
380885,7561,380885.0,19036.0,380885.0,26952.0,507.3606524400556,189.45285024144647,327.2176848684295
380885,7550,380885.0,19034.0,380885.0,26918.0,502.37385492163605,187.0003466014812,323.50789479755485
380885,7540,380885.0,19011.0,380885.0,26927.0,497.3176814175745,184.5306393901792,319.7581954290388
380885,7553,380885.0,19048.0,380885.0,26932.0,492.19540010681976,182.04494156834073,315.97018289436176
380885,7546,380885.0,19052.0,380885.0,26934.0,487.01030043705015,179.5439670929839,312.1452556026228
380885,7527,380885.0,19073.0,380885.0,26913.0,481.7658397548342,177.02836297070365,308.2847987495184
380896,7524,380896.0,19018.0,380896.0,26922.0,476.4656728439569,174.4991682320453,304.3902629491051
380896,7511,380896.0,19033.0,380896.0,26920.0,471.11353187789837,171.95786065371166,300.4631531299043
380896,7505,380896.0,18989.0,380896.0,26915.0,465.7130983269402,169.40599928780364,296.50509561425235
380896,7517,380896.0,19050.0,380896.0,26928.0,460.26795371801643,166.84487154283812,292.51798130539305
380896,7500,380896.0,19030.0,380896.0,26912.0,454.78165567166513,164.27552320316087,288.5041323093376
380896,7489,380896.0,19005.0,380896.0,26877.0,449.2578480297949,161.69906206327317,284.4663684796599
380906,7474,380906.0,19026.0,380906.0,26888.0,443.7002207978792,159.11676159052465,280.40780179240596
380906,7464,380906.0,18980.0,380906.0,26865.0,438.1123238291367,156.52989779520198,276.33150619148876
380906,7455,380906.0,18997.0,380906.0,26878.0,432.4973656724967,153.93952568581005,272.24033195984384
380906,7479,380906.0,19025.0,380906.0,26872.0,426.85812901081454,151.34633692990366,268.1368948733778
380906,7461,380906.0,18999.0,380906.0,26877.0,421.19711388801505,148.75081319979725,264.0236894511195
380906,7454,380906.0,18992.0,380906.0,26841.0,415.5167831605295,146.15348899641413,259.90320074344606
380916,7437,380916.0,18983.0,380916.0,26857.0,409.8196368856135,143.55492526042894,255.77784255904064
380916,7428,380916.0,18983.0,380916.0,26835.0,404.1080831837083,140.95550100892962,251.64979287874473
380916,7436,380916.0,19004.0,380916.0,26826.0,398.3842916740951,138.3553407028659,247.5208700618503
380916,7429,380916.0,18987.0,380916.0,26844.0,392.6501933255492,135.7544663757977,243.39244572667934
380916,7418,380916.0,18992.0,380916.0,26848.0,386.9076023646394,133.1530105962469,239.26550352618875
380916,7423,380916.0,18984.0,380916.0,26824.0,381.1583104204575,130.55130812477256,235.1408842450698
380927,7399,380927.0,18951.0,380927.0,26816.0,375.4041164161409,127.94983387948903,231.01941160136644
380927,7395,380927.0,18969.0,380927.0,26812.0,369.6467941696658,125.34898517506764,226.90175706206
380927,7393,380927.0,18976.0,380927.0,26817.0,363.88799561974474,122.74889035541156,222.78829458522233
380927,7397,380927.0,18971.0,380927.0,26826.0,358.12922318261974,120.14949474799124,218.679157756174
380927,7392,380927.0,18983.0,380927.0,26815.0,352.37196022686845,117.55081262938143,214.57446287582854
380927,7364,380927.0,18987.0,380927.0,26807.0,346.6178118823175,114.95316913595818,210.47450573933975
380937,7358,380937.0,18950.0,380937.0,26798.0,340.86844768851194,112.35738152165118,206.37978841310257
380937,7362,380937.0,18937.0,380937.0,26812.0,335.1254026925178,109.76467332991001,202.29096706455704
380937,7374,380937.0,18993.0,380937.0,26789.0,329.39003847419394,107.17639430703213,198.20888272354512
380937,7352,380937.0,18970.0,380937.0,26810.0,323.6637530899147,104.59408230146349,194.13465876169823
380937,7338,380937.0,18930.0,380937.0,26792.0,317.94815454220566,102.0198003210287,190.06981041887593
380937,7326,380937.0,18936.0,380937.0,26757.0,312.24497511693716,99.45607682171288,186.01628538818824
380947,7315,380947.0,18885.0,380947.0,26758.0,306.5558418855869,96.90539654463052,181.97624720336847
380947,7310,380947.0,18899.0,380947.0,26744.0,300.8820874742198,94.36962228226145,177.95168636215442
380947,7324,380947.0,18952.0,380947.0,26762.0,295.2246921133036,91.84966724662851,173.9441950546037
380947,7326,380947.0,18943.0,380947.0,26751.0,289.5844398949715,89.34577820209753,169.95501673690484
380947,7308,380947.0,18931.0,380947.0,26754.0,283.96221837089996,86.85819457773258,165.9852288369379
380947,7287,380947.0,18914.0,380947.0,26729.0,278.3591700442413,84.38746714805433,162.03585819946784
380958,7282,380958.0,18910.0,380958.0,26736.0,272.77655001481895,81.93430270345812,158.10783411792238
380958,7303,380958.0,18886.0,380958.0,26708.0,267.2155427027342,79.49926253352496,154.20184367657083
380958,7283,380958.0,18935.0,380958.0,26743.0,261.67733509407594,77.08255754806572,150.3182209137621
380958,7282,380958.0,18923.0,380958.0,26727.0,256.16333516245203,74.68416262707785,146.4570195375765
380958,7249,380958.0,18922.0,380958.0,26710.0,250.6752237709929,72.30420971528281,142.61821656332643
380958,7250,380958.0,18880.0,380958.0,26711.0,245.2147671519828,69.94319622629675,138.8017635471491
380968,7234,380968.0,18882.0,380968.0,26720.0,239.7835518059004,67.60173757101654,135.00750160294604
380968,7230,380968.0,18882.0,380968.0,26701.0,234.38279758901348,65.28013902032691,131.2351911425054
380968,7243,380968.0,18903.0,380968.0,26696.0,229.0133056017516,62.97821793644866,127.48458348786693
380968,7257,380968.0,18906.0,380968.0,26708.0,223.67562178418757,60.695507905231636,123.75540079580884
380968,7215,380968.0,18889.0,380968.0,26682.0,218.37036357062345,58.431603949683165,120.0473356042063
380968,7221,380968.0,18862.0,380968.0,26686.0,213.09836352386327,56.18627242415522,116.36006595951665
380978,7212,380978.0,18853.0,380978.0,26695.0,207.86053278595688,53.95916977371874,112.69322744539039
380978,7188,380978.0,18904.0,380978.0,26692.0,202.65770335147107,51.7495081278806,109.04649187501451
380978,7192,380978.0,18936.0,380978.0,26672.0,197.49049770205806,49.55626473617917,105.41974051312292
380978,7193,380978.0,18835.0,380978.0,26708.0,192.35921160833033,47.378821938882766,101.8131679132087
380978,7190,380978.0,18893.0,380978.0,26631.0,187.26385173683752,45.217143217198526,98.22731636973577
380978,7176,380978.0,18854.0,380978.0,26652.0,182.20427745611607,43.07139224825801,94.6629114591426
380989,7158,380989.0,18873.0,380989.0,26645.0,177.1802282761314,40.94169921956524,91.12048043901956
380989,7170,380989.0,18877.0,380989.0,26649.0,172.19120656641172,38.82820594051884,87.60015417906402
380989,7182,380989.0,18876.0,380989.0,26661.0,167.236456380667,36.73121975354388,84.1017983141976
380989,7177,380989.0,18863.0,380989.0,26651.0,162.31521648694394,34.65139326435468,80.62526921706234
380989,7144,380989.0,18840.0,380989.0,26613.0,157.42701287088857,32.58972143554797,77.17056408556971
380989,7151,380989.0,18848.0,380989.0,26616.0,152.5716588413609,30.54730340473691,73.73764658537527
380999,7133,380999.0,18853.0,380999.0,26651.0,147.7490497697308,28.525119936394276,70.32616660770896
380999,7114,380999.0,18858.0,380999.0,26647.0,142.95897709998434,26.52405717625095,66.93558614292704
380999,7133,380999.0,18861.0,380999.0,26613.0,138.2009737749504,24.545120010756023,63.565591878070336
380999,7118,380999.0,18809.0,380999.0,26625.0,133.4742639379151,22.589555727001425,60.21622586623653
380999,7117,380999.0,18854.0,380999.0,26611.0,128.77786751482836,20.658697708881732,56.88772010736818
380999,7099,380999.0,18785.0,380999.0,26588.0,124.11067554018302,18.753678884100793,53.58033859499329
381008,7120,381008.0,18838.0,381008.0,26578.0,119.47143756637718,16.87519701540799,50.29416813402116
381008,7127,381008.0,18813.0,381008.0,26622.0,114.85887367816258,15.023398583694359,47.02889637246966
381008,7111,381008.0,18791.0,381008.0,26594.0,110.27199007194008,13.197891359386574,43.783912980192554
381008,7076,381008.0,18835.0,381008.0,26576.0,105.71028051146436,11.397723759317728,40.558590297761555
381008,7074,381008.0,18801.0,381008.0,26576.0,101.17352631965537,9.621391711679053,37.352269921680374
381008,7075,381008.0,18826.0,381008.0,26571.0,96.66142360123138,7.867000551577689,34.164032144833016
381019,7091,381019.0,18855.0,381019.0,26590.0,92.17346470733708,6.132505091016867,30.992626707269665
381019,7078,381019.0,18835.0,381019.0,26595.0,87.70914680383237,4.416100772554728,27.836674165750082
381019,7066,381019.0,18824.0,381019.0,26587.0,83.26822018709515,2.71660406869114,24.695014471026468
381019,7041,381019.0,18816.0,381019.0,26547.0,78.85069303769797,1.033468029768244,21.566899233886943
381019,7045,381019.0,18776.0,381019.0,26552.0,74.45659666403469,-0.6335224617214408,18.451792962400532
381019,7032,381019.0,18773.0,381019.0,26567.0,70.08574193817367,-2.284730002571621,15.349036258339083
381029,7036,381029.0,18810.0,381029.0,26568.0,65.73762072493298,-3.9211100914824897,12.257822278883737
381029,7034,381029.0,18811.0,381029.0,26534.0,61.411434095173604,-5.544209809899428,9.17740958229848
381029,7031,381029.0,18793.0,381029.0,26542.0,57.10619674329587,-7.155776395429427,6.107138305186254
381029,7009,381029.0,18770.0,381029.0,26539.0,52.82082453937255,-8.75756861058943,3.046245645323552
381029,7019,381029.0,18793.0,381029.0,26532.0,48.55410608151817,-10.351557035732128,-0.006217796288410682
381029,7013,381029.0,18811.0,381029.0,26548.0,44.30464934729639,-11.940049799277972,-3.0513222216205804
381039,7015,381039.0,18803.0,381039.0,26537.0,40.07094716376662,-13.525432030717013,-6.090114192449391
381039,7016,381039.0,18791.0,381039.0,26520.0,35.85153118121889,-15.10982252286442,-9.123478503520175
381039,6999,381039.0,18784.0,381039.0,26519.0,31.645113208299904,-16.695015847218883,-12.152166215357227
381039,6988,381039.0,18766.0,381039.0,26514.0,27.45061276520812,-18.282675453321815,-15.176946322270624
381039,6986,381039.0,18767.0,381039.0,26517.0,23.267040537242565,-19.874601630209952,-18.198682708397996
381039,6974,381039.0,18809.0,381039.0,26507.0,19.0933591843434,-21.472863808140858,-21.218303988687182
381050,6973,381050.0,18792.0,381050.0,26526.0,14.928406533016187,-23.079568463260642,-24.23672287357232
381050,6977,381050.0,18770.0,381050.0,26520.0,10.77088118204233,-24.6964851707161,-27.25467265173279
381050,6974,381050.0,18755.0,381050.0,26497.0,6.61942495935034,-26.32504476639565,-30.272517430113055
381050,6944,381050.0,18764.0,381050.0,26483.0,2.472723343011012,-27.966687300638284,-33.29027693376895
381050,6959,381050.0,18750.0,381050.0,26479.0,-1.6705440821333468,-29.623136779593437,-36.307908353426626
381050,6965,381050.0,18792.0,381050.0,26476.0,-5.8117816700627145,-31.296410392783798,-39.325584180358476
381060,6961,381060.0,18773.0,381060.0,26502.0,-9.952335305299357,-32.9885682436248,-42.34374342051444
381060,6939,381060.0,18777.0,381060.0,26476.0,-14.093267112872127,-34.701367442946605,-45.362902017931106
381060,6929,381060.0,18755.0,381060.0,26483.0,-18.235354852916316,-36.43611596678619,-48.38343699135396
381060,6927,381060.0,18767.0,381060.0,26448.0,-22.37929573193503,-38.193768723110225,-51.40558307021013
381060,6930,381060.0,18756.0,381060.0,26468.0,-26.525855571660827,-39.97504722508347,-54.42961955952245
381060,6903,381060.0,18754.0,381060.0,26425.0,-30.675880342111213,-41.780477607072044,-57.456087552915335
381071,6916,381071.0,18794.0,381071.0,26464.0,-34.83031979136308,-43.610326723732015,-60.485956535533546
381071,6905,381071.0,18751.0,381071.0,26451.0,-38.9902833847035,-45.46437358303638,-63.52063715016271
381071,6900,381071.0,18730.0,381071.0,26442.0,-43.157025316092245,-47.34177109627714,-66.5618097417755
381071,6899,381071.0,18745.0,381071.0,26429.0,-47.33190105743802,-49.24130575895293,-69.61132362675721
381071,6905,381071.0,18748.0,381071.0,26467.0,-51.51631766995388,-51.16170923391775,-72.67123179476499
381071,6901,381071.0,18742.0,381071.0,26445.0,-55.711598913504645,-53.101637368984655,-75.74365540617708
381081,6894,381081.0,18730.0,381081.0,26452.0,-59.9188076117681,-55.05954334656366,-78.83048004677596
381081,6876,381081.0,18710.0,381081.0,26436.0,-64.13867094326838,-57.03374856799954,-81.93318723394196
381081,6856,381081.0,18692.0,381081.0,26406.0,-68.37170171887635,-59.02274370223205,-85.05293039830747
381081,6851,381081.0,18725.0,381081.0,26426.0,-72.61848324440223,-61.02553376903268,-88.19078851187692
381081,6847,381081.0,18710.0,381081.0,26418.0,-76.87994978312815,-63.04171969874113,-91.34796864511179
381081,6857,381081.0,18772.0,381081.0,26437.0,-81.1574865360725,-65.07119295489429,-94.52573278598072
381091,6849,381091.0,18725.0,381091.0,26426.0,-85.45282280335914,-67.11359299323192,-97.72512983373491
381091,6847,381091.0,18719.0,381091.0,26403.0,-89.7678498277287,-69.16791409811344,-100.94679176713589
381091,6828,381091.0,18686.0,381091.0,26401.0,-94.10452719047407,-71.23263195357839,-104.19098621075398
381091,6857,381091.0,18714.0,381091.0,26410.0,-98.46487365609005,-73.3061536818297,-107.45781002919574
381091,6839,381091.0,18716.0,381091.0,26413.0,-102.85085824871783,-75.38704296907079,-110.74720824228035
381091,6832,381091.0,18727.0,381091.0,26395.0,-107.26419150016784,-77.47383212367356,-114.05880409394865
381102,6822,381102.0,18695.0,381102.0,26407.0,-111.70624953840593,-79.56472467322538,-117.39177907893816
381102,6813,381102.0,18662.0,381102.0,26383.0,-116.17816941608476,-81.65762567407072,-120.74486365471068
381102,6794,381102.0,18670.0,381102.0,26361.0,-120.68099826160471,-83.75059895406326,-124.11643259656393
381102,6807,381102.0,18676.0,381102.0,26328.0,-125.21584764794045,-85.84233851483086,-127.5048426496524
381102,6804,381102.0,18694.0,381102.0,26387.0,-129.7839398188375,-87.93222917241667,-130.90887896295965
381102,6810,381102.0,18717.0,381102.0,26387.0,-134.38645467231095,-90.01999445531985,-134.3277659773392
381112,6804,381112.0,18676.0,381112.0,26343.0,-139.02428270028946,-92.10522117657277,-137.76071245360367
381112,6777,381112.0,18662.0,381112.0,26347.0,-143.6978720579471,-94.18719377041427,-141.20670909003292
381112,6770,381112.0,18656.0,381112.0,26351.0,-148.4073093752218,-96.26520637846716,-144.66476291758636
381112,6790,381112.0,18696.0,381112.0,26355.0,-153.1525169232516,-98.33889737168687,-148.13402412776514
381112,6772,381112.0,18696.0,381112.0,26354.0,-157.93325853014267,-100.4081064721984,-151.61362323221005
381112,6769,381112.0,18685.0,381112.0,26344.0,-162.74897448884605,-102.47240019714309,-155.10246952575153
381122,6736,381122.0,18638.0,381122.0,26329.0,-167.59875712108243,-104.5308565601328,-158.59919301977754
381122,6745,381122.0,18636.0,381122.0,26310.0,-172.48155403837205,-106.5824146284848,-162.10228452458546
381122,6726,381122.0,18634.0,381122.0,26323.0,-177.39640687775147,-108.62646719293414,-165.61034690565248
381122,6732,381122.0,18653.0,381122.0,26317.0,-182.34256769683185,-110.66317850799538,-169.12223292998425
381122,6734,381122.0,18678.0,381122.0,26328.0,-187.3194809183707,-112.69332879589035,-172.63695642029074
381122,6720,381122.0,18666.0,381122.0,26303.0,-192.32666727883213,-114.71783931416641,-176.15351841707593
381133,6719,381133.0,18646.0,381133.0,26302.0,-197.36361301290913,-116.73737056910628,-179.67085885077955
381133,6704,381133.0,18650.0,381133.0,26297.0,-202.4297573849284,-118.75229518491184,-183.1879600674493
381133,6704,381133.0,18643.0,381133.0,26299.0,-207.52454216056628,-120.76288351268846,-186.70393427539483
381133,6708,381133.0,18665.0,381133.0,26306.0,-212.64742792539153,-122.76936805456305,-190.2179715007199
381133,6706,381133.0,18627.0,381133.0,26277.0,-217.79779429944807,-124.77185026778506,-193.72921891308675
381133,6687,381133.0,18644.0,381133.0,26287.0,-222.97478073384775,-126.77027032781047,-197.2367635668569
381143,6657,381143.0,18622.0,381143.0,26283.0,-228.1772965937301,-128.76452686813622,-200.73971049289332
381143,6653,381143.0,18615.0,381143.0,26270.0,-233.4043138858426,-130.75464146566026,-204.23720034631287
381143,6666,381143.0,18615.0,381143.0,26250.0,-238.6551977964271,-132.74093751800285,-207.72844151802764
381143,6658,381143.0,18630.0,381143.0,26246.0,-243.92974925425568,-134.72415458597487,-211.21291054105131
381143,6668,381143.0,18625.0,381143.0,26273.0,-249.2279858499873,-136.70535450740164,-214.69054677752166
381143,6655,381143.0,18637.0,381143.0,26233.0,-254.54988777976598,-138.68568604323247,-218.16171272396997
381153,6619,381153.0,18608.0,381153.0,26247.0,-259.89529297672357,-140.6662023023393,-221.62709600163913
381153,6631,381153.0,18651.0,381153.0,26240.0,-265.26405678694175,-142.64778959929544,-225.08774729945736
381153,6638,381153.0,18623.0,381153.0,26266.0,-270.6562616830819,-144.63105795958614,-228.54504580731356
381153,6636,381153.0,18622.0,381153.0,26255.0,-276.07213501422495,-146.61617503311828,-232.00042616462326
381153,6637,381153.0,18610.0,381153.0,26242.0,-281.51175169436647,-148.6028660077356,-235.45506925638682
381153,6612,381153.0,18600.0,381153.0,26228.0,-286.9748172907847,-150.59059975552344,-238.90983608833335
381164,6597,381164.0,18572.0,381164.0,26218.0,-292.46068734158086,-152.57885396281125,-242.36545887204431
381164,6592,381164.0,18595.0,381164.0,26217.0,-297.96859458278834,-154.5674329499036,-245.82278489695182
381164,6583,381164.0,18571.0,381164.0,26233.0,-303.4978857823529,-156.55669248684194,-249.2828768644743
381164,6593,381164.0,18642.0,381164.0,26237.0,-309.04810226134396,-158.54747530997355,-252.74686037724706
381164,6605,381164.0,18581.0,381164.0,26234.0,-314.6188494852247,-160.54073911674863,-256.21559545412805
381164,6562,381164.0,18600.0,381164.0,26195.0,-320.20954276440034,-162.5372149771104,-259.6894675026485
381174,6556,381174.0,18563.0,381174.0,26216.0,-325.8193528764135,-164.53746040384362,-263.16849604926307
381174,6551,381174.0,18604.0,381174.0,26190.0,-331.44746293623496,-166.542112783017,-266.65257098702017
381174,6564,381174.0,18602.0,381174.0,26196.0,-337.0932722736827,-168.55189792884994,-270.14158158857725
381174,6555,381174.0,18590.0,381174.0,26195.0,-342.75629842854005,-170.5673512456296,-273.6354585250127
381174,6555,381174.0,18584.0,381174.0,26184.0,-348.4359371598556,-172.588611698051,-277.13416329816386
381174,6538,381174.0,18558.0,381174.0,26184.0,-354.13130309919916,-174.61551927937666,-280.6376574701331
381184,6523,381184.0,18545.0,381184.0,26171.0,-359.8412360684198,-176.64794311910396,-284.14592252316123
381184,6517,381184.0,18548.0,381184.0,26159.0,-365.56445083257347,-178.6861864297773,-287.6590445186486
381184,6497,381184.0,18567.0,381184.0,26178.0,-371.29973723568105,-180.73122139995485,-291.1773170111942
381184,6515,381184.0,18612.0,381184.0,26157.0,-377.0461055278997,-182.78448284457704,-294.7012448402779
381184,6487,381184.0,18568.0,381184.0,26177.0,-382.802810141544,-184.84728129685146,-298.2314305785712
381184,6483,381184.0,18551.0,381184.0,26151.0,-388.5693308748365,-186.9204041664458,-301.7684549277393
381195,6484,381195.0,18548.0,381195.0,26153.0,-394.34542888537203,-189.00430764603664,-305.3128360417163
381195,6486,381195.0,18569.0,381195.0,26148.0,-400.13116418459595,-191.09948650330193,-308.8650839505019
381195,6480,381195.0,18574.0,381195.0,26136.0,-405.92675929238396,-193.20647331503324,-312.42577519174733
381195,6477,381195.0,18551.0,381195.0,26149.0,-411.7324203583694,-195.32556426626513,-315.99558489929734
381195,6457,381195.0,18546.0,381195.0,26146.0,-417.5482472891031,-197.4567065988005,-319.57523383346523
381195,6454,381195.0,18531.0,381195.0,26120.0,-423.37427335256314,-199.5996812669569,-323.16537866566637
381205,6443,381205.0,18523.0,381205.0,26135.0,-429.21058164247813,-201.7543925958622,-326.7666114411676
381205,6451,381205.0,18543.0,381205.0,26125.0,-435.05737293253424,-203.92107674133837,-330.37953582122174
381205,6436,381205.0,18552.0,381205.0,26129.0,-440.91492016075813,-206.10026503219984,-334.004737952504
381205,6440,381205.0,18539.0,381205.0,26121.0,-446.78347025200003,-208.29250421260633,-337.64268634942636
381205,6418,381205.0,18515.0,381205.0,26109.0,-452.66318636416804,-210.49816950756514,-341.2936862432569
381205,6405,381205.0,18541.0,381205.0,26084.0,-458.55419935960356,-212.71756477344474,-344.95797540441345
381215,6411,381215.0,18535.0,381215.0,26107.0,-464.4567563557814,-214.95101628369684,-348.63594523857364
381215,6414,381215.0,18522.0,381215.0,26108.0,-470.3712842178678,-217.19876586396703,-352.3282321602366
381215,6413,381215.0,18547.0,381215.0,26105.0,-476.29823442217923,-219.4608495493348,-356.03552542977644
381215,6402,381215.0,18525.0,381215.0,26080.0,-482.2378448697715,-221.73700628034402,-359.7583565431231
381215,6385,381215.0,18510.0,381215.0,26086.0,-488.1900291069817,-224.02661259162602,-363.4971332382229
381215,6368,381215.0,18499.0,381215.0,26070.0,-494.15447389753206,-226.32882948429705,-367.25231084568844
381226,6378,381226.0,18492.0,381226.0,26068.0,-500.1308439646215,-228.64292709784348,-371.0245228833409
381226,6363,381226.0,18510.0,381226.0,26076.0,-506.11888749445507,-230.9685160282267,-374.8146385000136
381226,6357,381226.0,18517.0,381226.0,26080.0,-512.1184100334162,-233.30550317951133,-378.623692108649
381226,6348,381226.0,18524.0,381226.0,26061.0,-518.1292665438194,-235.65379240044552,-382.45270137278334
381226,6350,381226.0,18475.0,381226.0,26065.0,-524.1513938876548,-238.01302132785293,-386.3025637454058
381226,6344,381226.0,18480.0,381226.0,26049.0,-530.1847845833047,-240.3826804985273,-390.1740983125575
381236,6329,381236.0,18496.0,381236.0,26068.0,-536.2294160058407,-242.76247510456,-394.0680932778071
381236,6346,381236.0,18504.0,381236.0,26054.0,-542.2852018166813,-245.1524113357155,-397.98523966318896
381236,6326,381236.0,18495.0,381236.0,26070.0,-548.3519109863337,-247.55252434593586,-401.92596132203863
381236,6298,381236.0,18490.0,381236.0,26032.0,-554.4291029853187,-249.96263437624918,-405.8902687387254
381236,6282,381236.0,18429.0,381236.0,26042.0,-560.5163118798434,-252.3824325696873,-409.87778433566814
381236,6285,381236.0,18474.0,381236.0,26007.0,-566.6134267292715,-254.8119106491539,-413.8879494065952
381246,6297,381246.0,18463.0,381246.0,26009.0,-572.7208939112909,-257.25172769787645,-417.9203135248553
381246,6295,381246.0,18495.0,381246.0,26026.0,-578.8395632912244,-259.7031012019445,-421.9747607346995
381246,6298,381246.0,18486.0,381246.0,26033.0,-584.9703502403315,-262.1673680428933,-426.05145195413127
381246,6269,381246.0,18465.0,381246.0,26004.0,-591.113980611816,-264.64561812552813,-430.15053014036476
381246,6272,381246.0,18463.0,381246.0,26015.0,-597.270964357679,-267.1386495200905,-434.2719605800528
381246,6243,381246.0,18455.0,381246.0,26004.0,-603.4417512200209,-269.6471722314327,-438.415579156774
381257,6267,381257.0,18464.0,381257.0,25996.0,-609.6268984886202,-272.1719752247054,-442.58113813210025
381257,6251,381257.0,18441.0,381257.0,25999.0,-615.827084865656,-274.7139635921345,-446.7683211141023
381257,6235,381257.0,18479.0,381257.0,25993.0,-622.0429987530063,-277.2741346413833,-450.9767474592923
381257,6232,381257.0,18441.0,381257.0,25982.0,-628.2753215274057,-279.85347668761295,-455.20594588212793
381257,6214,381257.0,18424.0,381257.0,25957.0,-634.5248523283749,-282.45292408363406,-459.45541061332534
381257,6217,381257.0,18417.0,381257.0,25971.0,-640.7926347010626,-285.07361534930703,-463.72480285726414
381267,6215,381267.0,18472.0,381267.0,25952.0,-647.080000072235,-287.71718116649794,-468.0141316188055
381267,6225,381267.0,18476.0,381267.0,25965.0,-653.3884673154699,-290.3854955617183,-472.32378641535286
381267,6206,381267.0,18443.0,381267.0,25973.0,-659.7195246738902,-293.08003795855547,-476.6544340165435
381267,6188,381267.0,18436.0,381267.0,25956.0,-666.0744963666949,-295.80159863082133,-481.0068055096326
381267,6178,381267.0,18421.0,381267.0,25942.0,-672.4546496602028,-298.55052583669095,-485.38154771196025
381267,6180,381267.0,18444.0,381267.0,25953.0,-678.8614108196076,-301.32704712940074,-489.7792785455611
381278,6181,381278.0,18439.0,381278.0,25943.0,-685.2964389592428,-304.13130056187305,-494.20065814864483
381278,6188,381278.0,18414.0,381278.0,25946.0,-691.7614828683979,-306.96318303430905,-498.64632594949654
381278,6162,381278.0,18403.0,381278.0,25917.0,-698.2581543271623,-309.8223800497803,-503.1168433189164
381278,6149,381278.0,18393.0,381278.0,25907.0,-704.787852610324,-312.7086719952116,-507.61281784434345
381278,6164,381278.0,18395.0,381278.0,25916.0,-711.3518806037875,-315.622255895744,-512.1351606373561
381278,6133,381278.0,18426.0,381278.0,25941.0,-717.9515238092075,-318.5638256345637,-516.6851589301714
381288,6132,381288.0,18442.0,381288.0,25938.0,-724.5880618390987,-321.534264924273,-521.2641554895815
381288,6137,381288.0,18422.0,381288.0,25903.0,-731.2628297366849,-324.53408252974646,-525.8731322970788
381288,6140,381288.0,18428.0,381288.0,25895.0,-737.9771853963568,-327.5630086300755,-530.5126699819215
381288,6106,381288.0,18378.0,381288.0,25885.0,-744.7323445928553,-330.6199931306687,-535.1832748818267
381288,6104,381288.0,18376.0,381288.0,25892.0,-751.5293648738212,-333.7035654606223,-539.885675038324
381288,6111,381288.0,18387.0,381288.0,25911.0,-758.3693045858528,-336.81232113438796,-544.6208240483829
381298,6104,381298.0,18403.0,381298.0,25898.0,-765.2532514191433,-339.9451101399619,-549.3896269152563
381298,6097,381298.0,18409.0,381298.0,25874.0,-772.1821698444338,-343.10077137141826,-554.1926671436472
381298,6085,381298.0,18375.0,381298.0,25869.0,-779.1567900178896,-346.2777652718602,-559.0302406340728
381298,6064,381298.0,18358.0,381298.0,25863.0,-786.1776494291538,-349.47414994540554,-563.9026052907951
381298,6065,381298.0,18357.0,381298.0,25865.0,-793.2452508424922,-352.687943286557,-568.8101447983868
381298,6053,381298.0,18365.0,381298.0,25864.0,-800.3602171135,-355.9174745382929,-573.7533534660174
381309,6057,381309.0,18386.0,381309.0,25868.0,-807.5233335834412,-359.16138535553193,-578.7327068861912
381309,6058,381309.0,18347.0,381309.0,25864.0,-814.7354638652604,-362.4183735185911,-583.7484811292211
381309,6026,381309.0,18353.0,381309.0,25847.0,-821.9974219698155,-365.6870678960989,-588.8006095042366
381309,6036,381309.0,18332.0,381309.0,25829.0,-829.3099585960324,-368.96619862158593,-593.8887084211732
381309,6040,381309.0,18366.0,381309.0,25837.0,-836.673810966928,-372.2547873020817,-599.0122703320865
381309,6048,381309.0,18385.0,381309.0,25851.0,-844.0895551293643,-375.5520071960839,-604.17076675095
381319,6033,381319.0,18364.0,381319.0,25826.0,-851.5572708151166,-378.8567053002846,-609.3634994708304
381319,5992,381319.0,18319.0,381319.0,25833.0,-859.076358832817,-382.16708825807956,-614.5894205816326
381319,5996,381319.0,18327.0,381319.0,25806.0,-866.6457356226878,-385.480991038944,-619.8471338031519
381319,5988,381319.0,18300.0,381319.0,25822.0,-874.2641803597669,-388.79643298178433,-625.1349982429247
381319,5977,381319.0,18323.0,381319.0,25802.0,-881.930494653369,-392.1119877169338,-630.451188915925
381319,5995,381319.0,18337.0,381319.0,25815.0,-889.6434607141948,-395.42681119969495,-635.7936695569177
381329,5982,381329.0,18358.0,381329.0,25801.0,-897.4016688585534,-398.7402975458319,-641.1601101642325
381329,5964,381329.0,18330.0,381329.0,25814.0,-905.203301411464,-402.0515529298318,-646.5477716030398
381329,5957,381329.0,18319.0,381329.0,25800.0,-913.0460814994985,-405.3591186229695,-651.9533593691222
381329,5940,381329.0,18290.0,381329.0,25787.0,-920.9274050065906,-408.6611496223368,-657.3729174337705
381329,5950,381329.0,18366.0,381329.0,25788.0,-928.8444675601795,-411.9557028617553,-662.8018492973658
381329,5926,381329.0,18333.0,381329.0,25786.0,-936.7942834212154,-415.24057651754083,-668.2349834074746
381340,5937,381340.0,18333.0,381340.0,25794.0,-944.7736388663687,-418.51280165970456,-673.666519169135
381340,5934,381340.0,18302.0,381340.0,25763.0,-952.7790044443763,-421.76843998411755,-679.0898921658049
381340,5902,381340.0,18300.0,381340.0,25756.0,-960.8064143067937,-425.00284355013287,-684.497781388214
381340,5898,381340.0,18275.0,381340.0,25760.0,-968.851478673016,-428.2110569017006,-689.8822991573268
381340,5906,381340.0,18299.0,381340.0,25731.0,-976.9095396761923,-431.38813910834574,-695.2351636285431
381340,5914,381340.0,18307.0,381340.0,25752.0,-984.9756530080823,-434.5292298189712,-700.5477893708714
381350,5898,381350.0,18319.0,381350.0,25738.0,-993.0443044471331,-437.62927044421076,-705.8113084297532
381350,5884,381350.0,18283.0,381350.0,25728.0,-1001.1091629659924,-440.6826356155432,-711.0165059611058
381350,5867,381350.0,18263.0,381350.0,25713.0,-1009.1630911843987,-443.683104115889,-716.1538225021609
381350,5877,381350.0,18289.0,381350.0,25750.0,-1017.1982959971119,-446.62419172463825,-721.2134272243761
381350,5865,381350.0,18286.0,381350.0,25726.0,-1025.2063747370798,-449.49935846044303,-726.1850953475088
381350,5853,381350.0,18299.0,381350.0,25716.0,-1033.1782328405423,-452.3018293703278,-731.0579547930579
381360,5836,381360.0,18290.0,381360.0,25687.0,-1041.1040675625154,-455.0242800185835,-735.8204909628374
381360,5839,381360.0,18240.0,381360.0,25689.0,-1048.97347672424,-457.65873295289805,-740.4608646339483
381360,5817,381360.0,18262.0,381360.0,25678.0,-1056.7755632906533,-460.19683942455237,-744.9672499003836
381360,5834,381360.0,18250.0,381360.0,25704.0,-1064.4989632590255,-462.6302936531878,-749.3279557650169
381360,5846,381360.0,18228.0,381360.0,25681.0,-1072.1317223334654,-464.95104801198056,-753.5312973594798
381360,5831,381360.0,18257.0,381360.0,25688.0,-1079.660959019668,-467.15142248848076,-757.5654013286585
381371,5793,381371.0,18255.0,381371.0,25687.0,-1087.0725917790082,-469.2241187981156,-761.4181117043186
381371,5799,381371.0,18252.0,381371.0,25668.0,-1094.3514564788834,-471.16202202337854,-765.0769602264029
381371,5777,381371.0,18192.0,381371.0,25660.0,-1101.4816365065212,-472.95811381028216,-768.5292197184383
381371,5792,381371.0,18276.0,381371.0,25679.0,-1108.4466559303373,-474.6057199606598,-771.7620429428976
381371,5784,381371.0,18268.0,381371.0,25674.0,-1115.2294552719036,-476.09854624309366,-774.7624667616478
381371,5779,381371.0,18270.0,381371.0,25665.0,-1121.8122414880067,-477.4301586078643,-777.5172455899145
381381,5756,381381.0,18233.0,381381.0,25654.0,-1128.1763928260634,-478.59353334180065,-780.012779670244
381381,5744,381381.0,18222.0,381381.0,25635.0,-1134.3025688834518,-479.5812075882371,-782.2352721599475
381381,5734,381381.0,18226.0,381381.0,25648.0,-1140.1709758780967,-480.3857734461627,-784.1710001176629
381381,5738,381381.0,18251.0,381381.0,25637.0,-1145.7616015702858,-481.00019376600886,-785.8065055547736
381381,5752,381381.0,18267.0,381381.0,25668.0,-1151.0542484566795,-481.4176585813177,-787.1285855695432
381381,5734,381381.0,18263.0,381381.0,25640.0,-1156.0283517166542,-481.6311321598306,-788.1241204491325
381391,5724,381391.0,18233.0,381391.0,25638.0,-1160.6628112449312,-481.6330300446728,-788.7799567047568
381391,5715,381391.0,18226.0,381391.0,25642.0,-1164.9360468789937,-481.41533999186424,-789.0830033142875
381391,5717,381391.0,18250.0,381391.0,25640.0,-1168.8261763168966,-480.96999681887064,-789.0203796990863
381391,5719,381391.0,18261.0,381391.0,25645.0,-1172.3111039308633,-480.2890115620504,-788.5794458641433
381391,5713,381391.0,18254.0,381391.0,25644.0,-1175.3684807079892,-479.36423985001613,-787.7477717803386
381391,5684,381391.0,18227.0,381391.0,25641.0,-1177.9756979287044,-478.1872046137016,-786.5131233179849
381402,5695,381402.0,18207.0,381402.0,25620.0,-1180.1100751774757,-476.74933564167753,-784.8635420335854
381402,5684,381402.0,18194.0,381402.0,25642.0,-1181.7491280618212,-475.042561491811,-782.7875556297373
381402,5687,381402.0,18216.0,381402.0,25614.0,-1182.8707180448364,-473.0598958308815,-780.274402095765
381402,5691,381402.0,18254.0,381402.0,25643.0,-1183.4530932096727,-470.79561573593844,-777.3141849234084
381402,5686,381402.0,18258.0,381402.0,25654.0,-1183.4748834048928,-468.2448925442154,-773.8979131967086
381402,5682,381402.0,18245.0,381402.0,25645.0,-1182.9151030892983,-465.4032498270659,-770.0173681869094
381412,5678,381412.0,18220.0,381412.0,25636.0,-1181.753237442983,-462.266405170201,-765.6650051853089
381412,5673,381412.0,18239.0,381412.0,25637.0,-1179.9694083730965,-458.8305788786978,-760.8341235659087
381412,5682,381412.0,18216.0,381412.0,25664.0,-1177.5445502439916,-455.0928933303411,-755.519117113259
381412,5690,381412.0,18254.0,381412.0,25690.0,-1174.460504903559,-451.05159596337205,-749.7154506784153
381412,5678,381412.0,18273.0,381412.0,25667.0,-1170.7000244769151,-446.70601492035814,-743.4193633431343
381412,5666,381412.0,18262.0,381412.0,25665.0,-1166.246858575097,-442.05624942812864,-736.6277232196533
381422,5686,381422.0,18228.0,381422.0,25647.0,-1161.086021587325,-437.1029814667573,-729.3383112556904
381422,5684,381422.0,18265.0,381422.0,25673.0,-1155.204032134693,-431.84773454236927,-721.5503054609287
381422,5702,381422.0,18284.0,381422.0,25702.0,-1148.588965291391,-426.2931646770944,-713.2645426630024
381422,5714,381422.0,18304.0,381422.0,25717.0,-1141.230386812385,-420.4428897771894,-704.4833534193097
381422,5707,381422.0,18306.0,381422.0,25719.0,-1133.1192689133873,-414.3010475230001,-695.2101926654362
381422,5723,381422.0,18290.0,381422.0,25717.0,-1124.2479931721211,-407.8720349789487,-685.4494566032992
381433,5728,381433.0,18288.0,381433.0,25710.0,-1114.6104529824524,-401.1606220441692,-675.2066233298482
381433,5736,381433.0,18350.0,381433.0,25767.0,-1104.202150570903,-394.17219373026643,-664.4885025467801
381433,5759,381433.0,18323.0,381433.0,25761.0,-1093.020250318335,-386.91267589161424,-653.3032299011215
381433,5761,381433.0,18339.0,381433.0,25783.0,-1081.0635844811034,-379.3882494661967,-641.6600016865497
381433,5764,381433.0,18322.0,381433.0,25778.0,-1068.3326680639634,-371.6053265849314,-629.5689098631296
381433,5775,381433.0,18326.0,381433.0,25781.0,-1054.8298422776245,-363.57082882229787,-617.0410349469661
381443,5800,381443.0,18328.0,381443.0,25791.0,-1040.559477752808,-355.2925407199366,-604.0887033486489
381443,5812,381443.0,18354.0,381443.0,25825.0,-1025.5280532713805,-346.7793643134008,-590.7257185670601
381443,5844,381443.0,18400.0,381443.0,25836.0,-1009.7440876077357,-338.0412679865776,-576.9673634628901
381443,5857,381443.0,18390.0,381443.0,25860.0,-993.2180011690062,-329.088876748642,-562.8302116126852
381443,5870,381443.0,18394.0,381443.0,25872.0,-975.9619901289336,-319.93306181126906,-548.3319415247269
381443,5878,381443.0,18409.0,381443.0,25883.0,-957.9900300912639,-310.5848711330186,-533.4912422233685
381453,5904,381453.0,18399.0,381453.0,25916.0,-939.3180210263797,-301.0556710614727,-518.3277812966137
381453,5935,381453.0,18418.0,381453.0,25951.0,-919.9638989841709,-291.35730443589466,-502.8620850455905
381453,5951,381453.0,18484.0,381453.0,25955.0,-899.9475825221253,-281.5021109767993,-487.1152410554279
381453,5968,381453.0,18432.0,381453.0,25965.0,-879.2908645686907,-271.50263958595997,-471.10864917985515
381453,5997,381453.0,18445.0,381453.0,25991.0,-858.0173988289902,-261.37143464015253,-454.8640165572997
381453,6017,381453.0,18466.0,381453.0,25980.0,-836.1527274073377,-251.1212783540518,-438.40348061170823
381464,6041,381464.0,18439.0,381464.0,26015.0,-813.7242699519201,-240.76554072362097,-421.7497662402751
381464,6080,381464.0,18477.0,381464.0,26053.0,-790.7612795619796,-230.3184059263777,-404.9262793281075
381464,6113,381464.0,18536.0,381464.0,26076.0,-767.294707902693,-219.79492010048781,-387.95692133715
381464,6151,381464.0,18500.0,381464.0,26093.0,-743.3569300098613,-209.2106475519365,-370.8657092072564
381464,6160,381464.0,18541.0,381464.0,26088.0,-718.9814471811093,-198.5812586989188,-353.67655799426035
381464,6193,381464.0,18526.0,381464.0,26123.0,-694.202749039303,-187.92246209000606,-336.4133529613312
381474,6231,381474.0,18547.0,381474.0,26140.0,-669.0563093971091,-177.250109996876,-319.1000836904504
381474,6258,381474.0,18608.0,381474.0,26185.0,-643.5785104077843,-166.58018160879237,-301.76077433044884
381474,6292,381474.0,18622.0,381474.0,26194.0,-617.806457423927,-155.92839844601244,-284.4192011081483
381474,6328,381474.0,18594.0,381474.0,26212.0,-591.7777886174897,-145.30964147016962,-267.0986088152581
381474,6353,381474.0,18576.0,381474.0,26226.0,-565.5304943480106,-134.7378614967704,-249.821609659792
381474,6376,381474.0,18594.0,381474.0,26233.0,-539.1027794619317,-124.22664432391161,-232.6102536094719
381485,6415,381485.0,18627.0,381485.0,26247.0,-512.5330199070761,-113.78976633980369,-215.48618854273116
381485,6454,381485.0,18677.0,381485.0,26292.0,-485.85970516524094,-103.44115935555851,-198.4707981840583
381485,6491,381485.0,18687.0,381485.0,26310.0,-459.1212337161787,-93.194322666267,-181.585120818284
381485,6510,381485.0,18652.0,381485.0,26312.0,-432.35563920994474,-83.06174651021126,-164.84959665856627
381485,6531,381485.0,18662.0,381485.0,26328.0,-405.60045252205623,-73.05492325197253,-148.28397507532156
381485,6569,381485.0,18691.0,381485.0,26352.0,-378.89274905022785,-63.18478803421908,-131.90743768633348
381495,6612,381495.0,18700.0,381495.0,26389.0,-352.2691736144991,-53.461940931942706,-115.73863917923978
381495,6650,381495.0,18714.0,381495.0,26410.0,-325.76574747978134,-43.89651263784225,-99.79549120300021
381495,6666,381495.0,18731.0,381495.0,26418.0,-299.41755547434684,-34.497976891462486,-84.09484455000927
381495,6693,381495.0,18715.0,381495.0,26452.0,-273.2585710724163,-25.275063126645193,-68.65228963453342
381495,6725,381495.0,18719.0,381495.0,26446.0,-247.32167496677312,-16.23585402567494,-53.4820807931834
381495,6763,381495.0,18736.0,381495.0,26440.0,-221.638669727241,-7.388055551816251,-38.59719806664066
381505,6786,381505.0,18771.0,381505.0,26470.0,-196.24016400589983,1.260862339525886,-24.009628968906327
381505,6824,381505.0,18792.0,381505.0,26505.0,-171.15540418097487,9.703901456471954,-9.730610782056033
381505,6853,381505.0,18790.0,381505.0,26521.0,-146.41211720491447,17.93498188936212,4.229494858551334
381505,6853,381505.0,18781.0,381505.0,26528.0,-122.03640215792029,25.949196796786907,17.861517367648162
381505,6887,381505.0,18761.0,381505.0,26529.0,-98.05279507587011,33.74263888028378,31.157600455529746
381505,6918,381505.0,18816.0,381505.0,26569.0,-74.48444751444583,41.311997034095214,44.11111327666299
381516,6959,381516.0,18834.0,381516.0,26566.0,-51.35313675268981,48.654455538914476,56.7166168691715
381516,6990,381516.0,18873.0,381516.0,26610.0,-28.679021885983047,55.76815089695924,68.96999538341913
381516,7023,381516.0,18820.0,381516.0,26590.0,-6.480296880338415,62.65275534508277,80.8686308546711
381516,7009,381516.0,18811.0,381516.0,26597.0,15.227045551243805,69.30951927667707,92.41142737771315
381516,7032,381516.0,18843.0,381516.0,26598.0,36.429123304056134,75.74073818114488,103.59856941986618
381516,7050,381516.0,18819.0,381516.0,26611.0,57.11380465628156,81.94927749002449,114.43117216367352
381526,7098,381526.0,18869.0,381526.0,26629.0,77.27045735540742,87.9384689390219,124.91106672637352
381526,7115,381526.0,18867.0,381526.0,26668.0,96.89003812018416,93.71224883958996,135.04083153030342
381526,7133,381526.0,18868.0,381526.0,26643.0,115.96534886713278,99.27541672967965,144.82402119860217
381526,7133,381526.0,18834.0,381526.0,26648.0,134.49113818608782,104.63370869451774,154.2652690994397
381526,7160,381526.0,18867.0,381526.0,26660.0,152.46395116309907,109.79349497460294,163.3700610548101
381526,7169,381526.0,18864.0,381526.0,26702.0,169.88190581369827,114.76144773507758,172.1445261237842
381536,7199,381536.0,18844.0,381536.0,26675.0,186.74456826143705,119.54442568928727,180.59553974962034
381536,7227,381536.0,18886.0,381536.0,26694.0,203.05297529814868,124.14938715967355,188.73085373150388
381536,7228,381536.0,18829.0,381536.0,26690.0,218.80976791758167,128.58324838527506,196.55898162292226
381536,7240,381536.0,18858.0,381536.0,26703.0,234.01925568168735,132.85266257021135,204.08900323047362
381536,7240,381536.0,18864.0,381536.0,26701.0,248.6872620835543,136.9637194545329,211.33043972130463
381536,7273,381536.0,18908.0,381536.0,26725.0,262.8208681493019,140.92190922821834,218.29318286061084
381547,7290,381547.0,18912.0,381547.0,26731.0,276.4282969435325,144.7325347504639,224.98751652528802
381547,7292,381547.0,18911.0,381547.0,26734.0,289.5189812532194,148.40124405166796,231.42422410496567
381547,7302,381547.0,18900.0,381547.0,26724.0,302.1035915798685,151.9342822462832,237.61461551495688
381547,7315,381547.0,18875.0,381547.0,26735.0,314.19390676380397,155.33833113058557,243.57037026557794
381547,7320,381547.0,18922.0,381547.0,26750.0,325.80265237128947,158.62014268525775,249.30334800477033
381547,7350,381547.0,18926.0,381547.0,26749.0,336.94341170276164,161.78641148875556,254.8255503189398
381557,7347,381557.0,18901.0,381557.0,26757.0,347.6306312767973,164.8439849881646,260.14917067652107
381557,7356,381557.0,18907.0,381557.0,26748.0,357.87964345364185,167.7999378624463,265.2865702316192
381557,7368,381557.0,18918.0,381557.0,26752.0,367.7065924071994,170.6613564554678,270.2501365982971
381557,7356,381557.0,18891.0,381557.0,26757.0,377.1282791443141,173.43514470514674,275.05208995892644
381557,7366,381557.0,18921.0,381557.0,26779.0,386.16193719771036,176.12789384197862,279.70437574697826
381557,7394,381557.0,18948.0,381557.0,26793.0,394.82499309660636,178.74585206375463,284.2187669590768
381567,7408,381567.0,18950.0,381567.0,26779.0,403.1350356963029,181.29521658260768,288.60709071505516
381567,7394,381567.0,18916.0,381567.0,26780.0,411.10997559399664,183.78250094721932,292.8813054840556
381567,7411,381567.0,18918.0,381567.0,26768.0,418.76807229423207,186.21447353308105,297.0533071730075
381567,7407,381567.0,18911.0,381567.0,26785.0,426.12776378940225,188.59772567995526,301.1346316635713
381567,7428,381567.0,18950.0,381567.0,26792.0,433.2075084362814,190.9383569785303,305.13628209837134
381567,7443,381567.0,18941.0,381567.0,26808.0,440.0257660316872,193.24204665206616,309.0687736389382
381578,7433,381578.0,18938.0,381578.0,26785.0,446.6010851149316,195.5143084656424,312.9422617765383
381578,7423,381578.0,18911.0,381578.0,26802.0,452.95208341327213,197.7605181649505,316.7665251777264
381578,7421,381578.0,18924.0,381578.0,26784.0,459.0971508432415,199.98560601079947,320.5507825015708
381578,7444,381578.0,18928.0,381578.0,26824.0,465.0540606547039,202.19371577377575,324.3035331058012
381578,7463,381578.0,18953.0,381578.0,26807.0,470.83982811479154,204.38813763936167,328.03257312626874
381578,7457,381578.0,18957.0,381578.0,26828.0,476.4708606841384,206.5715351290325,331.7451299932708
381588,7472,381588.0,18963.0,381588.0,26820.0,481.9631239124884,208.74626962946968,335.4479532364827
381588,7478,381588.0,18941.0,381588.0,26824.0,487.3321788408988,210.91458161927198,339.1473127766948
381588,7481,381588.0,18954.0,381588.0,26828.0,492.5931895584804,213.07851316419618,342.8489348440153
381588,7492,381588.0,18981.0,381588.0,26841.0,497.76093684044747,215.23977600520055,346.55794412906585
381588,7492,381588.0,18995.0,381588.0,26847.0,502.8498110720682,217.399909206455,350.2789030519143
381588,7486,381588.0,18981.0,381588.0,26830.0,507.8737617233485,219.56067166676655,354.01588120243775
381598,7489,381598.0,18990.0,381598.0,26839.0,512.8461442258713,221.7242808887977,357.77237874369143
381598,7490,381598.0,18951.0,381598.0,26851.0,517.7794921383786,223.893323908152,361.55114817171204
381598,7493,381598.0,18961.0,381598.0,26841.0,522.6853173851589,226.07040507207716,365.3541106229834
381598,7498,381598.0,18949.0,381598.0,26847.0,527.5739685240662,228.2576924873681,369.1823261703415
381598,7512,381598.0,18932.0,381598.0,26874.0,532.4545507250289,230.4565290056342,373.03594519451553
381598,7525,381598.0,19016.0,381598.0,26884.0,537.334953674263,232.667239224242,376.91431686264843
381609,7533,381609.0,18987.0,381609.0,26866.0,542.2219911601503,234.8893854267933,380.81624256722284
381609,7526,381609.0,18973.0,381609.0,26886.0,547.1215347120922,237.12228019828274,384.7400748366955
381609,7523,381609.0,18979.0,381609.0,26876.0,552.0384832244379,239.36509599476187,388.68362735459687
381609,7553,381609.0,19003.0,381609.0,26904.0,556.9766068299864,241.61664454284318,392.64411875148903
381609,7558,381609.0,18971.0,381609.0,26887.0,561.9385239047115,243.8753239317573,396.61821904984856
381609,7563,381609.0,19011.0,381609.0,26920.0,566.925877867912,246.13916868020107,400.6021280239203
381619,7571,381619.0,19012.0,381619.0,26890.0,571.9394910864505,248.40590974002015,404.5916309433097
381619,7562,381619.0,18958.0,381619.0,26914.0,576.9793723851305,250.67306473781895,408.582073137516
381619,7556,381619.0,18989.0,381619.0,26903.0,582.0445781400488,252.9377509249046,412.5682494730419
381619,7595,381619.0,19012.0,381619.0,26927.0,587.1330058849362,255.19633222405702,416.5443282964186
381619,7606,381619.0,19006.0,381619.0,26964.0,592.2413997389863,257.4444509207424,420.5039698876474
381619,7608,381619.0,19054.0,381619.0,26941.0,597.3656466521261,259.67741376176014,424.4406800873596
381629,7633,381629.0,18987.0,381629.0,26942.0,602.5010762059821,261.89053797534706,428.3480977675273
381629,7627,381629.0,18976.0,381629.0,26927.0,607.6426386327682,264.07908499897655,432.2198925611267
381629,7625,381629.0,19061.0,381629.0,26927.0,612.7849895356942,266.2378245665762,436.049396506323
381629,7640,381629.0,19072.0,381629.0,26963.0,617.9224329076012,268.3610853433879,439.82930980050617
381629,7656,381629.0,19036.0,381629.0,26981.0,623.0488480947865,270.4434986960956,443.55176420536145
381629,7663,381629.0,19055.0,381629.0,26973.0,628.1577830282765,272.48046641700466,447.20871600858834
381640,7658,381640.0,19021.0,381640.0,26968.0,633.2426086899884,274.4679923507082,450.7922397676675
381640,7654,381640.0,19012.0,381640.0,26969.0,638.2965124161285,276.4022747218181,454.2944721541571
381640,7652,381640.0,19017.0,381640.0,26952.0,643.3122877580599,278.27923738687855,457.7073599595883
381640,7655,381640.0,19048.0,381640.0,27042.0,648.2820486212172,280.0942146548553,461.02252619764886
381640,7705,381640.0,19055.0,381640.0,27020.0,653.1970885068502,281.8420650381386,464.23161478673774
381640,7708,381640.0,19099.0,381640.0,26973.0,658.0481057010888,283.5176473021815,467.326846951707
381650,7716,381650.0,19053.0,381650.0,27028.0,662.8256752942384,285.11636351300945,470.3010550039876
381650,7694,381650.0,19062.0,381650.0,27004.0,667.5205231122104,286.634394856357,473.14739207620414
381650,7744,381650.0,19101.0,381650.0,27020.0,672.1234804417318,288.0686040663636,475.85929682921005
381650,7755,381650.0,19091.0,381650.0,27056.0,676.625526617737,289.4165983738011,478.43064252597117
381650,7745,381650.0,19064.0,381650.0,27027.0,681.0181180950917,290.6769915258708,480.85597354643437
381650,7722,381650.0,19076.0,381650.0,27020.0,685.293373245564,291.8493691444531,483.13067169096223
381660,7731,381660.0,19050.0,381660.0,27046.0,689.4437954351973,292.9339534220674,485.25082579319553
381660,7731,381660.0,19023.0,381660.0,27051.0,693.4618341527947,293.93119787738294,487.2131123988124
381660,7788,381660.0,19061.0,381660.0,27050.0,697.3397337043232,294.84132836048593,489.01494667435475
381660,7771,381660.0,19080.0,381660.0,27034.0,701.0698215008,295.6641338570085,490.6546162872903
381660,7776,381660.0,19090.0,381660.0,27033.0,704.6449306096802,296.3992924304048,492.13115347232826
381660,7782,381660.0,19035.0,381660.0,27051.0,708.0585520734638,297.04678911389186,493.4440991446743
381671,7782,381671.0,19058.0,381671.0,27051.0,711.3047718678423,297.60683685893497,494.5934383680659
381671,7795,381671.0,19077.0,381671.0,27067.0,714.3782315108331,298.0795231504351,495.57974969287613
381671,7822,381671.0,19134.0,381671.0,27084.0,717.2742076317538,298.46490677411117,496.40445706023877
381671,7792,381671.0,19067.0,381671.0,27084.0,719.9888066274717,298.763625443653,497.0701478243485
381671,7802,381671.0,19057.0,381671.0,27060.0,722.5190479035139,298.97720479553334,497.5808151839418
381671,7809,381671.0,19091.0,381671.0,27026.0,724.8627184525569,299.10771457863046,497.94172542869296
381681,7815,381681.0,19032.0,381681.0,27026.0,727.0182599293508,299.1573608932843,498.1588511874436
381681,7804,381681.0,19044.0,381681.0,27039.0,728.9847915069373,299.12821679066224,498.238261093143
381681,7798,381681.0,19108.0,381681.0,27031.0,730.7620560778275,299.0219778386688,498.1858603045881
381681,7834,381681.0,19055.0,381681.0,27050.0,732.3502776897093,298.8401028113964,498.00743312514874
381681,7829,381681.0,19099.0,381681.0,27051.0,733.7502034286263,298.5842240944936,497.708791228736
381681,7832,381681.0,19067.0,381681.0,27034.0,734.9633520047536,298.25633599361663,497.2959281432944
381692,7816,381692.0,19060.0,381692.0,27041.0,735.9921472460269,297.8587568432757,496.7750381431299
381692,7837,381692.0,19104.0,381692.0,27046.0,736.8398291942326,297.39402472554485,496.1524195941457
381692,7840,381692.0,19086.0,381692.0,27036.0,737.5103855731606,296.8649675466492,495.43444468748567
381692,7822,381692.0,19088.0,381692.0,27056.0,738.0086128071382,296.2749817917704,494.62760547793937
381692,7839,381692.0,19087.0,381692.0,27013.0,738.3401263523963,295.6281798805993,493.73852876498074
381692,7816,381692.0,19071.0,381692.0,27016.0,738.511253405656,294.92932911121625,492.7738159243056
381702,7809,381702.0,19094.0,381702.0,27011.0,738.5288584045182,294.18375002819016,491.739689265637
381702,7822,381702.0,19079.0,381702.0,27046.0,738.40009909591,293.3972894139166,490.6417664788937
381702,7840,381702.0,19097.0,381702.0,27043.0,738.1323011606408,292.576400111259,489.48523212444275
381702,7839,381702.0,19026.0,381702.0,27070.0,737.7331312759144,291.72813321204166,488.27527849063813
381702,7816,381702.0,19058.0,381702.0,27037.0,737.2108316043584,290.8597914639313,487.0175161366243
381702,7810,381702.0,19029.0,381702.0,27018.0,736.5741653587812,289.9784035462062,485.71806658075934
381712,7821,381712.0,19042.0,381712.0,27045.0,735.8321278184422,289.0903873010252,484.38330052594154
381712,7832,381712.0,19050.0,381712.0,27056.0,734.9937888098586,288.20145633865394,483.0196625961486
381712,7820,381712.0,19035.0,381712.0,27021.0,734.0683918348293,287.3166645783366,481.63382522613966
381712,7806,381712.0,19001.0,381712.0,27035.0,733.0654383758238,286.4403821218804,480.23277687196696
381712,7793,381712.0,19048.0,381712.0,27016.0,731.9945162590867,285.5760464720605,478.82364600283336
381712,7791,381712.0,19018.0,381712.0,26989.0,730.8649506966544,284.7259864433513,477.4134326665243
381723,7795,381723.0,19061.0,381723.0,27024.0,729.6855084062445,283.8915534064983,476.0087040665885
381723,7834,381723.0,19086.0,381723.0,27016.0,728.4643609312012,283.07348896038343,474.6154401110118
381723,7820,381723.0,19112.0,381723.0,27028.0,727.2093898505645,282.27257552708045,473.2391926431042
381723,7798,381723.0,18997.0,381723.0,27008.0,725.928544221684,281.49022580643896,471.8853051963128
381723,7791,381723.0,19060.0,381723.0,26999.0,724.6298169233188,280.7283047833651,470.5589158430057
381723,7795,381723.0,19029.0,381723.0,27012.0,723.3209104732649,279.9884614926613,469.2647793916479
381733,7807,381733.0,19077.0,381733.0,27015.0,722.0090190699096,279.27188115884377,468.0071617324833
381733,7791,381733.0,19080.0,381733.0,27019.0,720.7008581538887,278.5795993211077,466.78994581578684
381733,7807,381733.0,19059.0,381733.0,27023.0,719.4027490059384,277.91296101756325,465.6168236538615
381733,7786,381733.0,19058.0,381733.0,27019.0,718.1206347174824,277.27382834226415,464.491446725379
381733,7801,381733.0,18980.0,381733.0,26978.0,716.8600475673255,276.6642975314791,463.4174233569927
381733,7792,381733.0,19016.0,381733.0,27002.0,715.6260721351925,276.08598016388714,462.3980516610033
381743,7794,381743.0,19071.0,381743.0,26988.0,714.4233383777321,275.53942315048437,461.43598624009775
381743,7824,381743.0,19067.0,381743.0,27004.0,713.2560849776393,275.0243636256889,460.5331299715924
381743,7796,381743.0,19074.0,381743.0,26989.0,712.128343408661,274.5405252811213,459.6906941238981
381743,7800,381743.0,19026.0,381743.0,27003.0,711.0440968706605,274.0880596374318,458.9092527045911
381743,7791,381743.0,19035.0,381743.0,26998.0,710.0072156397581,273.6673509614938,458.1887808820505
381743,7790,381743.0,19047.0,381743.0,27005.0,709.0212779865632,273.27858956814305,457.528724007121
381754,7790,381754.0,19044.0,381754.0,27010.0,708.0894404610374,272.9216072847862,456.92809925857625
381754,7802,381754.0,19013.0,381754.0,27005.0,707.2143958814817,272.5959204356059,456.38560969218923
381754,7775,381754.0,19029.0,381754.0,27015.0,706.39839868999,272.3005978704713,455.89974036829994
381754,7804,381754.0,19042.0,381754.0,27000.0,705.6432564024428,272.0340471468611,455.4688102904068
381754,7786,381754.0,19044.0,381754.0,27009.0,704.950303270623,271.794066975642,455.09096603763993
381754,7780,381754.0,19045.0,381754.0,26974.0,704.320404668027,271.578095151903,454.7640766717852
381764,7805,381764.0,19064.0,381764.0,26998.0,703.7539233509091,271.3834213361716,454.4855097439525
381764,7790,381764.0,19051.0,381764.0,27023.0,703.2507325633527,271.20737286047586,454.25199489160207
381764,7782,381764.0,19069.0,381764.0,27029.0,702.810296212111,271.0474918575334,454.0598645030818
381764,7780,381764.0,19047.0,381764.0,26995.0,702.4316056495167,270.901637014516,453.90545906323524
381764,7792,381764.0,19038.0,381764.0,27008.0,702.1130155812187,270.767941223753,453.7851994614623
381764,7797,381764.0,19059.0,381764.0,27014.0,701.8522260264536,270.64463531882,453.69538709079114
381774,7795,381774.0,19048.0,381774.0,27014.0,701.6464245508404,270.5299464009861,453.6321426692027
381774,7804,381774.0,19068.0,381774.0,27016.0,701.4924330192512,270.4221881897047,453.59151425953354
381774,7793,381774.0,19036.0,381774.0,27010.0,701.386788128274,270.31987750962594,453.56955021803236
381774,7790,381774.0,19035.0,381774.0,26989.0,701.3257376069898,270.2216705490153,453.562238036984
381774,7790,381774.0,19040.0,381774.0,27012.0,701.3051380327199,270.1261169150656,453.56531730526433
381774,7797,381774.0,19034.0,381774.0,27019.0,701.3203474756228,270.0314581883382,453.5741733375649
381785,7815,381785.0,19059.0,381785.0,27029.0,701.3662567913018,269.9356187569347,453.5840038638854
381785,7810,381785.0,19092.0,381785.0,27020.0,701.4374880433452,269.83644160376,453.5901031008865
381785,7806,381785.0,19042.0,381785.0,27011.0,701.528604393129,269.73212054137576,453.587988132289
381785,7795,381785.0,19024.0,381785.0,27014.0,701.6341373523386,269.6213513632307,453.573311085088
381785,7801,381785.0,19051.0,381785.0,27027.0,701.7484396687788,269.5029530518257,453.5417414049931
381785,7825,381785.0,19052.0,381785.0,27032.0,701.8655886561621,269.37553382382316,453.4890207441225
381795,7824,381795.0,19030.0,381795.0,27025.0,701.9795364516274,269.2375379904127,453.41114810242703
381795,7806,381795.0,19059.0,381795.0,27019.0,702.0843657311831,269.0873235764728,453.304478821358
381795,7810,381795.0,19037.0,381795.0,27018.0,702.1743293059669,268.92315134908193,453.16565256208395
381795,7801,381795.0,19032.0,381795.0,26984.0,702.2436697429065,268.7431763752562,452.9913949087621
381795,7815,381795.0,19026.0,381795.0,27021.0,702.2864600194393,268.54532276670943,452.7782412775712
381795,7821,381795.0,19039.0,381795.0,27040.0,702.296600989378,268.32708619477864,452.52244227583935
381805,7836,381805.0,19070.0,381805.0,27012.0,702.2679920413752,268.08554958786294,452.2202347817911
381805,7809,381805.0,19060.0,381805.0,27015.0,702.1947537224285,267.81771934846864,451.86808626316275
381805,7814,381805.0,19048.0,381805.0,27020.0,702.0712677705541,267.5208968363473,451.4626230628669
381805,7819,381805.0,19017.0,381805.0,27017.0,701.8920246276782,267.19268249162053,451.0005200142415
381805,7817,381805.0,19057.0,381805.0,27018.0,701.6515255086658,266.8306511352995,450.47851541653046
381805,7833,381805.0,19053.0,381805.0,27018.0,701.344340391382,266.4321842187479,449.89344017413623
381816,7834,381816.0,19055.0,381816.0,27033.0,700.9652634171879,265.9946634971343,449.2422591805765
381816,7813,381816.0,19044.0,381816.0,27002.0,700.5094667133524,265.51569027349717,448.52214730957985
381816,7805,381816.0,19030.0,381816.0,27002.0,699.9724544801703,264.9930550707852,447.73044023730324
381816,7810,381816.0,19027.0,381816.0,27021.0,699.3497992860925,264.42450840231584,446.864437926851
381816,7815,381816.0,19035.0,381816.0,27004.0,698.6369359439134,263.80751484889356,445.9213259692158
381816,7827,381816.0,19084.0,381816.0,27022.0,697.829191200115,263.1392637191179,444.8982674851345
381826,7825,381826.0,19087.0,381826.0,27010.0,696.9219765308658,262.41713672102736,443.79249973340075
381826,7816,381826.0,19033.0,381826.0,27013.0,695.9109681301154,261.63929881723556,442.60139301753736
381826,7824,381826.0,19032.0,381826.0,26986.0,694.7921548363718,260.80473237402913,441.32241936263983
381826,7824,381826.0,19033.0,381826.0,27006.0,693.5618269900613,259.9127247815308,439.95298652591373
381826,7812,381826.0,19087.0,381826.0,27024.0,692.216601464936,258.96257049819775,438.4903478900551
381826,7837,381826.0,19018.0,381826.0,27012.0,690.753454660695,257.95379312639636,436.93179676573163
381836,7806,381836.0,18980.0,381836.0,26994.0,689.1697696361825,256.8862035261699,435.2749043675635
381836,7797,381836.0,19042.0,381836.0,27007.0,687.4633145077315,255.75935281397335,433.51748989648667
381836,7807,381836.0,19054.0,381836.0,26998.0,685.632036845805,254.5721836711222,431.65748065581533
381836,7806,381836.0,18973.0,381836.0,27022.0,683.6738825861637,253.32330698311898,429.692931425706
381836,7818,381836.0,19034.0,381836.0,27012.0,681.5868520128986,252.0110801918787,427.6222173280585
381836,7812,381836.0,19085.0,381836.0,27024.0,679.3691937165609,250.63348538049144,425.44428488984545
381847,7803,381847.0,19042.0,381847.0,27004.0,677.0195585021739,249.18860853157202,423.158829812014
381847,7798,381847.0,19014.0,381847.0,26983.0,674.5370060440728,247.67523028026693,420.76627600474876
381847,7794,381847.0,19021.0,381847.0,26984.0,671.9208946856965,246.09267623456873,418.2675154244342
381847,7792,381847.0,19036.0,381847.0,26989.0,669.170775837703,244.4403700954755,415.66361107231376
381847,7796,381847.0,19054.0,381847.0,26986.0,666.286359778033,242.71781611497047,412.95571406915417
381847,7803,381847.0,19041.0,381847.0,26998.0,663.2675811997001,240.92495627028566,410.1451745348995
381857,7777,381857.0,19024.0,381857.0,26951.0,660.1147179683373,239.06244278341586,407.2336377919313
381857,7771,381857.0,18993.0,381857.0,26954.0,656.8283769077526,237.13151635634142,404.22289311988754
381857,7766,381857.0,19018.0,381857.0,26957.0,653.4092838687569,235.13359331094165,401.1145195317066
381857,7764,381857.0,19004.0,381857.0,26980.0,649.8580743629207,233.06996431661412,397.9097352821931
381857,7768,381857.0,19041.0,381857.0,26970.0,646.1752324702582,230.9418414371741,394.6096311689088
381857,7766,381857.0,19016.0,381857.0,26986.0,642.3611557391398,228.75064619772155,391.2155366420892
381867,7766,381867.0,19016.0,381867.0,26953.0,638.4162792781849,226.49826542689505,387.7292616709217
381867,7756,381867.0,18988.0,381867.0,26952.0,634.3411821231123,224.18703602676808,384.15309896712137
381867,7757,381867.0,19006.0,381867.0,26934.0,630.1366272924602,221.81950313034088,380.48960269576344
381867,7762,381867.0,19008.0,381867.0,26962.0,625.8035861038837,219.39825715341192,376.7413702563556
381867,7754,381867.0,18998.0,381867.0,26947.0,621.3433296963121,216.92600143815338,372.91106585092984
381867,7756,381867.0,18992.0,381867.0,26934.0,616.7575573679312,214.40565410349143,369.00158861577137
381878,7728,381878.0,18992.0,381878.0,26920.0,612.0484463341518,211.84031402133823,365.0160735763652
381878,7727,381878.0,18956.0,381878.0,26926.0,607.218541899985,209.2331232033129,360.95769699863956
381878,7727,381878.0,18988.0,381878.0,26924.0,602.2705628535529,206.58705787831227,356.82954709475706
381878,7714,381878.0,18963.0,381878.0,26910.0,597.207298061978,203.9047756552302,352.63464700071023
381878,7720,381878.0,19024.0,381878.0,26922.0,592.0316103712636,201.1887230701703,348.37599838342885
381878,7705,381878.0,19002.0,381878.0,26918.0,586.7464606988531,198.44155806962408,344.0566354591181
381888,7698,381888.0,18979.0,381888.0,26891.0,581.3549097262483,195.6666202139553,339.67970753673774
381888,7700,381888.0,18955.0,381888.0,26901.0,575.8600788807183,192.86796484164844,335.2484442792724
381888,7694,381888.0,18968.0,381888.0,26907.0,570.2651372880221,190.04995501374208,330.7660582199704
381888,7702,381888.0,18971.0,381888.0,26898.0,564.5733874467826,187.2169453706304,326.235817155198
381888,7685,381888.0,18889.0,381888.0,26915.0,558.7884090445891,184.3731528783461,321.6612539281688
381888,7673,381888.0,18951.0,381888.0,26877.0,552.914137358764,181.52230756019725,317.0463374307409
381899,7655,381899.0,18925.0,381899.0,26861.0,546.9547668427555,178.66725307313297,312.3954306663835
381899,7650,381899.0,18931.0,381899.0,26878.0,540.9145222680766,175.80994020480338,307.7130074131885
381899,7653,381899.0,18943.0,381899.0,26876.0,534.7974713262311,172.95161689914934,303.0034734021826
381899,7654,381899.0,18966.0,381899.0,26875.0,528.607520214069,170.09305689467507,298.2713043563862
381899,7648,381899.0,18965.0,381899.0,26856.0,522.3485718318918,167.23498275554155,293.52123766289196
381899,7643,381899.0,18928.0,381899.0,26848.0,516.0246987328499,164.37846875022498,288.75826658933676
381909,7621,381909.0,18935.0,381909.0,26831.0,509.6402072464946,161.5249511854446,283.9874571269892
381909,7623,381909.0,18932.0,381909.0,26835.0,503.1995663333137,158.67596555811502,279.2137249121355
381909,7623,381909.0,18957.0,381909.0,26848.0,496.707316380914,155.83305367314588,274.4417440786483
381909,7606,381909.0,18932.0,381909.0,26848.0,490.1680852897955,152.9979580528232,269.6761072810559
381909,7577,381909.0,18928.0,381909.0,26830.0,483.5865801585004,150.17280205192554,264.9216051919247
381909,7597,381909.0,18912.0,381909.0,26800.0,476.9674087096144,147.3600147976926,260.18329343148207
381919,7569,381919.0,18903.0,381919.0,26792.0,470.3149144618299,144.56207981060652,255.46620106515905
381919,7581,381919.0,18904.0,381919.0,26776.0,463.63316918221494,141.78128329261287,250.7748828786948
381919,7569,381919.0,18908.0,381919.0,26801.0,456.9260314092619,139.01957938036475,246.1131228768021
381919,7578,381919.0,18921.0,381919.0,26799.0,450.19725067455346,136.27865121504095,241.48397099415044
381919,7561,381919.0,18905.0,381919.0,26767.0,443.4506253889083,133.5601171710455,236.88997730613374
381919,7535,381919.0,18902.0,381919.0,26782.0,436.69007463117134,130.86568183805844,232.333265439537
381930,7531,381930.0,18868.0,381930.0,26776.0,429.9194881249607,128.19705563850545,227.815443074208
381930,7545,381930.0,18875.0,381930.0,26812.0,423.14251414910785,125.55564707296111,223.33769956737515
381930,7539,381930.0,18945.0,381930.0,26759.0,416.36259488340716,122.94238371389245,218.90112707206967
381930,7533,381930.0,18912.0,381930.0,26771.0,409.5832187130073,120.35810711877592,214.50688667172483
381930,7512,381930.0,18868.0,381930.0,26742.0,402.8080898653408,117.80414497930904,210.15603331059017
381930,7509,381930.0,18888.0,381930.0,26747.0,396.0410877680869,115.2822651538303,205.8492301856663
381940,7470,381940.0,18848.0,381940.0,26743.0,389.28607671747966,112.79418557815913,201.58656708153543
381940,7483,381940.0,18871.0,381940.0,26763.0,382.54662644298435,110.34120461773198,197.36756559967205
381940,7486,381940.0,18872.0,381940.0,26758.0,375.8258114125846,107.92406311413995,193.19140972795097
381940,7464,381940.0,18841.0,381940.0,26735.0,369.1262547074148,105.54297130293828,189.05722367448232
381940,7478,381940.0,18893.0,381940.0,26745.0,362.45026863256965,103.19766498920468,184.96414199934753
381940,7449,381940.0,18852.0,381940.0,26710.0,355.79991995947546,100.88750513800778,180.91118218833867
381950,7446,381950.0,18839.0,381950.0,26751.0,349.17701365016296,98.61158445902791,176.89710992501725
381950,7468,381950.0,18874.0,381950.0,26762.0,342.58305570522407,96.36863458552261,172.92054196157835
381950,7462,381950.0,18871.0,381950.0,26718.0,336.019401492704,94.1569989825945,168.98031900424192
381950,7444,381950.0,18875.0,381950.0,26718.0,329.4875793855456,91.97493268292698,165.07568117475773
381950,7421,381950.0,18839.0,381950.0,26711.0,322.98942134177184,89.82086058376967,161.2060275208759
381950,7413,381950.0,18856.0,381950.0,26688.0,316.52686073754,87.69329282457386,157.37061375073577
381961,7411,381961.0,18879.0,381961.0,26712.0,310.10164833352167,85.59067454397254,153.5683743943245
381961,7400,381961.0,18857.0,381961.0,26693.0,303.7152149923152,83.51152623747643,149.7978754883482
381961,7402,381961.0,18851.0,381961.0,26739.0,297.36867097113003,81.4546723925584,146.0574767423686
381961,7399,381961.0,18829.0,381961.0,26726.0,291.06286888734735,79.4191759643272,142.3457254889792
381961,7379,381961.0,18841.0,381961.0,26680.0,284.79848781939273,77.40405360683008,138.66174164219606
381961,7370,381961.0,18835.0,381961.0,26686.0,278.5760272074781,75.4080732256798,135.00516265426825
381971,7387,381971.0,18875.0,381971.0,26698.0,272.3957206480005,73.42981399557735,131.37577396803292
381971,7390,381971.0,18848.0,381971.0,26689.0,266.25761645577273,71.4679868568808,127.77338959398139
381971,7378,381971.0,18829.0,381971.0,26689.0,260.16188366979486,69.5217099517491,124.19800710337609
381971,7345,381971.0,18843.0,381971.0,26662.0,254.10901565318744,67.59043750419266,120.64987884376012
381971,7330,381971.0,18805.0,381971.0,26651.0,248.09965605203269,65.67369799784652,117.12934759601188
381971,7347,381971.0,18803.0,381971.0,26652.0,242.13422923032812,63.7708136869752,113.6365377322984
381981,7328,381981.0,18831.0,381981.0,26674.0,236.21277383286252,61.88062372019965,110.1711791142971
381981,7334,381981.0,18836.0,381981.0,26689.0,230.33502600720288,60.00148612589075,106.73280657300563
381981,7329,381981.0,18846.0,381981.0,26656.0,224.50053979041138,58.13165380966811,103.32118926712155
381981,7324,381981.0,18827.0,381981.0,26651.0,218.70879407156968,56.26966843823345,99.93653661670527
381981,7323,381981.0,18778.0,381981.0,26643.0,212.95930232947205,54.414393826066515,96.57932701285614
381981,7294,381981.0,18820.0,381981.0,26637.0,207.2516583754027,52.564632206816555,93.25005273451359
381992,7327,381992.0,18874.0,381992.0,26648.0,201.58550597082393,50.71891232898213,89.94910771388476
381992,7308,381992.0,18845.0,381992.0,26661.0,195.96059625056995,48.87600998264929,86.67687277438353
381992,7271,381992.0,18783.0,381992.0,26639.0,190.37692081695064,47.035551386778735,83.43396189844935
381992,7291,381992.0,18820.0,381992.0,26606.0,184.83462707064922,45.19782320203035,80.22132797515837
381992,7261,381992.0,18814.0,381992.0,26620.0,179.33377851185816,43.36324856398136,77.03999932562215
381992,7286,381992.0,18803.0,381992.0,26611.0,173.87426153950338,41.532271833784876,73.89073636725891
382001,7263,382001.0,18840.0,382001.0,26618.0,168.4558569582938,39.7055124178554,70.77394432197008
382001,7264,382001.0,18800.0,382001.0,26623.0,163.0783486997588,37.8839427703312,67.68978932680704
382001,7263,382001.0,18798.0,382001.0,26613.0,157.74158274031333,36.06897520322684,64.63837019984243
382001,7230,382001.0,18784.0,382001.0,26599.0,152.44545800596842,34.26227533688339,61.619818357778456
382001,7236,382001.0,18765.0,382001.0,26592.0,147.18980879170022,32.465403332015995,58.6342125512075
382001,7248,382001.0,18798.0,382001.0,26606.0,141.97425762197508,30.67952569846034,55.68141769261621
382011,7232,382011.0,18821.0,382011.0,26612.0,136.79826925926807,28.905446549094762,52.76109871444413
382011,7234,382011.0,18785.0,382011.0,26579.0,131.66133706290725,27.14400480472665,49.8728932697839
382011,7227,382011.0,18765.0,382011.0,26576.0,126.56308314947967,25.39631520079689,47.01641544187663
382011,7196,382011.0,18765.0,382011.0,26572.0,121.50323998721836,23.6634867733668,44.19100345281305
382011,7204,382011.0,18750.0,382011.0,26585.0,116.4814952204523,21.946168892389665,41.39552506009801
382011,7199,382011.0,18769.0,382011.0,26574.0,111.49729686990901,20.244297173917346,38.628422796980374
382022,7195,382022.0,18768.0,382022.0,26603.0,106.54981521822299,18.55708579833336,35.88790397644294
382022,7193,382022.0,18809.0,382022.0,26586.0,101.6380249693442,16.883274330433323,33.172204674608565
382022,7174,382022.0,18756.0,382022.0,26595.0,96.76075390277379,15.221525852838283,30.479858939414214
382022,7173,382022.0,18774.0,382022.0,26550.0,91.91663531707667,13.570624321449685,27.809785071009287
382022,7166,382022.0,18751.0,382022.0,26558.0,87.10400477231002,11.929321427914516,25.1610655719316
382022,7176,382022.0,18790.0,382022.0,26559.0,82.32086664372059,10.296162873331411,22.53260293708354
382032,7170,382032.0,18805.0,382032.0,26569.0,77.56500339131247,8.669654314543038,19.922995346269772
382032,7168,382032.0,18764.0,382032.0,26530.0,72.83415677533071,7.048684054273906,17.33062015270093
382032,7151,382032.0,18745.0,382032.0,26550.0,68.12614144781992,5.432664210528003,14.7535993932471
382032,7139,382032.0,18746.0,382032.0,26540.0,63.438799921727764,3.821141482170532,12.189645347843054
382032,7150,382032.0,18760.0,382032.0,26553.0,58.769861720624476,2.213361200022092,9.63604726711975
382032,7134,382032.0,18745.0,382032.0,26545.0,54.11688081651289,0.6081853771673309,7.089815530137571
382042,7148,382042.0,18753.0,382042.0,26567.0,49.47730404331219,-0.9958133026912606,4.547872012040443
382042,7136,382042.0,18767.0,382042.0,26548.0,44.84859770762819,-2.6002656818134255,2.0072705636973183
382042,7124,382042.0,18726.0,382042.0,26533.0,40.22835557347764,-4.206912276607909,-0.5346656299664119
382042,7120,382042.0,18750.0,382042.0,26536.0,35.61429520771685,-5.817622749505205,-3.0804354283355337
382042,7119,382042.0,18770.0,382042.0,26543.0,31.004175140198072,-7.434469961661648,-5.632519891540596
382042,7119,382042.0,18804.0,382042.0,26574.0,26.395782664724493,-9.059451781571937,-8.19329341196692
382053,7113,382053.0,18761.0,382053.0,26530.0,21.787018658522356,-10.693888919959733,-10.764689791345688
382053,7088,382053.0,18733.0,382053.0,26509.0,17.175947946573388,-12.338146322302407,-13.348068408726476
382053,7088,382053.0,18720.0,382053.0,26510.0,12.560687781444017,-13.99203222996141,-15.94455766816651
382053,7088,382053.0,18729.0,382053.0,26507.0,7.939221519093053,-15.6554438439872,-18.555507364576556
382053,7092,382053.0,18736.0,382053.0,26531.0,3.3093581351002967,-17.328690927990436,-21.182616853383024
382053,7101,382053.0,18769.0,382053.0,26528.0,-1.3311016448686814,-19.012363784826164,-23.82772279054052
382063,7080,382063.0,18764.0,382063.0,26522.0,-5.984120028614029,-20.70688321230952,-26.492471024384713
382063,7075,382063.0,18733.0,382063.0,26509.0,-10.651293890175339,-22.412066338264907,-29.178143763405046
382063,7059,382063.0,18709.0,382063.0,26502.0,-15.333934560239868,-24.127143425758504,-31.885731014418127
382063,7057,382063.0,18711.0,382063.0,26501.0,-20.033246344415943,-25.851235773832485,-34.61610459111063
382063,7066,382063.0,18747.0,382063.0,26510.0,-24.750433736167224,-27.583756427046808,-37.37011252693259
382063,7064,382063.0,18719.0,382063.0,26487.0,-29.486628006921933,-29.32434516588782,-40.14854934298478
382073,7048,382073.0,18713.0,382073.0,26495.0,-34.24270599206909,-31.072639331120115,-42.95213975771753
382073,7022,382073.0,18733.0,382073.0,26486.0,-39.01925805268854,-32.82826297853558,-45.78160057357945
382073,7013,382073.0,18692.0,382073.0,26472.0,-43.81683875277406,-34.590910931278444,-48.637711912095995
382073,7022,382073.0,18692.0,382073.0,26496.0,-48.636299885359335,-36.36047917283082,-51.52137146696134
382073,7038,382073.0,18734.0,382073.0,26489.0,-53.478865845259065,-38.137263850373955,-54.433538660517286
382073,7034,382073.0,18717.0,382073.0,26492.0,-58.345856208781356,-39.921882836576174,-57.37502213236462
382084,7011,382084.0,18716.0,382084.0,26481.0,-63.23834285432076,-41.71492388998911,-60.34629266770145
382084,7012,382084.0,18700.0,382084.0,26465.0,-68.15706133499833,-43.51678687644883,-63.347471298222615
382084,7000,382084.0,18701.0,382084.0,26464.0,-73.10253195180007,-45.327811102777986,-66.37847839662078
382084,7004,382084.0,18713.0,382084.0,26481.0,-78.07515575504351,-47.14841454895466,-69.43917781664811
382084,7016,382084.0,18730.0,382084.0,26472.0,-83.07516606050115,-48.97901630827104,-72.52931371056582
382084,7002,382084.0,18724.0,382084.0,26474.0,-88.10242940002365,-50.81972401096505,-75.64830478997527
382094,6968,382094.0,18694.0,382094.0,26451.0,-93.15629625218082,-52.670071566145936,-78.79513888786352
382094,6972,382094.0,18648.0,382094.0,26445.0,-98.23575452574016,-54.52919982238288,-81.96847510075008
382094,6952,382094.0,18691.0,382094.0,26422.0,-103.33976034812565,-56.396453852110994,-85.16690902248013
382094,6955,382094.0,18680.0,382094.0,26421.0,-108.46746894206512,-58.27180393407966,-88.38930397293774
382094,6965,382094.0,18711.0,382094.0,26437.0,-113.61828872297798,-60.15571586426799,-91.63502839124868
382094,6955,382094.0,18691.0,382094.0,26444.0,-118.79175662301736,-62.04875189424746,-94.90390920020019
382105,6942,382105.0,18699.0,382105.0,26433.0,-123.98735811201601,-63.9512746508677,-98.1959436628398
382105,6943,382105.0,18675.0,382105.0,26418.0,-129.20448216450927,-65.86337747094777,-101.5110915121993
382105,6934,382105.0,18679.0,382105.0,26439.0,-134.44246667191612,-67.78500471476039,-104.84928294774215
382105,6934,382105.0,18699.0,382105.0,26443.0,-139.70060075763303,-69.71607789755436,-108.21038144381453
382105,6929,382105.0,18701.0,382105.0,26426.0,-144.97807794849706,-71.65639086659871,-111.59395769200296
382105,6928,382105.0,18673.0,382105.0,26408.0,-150.27392451395116,-73.60535497734432,-114.99915800580692
382115,6889,382115.0,18663.0,382115.0,26409.0,-155.58697990404153,-75.56198283158756,-118.42486148112488
382115,6886,382115.0,18644.0,382115.0,26402.0,-160.91608514636948,-77.52522190180875,-121.86991547434368
382115,6898,382115.0,18675.0,382115.0,26386.0,-166.26038817299542,-79.49432034787554,-125.33327337030107
382115,6892,382115.0,18671.0,382115.0,26413.0,-171.61942613081226,-81.4688830496122,-128.81406300886812
382115,6900,382115.0,18689.0,382115.0,26404.0,-176.9929280410696,-83.44859561893631,-132.31151497526173
382115,6886,382115.0,18674.0,382115.0,26395.0,-182.3805725788884,-85.43287544404524,-135.82474876161496
382125,6871,382125.0,18645.0,382125.0,26380.0,-187.78187097962393,-87.42073310092945,-139.35267788781675
382125,6867,382125.0,18650.0,382125.0,26370.0,-193.19622568003928,-89.41097164787695,-142.89415745937936
382125,6860,382125.0,18680.0,382125.0,26388.0,-198.62306757445964,-91.40245265641667,-146.44817992154452
382125,6854,382125.0,18652.0,382125.0,26385.0,-204.06193429426088,-93.39404451081913,-150.0138741771695
382125,6845,382125.0,18644.0,382125.0,26401.0,-209.5124956020208,-95.38444931398112,-153.59026762894018
382125,6842,382125.0,18634.0,382125.0,26354.0,-214.97458055790383,-97.37230508616389,-157.17603985816226
382136,6832,382136.0,18622.0,382136.0,26348.0,-220.44820444785938,-99.35648437358421,-160.76958569891252
382136,6827,382136.0,18644.0,382136.0,26338.0,-225.9335914343332,-101.33632015457141,-164.36940798813225
382136,6823,382136.0,18619.0,382136.0,26343.0,-231.43119697905018,-103.31165182102623,-167.97448589100406
382136,6818,382136.0,18670.0,382136.0,26353.0,-236.9417077724907,-105.28270542294518,-171.58435576453087
382136,6808,382136.0,18627.0,382136.0,26363.0,-242.4660211820106,-107.24984865831766,-175.19891875874623
382136,6818,382136.0,18629.0,382136.0,26346.0,-248.00521836557857,-109.21340476301557,-178.81812897693163
382146,6798,382146.0,18618.0,382146.0,26340.0,-253.56050269363232,-111.1737499239666,-182.44180707296567
382146,6797,382146.0,18622.0,382146.0,26336.0,-259.1331418983541,-113.13154647419938,-186.0696784535789
382146,6796,382146.0,18648.0,382146.0,26341.0,-264.72446855523947,-115.08779413343908,-189.70146205392643
382146,6788,382146.0,18651.0,382146.0,26342.0,-270.3358660055261,-117.04358189821448,-193.33683565721526
382146,6794,382146.0,18604.0,382146.0,26331.0,-275.96868908687156,-118.99976518516718,-196.97531014908503
