c_ts,c_val,d_ts,d_val,e_ts,e_val,c_val_filtered,d_val_filtered,e_val_filtered
103789.0,8363.0,103789.0,15112.0,103789.0,33557.0,446.3650716965999,472.28356414762936,867.751294408629
103789.0,8391.0,103789.0,15153.0,103789.0,33626.0,449.2831578224,471.75406149941585,870.8909505341054
103789.0,8381.0,103789.0,15101.0,103789.0,33572.0,452.2189006327285,471.20117670143213,873.9554612967142
103789.0,8362.0,103789.0,15071.0,103789.0,33540.0,455.17315914588636,470.6339091432857,876.9438315985525
103789.0,8339.0,103789.0,15052.0,103789.0,33507.0,458.14683109923413,470.06086842270435,879.8552032444791
103789.0,8312.0,103789.0,15028.0,103789.0,33513.0,461.14036980792895,469.4894993666957,882.6880149207458
103799.0,8320.0,103799.0,15040.0,103799.0,33492.0,464.153140906315,468.9254634118962,885.439343353025
103799.0,8348.0,103799.0,15054.0,103799.0,33528.0,467.18300347039803,468.37238860042146,888.1046543813129
103799.0,8346.0,103799.0,15074.0,103799.0,33520.0,470.2263766054493,467.83206693484516,890.6779154785546
103799.0,8343.0,103799.0,15029.0,103799.0,33498.0,473.2785790771739,467.3048743390565,893.1518796274087
103799.0,8341.0,103799.0,15011.0,103799.0,33527.0,476.33403128410583,466.78988092461043,895.5182351639264
103799.0,8339.0,103799.0,15073.0,103799.0,33525.0,479.38625091255113,466.2846050018999,897.7676987182697
103809.0,8398.0,103809.0,15136.0,103809.0,33557.0,482.42791565376154,465.78523046844504,899.8903469779348
103809.0,8399.0,103809.0,15121.0,103809.0,33573.0,485.45130888880726,465.28773286424337,901.876203755723
103809.0,8374.0,103809.0,15066.0,103809.0,33543.0,488.4489866736715,464.7890075788159,903.7158742295467
103809.0,8357.0,103809.0,15038.0,103809.0,33472.0,491.4140409381824,464.28695204197874,905.4007470465523
103809.0,8331.0,103809.0,15001.0,103809.0,33485.0,494.33974866925485,463.77963353655866,906.922420559726
103809.0,8370.0,103809.0,14978.0,103809.0,33460.0,497.219050497647,463.2642591038813,908.2718351235409
103820.0,8335.0,103820.0,14974.0,103820.0,33467.0,500.0443101990031,462.73632605204756,909.4387633641063
103820.0,8352.0,103820.0,15046.0,103820.0,33507.0,502.80731486634664,462.18923244048824,910.4117680022622
103820.0,8335.0,103820.0,15014.0,103820.0,33453.0,505.4992387526938,461.61461886734304,911.1784939939085
103820.0,8366.0,103820.0,14994.0,103820.0,33471.0,508.11059533345696,461.0029985750912,911.7259351306806
103820.0,8366.0,103820.0,15020.0,103820.0,33470.0,510.63137619682556,460.3439698605982,912.0404427677063
103820.0,8414.0,103820.0,15101.0,103820.0,33541.0,513.051451942709,459.6263713106672,912.1079142159158
103830.0,8378.0,103830.0,15108.0,103830.0,33524.0,515.3611382687486,458.8391795583309,911.9145558566762
103830.0,8380.0,103830.0,15129.0,103830.0,33537.0,517.5515916260891,457.97290301303116,911.447869295233
103830.0,8372.0,103830.0,15035.0,103830.0,33485.0,519.6148020247664,457.0204984958504,910.6972336321542
103830.0,8335.0,103830.0,14985.0,103830.0,33429.0,521.5433289804267,455.97713110606225,909.6537604520493
103830.0,8353.0,103830.0,14973.0,103830.0,33405.0,523.3299346659877,454.83893742147876,908.3094663936849
103830.0,8334.0,103830.0,14941.0,103830.0,33435.0,524.9672359358174,453.6016907315195,906.6563099991105
103840.0,8325.0,103840.0,14977.0,103840.0,33447.0,526.4474948594087,452.26003019860093,904.6858641430985
103840.0,8372.0,103840.0,14985.0,103840.0,33421.0,527.7625459817897,450.80734111442035,902.3896829924402
103840.0,8346.0,103840.0,14940.0,103840.0,33397.0,528.9039678170718,449.23604560391254,899.7596595093628
103840.0,8315.0,103840.0,14966.0,103840.0,33393.0,529.863345033746,447.53778186878674,896.7879528328662
103840.0,8357.0,103840.0,15037.0,103840.0,33408.0,530.6322310238082,445.7035207798921,893.4668075665772
103840.0,8396.0,103840.0,15074.0,103840.0,33445.0,531.2021632515458,443.724358736863,889.7887650808334
103851.0,8388.0,103851.0,15084.0,103851.0,33471.0,531.56526388752,441.5929992146399,885.7474390875168
103851.0,8385.0,103851.0,15017.0,103851.0,33423.0,531.7150212496896,439.3049599762064,881.3385258490704
103851.0,8340.0,103851.0,14998.0,103851.0,33390.0,531.6465864940117,436.8587472773376,876.5603409118534
103851.0,8334.0,103851.0,14944.0,103851.0,33351.0,531.3564906447331,434.2551307678692,871.4135344136782
103851.0,8337.0,103851.0,14933.0,103851.0,33308.0,530.8421382959702,431.49613232943983,865.9003229788027
103851.0,8310.0,103851.0,14905.0,103851.0,33305.0,530.1014646306359,428.58414167434523,860.0236813788284
103861.0,8331.0,103861.0,14872.0,103861.0,33311.0,529.1327942948122,425.5212254342964,853.7868217364925
103861.0,8331.0,103861.0,14890.0,103861.0,33281.0,527.9348414837726,422.3085750305715,847.1931261239063
103861.0,8315.0,103861.0,14913.0,103861.0,33247.0,526.5068735527309,418.946271351095,840.246216750349
103861.0,8307.0,103861.0,14898.0,103861.0,33287.0,524.8488418901705,415.4335624966153,832.9498722114193
103861.0,8321.0,103861.0,14938.0,103861.0,33295.0,522.9613626986293,411.76941376572074,825.3081681115857
103861.0,8345.0,103861.0,15038.0,103861.0,33338.0,520.8458289776077,407.9533116784209,817.3262345298444
103871.0,8350.0,103871.0,14918.0,103871.0,33276.0,518.5048722447825,403.9864839526436,809.0112982921656
103871.0,8316.0,103871.0,14900.0,103871.0,33256.0,515.9429149069282,399.8726470223081,800.3732874014079
103871.0,8273.0,103871.0,14892.0,103871.0,33193.0,513.1662910688555,395.6175302487144,791.4246432281324
103871.0,8251.0,103871.0,14833.0,103871.0,33153.0,510.1827373102261,391.2279619070384,782.1795728652787
103871.0,8240.0,103871.0,14840.0,103871.0,33111.0,507.00061952158353,386.7111825730651,772.6530994468058
103871.0,8280.0,103871.0,14816.0,103871.0,33146.0,503.6284621963887,382.07430272581223,762.8602782949827
103882.0,8245.0,103882.0,14817.0,103882.0,33119.0,500.07503085285794,377.3239731437465,752.8159953007685
103882.0,8219.0,103882.0,14826.0,103882.0,33118.0,496.34958280238936,372.466332625621,742.5352903845617
103882.0,8230.0,103882.0,14792.0,103882.0,33051.0,492.46179623834485,367.50712353886433,732.0336328373639
103882.0,8217.0,103882.0,14832.0,103882.0,33086.0,488.42156150127744,362.45184952263713,721.3268465141721
103882.0,8247.0,103882.0,14904.0,103882.0,33080.0,484.23904097275704,357.30619371443294,710.4310688788523
103882.0,8254.0,103882.0,14870.0,103882.0,33083.0,479.92506203274274,352.0770514606298,699.3631602665516
103892.0,8235.0,103892.0,14830.0,103892.0,33040.0,475.4916788228644,346.77359650478127,688.1412936772592
103892.0,8191.0,103892.0,14746.0,103892.0,32983.0,470.9524977128488,341.40733415577984,676.7851336184178
103892.0,8150.0,103892.0,14723.0,103892.0,32963.0,466.3223957344994,335.99105816348697,665.3154131724968
103892.0,8156.0,103892.0,14709.0,103892.0,32933.0,461.61680153587554,330.53752447211633,653.7532708970928
103892.0,8125.0,103892.0,14684.0,103892.0,32903.0,456.8510665697295,325.05854975209434,642.1197536565281
103892.0,8121.0,103892.0,14710.0,103892.0,32927.0,452.04013851325226,319.56463954164855,630.4355818410569
103902.0,8122.0,103902.0,14723.0,103902.0,32911.0,447.19840286039744,314.0650666944187,618.7212673575214
103902.0,8077.0,103902.0,14680.0,103902.0,32848.0,442.33959708884987,308.5682803903,606.997450148988
103902.0,8089.0,103902.0,14659.0,103902.0,32840.0,437.4766734887844,303.0821394740358,595.2849183108971
103902.0,8105.0,103902.0,14755.0,103902.0,32876.0,432.6216688956997,297.61387877470355,583.6043779120549
103902.0,8152.0,103902.0,14820.0,103902.0,32873.0,427.7859998140501,292.1707471477,571.9767064500373
103902.0,8120.0,103902.0,14708.0,103902.0,32817.0,422.98126550644065,286.7615213857607,560.4236670004284
103913.0,8076.0,103913.0,14698.0,103913.0,32745.0,418.2199110780251,281.39740831504884,548.9681534872637
103913.0,8048.0,103913.0,14645.0,103913.0,32695.0,413.5151248428596,276.0915212458447,537.6334786479727
103913.0,8019.0,103913.0,14556.0,103913.0,32694.0,408.88013955935827,270.85767716707164,526.4422341680763
103913.0,8038.0,103913.0,14550.0,103913.0,32648.0,404.3275583933496,265.70901413134663,515.4154831561578
103913.0,8019.0,103913.0,14569.0,103913.0,32635.0,399.8690836210181,260.65675017140916,504.5723914915176
103913.0,7991.0,103913.0,14537.0,103913.0,32675.0,395.51552421942887,255.7096681899165,493.93012332450996
103923.0,7984.0,103923.0,14611.0,103923.0,32623.0,391.27669543553645,250.8743021803586,483.50410938512846
103923.0,7991.0,103923.0,14551.0,103923.0,32606.0,387.16119379293076,246.1554581983458,473.30845480827816
103923.0,7990.0,103923.0,14573.0,103923.0,32619.0,383.17637101192713,241.55673797299602,463.35606301002906
103923.0,8041.0,103923.0,14627.0,103923.0,32667.0,379.3286664348343,237.0809152372741,453.6588535829753
103923.0,8032.0,103923.0,14616.0,103923.0,32596.0,375.6242936627547,232.73056129737847,444.2284765007797
103923.0,7992.0,103923.0,14592.0,103923.0,32600.0,372.06996953118835,228.50889545383728,435.07694547329504
103934.0,7952.0,103934.0,14531.0,103934.0,32519.0,368.67306393167786,224.4200871195298,426.2165971140922
103934.0,7905.0,103934.0,14529.0,103934.0,32491.0,365.4409739574751,220.46875453589445,417.65947873522634
103934.0,7928.0,103934.0,14461.0,103934.0,32475.0,362.3802058069821,216.6591173142998,409.4165144746885
103934.0,7906.0,103934.0,14474.0,103934.0,32457.0,359.495779423186,212.99416490660212,401.49686220975343
103934.0,7936.0,103934.0,14530.0,103934.0,32410.0,356.7911620828875,209.4751646711606,393.9075884003835
103934.0,7908.0,103934.0,14527.0,103934.0,32434.0,354.26850614026796,206.1019627519479,386.65342176883985
103944.0,7877.0,103944.0,14474.0,103944.0,32409.0,351.9288143968955,202.87374583438572,379.73662808249924
103944.0,7896.0,103944.0,14443.0,103944.0,32407.0,349.77180232065984,199.78923370250584,373.1571475423784
103944.0,7941.0,103944.0,14531.0,103944.0,32466.0,347.7958112284976,196.84628845156635,366.9129521981225
103944.0,7955.0,103944.0,14571.0,103944.0,32474.0,345.9983289589348,194.0421283146539,361.00080956051727
103944.0,7942.0,103944.0,14566.0,103944.0,32467.0,344.37691368266536,191.37457923839344,355.4174200796683
103944.0,7903.0,103944.0,14493.0,103944.0,32398.0,342.92977619171967,188.84324516651645,350.1602182495367
103954.0,7862.0,103954.0,14435.0,103954.0,32333.0,341.6556159931271,186.449459758295,345.227197936357
103954.0,7854.0,103954.0,14395.0,103954.0,32328.0,340.5529055401324,184.19510454785404,340.6159036703573
103954.0,7847.0,103954.0,14362.0,103954.0,32299.0,339.61914881441703,182.08112323546516,336.3223650781424
103954.0,7868.0,103954.0,14422.0,103954.0,32296.0,338.8505312005866,180.10647881729705,332.34051487536385
103954.0,7854.0,103954.0,14431.0,103954.0,32304.0,338.2419951392407,178.26801696481556,328.6620318643121
103954.0,7849.0,103954.0,14403.0,103954.0,32321.0,337.7874603830145,176.56105962421782,325.2765241339504
103965.0,7856.0,103965.0,14393.0,103965.0,32328.0,337.47994009714625,174.97987896984984,322.17205069913734
103965.0,7863.0,103965.0,14421.0,103965.0,32316.0,337.3116319208215,173.51771591739862,319.33576536489204
103965.0,7898.0,103965.0,14510.0,103965.0,32328.0,337.2742088419295,172.167041556505,316.7544201044509
103965.0,7894.0,103965.0,14497.0,103965.0,32360.0,337.3593688173697,170.9206344221484,314.4148012061984
103965.0,7879.0,103965.0,14457.0,103965.0,32322.0,337.5594066231212,169.77285862218554,312.30429490463894
103965.0,7852.0,103965.0,14409.0,103965.0,32255.0,337.8674216630746,168.72003606513147,310.4112186413747
103975.0,7818.0,103975.0,14361.0,103975.0,32234.0,338.27701829657457,167.75972070962513,308.72436385843764
103975.0,7821.0,103975.0,14374.0,103975.0,32266.0,338.781707351129,166.88957111708896,307.23213318341743
103975.0,7813.0,103975.0,14337.0,103975.0,32234.0,339.3743773477798,166.10649327123036,305.9221526882744
103975.0,7832.0,103975.0,14333.0,103975.0,32246.0,340.04709671224543,165.40616707818447,304.78140614249673
103975.0,7820.0,103975.0,14374.0,103975.0,32206.0,340.79122089382685,164.78281499264273,303.7963594191193
103975.0,7816.0,103975.0,14340.0,103975.0,32219.0,341.5975759653768,164.22929992948815,302.9528892861915
103985.0,7803.0,103985.0,14320.0,103985.0,32219.0,342.4565064890515,163.7373543202184,302.2362052212512
103985.0,7828.0,103985.0,14405.0,103985.0,32223.0,343.3578263911096,163.29765317237144,301.63098123752115
103985.0,7855.0,103985.0,14461.0,103985.0,32306.0,344.2909726639315,162.90033041128322,301.1218418752917
103985.0,7862.0,103985.0,14424.0,103985.0,32250.0,345.2455382813298,162.5363071084899,300.69425343335445
103985.0,7823.0,103985.0,14389.0,103985.0,32221.0,346.2118628883424,162.19839575521502,300.3353068969059
103985.0,7804.0,103985.0,14329.0,103985.0,32157.0,347.18114126068576,161.88121757099248,300.03360579309106
103996.0,7790.0,103996.0,14293.0,103996.0,32140.0,348.14498710666146,161.58017794618894,299.77832616998467
103996.0,7793.0,103996.0,14310.0,103996.0,32139.0,349.09490176234516,161.29026718935836,299.5581998708317
103996.0,7769.0,103996.0,14316.0,103996.0,32133.0,350.02195565961694,161.0053606374783,299.360957745571
103996.0,7797.0,103996.0,14337.0,103996.0,32142.0,350.91664439351507,160.71824697763674,299.1732655465348
103996.0,7784.0,103996.0,14280.0,103996.0,32149.0,351.7689034872114,160.42096404441423,298.980940411401
103996.0,7789.0,103996.0,14296.0,103996.0,32122.0,352.56827608747943,160.1048513962062,298.7692561035492
104005.0,7794.0,104005.0,14332.0,104005.0,32123.0,353.3040962984333,159.760386706267,298.5231168740579
104005.0,7827.0,104005.0,14418.0,104005.0,32162.0,353.9657228885521,159.37757120799256,298.22713683976804
104005.0,7830.0,104005.0,14408.0,104005.0,32190.0,354.54300381853733,158.94720245153934,297.86606652571095
104005.0,7813.0,104005.0,14369.0,104005.0,32184.0,355.0268363353499,158.46222923759257,297.4256824080413
104005.0,7791.0,104005.0,14284.0,104005.0,32110.0,355.4094202314458,157.91805977446353,296.8934963926856
104005.0,7763.0,104005.0,14304.0,104005.0,32089.0,355.6840325414623,157.3116836427967,296.2585996369701
104015.0,7759.0,104015.0,14280.0,104015.0,32103.0,355.8445222517912,156.64056898647692,295.5108859828175
104015.0,7746.0,104015.0,14257.0,104015.0,32066.0,355.8848308244616,155.90205143250745,294.64048305540655
104015.0,7763.0,104015.0,14245.0,104015.0,32117.0,355.79873706143496,155.0929780550013,293.63766860474493
104015.0,7744.0,104015.0,14287.0,104015.0,32054.0,355.57984876666467,154.2094202911062,292.4930437261081
104015.0,7749.0,104015.0,14261.0,104015.0,32065.0,355.22169569709297,153.24674125429908,291.19766375683696
104015.0,7749.0,104015.0,14266.0,104015.0,32042.0,354.7177985347154,152.19992447732062,289.7429288222412
104026.0,7761.0,104026.0,14295.0,104026.0,32065.0,354.06178693761217,151.06383840977026,288.1204508516972
104026.0,7783.0,104026.0,14396.0,104026.0,32082.0,353.24770043848594,149.8337788309347,286.322241368607
104026.0,7785.0,104026.0,14341.0,104026.0,32053.0,352.2704885778982,148.50668597750172,284.3411960317891
104026.0,7749.0,104026.0,14299.0,104026.0,32047.0,351.1264858222104,147.0822594131754,282.17148964519095
104026.0,7721.0,104026.0,14186.0,104026.0,31992.0,349.8134627486754,145.56277470905837,279.80854996559833
104026.0,7679.0,104026.0,14187.0,104026.0,31978.0,348.3301159998404,143.95159992018228,277.24861858569284
104036.0,7706.0,104036.0,14184.0,104036.0,31972.0,346.67533908967084,142.25155722111384,274.488164146019
104036.0,7697.0,104036.0,14147.0,104036.0,31968.0,344.84780229807336,140.46402206761547,271.5235183381666
104036.0,7723.0,104036.0,14258.0,104036.0,31961.0,342.8460582287615,138.58878004108328,268.35085825869
104036.0,7693.0,104036.0,14173.0,104036.0,31954.0,340.66891605755586,136.6244733625379,264.96634297425624
104036.0,7680.0,104036.0,14157.0,104036.0,31922.0,338.3156757198854,134.56911698058792,261.3662020426831
104036.0,7659.0,104036.0,14237.0,104036.0,31938.0,335.78601969796875,132.42011965211537,257.54670527647363
104046.0,7691.0,104046.0,14239.0,104046.0,31981.0,333.0797769406222,130.17447789816111,253.50427289864786
104046.0,7698.0,104046.0,14276.0,104046.0,31970.0,330.19699806942623,127.82973990458527,249.23608237506414
104046.0,7698.0,104046.0,14265.0,104046.0,31938.0,327.138432938172,125.38512828718859,244.7408684670263
104046.0,7646.0,104046.0,14124.0,104046.0,31888.0,323.90596127004255,122.84200217901792,240.01918399522174
104046.0,7626.0,104046.0,14123.0,104046.0,31845.0,320.5024926721252,120.20309606440156,235.07289873768605
104046.0,7596.0,104046.0,14148.0,104046.0,31841.0,316.93137239056887,117.47105136875132,229.90434320960696
104057.0,7590.0,104057.0,14125.0,104057.0,31823.0,313.1957136479902,114.64761483025313,224.51564367128037
104057.0,7601.0,104057.0,14131.0,104057.0,31822.0,309.2979964436694,111.73369582905224,218.90847899501625
104057.0,7597.0,104057.0,14112.0,104057.0,31790.0,305.24005414026556,108.72952170037388,213.08407920963714
104057.0,7574.0,104057.0,14087.0,104057.0,31785.0,301.02328585657756,105.63459755895491,207.0432066273271
104057.0,7598.0,104057.0,14090.0,104057.0,31774.0,296.6488193757198,102.4475110984742,200.78608307989464
104057.0,7587.0,104057.0,14165.0,104057.0,31803.0,292.1176710617595,99.16589605553509,194.31246762808257
104067.0,7625.0,104067.0,14225.0,104067.0,31847.0,287.4311132066872,95.78719184736985,187.62217816561053
104067.0,7592.0,104067.0,14215.0,104067.0,31802.0,282.5912163853729,92.31023182314436,180.71605286305157
104067.0,7571.0,104067.0,14091.0,104067.0,31762.0,277.6012530903115,88.73649452931642,173.59670182621994
104067.0,7518.0,104067.0,14077.0,104067.0,31717.0,272.46560234912874,85.06983211267749,166.26841752745122
104067.0,7499.0,104067.0,14029.0,104067.0,31675.0,267.18913902656783,81.31504210425896,158.7364280767638
104067.0,7509.0,104067.0,13996.0,104067.0,31701.0,261.776526581357,77.47646836889169,151.00611852353495
104077.0,7500.0,104077.0,14010.0,104077.0,31672.0,256.23188869753926,73.55706820392777,143.08270369000468
104077.0,7495.0,104077.0,14009.0,104077.0,31613.0,250.55890213807885,69.55796164751462,134.97124105711077
104077.0,7482.0,104077.0,14022.0,104077.0,31608.0,244.76098284142802,65.47851349679786,126.67640474736572
104077.0,7469.0,104077.0,14020.0,104077.0,31616.0,238.84136478808108,61.316729434793615,118.2020568644831
104077.0,7462.0,104077.0,14024.0,104077.0,31627.0,232.8030917578838,57.06968902903117,109.55123731524952
104077.0,7504.0,104077.0,14110.0,104077.0,31669.0,226.64910400249585,52.73409660390121,100.7267804233037
104088.0,7505.0,104088.0,14136.0,104088.0,31630.0,220.38269899972312,48.30735683301447,91.73227490090687
104088.0,7472.0,104088.0,14095.0,104088.0,31574.0,214.0082386893705,43.78904562014293,82.57276602457796
104088.0,7397.0,104088.0,13974.0,104088.0,31550.0,207.5314109614926,39.18162686172303,73.25466359868415
104088.0,7419.0,104088.0,13947.0,104088.0,31512.0,200.95870526499357,34.489581323571144,63.78508624029132
104088.0,7365.0,104088.0,13942.0,104088.0,31510.0,194.29665462749944,29.717708474831625,54.17125698714767
104088.0,7359.0,104088.0,13951.0,104088.0,31482.0,187.5513315967139,24.869995489391442,44.42019689292215
104098.0,7382.0,104098.0,13960.0,104098.0,31473.0,180.72807158731405,19.94946813311617,34.538639473041144
104098.0,7369.0,104098.0,13925.0,104098.0,31481.0,173.83152462194118,14.958493196161271,24.53308482005707
104098.0,7338.0,104098.0,13914.0,104098.0,31449.0,166.8659685060502,9.898933347619845,14.410007328542406
104098.0,7325.0,104098.0,13925.0,104098.0,31390.0,159.83540972992375,4.7720369547474775,4.175996225016888
104098.0,7342.0,104098.0,13957.0,104098.0,31446.0,152.74344159770067,-0.4215142414508364,-6.162395947065306
104098.0,7376.0,104098.0,14027.0,104098.0,31420.0,145.59338156695446,-5.680936211236087,-16.598653914181796
104108.0,7360.0,104108.0,13985.0,104108.0,31428.0,138.3889204016317,-11.004109182009415,-27.125795402490667
104108.0,7337.0,104108.0,13926.0,104108.0,31388.0,131.13483982492016,-16.38660738890269,-37.735805427715036
104108.0,7277.0,104108.0,13874.0,104108.0,31325.0,123.83719142542316,-21.821860286830145,-48.41952138427598
104108.0,7244.0,104108.0,13827.0,104108.0,31276.0,116.50277678182704,-27.30228144852856,-59.167147287940224
104108.0,7227.0,104108.0,13820.0,104108.0,31271.0,109.13827264358838,-32.82055384175277,-69.96916271787256
104108.0,7229.0,104108.0,13825.0,104108.0,31251.0,101.74953926211424,-38.37048281661771,-80.8170176327609
104119.0,7245.0,104119.0,13836.0,104119.0,31264.0,94.34144962137054,-43.94719846992234,-91.70327945403346
104119.0,7221.0,104119.0,13815.0,104119.0,31247.0,86.91816652306181,-49.54689376828185,-102.62137030951465
104119.0,7213.0,104119.0,13784.0,104119.0,31204.0,79.48348487965598,-55.166590355615995,-113.56523062404528
104119.0,7192.0,104119.0,13820.0,104119.0,31205.0,72.04094360967451,-60.804164901691365,-124.52923105149182
104119.0,7227.0,104119.0,13855.0,104119.0,31201.0,64.59384461786215,-66.4582030189618,-135.5082297437557
104119.0,7223.0,104119.0,13870.0,104119.0,31249.0,57.14553693623168,-72.12723358415599,-146.49730159859473
104129.0,7201.0,104129.0,13848.0,104129.0,31192.0,49.69995579141221,-77.8086895797702,-157.4910162182248
104129.0,7151.0,104129.0,13781.0,104129.0,31128.0,42.26191257446453,-83.4983746494587,-168.48290019958358
104129.0,7132.0,104129.0,13719.0,104129.0,31103.0,34.83679964168516,-89.19089686717382,-179.4657416514865
104129.0,7110.0,104129.0,13707.0,104129.0,31063.0,27.429974896006343,-94.88084724523054,-190.43243966571322
104129.0,7088.0,104129.0,13695.0,104129.0,31057.0,20.046234767796932,-100.56395210963706,-201.37670281498163
104129.0,7107.0,104129.0,13734.0,104129.0,31048.0,12.689527203312764,-106.2375660837015,-212.29336012997862
104140.0,7088.0,104140.0,13789.0,104140.0,31055.0,5.362957121836189,-111.90030546744481,-223.17829487960398
104140.0,7074.0,104140.0,13687.0,104140.0,31005.0,-1.9310149524583267,-117.55114994802989,-234.02815715500185
104140.0,7060.0,104140.0,13683.0,104140.0,31016.0,-9.19046451070733,-123.18901039003174,-244.84017717102552
104140.0,7089.0,104140.0,13718.0,104140.0,31034.0,-16.413972875402578,-128.81309868396477,-255.61204095325354
104140.0,7089.0,104140.0,13764.0,104140.0,31042.0,-23.600345416027494,-134.42300891002213,-266.34141972096756
104140.0,7080.0,104140.0,13781.0,104140.0,31017.0,-30.74805191121868,-140.01781976205098,-277.0251854348187
104150.0,7032.0,104150.0,13729.0,104150.0,30983.0,-37.854824205976456,-145.59492453559773,-287.6588549565913
104150.0,7017.0,104150.0,13622.0,104150.0,30916.0,-44.91776132523216,-151.14971593518595,-298.23664339449067
104150.0,6997.0,104150.0,13625.0,104150.0,30866.0,-51.93378427123832,-156.67654470061882,-308.7521490457184
104150.0,6948.0,104150.0,13610.0,104150.0,30839.0,-58.90012489820742,-162.17011032904617,-319.1993969195206
104150.0,6959.0,104150.0,13578.0,104150.0,30833.0,-65.8148024153686,-167.62628232368274,-329.57373511204344
104150.0,6951.0,104150.0,13600.0,104150.0,30869.0,-72.6769803486568,-173.04239058161977,-339.87212888550584
104160.0,6963.0,104160.0,13610.0,104160.0,30803.0,-79.48695510846017,-178.41723396881383,-350.09284855690794
104160.0,6960.0,104160.0,13573.0,104160.0,30841.0,-86.24581869302222,-183.7508011011567,-360.2350491373869
104160.0,6940.0,104160.0,13578.0,104160.0,30789.0,-92.95506872786393,-189.04403121858337,-370.298549394676
104160.0,6974.0,104160.0,13689.0,104160.0,30834.0,-99.61630747595473,-194.29858075709575,-380.2836241955823
104160.0,6956.0,104160.0,13653.0,104160.0,30827.0,-106.23089823887733,-199.51592574989684,-390.1905774186042
104160.0,6950.0,104160.0,13645.0,104160.0,30793.0,-112.7995325620052,-204.69606715096154,-400.0191338916577
104171.0,6900.0,104171.0,13541.0,104171.0,30765.0,-119.32201986141433,-209.83704720863716,-409.7680692682661
104171.0,6866.0,104171.0,13532.0,104171.0,30694.0,-125.79756861063197,-214.935687712458,-419.43543403544413
104171.0,6862.0,104171.0,13501.0,104171.0,30681.0,-132.2254214815249,-219.9888418719998,-429.01926241604167
104171.0,6856.0,104171.0,13519.0,104171.0,30683.0,-138.6053911496797,-224.9942937689607,-438.51831291418057
104171.0,6858.0,104171.0,13513.0,104171.0,30678.0,-144.93799322912014,-229.95100394153644,-447.9323366599723
104171.0,6850.0,104171.0,13522.0,104171.0,30636.0,-151.2242856248037,-234.8589116375834,-457.2619160936554
104181.0,6820.0,104181.0,13468.0,104181.0,30655.0,-157.46569356431962,-239.7186843516285,-466.5083293396269
104181.0,6840.0,104181.0,13476.0,104181.0,30614.0,-163.6639740833573,-244.5317667796965,-475.6735212083844
104181.0,6829.0,104181.0,13534.0,104181.0,30654.0,-169.8211721934913,-249.30052073155525,-484.7599723505082
104181.0,6841.0,104181.0,13553.0,104181.0,30676.0,-175.93937440507642,-254.02776789573204,-493.77026211419013
104181.0,6849.0,104181.0,13547.0,104181.0,30654.0,-182.02030204526557,-258.71571920203166,-502.70624813895404
104181.0,6811.0,104181.0,13530.0,104181.0,30598.0,-188.06490216351187,-263.3650738842115,-511.56835842887176
104191.0,6774.0,104191.0,13436.0,104191.0,30561.0,-194.0732354879638,-267.97488315799364,-520.3556394007867
104191.0,6759.0,104191.0,13426.0,104191.0,30516.0,-200.04485770759732,-272.5432837299986,-529.0664749037039
104191.0,6726.0,104191.0,13381.0,104191.0,30516.0,-205.9794289712337,-277.0686984429241,-537.6994156690487
104191.0,6719.0,104191.0,13387.0,104191.0,30500.0,-211.87723591468693,-281.5508443739766,-546.2536922357613
104191.0,6759.0,104191.0,13468.0,104191.0,30486.0,-217.7394481371378,-285.9910789255282,-554.7293365180335
104191.0,6735.0,104191.0,13408.0,104191.0,30478.0,-223.5679107947496,-290.39191999502157,-563.1271245337339
104202.0,6724.0,104202.0,13373.0,104202.0,30434.0,-229.3646857703065,-294.7564059896165,-571.4485608834407
104202.0,6721.0,104202.0,13413.0,104202.0,30443.0,-235.13181694118805,-299.0881050991551,-579.6959940042366
104202.0,6721.0,104202.0,13431.0,104202.0,30518.0,-240.8712911552728,-303.3912495930381,-587.8725565747573
104202.0,6750.0,104202.0,13482.0,104202.0,30491.0,-246.58484475288867,-307.67015518980554,-595.981416981921
104202.0,6723.0,104202.0,13465.0,104202.0,30444.0,-252.27352248764623,-311.92812167424904,-604.0247424593797
104202.0,6677.0,104202.0,13421.0,104202.0,30410.0,-257.93733687835174,-316.16656543737975,-612.0033978119129
104212.0,6668.0,104212.0,13374.0,104212.0,30381.0,-263.57544687463394,-320.3849808421743,-619.9174666857095
104212.0,6642.0,104212.0,13321.0,104212.0,30360.0,-269.18669798841734,-324.5817506101665,-627.7669295558024
104212.0,6624.0,104212.0,13342.0,104212.0,30344.0,-274.77010298378434,-328.75524871699474,-635.552144274953
104212.0,6624.0,104212.0,13316.0,104212.0,30358.0,-280.3251680450328,-332.9045922969358,-643.2740644241752
104212.0,6636.0,104212.0,13286.0,104212.0,30338.0,-285.852015885044,-337.02993939135024,-650.9341509344055
104212.0,6602.0,104212.0,13313.0,104212.0,30305.0,-291.35125724333454,-341.13268873969764,-658.5341671838062
104222.0,6587.0,104222.0,13309.0,104222.0,30275.0,-296.8238900472036,-345.21556137096934,-666.0762359651718
104222.0,6601.0,104222.0,13321.0,104222.0,30303.0,-302.2714124027915,-349.2823372972987,-673.5631299394012
104222.0,6624.0,104222.0,13434.0,104222.0,30346.0,-307.69580130915494,-353.33718247056936,-680.9982025623323
104222.0,6646.0,104222.0,13413.0,104222.0,30345.0,-313.0990089744282,-357.3833716181175,-688.3845870407393
104222.0,6615.0,104222.0,13331.0,104222.0,30293.0,-318.48219321867,-361.4219269381671,-695.7241995088928
104222.0,6567.0,104222.0,13292.0,104222.0,30229.0,-323.84529307521166,-365.4514414361014,-703.0174772497022
104233.0,6553.0,104233.0,13250.0,104233.0,30222.0,-329.1873077595502,-369.46918198842195,-710.2640461837758
104233.0,6522.0,104233.0,13226.0,104233.0,30178.0,-334.5069734281748,-373.4724238868863,-717.4636518087515
104233.0,6495.0,104233.0,13256.0,104233.0,30182.0,-339.8034026567145,-377.45934303954573,-724.616803144209
104233.0,6521.0,104233.0,13246.0,104233.0,30201.0,-345.076551083955,-381.42927162993544,-731.7250123108153
104233.0,6511.0,104233.0,13261.0,104233.0,30198.0,-350.3273493507701,-385.3824326435224,-738.7905609229349
104233.0,6509.0,104233.0,13243.0,104233.0,30163.0,-355.5574699817636,-389.31955195978696,-745.8160158624092
104243.0,6489.0,104243.0,13230.0,104243.0,30118.0,-360.76906714581526,-393.24163942530254,-752.8040751758157
104243.0,6508.0,104243.0,13294.0,104243.0,30204.0,-365.96467138290063,-397.14985389521735,-759.7577683044228
104243.0,6532.0,104243.0,13317.0,104243.0,30212.0,-371.14698627027747,-401.0449847401186,-766.6801808433066
104243.0,6507.0,104243.0,13299.0,104243.0,30150.0,-376.3184007726951,-404.926440512102,-773.5735094658165
104243.0,6496.0,104243.0,13231.0,104243.0,30129.0,-381.48053087496544,-408.79153603166833,-780.4385093783557
104243.0,6469.0,104243.0,13159.0,104243.0,30086.0,-386.63415672126143,-412.6358671733741,-787.2748725536204
104253.0,6424.0,104253.0,13167.0,104253.0,30067.0,-391.77954307155574,-416.4545791584295,-794.081964008967
104253.0,6425.0,104253.0,13141.0,104253.0,30043.0,-396.9169932946429,-420.243593528193,-800.859452705136
104253.0,6416.0,104253.0,13075.0,104253.0,30045.0,-402.04737177899904,-424.000354795118,-807.6077358956054
104253.0,6426.0,104253.0,13129.0,104253.0,30030.0,-407.172289167896,-427.7244328286649,-814.3281002719193
104253.0,6421.0,104253.0,13197.0,104253.0,30041.0,-412.2939503916431,-431.41772606531066,-821.0226462027374
104253.0,6387.0,104253.0,13126.0,104253.0,30005.0,-417.4149406748022,-435.08376974873016,-827.6941045482231
104264.0,6414.0,104264.0,13186.0,104264.0,30024.0,-422.5381720616209,-438.7268453065388,-834.3456937200766
104264.0,6419.0,104264.0,13256.0,104264.0,30093.0,-427.6668163421896,-442.35134205211466,-840.9808266779655
104264.0,6439.0,104264.0,13220.0,104264.0,30041.0,-432.8039106158908,-445.96075992740214,-847.6023196907919
104264.0,6404.0,104264.0,13191.0,104264.0,29993.0,-437.9517851536509,-449.5566567189785,-854.2116167907113
104264.0,6387.0,104264.0,13082.0,104264.0,29933.0,-443.1117728543061,-453.1386425719166,-860.8089607495231
104264.0,6336.0,104264.0,13084.0,104264.0,29942.0,-448.284432953973,-456.7055512708266,-867.3943526839182
104274.0,6330.0,104274.0,13073.0,104274.0,29906.0,-453.4701553809007,-460.2568695229545,-873.9684037703297
104274.0,6328.0,104274.0,13072.0,104274.0,29907.0,-458.6697713465111,-463.7935378785083,-880.5327289596783
104274.0,6319.0,104274.0,13118.0,104274.0,29966.0,-463.8848382664462,-467.3179978247986,-887.0899373103803
104274.0,6324.0,104274.0,13108.0,104274.0,29917.0,-469.11760910224064,-470.8337319173157,-893.6431480626333
104274.0,6321.0,104274.0,13078.0,104274.0,29894.0,-474.3708661869076,-474.3446732874287,-900.1954168854386
104274.0,6318.0,104274.0,13091.0,104274.0,29866.0,-479.64769839220673,-477.85497011478066,-906.7497299127791
104284.0,6322.0,104284.0,13101.0,104284.0,29906.0,-484.9512620287529,-481.36900982923856,-913.3093428673212
104284.0,6352.0,104284.0,13174.0,104284.0,29930.0,-490.2844687226676,-484.8910937754017,-919.8776718820144
104284.0,6325.0,104284.0,13147.0,104284.0,29905.0,-495.64950910850416,-488.42453352680644,-926.4575760480197
104284.0,6300.0,104284.0,13100.0,104284.0,29837.0,-501.0474611709012,-491.97076976745706,-933.0507783406385
104284.0,6244.0,104284.0,13040.0,104284.0,29815.0,-506.4784121989305,-495.5293899135814,-939.6581290931889
104284.0,6248.0,104284.0,13007.0,104284.0,29800.0,-511.9420943197347,-499.0991213317397,-946.2804347157057
104295.0,6244.0,104295.0,13016.0,104295.0,29782.0,-517.4385256522164,-502.67904328785824,-952.919125112171
104295.0,6218.0,104295.0,13014.0,104295.0,29806.0,-522.9682786499861,-506.26929923635566,-959.5764906110287
104295.0,6243.0,104295.0,13009.0,104295.0,29800.0,-528.5324970541926,-509.8712022136468,-966.2555268133539
104295.0,6230.0,104295.0,13027.0,104295.0,29780.0,-534.132786910385,-513.4870571244192,-972.9595512110365
104295.0,6207.0,104295.0,13019.0,104295.0,29763.0,-539.7710099493248,-517.1198901113675,-979.691957778457
104295.0,6223.0,104295.0,13006.0,104295.0,29767.0,-545.4491715381869,-520.7731658884534,-986.4562328842577
104305.0,6253.0,104305.0,13097.0,104305.0,29805.0,-551.1692898195716,-524.4504706856947,-993.2558701738657
104305.0,6267.0,104305.0,13097.0,104305.0,29794.0,-556.9328675462539,-528.154762031,-1000.0938584990975
104305.0,6226.0,104305.0,13034.0,104305.0,29728.0,-562.7401385728473,-531.8873127604884,-1006.9720888469727
104305.0,6170.0,104305.0,13001.0,104305.0,29715.0,-568.5897911961849,-535.6473772219832,-1013.8913763383295
104305.0,6156.0,104305.0,12962.0,104305.0,29668.0,-574.4794961844166,-539.4329175963605,-1020.8521174754447
104305.0,6137.0,104305.0,12942.0,104305.0,29701.0,-580.4067639615893,-543.2416699128139,-1027.8549613283262
104315.0,6112.0,104315.0,12953.0,104315.0,29679.0,-586.3695765177056,-547.0719507925421,-1034.901039306422
104315.0,6123.0,104315.0,12950.0,104315.0,29678.0,-592.366745548775,-550.9229985653759,-1041.991793968578
104315.0,6127.0,104315.0,12923.0,104315.0,29670.0,-598.3980211739546,-554.7949580902396,-1049.128740752039
104315.0,6143.0,104315.0,12933.0,104315.0,29676.0,-604.4638541317287,-558.6888654780435,-1056.313286026931
104315.0,6105.0,104315.0,12934.0,104315.0,29616.0,-610.56497539003,-562.6066934255607,-1063.5465913151074
104315.0,6130.0,104315.0,13018.0,104315.0,29677.0,-616.7021230291318,-566.5510746479699,-1070.8295706524996
104326.0,6145.0,104326.0,13024.0,104326.0,29701.0,-622.8758516224615,-570.5243694413891,-1078.1626851261017
104326.0,6109.0,104326.0,12990.0,104326.0,29660.0,-629.0861731582403,-574.5274355025875,-1085.5452046988632
104326.0,6102.0,104326.0,12955.0,104326.0,29559.0,-635.3322723370546,-578.5590166887409,-1092.9747204959308
104326.0,6059.0,104326.0,12873.0,104326.0,29581.0,-641.6126321871737,-582.6161837735553,-1100.4477373052714
104326.0,6048.0,104326.0,12857.0,104326.0,29534.0,-647.9254668159176,-586.6955155847859,-1107.9607392532023
104326.0,6035.0,104326.0,12869.0,104326.0,29518.0,-654.2692043316538,-590.794348731,-1115.5108747510392
104336.0,6031.0,104336.0,12912.0,104336.0,29519.0,-660.6428115477167,-594.9113189077633,-1123.0963195059367
104336.0,6025.0,104336.0,12898.0,104336.0,29516.0,-667.045887663304,-599.0459874446196,-1130.7164431549718
104336.0,6010.0,104336.0,12858.0,104336.0,29522.0,-673.4786342122303,-603.1982452511863,-1138.3716723254527
104336.0,6011.0,104336.0,12853.0,104336.0,29536.0,-679.9418206941491,-607.3682409343758,-1146.0631128816685
104336.0,6023.0,104336.0,12890.0,104336.0,29496.0,-686.4367054108203,-611.5566550070182,-1153.7921053916866
104336.0,6038.0,104336.0,12910.0,104336.0,29560.0,-692.9647435189838,-615.7645693862656,-1161.5598453289685
104346.0,6034.0,104346.0,12957.0,104346.0,29561.0,-699.527064053049,-619.9926792004245,-1169.366861556476
104346.0,6012.0,104346.0,12849.0,104346.0,29475.0,-706.1239789628752,-624.2403953069413,-1177.212338899687
104346.0,5990.0,104346.0,12862.0,104346.0,29441.0,-712.754821624905,-628.5056813993515,-1185.0940720254614
104346.0,5945.0,104346.0,12786.0,104346.0,29426.0,-719.4181977934419,-632.7857896461517,-1193.0093157615288
104346.0,5939.0,104346.0,12785.0,104346.0,29414.0,-726.1125275897767,-637.0782959009115,-1200.9556758901624
104346.0,5937.0,104346.0,12777.0,104346.0,29419.0,-732.8365790598568,-641.3819569630934,-1208.9314657611094
104357.0,5930.0,104357.0,12788.0,104357.0,29387.0,-739.5896918135238,-645.6971511585544,-1216.9357048600582
104357.0,5915.0,104357.0,12797.0,104357.0,29397.0,-746.3717393527814,-650.0258273970873,-1224.9680629449554
104357.0,5928.0,104357.0,12748.0,104357.0,29347.0,-753.1830486733002,-654.3712622048856,-1233.0288914443322
104357.0,5898.0,104357.0,12803.0,104357.0,29375.0,-760.0243095260455,-658.7379606086863,-1241.1193380824002
104357.0,5937.0,104357.0,12918.0,104357.0,29389.0,-766.8964267869039,-663.1312757906244,-1249.2413221125394
104357.0,5957.0,104357.0,12897.0,104357.0,29438.0,-773.8001641387704,-667.5560289604744,-1257.397005857656
104367.0,5914.0,104367.0,12864.0,104367.0,29387.0,-780.7355223809923,-672.0148011649252,-1265.5878454777007
104367.0,5888.0,104367.0,12811.0,104367.0,29352.0,-787.70135220828,-676.5073175462071,-1273.8139494447305
104367.0,5847.0,104367.0,12732.0,104367.0,29295.0,-794.6956385872862,-681.0311708692881,-1282.074311327428
104367.0,5832.0,104367.0,12734.0,104367.0,29290.0,-801.7161957077318,-685.5832063752242,-1290.3676598693203
104367.0,5846.0,104367.0,12748.0,104367.0,29281.0,-808.7612646144975,-690.1607281802853,-1298.6932362982507
104367.0,5832.0,104367.0,12715.0,104367.0,29272.0,-815.8297039570994,-694.7619707860097,-1307.0511184412255
104378.0,5826.0,104378.0,12688.0,104378.0,29307.0,-822.9208589078193,-699.3861899287954,-1315.4421280920221
104378.0,5794.0,104378.0,12724.0,104378.0,29257.0,-830.0344705323088,-704.0338868462541,-1323.8674815046907
104378.0,5790.0,104378.0,12737.0,104378.0,29238.0,-837.1708097941272,-708.7068523075898,-1332.3285391651364
104378.0,5807.0,104378.0,12707.0,104378.0,29232.0,-844.3308500204784,-713.4077652867437,-1340.8269543149445
104378.0,5833.0,104378.0,12811.0,104378.0,29313.0,-851.5161054578853,-718.1396254986057,-1349.3647628252752
104378.0,5855.0,104378.0,12802.0,104378.0,29274.0,-858.7279760180002,-722.9049104414935,-1357.9437748768892
104388.0,5795.0,104388.0,12787.0,104388.0,29263.0,-865.9669543485492,-727.7044265075201,-1366.5646569423163
104388.0,5767.0,104388.0,12711.0,104388.0,29174.0,-873.232365044277,-732.536706079017,-1375.2266713578051
104388.0,5736.0,104388.0,12667.0,104388.0,29159.0,-880.5228606188014,-737.3985496114062,-1383.928352739647
104388.0,5746.0,104388.0,12641.0,104388.0,29178.0,-887.837142018713,-742.2862897878834,-1392.6684797449016
104388.0,5712.0,104388.0,12623.0,104388.0,29165.0,-895.1743795742067,-747.1970108460373,-1401.4465124907088
104388.0,5727.0,104388.0,12630.0,104388.0,29097.0,-902.5343526362344,-752.1292981981856,-1410.2625462580486
104398.0,5697.0,104398.0,12627.0,104398.0,29139.0,-909.9174920831407,-757.0834981911785,-1419.1174513447877
104398.0,5689.0,104398.0,12607.0,104398.0,29076.0,-917.3249208186146,-762.0616883943217,-1428.0131929921254
104398.0,5700.0,104398.0,12653.0,104398.0,29103.0,-924.7585165320726,-767.0675547042788,-1436.9529933932681
104398.0,5740.0,104398.0,12737.0,104398.0,29178.0,-932.2207599120492,-772.1058939072615,-1445.941163703876
104398.0,5728.0,104398.0,12772.0,104398.0,29165.0,-939.7141355295295,-777.1812639935597,-1454.9822598997478
104398.0,5707.0,104398.0,12716.0,104398.0,29137.0,-947.240421256502,-782.2962536140835,-1464.079882101392
104409.0,5665.0,104409.0,12703.0,104409.0,29106.0,-954.8004510021343,-787.4505544259972,-1473.2360987338357
104409.0,5642.0,104409.0,12598.0,104409.0,29064.0,-962.394480230894,-792.6412956395138,-1482.4517139745535
104409.0,5620.0,104409.0,12546.0,104409.0,29040.0,-970.022828414454,-797.8643291202627,-1491.7269230851557
104409.0,5633.0,104409.0,12540.0,104409.0,29062.0,-977.6863997301218,-803.1159450277262,-1501.0619164466716
104409.0,5610.0,104409.0,12627.0,104409.0,29005.0,-985.386869499052,-808.3940406477277,-1510.4571469401753
104409.0,5609.0,104409.0,12566.0,104409.0,28988.0,-993.1266456127933,-813.6980342239916,-1519.9134731510462
104419.0,5610.0,104419.0,12529.0,104419.0,29012.0,-1000.9087991708653,-819.0283191736974,-1529.4324455085898
104419.0,5600.0,104419.0,12570.0,104419.0,28990.0,-1008.7369541347455,-824.3863171114847,-1539.0164135595373
104419.0,5596.0,104419.0,12604.0,104419.0,28975.0,-1016.6151237591033,-829.7746318372183,-1548.668328853616
104419.0,5637.0,104419.0,12614.0,104419.0,29008.0,-1024.5474795203086,-835.1964664256731,-1558.3915388286168
104419.0,5626.0,104419.0,12668.0,104419.0,29030.0,-1032.5378723070253,-840.6545502349327,-1568.1894178008083
104419.0,5593.0,104419.0,12590.0,104419.0,28996.0,-1040.589245381626,-846.1501666682984,-1578.064652824517
104429.0,5574.0,104429.0,12545.0,104429.0,28950.0,-1048.7034509946952,-851.682856348564,-1588.0187367935282
104429.0,5537.0,104429.0,12520.0,104429.0,28917.0,-1056.8815859118179,-857.2511073179297,-1598.0522029625533
104429.0,5528.0,104429.0,12508.0,104429.0,28905.0,-1065.124528066214,-862.853435274451,-1608.165331683307
104429.0,5515.0,104429.0,12482.0,104429.0,28899.0,-1073.4334031171336,-868.4891435562388,-1618.3587262620676
104429.0,5517.0,104429.0,12519.0,104429.0,28898.0,-1081.8098291005592,-874.1586819606341,-1628.6334928142776
104429.0,5504.0,104429.0,12468.0,104429.0,28856.0,-1090.2559269898434,-879.8636975049949,-1638.9911920601405
104440.0,5508.0,104440.0,12461.0,104440.0,28858.0,-1098.7742104412612,-885.6070300761073,-1649.4338807464972
104440.0,5490.0,104440.0,12478.0,104440.0,28837.0,-1107.3674497718036,-891.3928896877192,-1659.9642871641051
104440.0,5524.0,104440.0,12591.0,104440.0,28890.0,-1116.0384918767365,-897.2266951590042,-1670.585809039322
104440.0,5527.0,104440.0,12604.0,104440.0,28900.0,-1124.7898801750212,-903.1138678071658,-1681.3020038469608
104440.0,5525.0,104440.0,12571.0,104440.0,28872.0,-1133.6232461646753,-909.0580778285687,-1692.1157009580834
104440.0,5472.0,104440.0,12466.0,104440.0,28837.0,-1142.5388428531944,-915.0603962395152,-1703.0284033426287
104450.0,5425.0,104450.0,12459.0,104450.0,28799.0,-1151.5356834456484,-921.1200039031953,-1714.040409792049
104450.0,5417.0,104450.0,12428.0,104450.0,28757.0,-1160.6122731376302,-927.2356035930967,-1725.1514471446367
104450.0,5400.0,104450.0,12413.0,104450.0,28746.0,-1169.7673916803653,-933.406478722519,-1736.3614401303441
104450.0,5389.0,104450.0,12420.0,104450.0,28759.0,-1179.0005159416785,-939.6330206782374,-1747.67106670544
104450.0,5396.0,104450.0,12438.0,104450.0,28731.0,-1188.3119371350506,-945.9168563127798,-1759.0818620950688
104450.0,5379.0,104450.0,12432.0,104450.0,28728.0,-1197.7027002247278,-952.260585698056,-1770.5960678174788
104460.0,5361.0,104460.0,12430.0,104460.0,28730.0,-1207.17448894382,-958.6673607930791,-1782.2165069351227
104460.0,5365.0,104460.0,12442.0,104460.0,28725.0,-1216.7296061468933,-965.1405599338647,-1793.9464105830775
104460.0,5407.0,104460.0,12466.0,104460.0,28733.0,-1226.370867308976,-971.6834467439501,-1805.789092474891
104460.0,5403.0,104460.0,12520.0,104460.0,28763.0,-1236.1010671152765,-978.2985158760339,-1817.7474652130786
104460.0,5371.0,104460.0,12449.0,104460.0,28737.0,-1245.922235594612,-984.9865801284412,-1829.823378065378
104460.0,5341.0,104460.0,12383.0,104460.0,28648.0,-1255.8353211838496,-991.7463678763352,-1842.017174790102
104471.0,5306.0,104471.0,12344.0,104471.0,28612.0,-1265.8405010085194,-998.5752743342453,-1854.3281271351684
104471.0,5313.0,104471.0,12354.0,104471.0,28624.0,-1275.9377399104255,-1005.4706838509161,-1866.755513287752
104471.0,5293.0,104471.0,12363.0,104471.0,28608.0,-1286.127163110284,-1012.4307806167589,-1879.299341568421
104471.0,5276.0,104471.0,12316.0,104471.0,28615.0,-1296.4091655987056,-1019.4546556021407,-1891.960367254155
104471.0,5279.0,104471.0,12325.0,104471.0,28591.0,-1306.7844525241253,-1026.542312845665,-1904.7398275043815
104471.0,5241.0,104471.0,12330.0,104471.0,28548.0,-1317.2540955585787,-1033.6948179645199,-1917.639313273376
104481.0,5255.0,104481.0,12342.0,104481.0,28574.0,-1327.819601168948,-1040.9142387821184,-1930.660899590051
104481.0,5279.0,104481.0,12408.0,104481.0,28602.0,-1338.482865286951,-1048.2031270985217,-1943.8071455971665
104481.0,5290.0,104481.0,12412.0,104481.0,28603.0,-1349.245731010001,-1055.5635213063483,-1957.0805089461837
104481.0,5276.0,104481.0,12390.0,104481.0,28588.0,-1360.1092403439188,-1062.9957976237956,-1970.4824638604578
104481.0,5239.0,104481.0,12333.0,104481.0,28556.0,-1371.0731040775675,-1070.498102476135,-1984.0129521696508
104481.0,5177.0,104481.0,12293.0,104481.0,28527.0,-1382.1357945033642,-1078.0667404058847,-1997.670371666792
104491.0,5176.0,104491.0,12260.0,104491.0,28480.0,-1393.2952225395113,-1085.6971694864963,-2011.4519641745899
104491.0,5146.0,104491.0,12272.0,104491.0,28465.0,-1404.5495176493741,-1093.3849769930432,-2025.3544151582369
104491.0,5165.0,104491.0,12223.0,104491.0,28459.0,-1415.8974492068648,-1101.1264610740318,-2039.374401878951
104491.0,5167.0,104491.0,12232.0,104491.0,28465.0,-1427.3383922220135,-1108.918950096382,-2053.508792698194
104491.0,5148.0,104491.0,12249.0,104491.0,28430.0,-1438.8719872192198,-1116.7609973879596,-2067.754497632831
104491.0,5146.0,104491.0,12215.0,104491.0,28404.0,-1450.4978018948675,-1124.652311823231,-2082.1083466695827
104502.0,5154.0,104502.0,12268.0,104502.0,28433.0,-1462.2151261100582,-1132.5934809614328,-2096.567163903751
104502.0,5180.0,104502.0,12298.0,104502.0,28485.0,-1474.0226452470479,-1140.5854725829063,-2111.1275458393307
104502.0,5174.0,104502.0,12369.0,104502.0,28471.0,-1485.9178138695643,-1148.6285786754918,-2125.784927069454
104502.0,5130.0,104502.0,12320.0,104502.0,28409.0,-1497.8962292455321,-1156.7209475609359,-2140.532532474002
104502.0,5100.0,104502.0,12210.0,104502.0,28384.0,-1509.9515046771278,-1164.8577220958746,-2155.361144974162
104502.0,5085.0,104502.0,12216.0,104502.0,28334.0,-1522.0756812307293,-1173.0316076659687,-2170.2596931096723
104512.0,5067.0,104512.0,12175.0,104512.0,28329.0,-1534.2597247548438,-1181.2342245573318,-2185.2160212560143
104512.0,5041.0,104512.0,12180.0,104512.0,28311.0,-1546.4938433279845,-1189.4570752163186,-2200.2174218923196
104512.0,5056.0,104512.0,12179.0,104512.0,28349.0,-1558.7676719664128,-1197.6919060669989,-2215.250740071535
104512.0,5028.0,104512.0,12168.0,104512.0,28308.0,-1571.0703026423505,-1205.9307252104982,-2230.302028236654
104512.0,5012.0,104512.0,12175.0,104512.0,28262.0,-1583.3902105375923,-1214.1656604273708,-2245.3561848815484
104512.0,5014.0,104512.0,12171.0,104512.0,28286.0,-1595.7152529462085,-1222.3887710684953,-2260.397024746829
104522.0,5038.0,104522.0,12260.0,104522.0,28340.0,-1608.032597513653,-1230.5916360036185,-2275.4073095100193
104522.0,5050.0,104522.0,12225.0,104522.0,28355.0,-1620.3282685532793,-1238.7644487357404,-2290.3679664332058
104522.0,5018.0,104522.0,12203.0,104522.0,28282.0,-1632.5864434007044,-1246.8950145877213,-2305.2568820604624
104522.0,4996.0,104522.0,12171.0,104522.0,28235.0,-1644.7890173348253,-1254.9684395360282,-2320.048447367737
104522.0,4955.0,104522.0,12126.0,104522.0,28223.0,-1656.915714828939,-1262.9675859652984,-2334.714148519529
104522.0,4934.0,104522.0,12090.0,104522.0,28192.0,-1668.9445756982482,-1270.873885003587,-2349.223392540725
104533.0,4930.0,104533.0,12063.0,104533.0,28160.0,-1680.8524869253686,-1278.6682732508327,-2363.5440365732356
104533.0,4928.0,104533.0,12102.0,104533.0,28187.0,-1692.615467425756,-1286.3319428329323,-2377.6427066885262
104533.0,4940.0,104533.0,12102.0,104533.0,28188.0,-1704.2085830473964,-1293.846484452798,-2391.4847939577617
104533.0,4935.0,104533.0,12094.0,104533.0,28147.0,-1715.6055856692738,-1301.193474634128,-2405.034084332065
104533.0,4885.0,104533.0,12145.0,104533.0,28156.0,-1726.7785665976462,-1308.3539347584829,-2418.252476762294
104533.0,4909.0,104533.0,12064.0,104533.0,28168.0,-1737.697920572516,-1315.3078648676526,-2431.0999020322934
104543.0,4925.0,104543.0,12210.0,104543.0,28193.0,-1748.3323905823972,-1322.0338204703978,-2443.5339882003254
104543.0,4927.0,104543.0,12186.0,104543.0,28181.0,-1758.6487148236242,-1328.5081444532173,-2455.5093525222187
104543.0,4918.0,104543.0,12132.0,104543.0,28146.0,-1768.6110083585975,-1334.7038365847366,-2466.9769704945306
104543.0,4850.0,104543.0,12051.0,104543.0,28102.0,-1778.1804492164458,-1340.5902229998537,-2477.8841031077536
104543.0,4828.0,104543.0,12033.0,104543.0,28083.0,-1787.3156242469463,-1346.1340073421115,-2488.1748162698473
104543.0,4824.0,104543.0,12042.0,104543.0,28063.0,-1795.9733133674179,-1351.300682566279,-2497.7906893511195
104553.0,4805.0,104553.0,12039.0,104553.0,28017.0,-1804.1091145102407,-1356.0552743873352,-2506.6714212053585
104553.0,4807.0,104553.0,12006.0,104553.0,28045.0,-1811.6776920958296,-1360.36247211697,-2514.755347683433
104553.0,4824.0,104553.0,12045.0,104553.0,28025.0,-1818.6327860483,-1364.186670129155,-2521.9797552006885
104553.0,4790.0,104553.0,11968.0,104553.0,27993.0,-1824.9270516228107,-1367.4920829894252,-2528.2809478202157
104553.0,4769.0,104553.0,12021.0,104553.0,28010.0,-1830.5119845032104,-1370.2429455130625,-2533.5943774761195
104553.0,4804.0,104553.0,12065.0,104553.0,28042.0,-1835.3381047140979,-1372.403582366956,-2537.85476248814
104564.0,4809.0,104564.0,12091.0,104564.0,28067.0,-1839.3549961692277,-1373.9378201810266,-2540.9957309954407
104564.0,4792.0,104564.0,12073.0,104564.0,28023.0,-1842.5109767979461,-1374.8079456996397,-2542.949141174581
104564.0,4767.0,104564.0,12036.0,104564.0,27991.0,-1844.752874428867,-1374.974107657056,-2543.644837258095
104564.0,4728.0,104564.0,11947.0,104564.0,27966.0,-1846.0263209143889,-1374.3946978607505,-2543.011197703205
104564.0,4734.0,104564.0,11935.0,104564.0,27950.0,-1846.2764346669421,-1373.0276439560707,-2540.9760770712123
104564.0,4709.0,104564.0,11966.0,104564.0,27921.0,-1845.4485128946792,-1370.831890707964,-2537.467702744927
104574.0,4679.0,104574.0,11941.0,104574.0,27921.0,-1843.4886017325168,-1367.7681968933182,-2532.415474156428
104574.0,4731.0,104574.0,11999.0,104574.0,27924.0,-1840.3440168545535,-1363.7992045939106,-2525.750640518675
104574.0,4695.0,104574.0,11959.0,104574.0,27924.0,-1835.9636361911396,-1358.8892395113792,-2517.4067459991516
104574.0,4692.0,104574.0,11981.0,104574.0,27952.0,-1830.297984659294,-1353.004167304445,-2507.319850615867
104574.0,4708.0,104574.0,11956.0,104574.0,27953.0,-1823.2994687262903,-1346.111505423612,-2495.428587681692
104574.0,4746.0,104574.0,12038.0,104574.0,28024.0,-1814.922600502339,-1338.1806033370592,-2481.6740335482755
104584.0,4756.0,104584.0,12094.0,104584.0,28023.0,-1805.1238243426978,-1329.1823093647506,-2465.9993228229123
104584.0,4740.0,104584.0,12063.0,104584.0,28020.0,-1793.8611801545662,-1319.0880138094626,-2448.3492234510477
104584.0,4698.0,104584.0,12001.0,104584.0,27979.0,-1781.0943997870759,-1307.8690386925875,-2428.6702300208017
104584.0,4705.0,104584.0,11971.0,104584.0,27986.0,-1766.7856604624114,-1295.497299857823,-2406.911397649675
104584.0,4706.0,104584.0,11967.0,104584.0,27984.0,-1750.9005857215411,-1281.946827495796,-2383.025495207756
104584.0,4714.0,104584.0,12029.0,104584.0,28014.0,-1733.4089992791564,-1267.1950187659759,-2356.969963453494
104595.0,4753.0,104595.0,12008.0,104595.0,28059.0,-1714.285339791705,-1251.223050622666,-2328.707450906482
104595.0,4766.0,104595.0,12022.0,104595.0,28022.0,-1693.508794165874,-1234.0158562814313,-2298.206052261652
104595.0,4765.0,104595.0,12007.0,104595.0,28061.0,-1671.0633020039172,-1215.562337799417,-2265.439705872622
104595.0,4804.0,104595.0,12058.0,104595.0,28125.0,-1646.937696957896,-1195.8558334613613,-2230.388807983438
104595.0,4842.0,104595.0,12161.0,104595.0,28193.0,-1621.125898484312,-1174.8942230875425,-2193.040400993576
104595.0,4894.0,104595.0,12211.0,104595.0,28231.0,-1593.6268184157109,-1152.6791230479782,-2153.3877117455463
104605.0,4888.0,104605.0,12220.0,104605.0,28314.0,-1564.4440432515821,-1129.2145272301839,-2111.4295117734173
104605.0,4929.0,104605.0,12180.0,104605.0,28327.0,-1533.585703013374,-1104.5060089844694,-2067.169611380566
104605.0,4941.0,104605.0,12188.0,104605.0,28304.0,-1501.0646661778187,-1078.5610849639236,-2020.616756735443
104605.0,4945.0,104605.0,12204.0,104605.0,28333.0,-1466.8989106606023,-1051.3902489065722,-1971.785334592354
104605.0,4999.0,104605.0,12192.0,104605.0,28404.0,-1431.1120016142697,-1023.0079344176842,-1920.6965585144828
104605.0,5045.0,104605.0,12272.0,104605.0,28462.0,-1393.733471048839,-993.433171640865,-1867.379217340626
104616.0,5116.0,104616.0,12291.0,104616.0,28579.0,-1354.7987807767997,-962.6898401956497,-1811.8696249652967
104616.0,5162.0,104616.0,12344.0,104616.0,28609.0,-1314.34889402723,-930.8064793043682,-1754.2110538068982
104616.0,5190.0,104616.0,12395.0,104616.0,28683.0,-1272.429796585692,-897.8159174129528,-1694.4531587344848
104616.0,5268.0,104616.0,12406.0,104616.0,28757.0,-1229.092229214778,-863.7549308460152,-1632.6517199123184
104616.0,5335.0,104616.0,12549.0,104616.0,28887.0,-1184.3914558241204,-828.663867697246,-1568.868391295675
104616.0,5402.0,104616.0,12630.0,104616.0,28980.0,-1138.3867561159423,-792.5857966199637,-1503.1699571557845
104626.0,5443.0,104626.0,12644.0,104626.0,29044.0,-1091.1407805523163,-755.5650517249796,-1435.627242367104
104626.0,5495.0,104626.0,12601.0,104626.0,29056.0,-1042.7191239223564,-717.6462326285051,-1366.314421045745
104626.0,5530.0,104626.0,12611.0,104626.0,29135.0,-993.1902227356334,-678.8746376960996,-1295.3092089564864
104626.0,5581.0,104626.0,12652.0,104626.0,29214.0,-942.6254731260193,-639.2975947670169,-1222.6935122926673
104626.0,5633.0,104626.0,12697.0,104626.0,29316.0,-891.0994233567411,-598.9655141156306,-1148.5537511632526
104626.0,5723.0,104626.0,12804.0,104626.0,29367.0,-838.6898362329639,-557.9321197409246,-1072.9807154808673
104636.0,5796.0,104636.0,12843.0,104636.0,29426.0,-785.4774024622367,-516.2539342416692,-996.0694523200741
104636.0,5842.0,104636.0,12860.0,104636.0,29574.0,-731.5451732705833,-473.98953360698715,-917.9193882123416
104636.0,5914.0,104636.0,12914.0,104636.0,29648.0,-676.9780820234532,-431.1992419665006,-838.634193548449
104636.0,6007.0,104636.0,13019.0,104636.0,29788.0,-621.8626250147508,-387.94513488417,-758.3211106340743
104636.0,6074.0,104636.0,13140.0,104636.0,29936.0,-566.2863829725902,-344.2904810665093,-677.0899302434395
104636.0,6166.0,104636.0,13166.0,104636.0,29996.0,-510.3373096504297,-300.2983877511613,-595.0517326000577
104647.0,6217.0,104647.0,13178.0,104647.0,30066.0,-454.10300930154244,-256.03057459793354,-512.3178688539961
104647.0,6244.0,104647.0,13180.0,104647.0,30113.0,-397.6702713680529,-211.5472130498531,-428.9998047860904
104647.0,6318.0,104647.0,13212.0,104647.0,30188.0,-341.12506191695365,-166.90770166773973,-345.20969158163734
104647.0,6360.0,104647.0,13286.0,104647.0,30285.0,-284.55277877604476,-122.17154777543169,-261.06106102529066
104647.0,6452.0,104647.0,13281.0,104647.0,30410.0,-228.03837497479253,-77.39881921314782,-176.6691274399791
104647.0,6517.0,104647.0,13399.0,104647.0,30531.0,-171.66618986518233,-32.65025734776418,-92.15043566475879
104657.0,6584.0,104657.0,13412.0,104657.0,30593.0,-115.51954992411697,12.012833239285328,-7.622094177368126
104657.0,6646.0,104657.0,13497.0,104657.0,30695.0,-59.68034696916243,56.52893047737871,76.79881342129556
104657.0,6710.0,104657.0,13537.0,104657.0,30833.0,-4.2287388177826415,100.8366957988435,160.99552093463626
104657.0,6816.0,104657.0,13705.0,104657.0,30965.0,50.7571618064203,144.87554774186742,244.85215464184603
104657.0,6886.0,104657.0,13680.0,104657.0,31074.0,105.20186568274903,188.58671168018623,328.2548618275632
104657.0,6931.0,104657.0,13766.0,104657.0,31152.0,159.0332743984909,231.91427610861,411.0930007099555
104667.0,6964.0,104667.0,13758.0,104667.0,31176.0,212.18314520726358,274.80556931868,493.2597296498725
104667.0,7019.0,104667.0,13783.0,104667.0,31281.0,264.5870129321945,317.21089875010193,574.6517665020015
104667.0,7051.0,104667.0,13807.0,104667.0,31354.0,316.1838443337483,359.0829360297628,655.1688072739912
104667.0,7089.0,104667.0,13859.0,104667.0,31443.0,366.91566179368715,400.3760306194183,734.7132267142229
104667.0,7182.0,104667.0,13868.0,104667.0,31545.0,416.72722734934723,441.0457450361869,813.1901207582009
104667.0,7239.0,104667.0,13921.0,104667.0,31614.0,465.5660581220891,481.0485483802686,890.5075179455625
104678.0,7252.0,104678.0,13971.0,104678.0,31691.0,513.3827607712037,520.3415826018165,966.5765969472027
104678.0,7326.0,104678.0,14025.0,104678.0,31801.0,560.1311847976901,558.8826769658774,1041.3118099817352
104678.0,7406.0,104678.0,14175.0,104678.0,31940.0,605.7684003509985,596.630844836089,1114.6312286828934
104678.0,7469.0,104678.0,14219.0,104678.0,32012.0,650.2550362999102,633.5474806779212,1186.4574308935394
104678.0,7525.0,104678.0,14239.0,104678.0,32115.0,693.555979960923,669.5978680217092,1256.7185890323403
104678.0,7548.0,104678.0,14291.0,104678.0,32104.0,735.6409560912798,704.7520828805693,1325.3491149507722
104688.0,7552.0,104688.0,14253.0,104688.0,32163.0,776.4846280874406,738.9850468480181,1392.289466963215
104688.0,7566.0,104688.0,14214.0,104688.0,32220.0,816.0661130963463,772.2758583436964,1457.4853033236882
104688.0,7618.0,104688.0,14263.0,104688.0,32321.0,854.3681830525957,804.606441287443,1520.886753111211
104688.0,7642.0,104688.0,14312.0,104688.0,32367.0,891.3766582650578,835.9602606776161,1582.4483000919868
104688.0,7695.0,104688.0,14344.0,104688.0,32403.0,927.0801782861358,866.3219131442522,1642.1289189453041
104688.0,7735.0,104688.0,14400.0,104688.0,32483.0,961.4702108994845,895.6773704186764,1699.8919634592403
104698.0,7764.0,104698.0,14415.0,104698.0,32545.0,994.5411781801547,924.014337916135,1755.704957793374
104698.0,7812.0,104698.0,14472.0,104698.0,32616.0,1026.2905946772125,951.3225528244814,1809.539664372705
104698.0,7852.0,104698.0,14535.0,104698.0,32738.0,1056.719205763361,977.5941293552601,1861.3725084003827
104698.0,7905.0,104698.0,14570.0,104698.0,32771.0,1085.831245636583,1002.8241558846189,1911.1853518145704
104698.0,7905.0,104698.0,14625.0,104698.0,32824.0,1113.6347704322948,1027.0114693593869,1958.966307826146
104698.0,7892.0,104698.0,14518.0,104698.0,32796.0,1140.1417101399024,1050.1590910771051,2004.7099692758711
104709.0,7912.0,104709.0,14554.0,104709.0,32817.0,1165.3673699176798,1072.2737026002333,2048.4167719334255
104709.0,7914.0,104709.0,14530.0,104709.0,32863.0,1189.329643517257,1093.3643296890773,2090.091869344816
104709.0,7942.0,104709.0,14579.0,104709.0,32895.0,1212.0483633205909,1113.441187229119,2129.7442275405897
104709.0,7981.0,104709.0,14546.0,104709.0,32987.0,1233.5449463010614,1132.5150835551635,2167.386330039374
104709.0,8001.0,104709.0,14575.0,104709.0,32997.0,1253.842367659417,1150.5970094723853,2203.0343997827954
104709.0,8014.0,104709.0,14644.0,104709.0,33021.0,1272.9653137190135,1167.6978165231862,2236.7087166755177
104719.0,8026.0,104719.0,14643.0,104719.0,33032.0,1290.94022597583,1183.8283463983817,2268.433548570272
104719.0,8060.0,104719.0,14729.0,104719.0,33084.0,1307.7952031317009,1199.0000232875468,2298.2367517176576
104719.0,8079.0,104719.0,14803.0,104719.0,33184.0,1323.5599808474512,1213.225757036339,2326.1496530949266
104719.0,8100.0,104719.0,14844.0,104719.0,33181.0,1338.2660753332752,1226.5212842255455,2352.207596205003
104719.0,8105.0,104719.0,14740.0,104719.0,33176.0,1351.9469400646585,1238.9063962908904,2376.4505988865853
104719.0,8078.0,104719.0,14680.0,104719.0,33119.0,1364.6379099772098,1250.404791369188,2398.9231708506013
104729.0,8073.0,104729.0,14712.0,104729.0,33151.0,1376.3757560032554,1261.0424460294253,2419.673188476327
104729.0,8075.0,104729.0,14720.0,104729.0,33142.0,1387.1979500057782,1270.8460057177276,2438.7506086279996
104729.0,8058.0,104729.0,14745.0,104729.0,33170.0,1397.141954635878,1279.8422231718814,2456.2066372029394
104729.0,8119.0,104729.0,14759.0,104729.0,33130.0,1406.2447453605605,1288.058081714511,2472.093231419139
104729.0,8102.0,104729.0,14652.0,104729.0,33173.0,1414.542705121893,1295.520809270567,2486.462569936269
104729.0,8097.0,104729.0,14729.0,104729.0,33199.0,1422.071746756032,1302.2572661964105,2499.366602474084
104740.0,8117.0,104740.0,14747.0,104740.0,33212.0,1428.867255234712,1308.293203885221,2510.857017238412
104740.0,8186.0,104740.0,14833.0,104740.0,33267.0,1434.9640286837266,1313.6534395510535,2520.985563772152
104740.0,8181.0,104740.0,14843.0,104740.0,33262.0,1440.396733084779,1318.3629787395143,2529.8045130262863
104740.0,8160.0,104740.0,14819.0,104740.0,33276.0,1445.2005700252425,1322.4481963427709,2537.3670850101644
104740.0,8132.0,104740.0,14753.0,104740.0,33236.0,1449.4113711723166,1325.9371868896435,2543.7275488944824
104740.0,8097.0,104740.0,14714.0,104740.0,33221.0,1453.0649483457842,1328.8589594636517,2548.9408076709738
104750.0,8113.0,104750.0,14746.0,104750.0,33210.0,1456.1961452845903,1331.2420753736674,2553.0616093109265
104750.0,8106.0,104750.0,14745.0,104750.0,33194.0,1458.838099942749,1333.1137314217515,2556.1437226487683
104750.0,8134.0,104750.0,14718.0,104750.0,33203.0,1461.0219570253294,1334.4995367786623,2558.2393008719564
104750.0,8147.0,104750.0,14732.0,104750.0,33192.0,1462.7769689914107,1335.4234078632094,2559.3984632746565
104750.0,8110.0,104750.0,14766.0,104750.0,33206.0,1464.130731557234,1335.9074124352862,2559.66906931789
104750.0,8138.0,104750.0,14749.0,104750.0,33204.0,1465.1092147962604,1335.9719081888195,2559.096642911743
104760.0,8151.0,104760.0,14801.0,104760.0,33260.0,1465.7366456118843,1335.635944776919,2557.7245060910277
104760.0,8202.0,104760.0,14869.0,104760.0,33267.0,1466.0357122726991,1334.9178962289295,2555.594278465666
104760.0,8200.0,104760.0,14853.0,104760.0,33301.0,1466.028223792894,1333.8365315782798,2552.7466864033945
104760.0,8152.0,104760.0,14782.0,104760.0,33222.0,1465.735729634765,1332.4119564564971,2549.2222293066834
104760.0,8111.0,104760.0,14719.0,104760.0,33191.0,1465.1794251297256,1330.665386874922,2545.0611006226136
104760.0,8130.0,104760.0,14717.0,104760.0,33182.0,1464.3793338325017,1328.617807167496,2540.3023116911986
104771.0,8134.0,104771.0,14710.0,104771.0,33162.0,1463.3535594328127,1326.2886042334035,2534.9827153305005
104771.0,8119.0,104771.0,14682.0,104771.0,33138.0,1462.1180781167427,1323.6948229877855,2529.1363792049165
104771.0,8122.0,104771.0,14726.0,104771.0,33208.0,1460.6867389131485,1320.8508562283137,2522.7942774454673
104771.0,8128.0,104771.0,14745.0,104771.0,33178.0,1459.0711922421874,1317.7685036162704,2515.984465375499
104771.0,8162.0,104771.0,14695.0,104771.0,33128.0,1457.2809404995605,1314.4573912144083,2508.7325076648654
104771.0,8158.0,104771.0,14738.0,104771.0,33187.0,1455.3236883896298,1310.9252655078326,2501.0615195143823
104781.0,8185.0,104781.0,14806.0,104781.0,33192.0,1453.2058550874367,1307.1782040931612,2492.99213372337
104781.0,8170.0,104781.0,14856.0,104781.0,33202.0,1450.93302941708,1303.221519887604,2484.543014176313
104781.0,8187.0,104781.0,14814.0,104781.0,33202.0,1448.5102808170361,1299.0612574651288,2475.7315892630068
104781.0,8150.0,104781.0,14715.0,104781.0,33158.0,1445.9422894848149,1294.705008417799,2466.5744723888915
104781.0,8137.0,104781.0,14732.0,104781.0,33118.0,1443.2332044729565,1290.161294743032,2457.0873565222882
104781.0,8150.0,104781.0,14705.0,104781.0,33108.0,1440.3862720897805,1285.4383355769455,2447.284408557032
104791.0,8141.0,104791.0,14656.0,104791.0,33123.0,1437.403554226463,1280.5431805411768,2437.1776405926553
104791.0,8128.0,104791.0,14711.0,104791.0,33111.0,1434.2858660316292,1275.4811710040624,2426.7767474261673
104791.0,8152.0,104791.0,14680.0,104791.0,33088.0,1431.0327527627546,1270.2556865423264,2416.0892682159893
104791.0,8148.0,104791.0,14746.0,104791.0,33101.0,1427.6425401958977,1264.868392973896,2405.1206773856647
104791.0,8140.0,104791.0,14694.0,104791.0,33088.0,1424.1125274180963,1259.3197955525036,2393.874422740932
104791.0,8166.0,104791.0,14720.0,104791.0,33124.0,1420.4391723038939,1253.6096925236534,2382.3521554962886
104802.0,8193.0,104802.0,14818.0,104802.0,33176.0,1416.618358807777,1247.7375897324798,2370.55435244809
104802.0,8186.0,104802.0,14775.0,104802.0,33158.0,1412.6459323678823,1241.7036064966435,2358.4813929710403
104802.0,8181.0,104802.0,14770.0,104802.0,33109.0,1408.518248563183,1235.5095894301123,2346.134554529377
104802.0,8145.0,104802.0,14676.0,104802.0,33094.0,1404.2323445792144,1229.1593879442858,2333.516214336108
104802.0,8141.0,104802.0,14661.0,104802.0,33044.0,1399.785680985355,1222.6580404258136,2320.629354258805
104802.0,8150.0,104802.0,14637.0,104802.0,33028.0,1395.1757453410862,1216.0105286860487,2307.4768809049574
104812.0,8156.0,104812.0,14605.0,104812.0,33049.0,1390.3999022273968,1209.2207643165834,2294.0610926938225
104812.0,8147.0,104812.0,14677.0,104812.0,33050.0,1385.455548478422,1202.2910759611545,2280.3836135792785
104812.0,8131.0,104812.0,14664.0,104812.0,33019.0,1380.3402721680923,1195.222361308159,2266.4457629995227
104812.0,8129.0,104812.0,14692.0,104812.0,33022.0,1375.0518090195478,1188.0148187329498,2252.248870239999
104812.0,8149.0,104812.0,14658.0,104812.0,33039.0,1369.587950121174,1180.6686838197154,2237.794425909783
104812.0,8165.0,104812.0,14738.0,104812.0,33044.0,1363.9467086305958,1173.1847198078613,2223.084444875677
104823.0,8171.0,104823.0,14738.0,104823.0,33094.0,1358.1268062500528,1165.5648808562396,2208.1222126189746
104823.0,8182.0,104823.0,14716.0,104823.0,33024.0,1352.1282528782835,1157.8132533246896,2192.913198405383
104823.0,8138.0,104823.0,14708.0,104823.0,32976.0,1345.952752345471,1149.9366780041587,2177.465528040325
104823.0,8132.0,104823.0,14584.0,104823.0,32955.0,1339.6037176914092,1141.9445715137615,2161.7895809323445
104823.0,8102.0,104823.0,14556.0,104823.0,32939.0,1333.0859040295184,1133.8478373684009,2145.8972110669106
104823.0,8093.0,104823.0,14586.0,104823.0,32901.0,1326.4049219767357,1125.6573359308243,2129.801235108356
104833.0,8116.0,104833.0,14590.0,104833.0,32925.0,1319.5668966114265,1117.3830300061338,2113.5151994003786
104833.0,8079.0,104833.0,14554.0,104833.0,32884.0,1312.5784073742873,1109.0340890613013,2097.0533526041045
104833.0,8087.0,104833.0,14536.0,104833.0,32868.0,1305.4465488453272,1100.6190572704488,2080.430734495999
104833.0,8079.0,104833.0,14545.0,104833.0,32841.0,1298.1789017206092,1092.1456459444985,2063.6631194084066
104833.0,8075.0,104833.0,14612.0,104833.0,32879.0,1290.7835129238097,1083.62070659208,2046.7669109676604
104833.0,8116.0,104833.0,14699.0,104833.0,32898.0,1283.2690525775768,1075.0511088499397,2029.7594672415091
104843.0,8118.0,104843.0,14613.0,104843.0,32872.0,1275.6452710202013,1066.4453915078027,2012.6599367105005
104843.0,8061.0,104843.0,14563.0,104843.0,32820.0,1267.923571425046,1057.8148547832393,1995.4899548820163
104843.0,8049.0,104843.0,14498.0,104843.0,32747.0,1260.1170986841971,1049.1730938446558,1978.2735229777363
104843.0,8010.0,104843.0,14467.0,104843.0,32710.0,1252.2402005051508,1040.534558075682,1961.036074069759
104843.0,8004.0,104843.0,14462.0,104843.0,32699.0,1244.3077298052758,1031.9131981098426,1943.803328969578
104843.0,7988.0,104843.0,14438.0,104843.0,32695.0,1236.3345137693323,1023.3216494530519,1926.6005926998146
104854.0,7982.0,104854.0,14459.0,104854.0,32664.0,1228.3350376689145,1014.7709138063891,1909.452618223002
104854.0,7979.0,104854.0,14505.0,104854.0,32638.0,1220.3233085680922,1006.2705032835527,1892.383629848127
104854.0,7957.0,104854.0,14419.0,104854.0,32605.0,1212.3128134550657,997.8289641938057,1875.4171533909291
104854.0,7970.0,104854.0,14440.0,104854.0,32623.0,1204.3164924246448,989.4541770115209,1858.5757474224426
104854.0,8010.0,104854.0,14497.0,104854.0,32669.0,1196.3468640891624,981.1532845215937,1841.8811023258172
104854.0,8003.0,104854.0,14565.0,104854.0,32656.0,1188.4165517142746,972.9332131942222,1825.3548160579483
104864.0,7999.0,104864.0,14518.0,104864.0,32592.0,1180.5390072973853,964.8020850347998,1809.0193237872897
104864.0,7958.0,104864.0,14428.0,104864.0,32548.0,1172.7289029598267,956.7702508007801,1792.8980639576723
104864.0,7920.0,104864.0,14368.0,104864.0,32511.0,1165.0019382734936,948.8497988906796,1777.0147748179934
104864.0,7897.0,104864.0,14367.0,104864.0,32493.0,1157.3741804264748,941.0529928884193,1761.3925905175545
104864.0,7900.0,104864.0,14363.0,104864.0,32461.0,1149.8613192116602,933.3909608997071,1746.053399442568
104864.0,7883.0,104864.0,14380.0,104864.0,32445.0,1142.4782208353554,925.8732717482164,1731.0174417957264
104874.0,7865.0,104874.0,14345.0,104874.0,32413.0,1135.2387577859458,918.5080738862862,1716.302993940158
104874.0,7875.0,104874.0,14347.0,104874.0,32386.0,1128.155681559604,911.3022341192592,1701.9260437445496
104874.0,7840.0,104874.0,14303.0,104874.0,32417.0,1121.2405054181409,904.2612107728623,1687.9000211025805
104874.0,7855.0,104874.0,14370.0,104874.0,32460.0,1114.5034109352794,897.3888452409782,1674.2359757127674
104874.0,7896.0,104874.0,14433.0,104874.0,32425.0,1107.953285217734,890.6876748045396,1660.9433959573842
104874.0,7896.0,104874.0,14445.0,104874.0,32477.0,1101.5981798853215,884.1601551436987,1648.0311868688873
104885.0,7830.0,104885.0,14340.0,104885.0,32416.0,1095.4459284347447,877.8099849841417,1635.50837986013
104885.0,7841.0,104885.0,14324.0,104885.0,32318.0,1089.5041931843073,871.6422315358047,1623.3842906007649
104885.0,7802.0,104885.0,14282.0,104885.0,32338.0,1083.779947617375,865.6622768395835,1611.667778692066
104885.0,7807.0,104885.0,14256.0,104885.0,32298.0,1078.2789544517486,859.8746108929894,1600.3661410851269
104885.0,7806.0,104885.0,14256.0,104885.0,32286.0,1073.005463849656,854.2819692312484,1589.4844686920985
104885.0,7794.0,104885.0,14275.0,104885.0,32279.0,1067.9621194454044,848.8848775675328,1579.0253789458461
104895.0,7814.0,104895.0,14306.0,104895.0,32300.0,1063.1500153917782,843.68176126016,1568.9889258247329
104895.0,7804.0,104895.0,14297.0,104895.0,32274.0,1058.5688517232386,838.6695386399801,1559.3727945157736
104895.0,7788.0,104895.0,14282.0,104895.0,32285.0,1054.2171151454424,833.8442246929178,1550.172614767618
104895.0,7816.0,104895.0,14339.0,104895.0,32312.0,1050.092165860121,829.2012760351884,1541.382259438918
104895.0,7838.0,104895.0,14368.0,104895.0,32321.0,1046.1904105831777,824.7360840690515,1532.9943489622772
104895.0,7835.0,104895.0,14324.0,104895.0,32350.0,1042.5077945652206,820.4448329945017,1525.0010367910106
104905.0,7814.0,104905.0,14304.0,104905.0,32302.0,1039.0403192865035,816.325040824127,1517.394774522836
104905.0,7774.0,104905.0,14225.0,104905.0,32259.0,1035.7841063320284,812.3752027130386,1510.16858137172
104905.0,7760.0,104905.0,14247.0,104905.0,32244.0,1032.7349205564915,808.5937997712939,1503.3155895490077
104905.0,7764.0,104905.0,14267.0,104905.0,32206.0,1029.8875068208795,804.9784464780896,1496.8282361245579
104905.0,7772.0,104905.0,14210.0,104905.0,32244.0,1027.2351998296026,801.5256584018499,1490.6976358604898
104905.0,7777.0,104905.0,14219.0,104905.0,32187.0,1024.7699448568048,798.2307991396864,1484.9133234763356
104916.0,7807.0,104916.0,14248.0,104916.0,32242.0,1022.4825858946542,795.0878504178077,1479.4632361199233
104916.0,7766.0,104916.0,14235.0,104916.0,32231.0,1020.363239346698,792.089428460399,1474.3338736474916
104916.0,7791.0,104916.0,14266.0,104916.0,32205.0,1018.4015086887545,789.227166219679,1469.510629005437
104916.0,7829.0,104916.0,14299.0,104916.0,32286.0,1016.5865889829153,786.4922370685936,1464.978117129784
104916.0,7851.0,104916.0,14331.0,104916.0,32287.0,1014.9077169128946,783.8761234269618,1460.7207092478652
104916.0,7819.0,104916.0,14316.0,104916.0,32244.0,1013.35492620927,781.3715739302874,1456.7233661610057
104926.0,7780.0,104926.0,14257.0,104926.0,32188.0,1011.9193924098737,778.9731807403698,1452.9719453286832
104926.0,7770.0,104926.0,14208.0,104926.0,32194.0,1010.5930171717201,776.677042964906,1449.4525552336522
104926.0,7756.0,104926.0,14200.0,104926.0,32166.0,1009.3676814518759,774.4796742149072,1446.1506597201446
104926.0,7775.0,104926.0,14193.0,104926.0,32185.0,1008.2347162550097,772.376911308289,1443.0505540450872
104926.0,7764.0,104926.0,14199.0,104926.0,32210.0,1007.1847490676782,770.3633443412691,1440.1352900207617
104926.0,7763.0,104926.0,14191.0,104926.0,32191.0,1006.2077522237936,768.4321852990252,1437.3869758801857
104936.0,7778.0,104936.0,14204.0,104936.0,32193.0,1005.2930972043627,766.5753123007178,1434.7871417809924
104936.0,7770.0,104936.0,14198.0,104936.0,32196.0,1004.4296354319853,764.7833804171609,1432.316882129948
104936.0,7803.0,104936.0,14319.0,104936.0,32245.0,1003.6058888743332,763.0462016918341,1429.95700602444
104936.0,7851.0,104936.0,14295.0,104936.0,32277.0,1002.810472236215,761.3537690458862,1427.6886153254397
104936.0,7825.0,104936.0,14299.0,104936.0,32235.0,1002.0328300763381,759.6975924921918,1425.4940016921123
104936.0,7780.0,104936.0,14267.0,104936.0,32200.0,1001.2638035161176,758.0714170563493,1423.3571245219791
104947.0,7760.0,104947.0,14195.0,104947.0,32166.0,1000.4953995244496,756.4709907795902,1421.2632028846713
104947.0,7772.0,104947.0,14191.0,104947.0,32153.0,999.7200281831776,754.8931420428477,1419.197808500716
104947.0,7766.0,104947.0,14132.0,104947.0,32146.0,998.9299630450234,753.3345751516109,1417.1460592725618
104947.0,7736.0,104947.0,14180.0,104947.0,32184.0,998.1171604257693,751.7908659440184,1415.0922295437094
104947.0,7776.0,104947.0,14161.0,104947.0,32169.0,997.2731181378485,750.2559894313442,1413.0198625672947
104947.0,7775.0,104947.0,14211.0,104947.0,32188.0,996.3888467805004,748.7224362843077,1410.9121610581985
104957.0,7761.0,104957.0,14171.0,104957.0,32153.0,995.455103615322,747.1816471808972,1408.752277920183
104957.0,7789.0,104957.0,14206.0,104957.0,32188.0,994.4626282558025,745.6243827706602,1406.5233882863545
104957.0,7818.0,104957.0,14282.0,104957.0,32232.0,993.4023743941478,744.0411145208395,1404.2088611360925
104957.0,7827.0,104957.0,14321.0,104957.0,32264.0,992.2660333210408,742.4229952779899,1401.7929641003818
104957.0,7778.0,104957.0,14210.0,104957.0,32204.0,991.046606677264,740.7631508024664,1399.261855088086
104957.0,7753.0,104957.0,14171.0,104957.0,32166.0,989.7384114662148,739.0569386824194,1396.6039465098984
104967.0,7756.0,104967.0,14136.0,104967.0,32145.0,988.3364750548251,737.3007620087872,1393.8092904150553
104967.0,7763.0,104967.0,14166.0,104967.0,32103.0,986.8359497271051,735.4906339879352,1390.8685616784717
104967.0,7743.0,104967.0,14145.0,104967.0,32150.0,985.2319253919782,733.6214953632764,1387.7722547796932
104967.0,7752.0,104967.0,14187.0,104967.0,32132.0,983.5194099018177,731.6872159785257,1384.510402088521
104967.0,7740.0,104967.0,14177.0,104967.0,32141.0,981.6932666743977,729.6809184018883,1381.0727714686525
104967.0,7714.0,104967.0,14170.0,104967.0,32113.0,979.748099660871,727.5953728635576,1377.449102348432
104978.0,7754.0,104978.0,14173.0,104978.0,32123.0,977.6780878501299,725.4232148056641,1373.6291073830193
104978.0,7749.0,104978.0,14247.0,104978.0,32169.0,975.476986021593,723.1571330038611,1369.6024990707485
104978.0,7805.0,104978.0,14240.0,104978.0,32183.0,973.138534777622,720.7905121593161,1365.3594666308138
104978.0,7782.0,104978.0,14232.0,104978.0,32202.0,970.657168745777,718.3183703130666,1360.8915812032767
104978.0,7740.0,104978.0,14173.0,104978.0,32098.0,968.0285617360101,715.7378000119461,1356.1924800622041
104978.0,7741.0,104978.0,14157.0,104978.0,32100.0,965.2495536891352,713.0475632777598,1351.2576521595208
104988.0,7691.0,104988.0,14118.0,104988.0,32091.0,962.3175809781701,710.2472006976468,1346.0835498364863
104988.0,7710.0,104988.0,14110.0,104988.0,32053.0,959.2300472921295,707.3361282347785,1340.6668626488956
104988.0,7725.0,104988.0,14166.0,104988.0,32092.0,955.9839407726924,704.3130840298371,1335.004196273246
104988.0,7715.0,104988.0,14154.0,104988.0,32084.0,952.5758856964251,701.176236869398,1329.0920614882664
104988.0,7727.0,104988.0,14124.0,104988.0,32044.0,949.0024486876091,697.9236932768758,1322.9271045320686
104988.0,7706.0,104988.0,14111.0,104988.0,32058.0,945.2603656528656,694.5536524810714,1316.506190389051
104998.0,7702.0,104998.0,14127.0,104998.0,32066.0,941.3465984762917,691.0641222997965,1309.8263067304902
104998.0,7742.0,104998.0,14226.0,104998.0,32094.0,937.2583510946955,687.4529650065399,1302.8847702490839
104998.0,7747.0,104998.0,14198.0,104998.0,32111.0,932.9933607465168,683.7188155943022,1295.6798811840245
104998.0,7734.0,104998.0,14169.0,104998.0,32092.0,928.550480667586,679.8622512117389,1288.2117286242456
104998.0,7687.0,104998.0,14095.0,104998.0,32003.0,923.9300200375579,675.8860542363831,1280.4825880853298
104998.0,7665.0,104998.0,14066.0,104998.0,31986.0,919.1334526552184,671.7943342100701,1272.4964216101648
105008.0,7655.0,105008.0,14058.0,105008.0,31973.0,914.1627290845184,667.5912492338098,1264.2578142342136
105008.0,7654.0,105008.0,14038.0,105008.0,31968.0,909.019702205499,663.2800572642246,1255.7712027263362
105008.0,7674.0,105008.0,14051.0,105008.0,31965.0,903.7059534795992,658.8626692046946,1247.0406716881946
105008.0,7639.0,105008.0,14063.0,105008.0,31930.0,898.2229409451509,654.3395863156808,1238.069984979792
105008.0,7625.0,105008.0,14066.0,105008.0,31920.0,892.5721025965387,649.7101611698384,1228.8625143752026
105008.0,7636.0,105008.0,14033.0,105008.0,31927.0,886.754706654028,644.9729473793493,1219.4210572280972
105018.0,7681.0,105018.0,14110.0,105018.0,31965.0,880.7718311573499,640.1259337142086,1209.747911350021
105018.0,7687.0,105018.0,14124.0,105018.0,31963.0,874.6249079357398,635.1670329896845,1199.8454721097335
105018.0,7647.0,105018.0,14155.0,105018.0,31953.0,868.3165212813213,630.095125285596,1189.717062275004
105018.0,7619.0,105018.0,14071.0,105018.0,31898.0,861.8507165408813,624.9110626004605,1179.3674136979466
105018.0,7578.0,105018.0,14009.0,105018.0,31843.0,855.2325797374625,619.6177101253744,1168.802434433031
105018.0,7570.0,105018.0,13967.0,105018.0,31838.0,848.467478669394,614.2188237600976,1158.0283926738903
105028.0,7555.0,105028.0,14016.0,105028.0,31831.0,841.5604085224229,608.7176481523327,1147.05112848393
105028.0,7559.0,105028.0,13976.0,105028.0,31826.0,834.5156441989975,603.1162631997876,1135.8757767903471
105028.0,7557.0,105028.0,13980.0,105028.0,31797.0,827.3366951581552,597.415614159256,1124.5068456263753
105028.0,7560.0,105028.0,13997.0,105028.0,31772.0,820.0264675111217,591.615624252182,1112.9482244711373
105028.0,7542.0,105028.0,14002.0,105028.0,31790.0,812.587495641396,585.7153897313997,1101.2030395636243
105028.0,7549.0,105028.0,14033.0,105028.0,31800.0,805.0221096838718,579.7136678706643,1089.2737061623502
105039.0,7570.0,105039.0,14055.0,105039.0,31834.0,797.3326116282652,573.6096093265265,1077.1624771511176
105039.0,7585.0,105039.0,14055.0,105039.0,31796.0,789.5217007860095,567.4036215706085,1064.8723057647878
105039.0,7527.0,105039.0,14013.0,105039.0,31776.0,781.5930372321486,561.0980497288263,1052.4074820136907
105039.0,7504.0,105039.0,13970.0,105039.0,31718.0,773.5513805328466,554.6972316092983,1039.7736480728252
105039.0,7474.0,105039.0,13906.0,105039.0,31682.0,765.402095192911,548.20679934582,1026.977241059716
105039.0,7474.0,105039.0,13916.0,105039.0,31650.0,757.1504861018312,541.6325675067606,1014.0246665768848
105049.0,7476.0,105049.0,13911.0,105049.0,31663.0,748.8014353347786,534.979644968553,1000.9215974400767
105049.0,7447.0,105049.0,13862.0,105049.0,31666.0,740.3593745421074,528.2520658373819,987.6727717753981
105049.0,7457.0,105049.0,13916.0,105049.0,31642.0,731.828341826973,521.4526498669379,974.2822842275971
105049.0,7439.0,105049.0,13872.0,105049.0,31600.0,723.2120015408285,514.5829951029109,960.7538783556124
105049.0,7429.0,105049.0,13880.0,105049.0,31607.0,714.5136835257983,507.6436492050378,947.0908798525381
105049.0,7472.0,105049.0,13926.0,105049.0,31611.0,705.7365104868837,500.63433594303854,933.2960679481854
105060.0,7454.0,105060.0,13986.0,105060.0,31686.0,696.8837833714775,493.5545667054476,919.3720656851809
105060.0,7447.0,105060.0,13964.0,105060.0,31598.0,687.9595497680798,486.4048859325988,905.3223036060522
105060.0,7407.0,105060.0,13896.0,105060.0,31559.0,678.9689018948043,479.18794503220806,891.1517047653075
105060.0,7372.0,105060.0,13835.0,105060.0,31561.0,669.9177672646767,471.90841514829964,876.8664433528597
105060.0,7333.0,105060.0,13795.0,105060.0,31493.0,660.8122991186588,464.5718075015798,862.4733170957547
105060.0,7329.0,105060.0,13815.0,105060.0,31445.0,651.6581234507676,457.18313409295865,847.9791622669554
105070.0,7345.0,105070.0,13801.0,105070.0,31467.0,642.4598370564619,449.74620594914893,833.3901572826529
105070.0,7349.0,105070.0,13823.0,105070.0,31484.0,633.2210478395593,442.26364363299547,818.7114457202146
105070.0,7339.0,105070.0,13799.0,105070.0,31456.0,623.9448094938772,434.73720324568546,803.947501510217
105070.0,7325.0,105070.0,13793.0,105070.0,31398.0,614.634023430307,427.16805153691325,789.102618893931
105070.0,7321.0,105070.0,13821.0,105070.0,31417.0,605.2916034458492,419.5569212522925,774.1808733306384
105070.0,7358.0,105070.0,13848.0,105070.0,31459.0,595.920619570172,411.90446034820263,759.1860166376135
105080.0,7336.0,105080.0,13857.0,105080.0,31430.0,586.5247164495631,404.212003719634,744.1220185693861
105080.0,7300.0,105080.0,13828.0,105080.0,31418.0,577.1085977165365,396.48242337442747,728.993912693311
105080.0,7270.0,105080.0,13735.0,105080.0,31312.0,567.6780460047682,388.72038512384154,713.8080721725022
105080.0,7253.0,105080.0,13713.0,105080.0,31302.0,558.2394541681012,380.9316231376559,698.5715995841615
105080.0,7228.0,105080.0,13658.0,105080.0,31285.0,548.7992864262926,373.1216025585539,683.291334471913
105080.0,7192.0,105080.0,13687.0,105080.0,31279.0,539.3636311312555,365.294353181309,667.9732676556257
105091.0,7201.0,105091.0,13661.0,105091.0,31224.0,529.9377761414714,357.45191722603187,652.6224490988944
105091.0,7182.0,105091.0,13676.0,105091.0,31220.0,520.5259199374116,349.5943321558554,637.2428751141698
105091.0,7166.0,105091.0,13724.0,105091.0,31227.0,511.1311033025718,341.71995824134984,621.8372920017728
105091.0,7189.0,105091.0,13702.0,105091.0,31210.0,501.7552460798422,333.8261549088825,606.4072863273424
105091.0,7210.0,105091.0,13696.0,105091.0,31264.0,492.39939615600906,325.9100448535902,590.9537730437486
105091.0,7210.0,105091.0,13784.0,105091.0,31264.0,483.064360594841,317.9690988574788,575.4778510355881
105101.0,7195.0,105101.0,13781.0,105101.0,31218.0,473.75143352799853,310.00199267847654,559.9818196177515
105101.0,7177.0,105101.0,13692.0,105101.0,31191.0,464.46280387849015,302.00968345831893,544.4697326282446
105101.0,7132.0,105101.0,13655.0,105101.0,31123.0,455.201527512549,293.9955845393452,528.9471723031313
105101.0,7119.0,105101.0,13608.0,105101.0,31080.0,445.9711446931476,285.96455128665195,513.4204917142328
105101.0,7095.0,105101.0,13575.0,105101.0,31050.0,436.7751511792417,277.92156622343293,497.8958493862549
105101.0,7085.0,105101.0,13614.0,105101.0,31056.0,427.61657177561983,269.8708093751277,482.37843254184077
105111.0,7087.0,105111.0,13578.0,105111.0,31047.0,418.497741455046,261.81535449292846,466.8722188809402
105111.0,7076.0,105111.0,13591.0,105111.0,31029.0,409.42030204846344,253.75732507866633,451.3801917275114
105111.0,7039.0,105111.0,13581.0,105111.0,31027.0,400.38527681125584,245.69810131703332,435.90465020827673
105111.0,7079.0,105111.0,13551.0,105111.0,31011.0,391.39305686284786,237.63843415620397,420.4474625768228
105111.0,7101.0,105111.0,13640.0,105111.0,31051.0,382.4435767094077,229.57860409822774,405.0104103273036
105111.0,7081.0,105111.0,13633.0,105111.0,31051.0,373.5369560767733,221.51901929049052,389.5958456315816
105122.0,7056.0,105122.0,13638.0,105122.0,30993.0,364.6741425888665,213.46129741702987,374.20750619875093
105122.0,7013.0,105122.0,13553.0,105122.0,30883.0,355.8569764933949,205.4090198499623,358.85069416856413
105122.0,7006.0,105122.0,13477.0,105122.0,30893.0,347.08774418057453,197.36738493783332,343.5313615502014
105122.0,6983.0,105122.0,13481.0,105122.0,30876.0,338.36864541540433,189.34190602314322,328.25492973670634
105122.0,6965.0,105122.0,13462.0,105122.0,30855.0,329.7014211050945,181.33711529692084,313.0258001254433
105122.0,6951.0,105122.0,13481.0,105122.0,30882.0,321.08708891534036,173.35602007529008,297.84746662643784
105132.0,6990.0,105132.0,13468.0,105132.0,30829.0,312.5258210814484,165.40018791020964,282.72282921340434
105132.0,6927.0,105132.0,13475.0,105132.0,30826.0,304.0170999666226,157.47004961975017,267.65445542861335
105132.0,6950.0,105132.0,13469.0,105132.0,30791.0,295.5599064863469,149.56520971319378,252.64458938923804
105132.0,6950.0,105132.0,13509.0,105132.0,30853.0,287.1527552269556,141.68480466185792,237.6951530722854
105132.0,7005.0,105132.0,13593.0,105132.0,30829.0,278.79397900290815,133.82826114310285,222.80821132061806
105132.0,6967.0,105132.0,13530.0,105132.0,30815.0,270.48247942756245,125.9966060468272,207.9867790704336
105142.0,6935.0,105142.0,13470.0,105142.0,30736.0,262.2183910633636,118.19347221125952,193.2352522977685
105142.0,6895.0,105142.0,13378.0,105142.0,30710.0,254.00304598920002,110.4247272717073,178.55903961786885
105142.0,6874.0,105142.0,13367.0,105142.0,30662.0,245.83834198505883,102.69694204278562,163.96369390126438
105142.0,6854.0,105142.0,13373.0,105142.0,30660.0,237.72602831671725,95.015886178698,149.45409418506347
105142.0,6849.0,105142.0,13405.0,105142.0,30646.0,229.66720655000802,87.38594337222662,135.0340035213933
105142.0,6838.0,105142.0,13340.0,105142.0,30677.0,221.6620888388304,79.81033663098322,120.70610581324468
105153.0,6839.0,105153.0,13343.0,105153.0,30612.0,213.70995901017272,72.2913216206606,106.47239199048022
105153.0,6828.0,105153.0,13368.0,105153.0,30581.0,205.80925548674213,64.83004036079626,92.33437735701364
105153.0,6834.0,105153.0,13312.0,105153.0,30608.0,197.9577173765873,57.426480412956494,78.29288290459522
105153.0,6874.0,105153.0,13428.0,105153.0,30621.0,190.152674721043,50.07974593867323,64.34798157965224
105153.0,6859.0,105153.0,13415.0,105153.0,30640.0,182.39163474214706,42.78879037309457,50.49962551412841
105153.0,6842.0,105153.0,13395.0,105153.0,30600.0,174.67294357779338,35.55356620581642,36.74856767259894
105163.0,6793.0,105163.0,13319.0,105163.0,30520.0,166.99600752518813,28.37566502405207,23.096798768722238
105163.0,6761.0,105163.0,13274.0,105163.0,30510.0,159.36088765677187,21.257784030399762,9.5471027658823
105163.0,6770.0,105163.0,13291.0,105163.0,30471.0,151.7675976929695,14.20256943552431,-3.8978340067756108
105163.0,6746.0,105163.0,13287.0,105163.0,30455.0,144.2156090381327,7.211826243932592,-17.23609845556507
105163.0,6737.0,105163.0,13276.0,105163.0,30452.0,136.70368845175267,0.28643231424700843,-30.466883631224846
105163.0,6758.0,105163.0,13265.0,105163.0,30444.0,129.22988218886178,-6.573496676721106,-43.59054376857375
105173.0,6734.0,105173.0,13238.0,105173.0,30405.0,121.79164866836982,-13.368606260551587,-56.608470651320886
105173.0,6729.0,105173.0,13245.0,105173.0,30435.0,114.38608306162723,-20.10046417858814,-69.52299367075943
105173.0,6746.0,105173.0,13291.0,105173.0,30440.0,107.01006590734653,-26.77157775958949,-82.33716593083568
105173.0,6777.0,105173.0,13368.0,105173.0,30474.0,99.66054428083555,-33.38475158232916,-95.05412063780841
105173.0,6752.0,105173.0,13296.0,105173.0,30477.0,92.33514190805136,-39.941781309170096,-107.67606649969912
105173.0,6731.0,105173.0,13256.0,105173.0,30379.0,85.03270975725331,-46.44252987959396,-120.20345226845757
105184.0,6680.0,105184.0,13238.0,105184.0,30353.0,77.75332541121657,-52.885181340114514,-132.6349985523109
105184.0,6639.0,105184.0,13175.0,105184.0,30327.0,70.49769268316584,-59.26716436544518,-144.9685685591569
105184.0,6651.0,105184.0,13129.0,105184.0,30266.0,63.26628348430472,-65.58618292938911,-157.20211891746385
105184.0,6649.0,105184.0,13157.0,105184.0,30283.0,56.058766305059066,-71.84126515324374,-169.33440077252476
105184.0,6657.0,105184.0,13229.0,105184.0,30271.0,48.87400461728578,-78.03323947177171,-181.36537074667854
105184.0,6641.0,105184.0,13177.0,105184.0,30274.0,41.7103661689722,-84.16416257441983,-193.29614586136427
105194.0,6624.0,105194.0,13130.0,105194.0,30246.0,34.56595059959773,-90.2365753718102,-205.12869468270515
105194.0,6615.0,105194.0,13166.0,105194.0,30260.0,27.438585666080257,-96.25355224355746,-216.86559250715982
105194.0,6634.0,105194.0,13225.0,105194.0,30289.0,20.325758079371667,-102.21888780861764,-228.509723160435
105194.0,6635.0,105194.0,13243.0,105194.0,30317.0,13.224774478630593,-108.13638498353009,-240.06357521442942
105194.0,6632.0,105194.0,13211.0,105194.0,30268.0,6.1331708298953345,-114.00861658277483,-251.52824587536838
105194.0,6619.0,105194.0,13167.0,105194.0,30192.0,-0.9509069227439113,-119.83626125681963,-262.9029316121382
105204.0,6570.0,105204.0,13105.0,105204.0,30163.0,-8.028613966459488,-125.61846700893875,-274.1854579762912
105204.0,6556.0,105204.0,13112.0,105204.0,30152.0,-15.100728834622487,-131.35385573969177,-285.37334878409365
105204.0,6540.0,105204.0,13058.0,105204.0,30086.0,-22.16822276995765,-137.04151113088972,-296.46466773787006
105204.0,6569.0,105204.0,13115.0,105204.0,30122.0,-29.23264111049241,-142.68156944553232,-307.4585576838381
105204.0,6555.0,105204.0,13081.0,105204.0,30107.0,-36.29602144224373,-148.27531613013298,-318.3554876865651
105204.0,6530.0,105204.0,13053.0,105204.0,30100.0,-43.360581200996876,-153.8250148722575,-329.1570703396767
105215.0,6517.0,105215.0,13080.0,105215.0,30111.0,-50.428632024433455,-159.33390822213505,-339.8656860814028
105215.0,6547.0,105215.0,13116.0,105215.0,30092.0,-57.502700552343754,-164.80619543352816,-350.4841350601437
105215.0,6571.0,105215.0,13186.0,105215.0,30131.0,-64.58534360638839,-170.2463378145112,-361.0152375618243
105215.0,6552.0,105215.0,13216.0,105215.0,30107.0,-71.67850185064378,-175.6576044482057,-371.4612979267861
105215.0,6533.0,105215.0,13078.0,105215.0,30082.0,-78.78290183901765,-181.04068586124845,-381.82358568265977
105215.0,6488.0,105215.0,13002.0,105215.0,30018.0,-85.89799411407807,-186.3937354892072,-392.1022628595772
105225.0,6468.0,105225.0,13003.0,105225.0,29999.0,-93.0224111503386,-191.71404938506555,-402.296943636125
105225.0,6456.0,105225.0,13010.0,105225.0,29970.0,-100.15460922281545,-196.99979964767874,-412.40752204248656
105225.0,6442.0,105225.0,12998.0,105225.0,29960.0,-107.29335628146987,-202.25066205168844,-422.434816441684
105225.0,6448.0,105225.0,13010.0,105225.0,29997.0,-114.43794850402708,-207.4677285066274,-432.3808041344721
105225.0,6418.0,105225.0,13008.0,105225.0,29960.0,-121.58824663537223,-212.65328111656822,-442.2483873777621
105225.0,6431.0,105225.0,12975.0,105225.0,29938.0,-128.74467380013834,-217.81059375620544,-452.04102669838676
105235.0,6421.0,105235.0,13003.0,105235.0,29952.0,-135.90819098781083,-222.94387644777987,-461.7626623519634
105235.0,6444.0,105235.0,13042.0,105235.0,30007.0,-143.08012068519974,-228.0581459013406,-471.41758586491096
105235.0,6455.0,105235.0,13088.0,105235.0,29978.0,-150.2617316139308,-233.15853235192765,-481.0097434735462
105235.0,6412.0,105235.0,13035.0,105235.0,29906.0,-157.45372822492106,-238.24916622924172,-490.541989407802
105235.0,6390.0,105235.0,12986.0,105235.0,29894.0,-164.65605978136546,-243.33256125323499,-500.01618338821686
105235.0,6371.0,105235.0,12987.0,105235.0,29876.0,-171.86823924372925,-248.40998761936612,-509.43393595011617
105246.0,6365.0,105246.0,12954.0,105246.0,29852.0,-179.08981781030377,-253.48224831598088,-518.7972062146614
105246.0,6342.0,105246.0,12948.0,105246.0,29852.0,-186.32069133397556,-258.55023724710543,-528.1085759899595
105246.0,6358.0,105246.0,12986.0,105246.0,29859.0,-193.56124065360427,-263.61519008649907,-537.3713175163743
105246.0,6336.0,105246.0,12937.0,105246.0,29786.0,-200.81232810693677,-268.6786015256565,-546.5893377503428
105246.0,6332.0,105246.0,12911.0,105246.0,29839.0,-208.07520283417898,-273.74211648387086,-555.7672500280337
105246.0,6334.0,105246.0,12916.0,105246.0,29814.0,-215.35142817827466,-278.8078181914675,-564.9104515661604
105256.0,6326.0,105256.0,12967.0,105256.0,29838.0,-222.64279067365192,-283.8785083514622,-574.0248383423038
105256.0,6371.0,105256.0,13046.0,105256.0,29902.0,-229.9510408252845,-288.95717185379635,-583.1161329073818
105256.0,6338.0,105256.0,12969.0,105256.0,29841.0,-237.2773988472644,-294.04567453279196,-592.1889241186227
105256.0,6312.0,105256.0,12964.0,105256.0,29795.0,-244.6221025646097,-299.1438028853844,-601.2459650302874
105256.0,6269.0,105256.0,12881.0,105256.0,29745.0,-251.98447099769544,-304.2494531666748,-610.2884532976564
105256.0,6253.0,105256.0,12861.0,105256.0,29747.0,-259.3634896967269,-309.3596561963517,-619.3169884284121
105267.0,6258.0,105267.0,12859.0,105267.0,29703.0,-266.7584422735465,-314.47173570618145,-628.3323821867873
105267.0,6247.0,105267.0,12829.0,105267.0,29684.0,-274.16919960735993,-319.5840984312588,-637.3361622522596
105267.0,6238.0,105267.0,12855.0,105267.0,29684.0,-281.5961950797142,-324.6965669796176,-646.3309815941789
105267.0,6226.0,105267.0,12841.0,105267.0,29697.0,-289.0403590482417,-329.8104073078299,-655.320812090825
105267.0,6210.0,105267.0,12831.0,105267.0,29687.0,-296.50314813925377,-334.92818235226423,-664.3107401772806
105267.0,6211.0,105267.0,12849.0,105267.0,29671.0,-303.98662481206964,-340.0536058195071,-673.306599153392
105277.0,6248.0,105277.0,12910.0,105277.0,29721.0,-311.4933948997169,-345.1912442811973,-682.3146525121351
105277.0,6245.0,105277.0,12911.0,105277.0,29720.0,-319.0261662918738,-350.3457011711761,-691.3410791960314
105277.0,6245.0,105277.0,12919.0,105277.0,29684.0,-326.58705820471835,-355.5205152797122,-700.3912363092147
105277.0,6203.0,105277.0,12876.0,105277.0,29677.0,-334.17713046523374,-360.71742929710865,-709.4692434799817
105277.0,6174.0,105277.0,12810.0,105277.0,29617.0,-341.79644035673243,-365.93643102437227,-718.5781437002022
105277.0,6144.0,105277.0,12785.0,105277.0,29627.0,-349.4445622367165,-371.17658136335217,-727.720385525648
105287.0,6146.0,105287.0,12788.0,105287.0,29566.0,-357.12122589205876,-376.437131245857,-736.8983614322306
105287.0,6149.0,105287.0,12756.0,105287.0,29592.0,-364.8266850887552,-381.71827386138966,-746.1148646348872
105287.0,6137.0,105287.0,12801.0,105287.0,29590.0,-372.5617009727166,-387.02139863463947,-755.3733003707114
105287.0,6115.0,105287.0,12766.0,105287.0,29548.0,-380.3273973287771,-392.3489987236011,-764.6775807293138
105287.0,6119.0,105287.0,12781.0,105287.0,29559.0,-388.1252527854866,-397.7044161552534,-774.0320145785504
105287.0,6133.0,105287.0,12848.0,105287.0,29586.0,-395.9571024408856,-403.0914953552499,-783.4412713914576
105298.0,6155.0,105298.0,12896.0,105298.0,29599.0,-403.8248372157576,-408.513738208066,-792.9099796982891
105298.0,6142.0,105298.0,12835.0,105298.0,29592.0,-411.7297968371064,-413.9729585164557,-802.44193574063
105298.0,6123.0,105298.0,12820.0,105298.0,29524.0,-419.67222674285654,-419.4684334577272,-812.0395293079212
105298.0,6094.0,105298.0,12749.0,105298.0,29514.0,-427.65114290740246,-424.9971672009922,-821.7038682902464
105298.0,6049.0,105298.0,12694.0,105298.0,29487.0,-435.6646491083917,-430.5549368442189,-831.4353974801581
105298.0,6026.0,105298.0,12695.0,105298.0,29455.0,-443.71057917275164,-436.13762292345825,-841.234493515705
105308.0,6027.0,105308.0,12705.0,105308.0,29434.0,-451.78719915247245,-441.7422336913404,-851.1019367853196
105308.0,6024.0,105308.0,12740.0,105308.0,29484.0,-459.8936052268733,-447.3671092643091,-861.0392299251046
105308.0,6008.0,105308.0,12676.0,105308.0,29446.0,-468.0297425086188,-453.01152834274046,-871.0484593286785
105308.0,6016.0,105308.0,12680.0,105308.0,29456.0,-476.19628965508366,-458.67548859825433,-881.1318291461089
105308.0,6012.0,105308.0,12702.0,105308.0,29446.0,-484.3945145257736,-464.3598813419941,-891.2913169800051
105308.0,6035.0,105308.0,12778.0,105308.0,29479.0,-492.6259936144287,-470.06633598849635,-901.5283884839569
105318.0,6045.0,105318.0,12755.0,105318.0,29452.0,-500.89211629928343,-475.7962587217156,-911.8435158231946
105318.0,6023.0,105318.0,12709.0,105318.0,29425.0,-509.1934791055247,-481.5497796963516,-922.2357225709518
105318.0,5982.0,105318.0,12675.0,105318.0,29393.0,-517.5295402868582,-487.3255902452644,-932.7025577552122
105318.0,5966.0,105318.0,12650.0,105318.0,29349.0,-525.8988160116345,-493.12163569147435,-943.2405314729758
105318.0,5947.0,105318.0,12650.0,105318.0,29348.0,-534.2993955649072,-498.9359251472847,-953.8457409736077
105318.0,5922.0,105318.0,12639.0,105318.0,29332.0,-542.7294072964514,-504.76700100000414,-964.5143635273114
105329.0,5942.0,105329.0,12621.0,105329.0,29322.0,-551.1873139512171,-510.614110641974,-975.2428421641348
105329.0,5931.0,105329.0,12620.0,105329.0,29310.0,-559.6719524467788,-516.4773132181044,-986.0278838083293
105329.0,5904.0,105329.0,12631.0,105329.0,29257.0,-568.1823646963572,-522.3575477247276,-996.8665168204952
105329.0,5893.0,105329.0,12611.0,105329.0,29275.0,-576.7177493856923,-528.2565390137498,-1007.7563416230512
105329.0,5908.0,105329.0,12676.0,105329.0,29314.0,-585.2775853323607,-534.1765133442959,-1018.6956648799335
105329.0,5918.0,105329.0,12699.0,105329.0,29315.0,-593.861552070571,-540.1195554660943,-1029.6830134092934
105339.0,5939.0,105339.0,12678.0,105339.0,29292.0,-602.4690554319222,-546.0865889624598,-1040.71625657554
105339.0,5892.0,105339.0,12658.0,105339.0,29280.0,-611.0986192020288,-552.0765950105113,-1051.792047547796
105339.0,5850.0,105339.0,12567.0,105339.0,29196.0,-619.7476710727942,-558.0866685603268,-1062.9058769448625
105339.0,5816.0,105339.0,12550.0,105339.0,29174.0,-628.4130184062936,-564.1129281575638,-1074.052720766053
105339.0,5808.0,105339.0,12533.0,105339.0,29169.0,-637.0916739077817,-570.1517695183475,-1085.2279852640243
105339.0,5818.0,105339.0,12540.0,105339.0,29148.0,-645.781434309337,-576.2007445498868,-1096.4281539432188
105349.0,5805.0,105349.0,12576.0,105349.0,29169.0,-654.4809693110944,-582.2587320109392,-1107.650916243543
105349.0,5795.0,105349.0,12548.0,105349.0,29160.0,-663.1896454849692,-588.3255617875587,-1118.8949480169508
105349.0,5798.0,105349.0,12518.0,105349.0,29150.0,-671.9073806513899,-594.4016149445957,-1130.1595219660721
105349.0,5773.0,105349.0,12525.0,105349.0,29146.0,-680.6345631587458,-600.4878589482021,-1141.4441707062417
105349.0,5804.0,105349.0,12598.0,105349.0,29178.0,-689.3719490541099,-606.585933545371,-1152.7483984371795
105349.0,5841.0,105349.0,12598.0,105349.0,29141.0,-698.1203226255958,-612.6975465949357,-1164.0712368548457
105360.0,5788.0,105360.0,12576.0,105360.0,29129.0,-706.8798110211497,-618.8234084876815,-1175.4108254408436
105360.0,5761.0,105360.0,12551.0,105360.0,29044.0,-715.649405404221,-624.9626279287589,-1186.764471505398
105360.0,5735.0,105360.0,12471.0,105360.0,29032.0,-724.4272006506011,-631.1129677411284,-1198.129335754213
105360.0,5726.0,105360.0,12455.0,105360.0,29042.0,-733.2109933996894,-637.2717785839351,-1209.5033063399349
105360.0,5688.0,105360.0,12466.0,105360.0,29007.0,-741.9987609218463,-643.4370966248459,-1220.885440203385
105360.0,5708.0,105360.0,12439.0,105360.0,29027.0,-750.7889905134755,-649.6082738413274,-1232.2759474857494
105370.0,5673.0,105370.0,12486.0,105370.0,29025.0,-759.5808635309786,-655.7860317265847,-1243.675996294043
105370.0,5697.0,105370.0,12425.0,105370.0,28984.0,-768.3742617338594,-661.972248049188,-1255.087426863419
105370.0,5661.0,105370.0,12461.0,105370.0,29021.0,-777.1696748912657,-668.1697761568086,-1266.5125369834993
105370.0,5679.0,105370.0,12476.0,105370.0,29026.0,-785.9680966800402,-674.382310934378,-1277.9538414989227
105370.0,5718.0,105370.0,12592.0,105370.0,29074.0,-794.7708036308974,-680.6137670709471,-1289.413417266576
105370.0,5685.0,105370.0,12533.0,105370.0,29025.0,-803.5788207983153,-686.8668821619646,-1300.8919326640798
105380.0,5675.0,105380.0,12502.0,105380.0,28977.0,-812.3923533958207,-693.1419268796146,-1312.388039542545
105380.0,5638.0,105380.0,12428.0,105380.0,28931.0,-821.2106822070131,-699.4366250638449,-1323.8986477072476
105380.0,5615.0,105380.0,12389.0,105380.0,28898.0,-830.0325106283829,-705.747223017584,-1335.4198431723303
105380.0,5596.0,105380.0,12376.0,105380.0,28876.0,-838.8564780226651,-712.0698722750896,-1346.9478431673265
105380.0,5575.0,105380.0,12372.0,105380.0,28877.0,-847.6816471677353,-718.4016500276932,-1358.479639933468
105380.0,5573.0,105380.0,12389.0,105380.0,28874.0,-856.5078626314995,-724.7409522118588,-1370.0132241454305
105391.0,5579.0,105391.0,12372.0,105391.0,28858.0,-865.3359031996761,-731.0873949378611,-1381.547473051295
105391.0,5588.0,105391.0,12350.0,105391.0,28849.0,-874.1673413428346,-737.4416209603767,-1393.081970529883
105391.0,5563.0,105391.0,12387.0,105391.0,28844.0,-883.004200769413,-743.8052520290912,-1404.6169068384054
105391.0,5587.0,105391.0,12453.0,105391.0,28873.0,-891.8486508192789,-750.1805985500556,-1416.152906291041
105391.0,5592.0,105391.0,12458.0,105391.0,28893.0,-900.7027153794484,-756.5696509414786,-1427.6905197869226
105391.0,5590.0,105391.0,12419.0,105391.0,28847.0,-909.5678242445017,-762.9728342685983,-1439.229465150397
105401.0,5556.0,105401.0,12383.0,105401.0,28794.0,-918.4443889995744,-769.3884995163593,-1450.7682426292477
105401.0,5516.0,105401.0,12301.0,105401.0,28756.0,-927.3317899165849,-775.8134530277825,-1462.3045829260768
105401.0,5482.0,105401.0,12291.0,105401.0,28741.0,-936.2288831333143,-782.2441558405237,-1473.8363655642513
105401.0,5489.0,105401.0,12330.0,105401.0,28712.0,-945.1347225506848,-788.6778644739834,-1485.3623883966518
105401.0,5486.0,105401.0,12302.0,105401.0,28761.0,-954.0490107874249,-795.1130029447822,-1496.882707021455
105401.0,5478.0,105401.0,12320.0,105401.0,28728.0,-962.9721072033074,-801.5488996593781,-1508.3984631929397
105411.0,5458.0,105411.0,12283.0,105411.0,28748.0,-971.9048783451275,-807.9855348018689,-1519.9113904353485
105411.0,5448.0,105411.0,12296.0,105411.0,28687.0,-980.8486842457414,-814.4235168042985,-1531.4234481192611
105411.0,5472.0,105411.0,12306.0,105411.0,28732.0,-989.8054216263176,-820.864091602585,-1542.9367600148635
105411.0,5493.0,105411.0,12395.0,105411.0,28788.0,-998.7772839773286,-827.3087617056112,-1554.4533938341176
105411.0,5482.0,105411.0,12360.0,105411.0,28733.0,-1007.7661413253524,-833.7582600579775,-1565.9745385078145
105411.0,5462.0,105411.0,12299.0,105411.0,28682.0,-1016.772938296545,-840.2115444640666,-1577.4997449446375
105422.0,5408.0,105422.0,12279.0,105422.0,28644.0,-1025.7975779037151,-846.6657920395438,-1589.027153056835
105422.0,5404.0,105422.0,12210.0,105422.0,28615.0,-1034.8393537652923,-853.1173208720534,-1600.5544237707252
105422.0,5385.0,105422.0,12164.0,105422.0,28592.0,-1043.897558393081,-859.5628257865778,-1612.079621227856
105422.0,5362.0,105422.0,12234.0,105422.0,28625.0,-1052.9719073447682,-866.0005094092555,-1623.6017113291716
105422.0,5385.0,105422.0,12255.0,105422.0,28574.0,-1062.0627489036801,-872.4304084180133,-1635.1206058490827
105422.0,5390.0,105422.0,12203.0,105422.0,28586.0,-1071.171006677371,-878.8537693273798,-1646.6370132116185
105432.0,5350.0,105432.0,12205.0,105432.0,28555.0,-1080.2978632014301,-885.2725160245096,-1658.1524217519336
105432.0,5346.0,105432.0,12208.0,105432.0,28553.0,-1089.4445892662798,-891.6893270936869,-1669.669174968044
105432.0,5367.0,105432.0,12270.0,105432.0,28609.0,-1098.6126302369814,-898.1076206416085,-1681.1903776571914
105432.0,5368.0,105432.0,12306.0,105432.0,28600.0,-1107.8034939920153,-904.5308131185984,-1692.7193333557277
105432.0,5335.0,105432.0,12267.0,105432.0,28585.0,-1117.0183655607914,-910.9611070245629,-1704.2586688177953
105432.0,5325.0,105432.0,12178.0,105432.0,28533.0,-1126.2579179181207,-917.3988233084408,-1715.8098436187543
105442.0,5296.0,105442.0,12150.0,105442.0,28499.0,-1135.5224990115794,-923.8430170530746,-1727.3734050267155
105442.0,5254.0,105442.0,12152.0,105442.0,28448.0,-1144.812535125941,-930.2928057414655,-1738.9497614371194
105442.0,5273.0,105442.0,12173.0,105442.0,28471.0,-1154.1290291461905,-936.7482323187753,-1750.5400372212
105442.0,5275.0,105442.0,12118.0,105442.0,28495.0,-1163.4738643091378,-943.2103716520062,-1762.1464625623257
105442.0,5239.0,105442.0,12124.0,105442.0,28450.0,-1172.8497252032246,-949.6813320171799,-1773.7720978917534
105442.0,5260.0,105442.0,12153.0,105442.0,28421.0,-1182.259949632169,-956.1644247796518,-1785.4205080625334
105453.0,5252.0,105453.0,12113.0,105453.0,28426.0,-1191.7084529184472,-962.6641237644208,-1797.0959184024387
105453.0,5253.0,105453.0,12143.0,105453.0,28453.0,-1201.1995181232237,-969.1858223050655,-1808.8034133849555
105453.0,5261.0,105453.0,12238.0,105453.0,28466.0,-1210.7374662264356,-975.735420209992,-1820.5485828099584
105453.0,5259.0,105453.0,12226.0,105453.0,28457.0,-1220.326299225148,-982.3182628842638,-1832.3367509236766
105453.0,5248.0,105453.0,12179.0,105453.0,28436.0,-1229.9693423252165,-988.9378007474794,-1844.1723306623346
105453.0,5207.0,105453.0,12106.0,105453.0,28379.0,-1239.669065213039,-995.5952153976594,-1856.058683313837
105463.0,5173.0,105463.0,12085.0,105463.0,28369.0,-1249.4273069346239,-1002.2903099000309,-1867.9985259548305
105463.0,5169.0,105463.0,12069.0,105463.0,28349.0,-1259.2458395406875,-1009.0227828371608,-1879.9945566841684
105463.0,5135.0,105463.0,12062.0,105463.0,28342.0,-1269.1269243766678,-1015.7930928145431,-1892.0498786478972
105463.0,5166.0,105463.0,12052.0,105463.0,28319.0,-1279.0736181075902,-1022.6028263981262,-1904.1681640741263
105463.0,5151.0,105463.0,12100.0,105463.0,28342.0,-1289.0897514995497,-1029.4547171932827,-1916.3536816601875
105463.0,5148.0,105463.0,12032.0,105463.0,28318.0,-1299.1796476420068,-1036.352382795578,-1928.6111548132478
105473.0,5141.0,105473.0,12096.0,105473.0,28324.0,-1309.3478425733774,-1043.3000345155874,-1940.9454829871615
105473.0,5163.0,105473.0,12143.0,105473.0,28332.0,-1319.5988729334538,-1050.3020970302746,-1953.3614453651878
105473.0,5182.0,105473.0,12153.0,105473.0,28336.0,-1329.9368775367004,-1057.3622582127398,-1965.8633179281242
105473.0,5167.0,105473.0,12110.0,105473.0,28310.0,-1340.3649459441347,-1064.4822970891498,-1978.4544098296783
105473.0,5108.0,105473.0,12057.0,105473.0,28292.0,-1350.8846388882775,-1071.661679412906,-1991.136796194749
105473.0,5065.0,105473.0,12020.0,105473.0,28242.0,-1361.4962086456967,-1078.8981778149098,-2003.9114415122647
105484.0,5054.0,105484.0,11982.0,105484.0,28216.0,-1372.1994383550414,-1086.1889883501174,-2016.7786852205866
105484.0,5064.0,105484.0,11994.0,105484.0,28213.0,-1382.994408152362,-1093.531746501435,-2029.7388688616566
105484.0,5061.0,105484.0,11966.0,105484.0,28230.0,-1393.8816862399378,-1100.9251209458612,-2042.7926858747937
105484.0,5023.0,105484.0,11984.0,105484.0,28199.0,-1404.8621472531859,-1108.36900538626,-2055.941055689356
105484.0,5037.0,105484.0,11986.0,105484.0,28185.0,-1415.9368894329482,-1115.8644521709562,-2069.1848721949186
105484.0,5024.0,105484.0,11990.0,105484.0,28137.0,-1427.1072708130127,-1123.413394250117,-2082.525055587018
105494.0,5029.0,105494.0,11998.0,105494.0,28201.0,-1438.3748033287354,-1131.0182444814727,-2095.962792205814
105494.0,5066.0,105494.0,12053.0,105494.0,28249.0,-1449.740811713808,-1138.6813782995196,-2109.499270225851
105494.0,5064.0,105494.0,12094.0,105494.0,28235.0,-1461.205804525043,-1146.4042305249995,-2123.134548917935
105494.0,5019.0,105494.0,12036.0,105494.0,28167.0,-1472.7687657034448,-1154.1860973179919,-2136.8663932032077
105494.0,4979.0,105494.0,11969.0,105494.0,28116.0,-1484.426959611054,-1162.023537723448,-2150.6901642902862
105494.0,4966.0,105494.0,11893.0,105494.0,28094.0,-1496.176411475297,-1169.9110851603407,-2164.5997017090167
105505.0,4931.0,105505.0,11903.0,105505.0,28072.0,-1508.0125776321274,-1177.8427954066542,-2178.588324658388
105505.0,4930.0,105505.0,11962.0,105505.0,28084.0,-1519.93084141846,-1185.8133805822895,-2192.6493821651384
105505.0,4911.0,105505.0,11925.0,105505.0,28072.0,-1531.9268065202964,-1193.8181866036402,-2206.7763057128814
105505.0,4920.0,105505.0,11910.0,105505.0,28067.0,-1543.9963879203683,-1201.8526294858834,-2220.9623689476075
105505.0,4928.0,105505.0,11868.0,105505.0,28055.0,-1556.1356641585062,-1209.912102503104,-2235.200419778718
105505.0,4902.0,105505.0,11914.0,105505.0,28051.0,-1568.340541630936,-1217.99233411768,-2249.482692351088
105515.0,4943.0,105515.0,11956.0,105515.0,28068.0,-1580.6063787900887,-1226.0893853158232,-2263.800587816264
105515.0,4959.0,105515.0,12024.0,105515.0,28107.0,-1592.9274813393774,-1234.1987319913012,-2278.144185357758
105515.0,4927.0,105515.0,11940.0,105515.0,28035.0,-1605.2963593001587,-1242.3138352351034,-2292.501493872165
105515.0,4896.0,105515.0,11902.0,105515.0,27992.0,-1617.7031994553954,-1250.4253876128594,-2306.8580901975984
105515.0,4856.0,105515.0,11880.0,105515.0,27995.0,-1630.1359966106997,-1258.521798241672,-2321.197557115637
105515.0,4842.0,105515.0,11847.0,105515.0,27950.0,-1642.5811314979512,-1266.5901904486445,-2335.502148875254
105525.0,4824.0,105525.0,11830.0,105525.0,27968.0,-1655.023944413444,-1274.617198001076,-2349.753150498209
105525.0,4828.0,105525.0,11834.0,105525.0,27960.0,-1667.449052057626,-1282.589501623107,-2363.9309334547884
105525.0,4831.0,105525.0,11867.0,105525.0,27948.0,-1679.8403453093988,-1290.4940009883042,-2378.0147629510875
105525.0,4819.0,105525.0,11844.0,105525.0,27927.0,-1692.1807392608932,-1298.3175052398883,-2391.9825618566324
105525.0,4794.0,105525.0,11873.0,105525.0,27937.0,-1704.4519148334193,-1306.0462197129918,-2405.810820147936
105525.0,4805.0,105525.0,11837.0,105525.0,27928.0,-1716.634240734345,-1313.6653490373408,-2419.4744907075556
105536.0,4824.0,105536.0,11894.0,105536.0,27998.0,-1728.7066719532127,-1321.1588049289612,-2432.9465889188236
105536.0,4822.0,105536.0,11896.0,105536.0,27943.0,-1740.646327947797,-1328.5087580947088,-2446.1974098501814
105536.0,4797.0,105536.0,11848.0,105536.0,27927.0,-1752.4279292919898,-1335.6950327516986,-2459.1938172204464
105536.0,4757.0,105536.0,11818.0,105536.0,27859.0,-1764.0235731508114,-1342.6949211017645,-2471.899246627789
105536.0,4711.0,105536.0,11763.0,105536.0,27837.0,-1775.403081128166,-1349.4837725628204,-2484.27442411045
105536.0,4720.0,105536.0,11746.0,105536.0,27852.0,-1786.5347018227023,-1356.0360124269919,-2496.2782163564398
105546.0,4693.0,105546.0,11748.0,105546.0,27828.0,-1797.3856894372675,-1362.3260807513861,-2507.868055272981
105546.0,4722.0,105546.0,11788.0,105546.0,27838.0,-1807.9224801869384,-1368.3288531480175,-2518.9999058563576
105546.0,4703.0,105546.0,11778.0,105546.0,27826.0,-1818.1105262476651,-1374.0193763236214,-2529.6280984808677
105546.0,4679.0,105546.0,11752.0,105546.0,27785.0,-1827.9140392713311,-1379.3723583279088,-2539.7052415426806
105546.0,4694.0,105546.0,11766.0,105546.0,27815.0,-1837.2959096921961,-1384.3619789367995,-2549.182313070947
105546.0,4717.0,105546.0,11838.0,105546.0,27851.0,-1846.217643109218,-1388.9617923112319,-2558.0086454678267
105556.0,4706.0,105556.0,11850.0,105556.0,27836.0,-1854.638979008988,-1393.144038754403,-2566.1314022421857
105556.0,4685.0,105556.0,11835.0,105556.0,27827.0,-1862.517417709696,-1396.878514162097,-2573.4948883623965
105556.0,4667.0,105556.0,11770.0,105556.0,27785.0,-1869.8081081199393,-1400.1319512443702,-2580.0403293633453
105556.0,4619.0,105556.0,11721.0,105556.0,27736.0,-1876.4641705401823,-1402.8684841876736,-2585.7062849284002
105556.0,4618.0,105556.0,11680.0,105556.0,27727.0,-1882.437300125268,-1405.0509306949375,-2590.4295207507093
105556.0,4595.0,105556.0,11665.0,105556.0,27731.0,-1887.6784157392444,-1406.6422388846095,-2594.1458994753575
105567.0,4615.0,105567.0,11709.0,105567.0,27722.0,-1892.1380886235831,-1407.6064971621777,-2596.790861700145
105567.0,4614.0,105567.0,11719.0,105567.0,27720.0,-1895.7666371061682,-1407.9091419536887,-2598.2995638558696
105567.0,4586.0,105567.0,11739.0,105567.0,27692.0,-1898.5140326291018,-1407.5164980215675,-2598.607019077033
105567.0,4577.0,105567.0,11681.0,105567.0,27716.0,-1900.3299647547656,-1406.3953000706906,-2597.6483746941967
105567.0,4593.0,105567.0,11720.0,105567.0,27717.0,-1901.1641416419734,-1404.5127067124042,-2595.35914023622
105567.0,4630.0,105567.0,11799.0,105567.0,27767.0,-1900.966406681902,-1401.8364071662513,-2591.6751089974973
105577.0,4607.0,105577.0,11780.0,105577.0,27751.0,-1899.6864361428122,-1398.3340608448043,-2586.5319712049222
105577.0,4566.0,105577.0,11766.0,105577.0,27747.0,-1897.273497042108,-1393.9724331157781,-2579.8649689393715
105577.0,4581.0,105577.0,11712.0,105577.0,27682.0,-1893.6767808953134,-1388.717268482126,-2571.609076533453
105577.0,4544.0,105577.0,11662.0,105577.0,27666.0,-1888.8460883199573,-1382.5341592644704,-2561.699914949525
105577.0,4550.0,105577.0,11650.0,105577.0,27664.0,-1882.7324735253394,-1375.3899778043665,-2550.0750703335198
105577.0,4537.0,105577.0,11689.0,105577.0,27698.0,-1875.288834108821,-1367.254193310731,-2536.6751550251674
105587.0,4538.0,105587.0,11775.0,105587.0,27715.0,-1866.4704538002097,-1358.0992993181305,-2521.4442244692846
105587.0,4554.0,105587.0,11718.0,105587.0,27725.0,-1856.2354328834522,-1347.9002475016546,-2504.329754306422
105587.0,4547.0,105587.0,11678.0,105587.0,27711.0,-1844.5449854707879,-1336.6339774960752,-2485.2826691826403
105587.0,4572.0,105587.0,11727.0,105587.0,27727.0,-1831.3636474738946,-1324.2799157496127,-2464.257716383381
105587.0,4611.0,105587.0,11809.0,105587.0,27817.0,-1816.6593742585596,-1310.8205780012677,-2441.2138924289193
105587.0,4650.0,105587.0,11879.0,105587.0,27847.0,-1800.4033409198626,-1296.2410355033946,-2416.1143007803803
105598.0,4622.0,105598.0,11839.0,105598.0,27822.0,-1782.5695453747414,-1280.5275814942372,-2388.925579589259
105598.0,4636.0,105598.0,11811.0,105598.0,27821.0,-1763.1347413690432,-1263.666998823366,-2359.6178619444545
105598.0,4611.0,105598.0,11753.0,105598.0,27846.0,-1742.078947104567,-1245.6471941406194,-2328.1655611020014
105598.0,4633.0,105598.0,11789.0,105598.0,27853.0,-1719.3862590486028,-1226.4586911117892,-2294.5483259625335
105598.0,4649.0,105598.0,11809.0,105598.0,27912.0,-1695.0456194296303,-1206.0959226029622,-2258.7517082196837
105598.0,4667.0,105598.0,11848.0,105598.0,27935.0,-1669.0513416165647,-1184.5577291692184,-2220.7675114623953
105608.0,4710.0,105608.0,11879.0,105608.0,28013.0,-1641.4033937251065,-1161.8472522192396,-2180.5938530393555
105608.0,4754.0,105608.0,11898.0,105608.0,28008.0,-1612.1074608616855,-1137.971663057154,-2138.235072504514
105608.0,4767.0,105608.0,11928.0,105608.0,28127.0,-1581.1748082595705,-1112.941980661937,-2093.7016506163463
105608.0,4823.0,105608.0,11986.0,105608.0,28148.0,-1548.6221434419397,-1086.7729536853808,-2047.0100294616338
105608.0,4888.0,105608.0,12068.0,105608.0,28270.0,-1514.4714831141407,-1059.4826845394778,-1998.182147176495
105608.0,4928.0,105608.0,12124.0,105608.0,28315.0,-1478.749777348041,-1031.0917441571214,-1947.2447352985291
105618.0,4958.0,105618.0,12072.0,105618.0,28323.0,-1441.4884137910528,-1001.62221194499,-1894.2286998095617
105618.0,4988.0,105618.0,12126.0,105618.0,28340.0,-1402.722997674446,-971.0974760619267,-1839.1691678296004
105618.0,5017.0,105618.0,12098.0,105618.0,28419.0,-1362.4934895733281,-939.5428499692587,-1782.1062718032292
105618.0,5067.0,105618.0,12137.0,105618.0,28462.0,-1320.844489291258,-906.9863912979336,-1723.085917200179
105618.0,5108.0,105618.0,12213.0,105618.0,28553.0,-1277.8254480278918,-873.4594931687457,-1662.1600588607575
105618.0,5181.0,105618.0,12273.0,105618.0,28663.0,-1233.4906879766459,-838.996876704103,-1599.3865310296437
105629.0,5252.0,105629.0,12289.0,105629.0,28709.0,-1187.8991528668612,-803.6360079935433,-1534.8284981934632
105629.0,5318.0,105629.0,12267.0,105629.0,28786.0,-1141.1138694751148,-767.4167377551025,-1468.5538749480356
105629.0,5349.0,105629.0,12357.0,105629.0,28870.0,-1093.2013448535033,-730.3816400732635,-1400.6350649727008
105629.0,5443.0,105629.0,12520.0,105629.0,28986.0,-1044.2311704365584,-692.5761746718604,-1331.1487376346117
105629.0,5527.0,105629.0,12548.0,105629.0,29085.0,-994.2756426680661,-654.0475947245664,-1260.1752270354368
105629.0,5566.0,105629.0,12578.0,105629.0,29165.0,-943.4091186221866,-614.8432523987827,-1187.7976501777846
105639.0,5622.0,105639.0,12582.0,105639.0,29199.0,-891.7074159312848,-575.009786022462,-1114.1012536499068
105639.0,5652.0,105639.0,12573.0,105639.0,29241.0,-839.2476573320382,-534.593486855706,-1039.1734657541706
105639.0,5696.0,105639.0,12598.0,105639.0,29346.0,-786.108502729905,-493.6412955213011,-963.1045460739397
105639.0,5779.0,105639.0,12663.0,105639.0,29416.0,-732.3704829549578,-452.2018255330871,-885.9881496616265
105639.0,5858.0,105639.0,12679.0,105639.0,29513.0,-678.1160542165903,-410.3259246669105,-807.9214204244697
105639.0,5915.0,105639.0,12758.0,105639.0,29602.0,-623.4292148158665,-368.0667867506712,-729.0048150563575
105649.0,5993.0,105649.0,12791.0,105649.0,29707.0,-568.3949789284858,-325.4798631581308,-649.3418182811422
105649.0,6050.0,105649.0,12853.0,105649.0,29820.0,-513.098957702276,-282.622651203622,-569.0384894838078
105649.0,6119.0,105649.0,12954.0,105649.0,29897.0,-457.62702872584214,-239.55432728370363,-488.2028576111054
105649.0,6223.0,105649.0,13056.0,105649.0,30036.0,-402.06497574281684,-196.33496386958154,-406.9442924461448
105649.0,6315.0,105649.0,13115.0,105649.0,30132.0,-346.49785703202315,-153.0242171367894,-325.3728184015433
105649.0,6349.0,105649.0,13125.0,105649.0,30249.0,-291.0091118205123,-109.68008029433236,-243.5982701511548
105660.0,6403.0,105660.0,13154.0,105660.0,30283.0,-235.67993421589244,-66.35843327604948,-161.72954962094332
105660.0,6419.0,105660.0,13132.0,105660.0,30380.0,-180.58929039096915,-23.113484054975288,-79.87440171277512
105660.0,6499.0,105660.0,13208.0,105660.0,30451.0,-125.8143598472418,20.00132319616455,1.8603392949648878
105660.0,6553.0,105660.0,13219.0,105660.0,30539.0,-71.43092059129958,62.932499487949826,83.36846317610343
105660.0,6613.0,105660.0,13302.0,105660.0,30640.0,-17.513412629512686,105.6261416492157,164.54429119299948
105660.0,6693.0,105660.0,13374.0,105660.0,30733.0,35.8652255438858,148.0280302664546,245.2828032537618
105670.0,6768.0,105670.0,13433.0,105670.0,30852.0,88.6338790513098,190.0841663223489,325.48000643560545
105670.0,6828.0,105670.0,13446.0,105670.0,30939.0,140.7237639778209,231.74143663641735,405.03350578322534
105670.0,6912.0,105670.0,13568.0,105670.0,31088.0,192.06899476772378,272.94803749054654,483.8432362307567
105670.0,7017.0,105670.0,13667.0,105670.0,31176.0,242.60722806358444,313.65406087563974,561.8123994371867
105670.0,7025.0,105670.0,13652.0,105670.0,31299.0,292.280464043007,353.81260322920775,638.8485480610061
105670.0,7063.0,105670.0,13693.0,105670.0,31288.0,341.03556812309444,393.38059081068445,714.864405743695
105680.0,7080.0,105680.0,13660.0,105680.0,31355.0,388.8240616005585,432.31857647970605,789.7778470150638
105680.0,7128.0,105680.0,13668.0,105680.0,31436.0,435.6014561591487,470.58975010236554,863.5111026935219
105680.0,7159.0,105680.0,13749.0,105680.0,31498.0,481.3266276163788,508.15877301977343,935.9900090175704
105680.0,7230.0,105680.0,13792.0,105680.0,31580.0,525.9614327383883,544.991160258118,1007.1437118389181
105680.0,7278.0,105680.0,13806.0,105680.0,31653.0,569.4706392744224,581.053387702874,1076.9045955692586
105680.0,7327.0,105680.0,13859.0,105680.0,31738.0,611.8221178386741,616.3130797970114,1145.2083238368277
105691.0,7372.0,105691.0,13919.0,105691.0,31813.0,652.987080248656,650.7390400548379,1211.994016313908
105691.0,7415.0,105691.0,13947.0,105691.0,31899.0,692.9402257288316,684.3014613802757,1277.2045273806734
105691.0,7491.0,105691.0,14107.0,105691.0,32021.0,731.6598890073108,716.9725135016924,1340.7868933621826
105691.0,7528.0,105691.0,14171.0,105691.0,32092.0,769.1283611211718,748.7275796612448,1402.6930958999346
105691.0,7556.0,105691.0,14121.0,105691.0,32150.0,805.3322925677701,779.5468722697628,1462.8809448491138
105691.0,7552.0,105691.0,14117.0,105691.0,32129.0,840.2627888016921,809.4160865888412,1521.314444786893
105701.0,7577.0,105701.0,14073.0,105701.0,32166.0,873.9149880505183,838.325481917888,1577.9631972411853
105701.0,7601.0,105701.0,14117.0,105701.0,32252.0,906.287372690919,866.2682892944431,1632.8012607566961
105701.0,7624.0,105701.0,14093.0,105701.0,32290.0,937.3811867225268,893.239381005782,1685.806406786733
105701.0,7668.0,105701.0,14163.0,105701.0,32349.0,967.2000868988803,919.234449050264,1736.9599928575935
105701.0,7687.0,105701.0,14225.0,105701.0,32405.0,995.749993085207,944.2497655868676,1786.2469903103802
105701.0,7725.0,105701.0,14201.0,105701.0,32464.0,1023.039060833667,968.2825052850601,1833.656019503897
105711.0,7742.0,105711.0,14232.0,105711.0,32493.0,1049.0776707594923,991.3310407986125,1879.179445592013
105711.0,7805.0,105711.0,14330.0,105711.0,32591.0,1073.87845267469,1013.3949321846685,1922.8134866840492
105711.0,7835.0,105711.0,14451.0,105711.0,32664.0,1097.4565040224957,1034.4754926612454,1964.5585451096804
105711.0,7847.0,105711.0,14410.0,105711.0,32677.0,1119.8297718516587,1054.5773293834,2004.4198772669301
105711.0,7845.0,105711.0,14332.0,105711.0,32675.0,1141.0192295285815,1073.7094628208877,2042.4080030238588
105711.0,7851.0,105711.0,14349.0,105711.0,32645.0,1161.0486027422244,1091.8847253579697,2078.538206922189
105722.0,7853.0,105722.0,14320.0,105722.0,32687.0,1179.9438080539885,1109.1181532057215,2112.829300851895
