c_ts,c_val,d_ts,d_val,e_ts,e_val,c_val_filtered,d_val_filtered,e_val_filtered
345415,12518,345415,9899,345415.0,35113.0,-633.679702015801,-357.0129990585542,-728.923547310161
345415,12427,345415,9924,345415.0,35099.0,-656.6755461461081,-363.6326395014184,-745.1066863827792
345415,12282,345415,9950,345415.0,35102.0,-680.0088633808919,-370.3907756122804,-761.6018712097951
345415,12166,345415,9955,345415.0,35138.0,-703.6071274549552,-377.2912541635026,-778.3971911888918
345425,12118,345425,9944,345425.0,35062.0,-727.4027308423405,-384.3360895695915,-795.4795063395021
345425,12118,345425,9938,345425.0,35070.0,-751.3354808181268,-391.525079515,-812.834191802338
345425,12107,345425,9918,345425.0,35079.0,-775.353771919702,-398.85576617285807,-830.4452497746906
345425,12093,345425,9927,345425.0,35068.0,-799.4146573201388,-406.3235588635509,-848.2952652116901
345425,12109,345425,9900,345425.0,34986.0,-823.4834886043902,-413.92185228582423,-866.3651936680933
345425,12273,345425,9822,345425.0,34936.0,-847.5330403480029,-421.6422861725168,-884.6347164495584
345436,12409,345436,9805,345436.0,34947.0,-871.5411755637125,-429.4755209643693,-903.083228440616
345436,12380,345436,9804,345436.0,34968.0,-895.4870387680435,-437.4123354832783,-921.6905323927115
345436,12322,345436,9863,345436.0,34915.0,-919.3477262712815,-445.44421514620666,-940.4367404710829
345436,12210,345436,9865,345436.0,34939.0,-943.0972334908303,-453.56298174532844,-959.3019341607878
345436,12073,345436,9916,345436.0,34978.0,-966.7076375474403,-461.7598010094506,-978.2658604263275
345436,12004,345436,9855,345436.0,34934.0,-990.1515729199232,-470.02419152686775,-997.3073146712655
345446,11994,345446,9838,345446.0,34898.0,-1013.404841438914,-478.34359387234247,-1016.4035207877168
345446,11972,345446,9817,345446.0,34898.0,-1036.4480606146988,-486.70366825059205,-1035.5301019347046
345446,11954,345446,9810,345446.0,34863.0,-1059.2671911818222,-495.08886774708424,-1054.6613736280833
345446,11949,345446,9799,345446.0,34859.0,-1081.8535434939802,-503.482824211634,-1073.7705228038103
345446,12035,345446,9765,345446.0,34766.0,-1104.2034311893271,-511.8685857208445,-1092.8298335532138
345446,12240,345446,9722,345446.0,34755.0,-1126.3166892382046,-520.2290016046467,-1111.8113023975761
345456,12257,345456,9734,345456.0,34771.0,-1148.1933988112141,-528.547352715839,-1130.6874375690418
345456,12213,345456,9756,345456.0,34788.0,-1169.830057530508,-536.8078207218155,-1149.431502513075
345456,12135,345456,9786,345456.0,34801.0,-1191.21745563829,-544.9953132854989,-1168.0169515328546
345456,11997,345456,9797,345456.0,34791.0,-1212.3409786666773,-553.0947164785526,-1186.4165522309097
345456,11853,345456,9822,345456.0,34801.0,-1233.1827034810403,-561.0899857377105,-1204.6016448808018
345456,11853,345456,9760,345456.0,34769.0,-1253.724387585961,-568.9634482280574,-1222.5416408043902
345467,11809,345467,9764,345467.0,34744.0,-1273.9500186031014,-576.6956470060247,-1240.2038052092628
345467,11785,345467,9771,345467.0,34691.0,-1293.8471109394377,-584.2656304173406,-1257.5534428515766
345467,11803,345467,9757,345467.0,34710.0,-1313.4071467868555,-591.6511389298971,-1274.5543884162958
345467,11831,345467,9734,345467.0,34697.0,-1332.6254896878258,-598.8285909136459,-1291.1693575124998
345467,11986,345467,9679,345467.0,34628.0,-1351.5003884619482,-605.7733092540605,-1307.3600198096299
345467,12127,345467,9657,345467.0,34607.0,-1370.0304908543148,-612.4602202592978,-1323.0873034670515
345477,12122,345477,9650,345477.0,34627.0,-1388.2110693703407,-618.8647666129843,-1338.3120352981184
345477,12034,345477,9686,345477.0,34621.0,-1406.030730139716,-624.9634968626312,-1352.9952521215916
345477,11939,345477,9718,345477.0,34646.0,-1423.470448606845,-630.7339396289946,-1367.097903265106
345477,11793,345477,9756,345477.0,34659.0,-1440.504995164301,-636.1537976986941,-1380.5802308256293
345477,11713,345477,9693,345477.0,34619.0,-1457.105705064822,-641.1999787831239,-1393.401124418061
345477,11681,345477,9719,345477.0,34605.0,-1473.243474273044,-645.8481476909998,-1405.517820019782
345487,11690,345487,9672,345487.0,34562.0,-1488.8909237368748,-650.0729038763062,-1416.8861466135472
345487,11650,345487,9674,345487.0,34557.0,-1504.0233322894817,-653.8481884987943,-1427.461091303138
345487,11665,345487,9666,345487.0,34536.0,-1518.6188510471911,-657.1476992034,-1437.1973625497226
345487,11729,345487,9653,345487.0,34522.0,-1532.6583562688447,-659.9452264342707,-1446.0498153615154
345487,11937,345487,9599,345487.0,34494.0,-1546.124277608486,-662.2150011703261,-1453.9738208398844
345487,12001,345487,9615,345487.0,34468.0,-1558.9976293415843,-663.9322916964566,-1460.9257414061249
345498,11939,345498,9614,345498.0,34503.0,-1571.2542246507164,-665.0740438151255,-1466.8634423121089
345498,11875,345498,9634,345498.0,34510.0,-1582.8624170916837,-665.6191261428468,-1471.7464725209284
345498,11725,345498,9686,345498.0,34508.0,-1593.7834567849009,-665.5480820702875,-1475.5357948921728
345498,11580,345498,9651,345498.0,34529.0,-1603.973889639271,-664.8425590629694,-1478.1934191056873
345498,11553,345498,9649,345498.0,34528.0,-1613.389015277215,-663.4848712726216,-1479.6821409593076
345498,11543,345498,9658,345498.0,34497.0,-1621.9860187713105,-661.4580481824626,-1479.9654074834104
345508,11542,345508,9657,345508.0,34464.0,-1629.725672643339,-658.7460743951488,-1479.0075660845848
345508,11536,345508,9650,345508.0,34488.0,-1636.5728310642464,-655.334019574681,-1476.7745494854732
345508,11585,345508,9647,345508.0,34469.0,-1642.4963954537095,-651.2081966680521,-1473.2345382184958
345508,11729,345508,9608,345508.0,34466.0,-1647.4686251204794,-646.3565148285983,-1468.3583649873735
345508,11870,345508,9609,345508.0,34451.0,-1651.4630694715834,-640.7690861632958,-1462.1199209489005
345508,11884,345508,9609,345508.0,34463.0,-1654.4512239029991,-634.4389510949522,-1454.4966862699976
345518,11808,345518,9659,345518.0,34487.0,-1656.399583880612,-627.3625320702496,-1445.4701652074598
345518,11704,345518,9688,345518.0,34524.0,-1657.2688911788177,-619.5395102497704,-1435.025979535622
345518,11562,345518,9766,345518.0,34585.0,-1657.0158445455054,-610.9721172002472,-1423.1535136573166
345518,11514,345518,9720,345518.0,34562.0,-1655.5962884650835,-601.6641573057843,-1409.8452717364912
345518,11501,345518,9740,345518.0,34588.0,-1652.9684769151722,-591.6203983053134,-1395.0964409844978
345518,11500,345518,9733,345518.0,34585.0,-1649.095290333783,-580.8466576800805,-1378.904962875827
345529,11510,345529,9724,345529.0,34591.0,-1643.9452634249578,-569.3502386792044,-1361.2719040008872
345529,11518,345529,9785,345529.0,34630.0,-1637.492949122377,-557.1403090206388,-1342.2018594815374
345529,11604,345529,9741,345529.0,34621.0,-1629.7188807765679,-544.2280581019404,-1321.703259385404
345529,11819,345529,9715,345529.0,34640.0,-1620.6085950800116,-530.6269116896281,-1299.7886386902537
345529,11903,345529,9742,345529.0,34680.0,-1610.149965577215,-516.3532286959422,-1276.4749818187463
345529,11880,345529,9783,345529.0,34716.0,-1598.3296628182893,-501.42705259258656,-1251.783932884293
345539,11816,345539,9839,345539.0,34763.0,-1585.1309960061062,-485.8721640989359,-1225.741676813027
345539,11700,345539,9907,345539.0,34850.0,-1570.534334630456,-469.7153737805761,-1198.3785169447544
345539,11599,345539,9925,345539.0,34847.0,-1554.5195945729,-452.9854362764736,-1169.728211000221
345539,11602,345539,9954,345539.0,34887.0,-1537.0696175478583,-435.7120709898082,-1139.8274246569752
345539,11619,345539,9956,345539.0,34947.0,-1518.1730481145567,-417.925446519636,-1108.7155849614899
345539,11645,345539,9950,345539.0,34941.0,-1497.8258466653606,-399.65616430276634,-1076.434871328422
345549,11674,345549,10020,345549.0,35004.0,-1476.0317281174493,-380.93550978394956,-1043.0302315402193
345549,11736,345549,10025,345549.0,35063.0,-1452.8021234179769,-361.79552894882136,-1008.5494375637709
345549,11935,345549,10024,345549.0,35047.0,-1428.1555058881677,-342.2688543250164,-973.0430178248785
345549,12098,345549,10029,345549.0,35128.0,-1402.1152847018755,-322.3887711733099,-936.5642586635327
345549,12151,345549,10072,345549.0,35154.0,-1374.7063215920225,-302.18961589803985,-899.1693684408776
345549,12108,345549,10108,345549.0,35251.0,-1345.9518387937142,-281.7069996634643,-860.9174119882939
345560,12070,345560,10158,345560.0,35319.0,-1315.8724882030956,-260.97757277879043,-821.8697929887926
345560,11955,345560,10231,345560.0,35390.0,-1284.4877085019814,-240.03840357629372,-782.089379517472
345560,11935,345560,10214,345560.0,35440.0,-1251.8184953112032,-218.92617094902715,-741.6395621730827
345560,11959,345560,10246,345560.0,35450.0,-1217.890444346895,-197.67661457231424,-700.5836414425994
345560,12011,345560,10282,345560.0,35484.0,-1182.7358829775458,-176.3244642341894,-658.9848012831743
345560,12062,345560,10285,345560.0,35570.0,-1146.3946704051891,-154.90349499087426,-616.9064523522392
345570,12115,345570,10330,345570.0,35623.0,-1108.9141531167618,-133.4465046481182,-574.4123134555881
345570,12253,345570,10320,345570.0,35613.0,-1070.3486669073313,-111.98533389385102,-531.5661583217833
345570,12500,345570,10295,345570.0,35669.0,-1030.7580942070167,-90.55111217340942,-488.4318833400314
345570,12602,345570,10324,345570.0,35726.0,-990.2048213124588,-69.17491040218738,-445.0739771601318
345570,12651,345570,10417,345570.0,35815.0,-948.7499941740632,-47.888368444891,-401.55770201109044
345570,12609,345570,10448,345570.0,35869.0,-906.4511248312801,-26.72350507374057,-357.94867501371436
345580,12546,345580,10510,345580.0,35952.0,-863.3621029208402,-5.711780210289362,-314.3121489047328
345580,12480,345580,10518,345580.0,36022.0,-819.5352380268273,15.116863040950193,-270.712251109965
345580,12519,345580,10543,345580.0,36064.0,-775.0242382876459,35.734562714611684,-227.21125191173644
345580,12576,345580,10558,345580.0,36121.0,-729.8867170367503,56.11569546019746,-183.8690215346577
345580,12639,345580,10558,345580.0,36148.0,-684.1853554977506,76.23676163901644,-140.74280972293923
345580,12718,345580,10580,345580.0,36214.0,-637.9879422495375,96.07610815727617,-97.88725479998789
345591,12790,345591,10596,345591.0,36266.0,-591.3668844162954,115.6135970605228,-55.354397741622506
345591,13018,345591,10584,345591.0,36264.0,-544.3981964825804,134.83030357118793,-13.193648893172167
345591,13221,345591,10608,345591.0,36298.0,-497.159233841023,153.70814506822165,28.5479766399892
345591,13281,345591,10641,345591.0,36381.0,-449.72505936043297,172.22948615252392,69.8253363028955
345591,13301,345591,10656,345591.0,36405.0,-402.16511209975727,190.37698954607822,110.59490006421925
345591,13259,345591,10725,345591.0,36477.0,-354.541954618933,208.13378625496216,150.81490225618018
345601,13186,345601,10787,345601.0,36594.0,-306.9122828315627,225.4840080561317,190.4457427756979
345601,13161,345601,10793,345601.0,36584.0,-259.3294576979997,242.4136909437359,229.4507179246807
345601,13220,345601,10787,345601.0,36650.0,-211.84643776643134,258.91152994589277,267.7967118296219
345601,13263,345601,10790,345601.0,36675.0,-164.51785608298428,274.9689413789861,305.45435988912163
345601,13329,345601,10794,345601.0,36699.0,-117.4008309267117,290.57960087536844,342.3978856731776
345601,13403,345601,10876,345601.0,36742.0,-70.5549861735742,305.7390605368038,378.6048510320543
345612,13517,345612,10815,345612.0,36754.0,-24.041999177084563,320.44478338647207,414.0558303795274
345612,13794,345612,10782,345612.0,36782.0,22.075764909046256,334.69606505605,448.73403012669246
345612,13897,345612,10814,345612.0,36815.0,67.73819407623432,348.49322556512493,482.62484783801983
345612,13934,345612,10833,345612.0,36883.0,112.8911604332011,361.83665608239005,515.7155497536137
345612,13921,345612,10894,345612.0,36898.0,157.48891821028064,374.72658682200847,547.9952776284706
345612,13834,345612,10918,345612.0,36985.0,201.4940837887077,387.1635598798806,579.4552962652731
345622,13760,345622,10953,345622.0,36997.0,244.8755675581749,399.1491759491722,610.0893485312372
345622,13794,345622,10939,345622.0,37026.0,287.60541201853766,410.68671014802896,639.8939805315906
345622,13859,345622,10931,345622.0,37069.0,329.6560448501957,421.7812771557643,668.8686246555096
345622,13883,345622,10957,345622.0,37066.0,370.99898809404044,432.4395475757533,697.0154750151025
345622,13940,345622,10972,345622.0,37095.0,411.6046014083022,442.6694302262915,724.3392382770501
345622,14009,345622,10963,345622.0,37098.0,451.44211156598953,452.4799933517435,750.8467072106268
345632,14206,345632,10949,345632.0,37092.0,490.4801537908745,461.88134927860733,776.5461770509405
345632,14398,345632,10926,345632.0,37133.0,528.6886940960146,470.88418248273933,801.4467611375096
345632,14429,345632,10960,345632.0,37180.0,566.0423295694218,479.4990563391565,825.5578706831118
345632,14434,345632,10992,345632.0,37229.0,602.523259527974,487.73599200635044,848.8892186121946
345632,14357,345632,11003,345632.0,37240.0,638.1221717469862,495.60461052618905,871.4512237253391
345632,14286,345632,11060,345632.0,37321.0,672.8368763676526,503.114629374218,893.255442514205
345643,14248,345643,11077,345643.0,37332.0,706.6695519347459,510.27650672604057,914.31501817098
345643,14275,345643,11029,345643.0,37330.0,739.6237754117233,517.1020266999516,934.6451079674487
345643,14303,345643,11038,345643.0,37363.0,771.7023925312596,523.6043294232916,954.262940500894
345643,14325,345643,11022,345643.0,37381.0,802.9064813701932,529.7973430456815,973.1875670806328
345643,14369,345643,11028,345643.0,37366.0,833.2349456527088,535.6951535670753,991.4396264528987
345643,14485,345643,11035,345643.0,37365.0,862.6845272955902,541.3115913137806,1009.0409684565391
345653,14740,345653,10996,345653.0,37351.0,891.2509323683378,546.6599223121972,1026.0139356070824
345653,14795,345653,11016,345653.0,37377.0,918.931746479482,551.7524356788189,1042.3805144088853
345653,14809,345653,11058,345653.0,37425.0,945.7299922483792,556.6000561233842,1058.1617644802134
345653,14772,345653,11108,345653.0,37435.0,971.6561230534885,561.2125053155138,1073.3777777579821
345653,14669,345653,11119,345653.0,37487.0,996.7276636898496,565.5991088988884,1088.0479991399172
345653,14563,345653,11120,345653.0,37518.0,1020.9669832988459,569.769670048747,1102.1916610230264
345663,14567,345663,11107,345663.0,37489.0,1044.3979973849412,573.7348770252553,1115.828191472384
345663,14606,345663,11066,345663.0,37529.0,1067.0431844921507,577.5061270266019,1128.9773019603233
345663,14646,345663,11126,345663.0,37556.0,1088.9220925926427,581.0950047981951,1141.6588107153166
345663,14656,345663,11098,345663.0,37565.0,1110.0511280728483,584.5129337079751,1153.8926503134924
345663,14676,345663,11123,345663.0,37539.0,1130.4436654352508,587.7711992676129,1165.6989536445365
345663,14879,345663,11057,345663.0,37521.0,1150.1103476724904,590.8809157066937,1177.0977035904664
345674,15052,345674,11043,345674.0,37539.0,1169.060712180107,593.8525021650591,1188.1079376823054
345674,15071,345674,11064,345674.0,37566.0,1187.3065283708681,596.6948017187677,1198.7470535062487
345674,15032,345674,11133,345674.0,37558.0,1204.864932211073,599.4145876418229,1209.0305603133893
345674,14946,345674,11118,345674.0,37613.0,1221.759276886436,602.0169544587707,1218.9721042645447
345674,14836,345674,11169,345674.0,37660.0,1238.0175654709544,604.5061382316635,1228.583720268326
345674,14758,345674,11177,345674.0,37659.0,1253.6694241096234,606.8862276003986,1237.8764334180355
345684,14815,345684,11178,345684.0,37682.0,1268.7428392041504,609.1617350745763,1246.8608736988601
345684,14803,345684,11138,345684.0,37670.0,1283.2619670373692,611.3378746360542,1255.5475049344398
345684,14829,345684,11153,345684.0,37645.0,1297.2463306695456,613.4203228964936,1263.9464413223175
345684,14842,345684,11112,345684.0,37701.0,1310.7106363599617,615.414674112361,1272.0670050292354
345684,14939,345684,11139,345684.0,37670.0,1323.6648486714173,617.3259045822506,1279.917380703239
345684,15159,345684,11059,345684.0,37639.0,1336.115221963888,619.1578563748084,1287.5043828011876
345694,15212,345694,11089,345694.0,37659.0,1348.0669982637744,620.9125641744123,1294.8329084743125
345694,15235,345694,11141,345694.0,37722.0,1359.5278565545025,622.5896578591102,1301.9053591237305
345694,15196,345694,11166,345694.0,37730.0,1370.510148252778,624.186498460244,1308.7217509201384
345694,15052,345694,11210,345694.0,37759.0,1381.0309674508321,625.6990778711887,1315.2803664830255
345694,14952,345694,11213,345694.0,37791.0,1391.1101425484592,627.123065148555,1321.5783750051291
345694,14952,345694,11180,345694.0,37778.0,1400.7669643119052,628.4545077608257,1327.6122913557454
345705,14954,345705,11215,345705.0,37813.0,1410.0173011179052,629.689983521243,1333.3782722283172
345705,14966,345705,11153,345705.0,37820.0,1418.8721227805745,630.8263793945592,1338.8722737294843
345705,14985,345705,11216,345705.0,37804.0,1427.3370560677756,631.860592754656,1344.0901696979226
345705,15033,345705,11201,345705.0,37812.0,1435.4124089747793,632.7893899500996,1349.0276993457344
345705,15205,345705,11167,345705.0,37767.0,1443.0938639244405,633.6094688274248,1353.6801027023757
345705,15367,345705,11150,345705.0,37789.0,1450.3745967429436,634.3172740317787,1358.0415209102
345715,15377,345715,11141,345715.0,37789.0,1457.2487749765432,634.908360802593,1362.104408431775
345715,15366,345715,11219,345715.0,37844.0,1463.7147378315333,635.3768983128309,1365.8593216391937
345715,15270,345715,11222,345715.0,37892.0,1469.7761721350078,635.7159258875357,1369.295316763326
345715,15130,345715,11283,345715.0,37951.0,1475.4410192508121,635.9182793162471,1372.4009494119057
345715,15078,345715,11261,345715.0,37947.0,1480.718707822627,635.9776329765457,1375.165562324693
345715,15105,345715,11251,345715.0,37912.0,1485.6170073066864,635.8891722967112,1377.580199968742
345725,15102,345725,11245,345725.0,37925.0,1490.1400137508033,635.6496862878462,1379.6376909274409
345725,15120,345725,11237,345725.0,37943.0,1494.2875306867093,635.2572846954308,1381.3322768083342
345725,15126,345725,11219,345725.0,37918.0,1498.0550618444713,634.7110616492417,1382.6594112127405
345725,15198,345725,11209,345725.0,37918.0,1501.4340251251597,634.0107321878751,1383.615660154684
345725,15452,345725,11153,345725.0,37897.0,1504.412845681796,633.156116224976,1384.1983904077097
345725,15501,345725,11175,345725.0,37886.0,1506.9798673714472,632.146425454652,1384.405286373779
345736,15486,345736,11219,345736.0,37922.0,1509.127208670466,630.9797174814962,1384.2339161544394
345736,15429,345736,11254,345736.0,37947.0,1510.853147070302,629.6531061085275,1383.6816707025405
345736,15316,345736,11279,345736.0,37980.0,1512.1619960384453,628.1636893935461,1382.7462521998393
345736,15192,345736,11273,345736.0,37984.0,1513.0620776698315,626.5095661818999,1381.426448659122
345736,15173,345736,11255,345736.0,37962.0,1513.5626833789127,624.6904332448748,1379.722737459111
345736,15201,345736,11275,345736.0,37984.0,1513.671321633549,622.7076922472125,1377.6374709531142
345746,15194,345746,11243,345746.0,37979.0,1513.392361467435,620.5643478478356,1375.1748424591447
345746,15190,345746,11269,345746.0,37953.0,1512.7268104960322,618.2649093800018,1372.3408693323
345746,15226,345746,11246,345746.0,37977.0,1511.6723793698804,615.8153203008104,1369.1432958492587
345746,15388,345746,11215,345746.0,37930.0,1510.2239864366945,613.222840389206,1365.591385359095
345746,15550,345746,11141,345746.0,37910.0,1508.3757347702963,610.4955506394341,1361.6955872899437
345746,15543,345746,11190,345746.0,37930.0,1506.1244203896906,607.6413875335006,1357.4670159852312
345756,15506,345756,11211,345756.0,37924.0,1503.4727261883436,604.667434980852,1352.9170668583515
345756,15412,345756,11225,345756.0,37952.0,1500.430274224786,601.5801091235451,1348.0574629520268
345756,15276,345756,11247,345756.0,38006.0,1497.0124128279083,598.3858755562893,1342.9007032034092
345756,15204,345756,11235,345756.0,37976.0,1493.2375294960596,595.0919037741326,1337.4608452483103
345756,15200,345756,11234,345756.0,37939.0,1489.1240001525707,591.7064562583821,1331.7541427321642
345756,15202,345756,11196,345756.0,37926.0,1484.68803498178,588.2389330387432,1325.7989437196504
345767,15208,345767,11197,345767.0,37921.0,1479.9428513370322,584.6995734879356,1319.6150965723677
345767,15186,345767,11201,345767.0,37901.0,1474.898586337977,581.09905384699,1313.2234637523459
345767,15246,345767,11170,345767.0,37880.0,1469.5623942385557,577.4482371673146,1306.6455975588729
345767,15472,345767,11129,345767.0,37835.0,1463.9392584487412,573.7578992663739,1299.903297859391
345767,15505,345767,11128,345767.0,37845.0,1458.0345439853522,570.0381348897185,1293.0179762489427
345767,15489,345767,11154,345767.0,37851.0,1451.8575211444147,566.2977452725066,1286.0101335474628
345777,15425,345777,11185,345777.0,37874.0,1445.4235713583055,562.5441896107427,1278.8993162423765
345777,15306,345777,11214,345777.0,37894.0,1438.7540812657478,558.7842053912361,1271.704557286512
345777,15145,345777,11227,345777.0,37885.0,1431.874445430846,555.0247411574964,1264.4450233656153
345777,15152,345777,11188,345777.0,37857.0,1424.8109217759575,551.2737259085898,1257.140485530686
345777,15137,345777,11163,345777.0,37856.0,1417.587757575144,547.5402458689192,1249.8113515108848
345777,15133,345777,11174,345777.0,37833.0,1410.2257549070412,543.8341425357662,1242.4784027508501
345787,15117,345787,11159,345787.0,37848.0,1402.7419145879346,540.1655659749946,1235.1625471678203
345787,15153,345787,11150,345787.0,37820.0,1395.149388911894,536.544774467234,1227.884706359775
345787,15284,345787,11109,345787.0,37755.0,1387.4579510914639,532.9819211454984,1220.6656180306954
345787,15438,345787,11078,345787.0,37756.0,1379.6758410410546,529.4865358826388,1213.5252129782357
345787,15418,345787,11098,345787.0,37744.0,1371.8129993006019,526.0667972226697,1206.481778472478
345787,15394,345787,11128,345787.0,37798.0,1363.8840414874069,522.7291101038797,1199.551563074995
345798,15293,345798,11149,345798.0,37793.0,1355.909313470938,519.4783796907266,1192.7490955139237
345798,15153,345798,11159,345798.0,37812.0,1347.9138365535946,516.3187423060626,1186.087901386951
345798,15053,345798,11145,345798.0,37795.0,1339.9247005591878,513.2542311777358,1179.5811294989062
345798,15046,345798,11167,345798.0,37793.0,1331.9678653215256,510.2891319870707,1173.2418607320656
345798,15028,345798,11137,345798.0,37778.0,1324.0657074168553,507.4281231970559,1167.0831455647121
345798,15030,345798,11112,345798.0,37785.0,1316.2358921432763,504.6762232801673,1161.11791552114
345808,15019,345808,11124,345808.0,37732.0,1308.4910803057805,502.0384617234736,1155.3588369389463
345808,15132,345808,11097,345808.0,37711.0,1300.839121163667,499.51948007173803,1149.8179305757199
345808,15304,345808,11054,345808.0,37689.0,1293.2843483577972,497.123166061035,1144.5058655853486
345808,15349,345808,11086,345808.0,37693.0,1285.8305350618107,494.8521426127718,1139.43123913713
345808,15318,345808,11081,345808.0,37705.0,1278.48435870654,492.7073503674834,1134.6002015635902
345808,15252,345808,11120,345808.0,37720.0,1271.2573635390268,490.6881183024069,1130.016517832138
345818,15129,345818,11155,345818.0,37740.0,1264.165690211975,488.79270418792726,1125.6819619318971
345818,14993,345818,11160,345818.0,37767.0,1257.2280172495684,487.0191247862417,1121.5969125072236
345818,14964,345818,11123,345818.0,37732.0,1250.4624808845276,485.36588728411493,1117.7609736090744
345818,14959,345818,11083,345818.0,37742.0,1243.8838152657345,483.83206346994314,1114.1733088919068
345818,14955,345818,11134,345818.0,37735.0,1237.5017627979921,482.41675931843747,1110.8326123631743
345818,14965,345818,11103,345818.0,37732.0,1231.320646906644,481.11871462574607,1107.7370010552384
345829,14995,345829,11101,345829.0,37709.0,1225.339515997497,479.9362897406285,1104.8839247781696
345829,15142,345829,11061,345829.0,37671.0,1219.5529070388452,478.8673416014984,1102.2698785032508
345829,15280,345829,11059,345829.0,37679.0,1213.9528905352543,477.90873819506294,1099.8898344927934
345829,15279,345829,11069,345829.0,37666.0,1208.5323666814925,477.0558089979426,1097.7366614276737
345829,15257,345829,11102,345829.0,37716.0,1203.2880667907225,476.3021483942464,1095.8008909241687
345829,15158,345829,11150,345829.0,37742.0,1198.2216999031248,475.64000899653706,1094.071025949934
345839,15014,345839,11164,345839.0,37788.0,1193.3389815806388,475.06119805167316,1092.5343772748624
345839,14956,345839,11137,345839.0,37786.0,1188.6470811295949,474.55800564474146,1091.1781348782815
345839,14922,345839,11139,345839.0,37755.0,1184.1515960966724,474.123612479954,1089.9901627088898
345839,14927,345839,11137,345839.0,37732.0,1179.854318669409,473.75197950492947,1088.9591003161129
345839,14931,345839,11138,345839.0,37750.0,1175.7522066713373,473.43766076786164,1088.0739073319567
345839,14940,345839,11121,345839.0,37720.0,1171.8371928197582,473.1757056494399,1087.3234036492538
345850,15007,345850,11102,345850.0,37729.0,1168.0964984362918,472.96147256110595,1086.6959999361682
345850,15207,345850,11062,345850.0,37690.0,1164.5138120850727,472.79018023402443,1086.1794083877576
345850,15280,345850,11071,345850.0,37717.0,1161.072025639322,472.6562230639977,1085.760263264269
345850,15260,345850,11098,345850.0,37737.0,1157.7568442478691,472.55261089688986,1085.4238944640315
345850,15194,345850,11131,345850.0,37732.0,1154.559198424322,472.4709867541812,1085.1544832450672
345850,15084,345850,11156,345850.0,37755.0,1151.475303147439,472.40224903227283,1084.9354224814133
345860,14934,345860,11197,345860.0,37806.0,1148.5047082942265,472.33745869038864,1084.7497322055476
345860,14931,345860,11110,345860.0,37785.0,1145.6472249174028,472.2686047050936,1084.5806786975777
345860,14928,345860,11132,345860.0,37781.0,1142.9001035489953,472.1886958338837,1084.412360886642
345860,14919,345860,11123,345860.0,37777.0,1140.2565695228727,472.09123156143045,1084.2298436657256
345860,14924,345860,11151,345860.0,37769.0,1137.7054442518154,471.969817422554,1084.0189641011223
345860,14961,345860,11146,345860.0,37782.0,1135.2311666480819,471.81826085273553,1083.7661408859121
345870,15099,345870,11105,345870.0,37701.0,1132.8143971813383,471.63074707768567,1083.4581510713087
345870,15247,345870,11080,345870.0,37734.0,1130.4339477659787,471.40159336044667,1083.0816013180543
345870,15272,345870,11091,345870.0,37734.0,1128.0700562849602,471.12457775016776,1082.6222782605703
345870,15234,345870,11120,345870.0,37767.0,1125.7075412207141,470.7924334479626,1082.0649673241408
345870,15138,345870,11157,345870.0,37782.0,1123.3371208802773,470.39700075858957,1081.3938375949697
345870,15002,345870,11192,345870.0,37806.0,1120.9544423502105,469.929984243718,1080.593067411592
345881,14928,345881,11193,345881.0,37825.0,1118.5574498678702,469.3839429664145,1079.6475189272596
345881,14915,345881,11147,345881.0,37800.0,1116.1432968945512,468.7529899394021,1078.5433184598169
345881,14919,345881,11181,345881.0,37775.0,1113.706099199346,468.03286304734775,1077.268061813815
345881,14921,345881,11149,345881.0,37812.0,1111.2359844138414,467.2206630924167,1075.8105944263527
345881,14911,345881,11151,345881.0,37774.0,1108.718928288745,466.3146517027641,1074.1607815995774
345881,14992,345881,11078,345881.0,37754.0,1106.13691656863,465.3139270669201,1072.3093784628365
345891,15221,345891,11096,345891.0,37735.0,1103.4690177847892,464.2177205442139,1070.2476458448207
345891,15264,345891,11058,345891.0,37731.0,1100.6942842678943,463.0245509641043,1067.9667487863726
345891,15262,345891,11080,345891.0,37747.0,1097.7955693191857,461.73161710816504,1065.4573305828992
345891,15195,345891,11134,345891.0,37785.0,1094.7619763936937,460.33464901509586,1062.7095277527299
345891,15070,345891,11158,345891.0,37808.0,1091.5889168152034,458.8284205711276,1059.7135071802218
345891,14918,345891,11153,345891.0,37801.0,1088.276118378644,457.2077251916861,1056.4602889690095
345901,14921,345901,11149,345901.0,37799.0,1084.8244127132607,455.4681388297354,1052.9423817616678
345901,14914,345901,11151,345901.0,37799.0,1081.232833408639,453.6062770288869,1049.1540304575715
345901,14910,345901,11131,345901.0,37767.0,1077.497190574507,451.61977686130496,1045.091212153446
345901,14910,345901,11130,345901.0,37758.0,1073.6097616671757,449.50716575539406,1040.7514331069285
345901,14932,345901,11126,345901.0,37743.0,1069.559333761203,447.26766585950855,1036.1333470915067
345901,15064,345901,11114,345901.0,37713.0,1065.33170476941,444.90102708163596,1031.2363287916578
345912,15219,345912,11059,345912.0,37694.0,1060.9114332081772,442.40728562277695,1026.0600063338015
345912,15225,345912,11072,345912.0,37695.0,1056.285000856935,439.7862335021841,1020.6037489309421
345912,15182,345912,11104,345912.0,37729.0,1051.44389121773,437.0368884701112,1014.8663929771833
345912,15106,345912,11139,345912.0,37728.0,1046.3858113959943,434.15758964634324,1008.8464757670693
345912,14983,345912,11132,345912.0,37780.0,1041.1138046929384,431.14673105564054,1002.5428878278198
345912,14861,345912,11165,345912.0,37728.0,1035.6338934857365,428.00356848733827,995.9556362959877
345922,14870,345922,11124,345922.0,37709.0,1029.952065861028,424.728757710795,989.0862700969238
345922,14857,345922,11110,345922.0,37697.0,1024.0718504302813,421.32450466211094,981.9376916935992
345922,14857,345922,11099,345922.0,37703.0,1017.9932502004549,417.7942850792363,974.5137378348485
345922,14843,345922,11082,345922.0,37681.0,1011.7125557822924,414.1423905273856,966.8190007356463
345922,14909,345922,11069,345922.0,37669.0,1005.2224591571535,410.37354355248846,958.8587944511094
345922,15136,345922,11025,345922.0,37620.0,998.5130388018418,406.49249278544335,950.6389566666592
345932,15172,345932,11016,345932.0,37607.0,991.5745533637587,402.5034380951861,942.1653643098425
345932,15161,345932,11051,345932.0,37616.0,984.4011759905144,398.4094758727355,933.4433692176768
345932,15085,345932,11064,345932.0,37628.0,976.9933706388457,394.2125419114988,924.4775847237125
345932,14944,345932,11093,345932.0,37663.0,969.3578278285273,389.91396713404515,915.2722354808183
345932,14794,345932,11072,345932.0,37657.0,961.5053079009974,385.51522516170326,905.8319064413402
345932,14789,345932,11048,345932.0,37630.0,953.447302264119,381.0183778865472,896.1622739594961
345943,14782,345943,11056,345943.0,37617.0,945.1931049798017,376.4260429269641,886.2703979222298
345943,14767,345943,11050,345943.0,37585.0,936.7484154980189,371.74118645438057,876.1645565031351
345943,14763,345943,11039,345943.0,37585.0,928.1150371591989,366.96705902944,865.8539167471592
345943,14782,345943,11066,345943.0,37550.0,919.2908982271127,362.1072541138526,855.3482410664761
345943,14911,345943,11002,345943.0,37525.0,910.2705532388077,357.1657839174129,844.6576010200897
345943,15089,345943,10951,345943.0,37515.0,901.0470328956676,352.14684057347677,833.7920049718061
345953,15076,345953,10980,345953.0,37460.0,891.6152551271202,347.0540199076771,822.7609656109532
345953,15033,345953,10997,345953.0,37483.0,881.9753684125886,341.8896694259149,811.5730596314828
345953,14929,345953,10994,345953.0,37499.0,872.1340361442689,336.65499383301704,800.2357059195831
345953,14796,345953,11045,345953.0,37522.0,862.1033645169848,331.3506387314536,788.7555201674364
345953,14682,345953,11035,345953.0,37512.0,851.8982710818884,325.97741246767305,777.1391201937697
345953,14683,345953,11015,345953.0,37512.0,841.5333398653916,320.5369659819487,765.3938758143546
345963,14688,345963,10993,345963.0,37458.0,831.0204942139744,315.0320461190428,753.5282772157885
345963,14653,345963,11000,345963.0,37451.0,820.3681183217909,309.46628793726615,741.5518345650321
345963,14642,345963,10964,345963.0,37396.0,809.5809268638033,303.84392840838757,729.4746239283093
345963,14657,345963,10949,345963.0,37419.0,798.6598660700645,298.16953245993716,717.3067604898392
345963,14918,345963,10906,345963.0,37324.0,787.6027037894935,292.4475430208784,705.0579565972484
345963,14950,345963,10906,345963.0,37343.0,776.4065814082451,286.68165897548477,692.7370125316659
345974,14936,345974,10952,345974.0,37340.0,765.0718699457841,280.87439908514085,680.3512902846321
345974,14846,345974,10943,345974.0,37362.0,753.6047683462589,275.027266622537,667.9066496790356
345974,14741,345974,10973,345974.0,37377.0,742.0173467129089,269.14139928090776,655.4079922991322
345974,14579,345974,10957,345974.0,37364.0,730.3255988930787,263.2182347979384,642.8600507840393
345974,14525,345974,10945,345974.0,37345.0,718.5463661476904,257.25993523433414,630.2680145209298
345974,14525,345974,10966,345974.0,37321.0,706.6942808962634,251.26955770934023,617.6377527733014
345984,14510,345984,10928,345984.0,37310.0,694.7799402117028,245.25112936725367,604.9757119690586
345984,14502,345984,10895,345984.0,37278.0,682.8093895643498,239.2095961170554,592.2887115867666
345984,14522,345984,10899,345984.0,37278.0,670.7841960375692,233.15044669056414,579.5837416392563
345984,14653,345984,10880,345984.0,37224.0,658.7020480786447,227.07924054143507,566.86775141397
345984,14820,345984,10842,345984.0,37223.0,646.5586952486489,221.00128225714832,554.1473543658076
345984,14827,345984,10832,345984.0,37201.0,634.351446570105,214.92122981828493,541.4284813170094
345994,14744,345994,10872,345994.0,37214.0,622.0825863253947,208.84268915377157,528.7162063820526
345994,14653,345994,10878,345994.0,37221.0,609.7606208949619,202.76828458189647,516.0149093439121
345994,14489,345994,10878,345994.0,37230.0,597.3990003646949,196.70023739627686,503.32875609681173
345994,14402,345994,10882,345994.0,37203.0,585.0132576886865,190.64095264547257,490.662290583581
345994,14377,345994,10924,345994.0,37193.0,572.6177650695153,184.59346831607388,478.0208163097343
345994,14368,345994,10850,345994.0,37137.0,560.2233537020188,178.56190849106423,465.4103891904399
346004,14348,346004,10829,346004.0,37159.0,547.8362699954095,172.5515862275077,452.8375146445384
346004,14361,346004,10805,346004.0,37099.0,535.4579620092767,166.56843627097345,440.3088158684469
346004,14389,346004,10784,346004.0,37102.0,523.0852850879883,160.61821051413875,427.830774265277
346004,14642,346004,10736,346004.0,37013.0,510.7116285167507,154.70580028475518,415.4093353964664
346004,14673,346004,10767,346004.0,37029.0,498.32984156526504,148.8346185032537,403.04924061201325
346004,14645,346004,10776,346004.0,37051.0,485.9361637652047,143.00626619042686,390.7534464159231
346014,14559,346014,10805,346014.0,37053.0,473.5327169746254,137.22080701029358,378.5232081732903
346014,14443,346014,10826,346014.0,37054.0,461.1274098421561,131.47750408298833,366.3587349668261
346014,14280,346014,10831,346014.0,37074.0,448.73187385202027,125.77568311663009,354.2598914075829
346014,14247,346014,10825,346014.0,37028.0,436.35832924635974,120.11546283175898,342.2267561487902
346014,14230,346014,10778,346014.0,37054.0,424.01660483443356,114.49809365199957,330.25997233479416
346014,14221,346014,10762,346014.0,36998.0,411.7124405625011,108.92574680049603,318.36086366381005
346024,14203,346024,10777,346024.0,36973.0,399.4469875529609,103.40099660710638,306.5313261555301
346024,14233,346024,10763,346024.0,36968.0,387.21682141807435,97.92651605387425,294.773463198114
346024,14351,346024,10675,346024.0,36916.0,375.0145092796861,92.50493083803792,283.0891439239018
346024,14540,346024,10691,346024.0,36918.0,362.83055828604415,87.13824499209335,271.4796163886326
346024,14523,346024,10697,346024.0,36917.0,350.6569603422431,81.82701606875952,259.9452038267352
346024,14469,346024,10708,346024.0,36901.0,338.4906657674269,76.57006301013467,248.4852600044219
346035,14369,346035,10762,346035.0,36928.0,326.3349158281701,71.3648706053387,237.09839377442302
346035,14223,346035,10780,346035.0,36928.0,314.198136735449,66.20845784016558,225.78288796755612
346035,14109,346035,10763,346035.0,36937.0,302.091251039404,61.09842486152053,214.53731063075293
346035,14105,346035,10744,346035.0,36848.0,290.02446458407564,56.03363223404824,203.36098878843097
346035,14092,346035,10708,346035.0,36861.0,278.0048481696658,51.014198879267155,192.25387121454355
346035,14068,346035,10709,346035.0,36866.0,266.0353247840519,46.04105550504897,181.2160271257767
346045,14059,346045,10705,346045.0,36858.0,254.11444293242323,41.11549267010804,170.24751540514944
346045,14110,346045,10684,346045.0,36803.0,242.2364077820895,36.23894023157311,159.34858185293137
346045,14324,346045,10610,346045.0,36772.0,230.39200155902836,31.41270493510666,148.51950651404468
346045,14384,346045,10602,346045.0,36762.0,218.57133843292297,26.637239101783052,137.7599938152514
346045,14348,346045,10664,346045.0,36738.0,206.76767298966126,21.91129250318852,127.06858714903115
346045,14294,346045,10677,346045.0,36787.0,194.9799656410812,17.231868206534386,116.44247016116469
346056,14146,346056,10731,346056.0,36784.0,183.21302937177495,12.5951402774092,105.87780049372668
346056,14013,346056,10710,346056.0,36793.0,171.47563830497108,7.997655479373748,95.37046071324266
346056,13965,346056,10665,346056.0,36774.0,159.77744791223574,3.437120894826421,84.91677929264915
346056,13941,346056,10666,346056.0,36744.0,148.12603596328245,-1.087588726476156,74.51387368652695
346056,13940,346056,10632,346056.0,36733.0,136.52514662691715,-5.576938714404946,64.1595933472579
346056,13925,346056,10656,346056.0,36746.0,124.97410107404721,-10.031196712788415,53.852327876068784
346066,13955,346066,10650,346066.0,36718.0,113.46783008934653,-14.450588323254806,43.59101024046163
346066,14065,346066,10599,346066.0,36656.0,101.99749632824842,-18.835273643069513,33.37514106633398
346066,14229,346066,10579,346066.0,36636.0,90.55235192922123,-23.185591930829105,23.204356439869798
346066,14248,346066,10589,346066.0,36639.0,79.12304624438707,-27.50266748364686,13.077684943798204
346066,14193,346066,10600,346066.0,36645.0,67.70500381179386,-31.788820188980253,2.993147602886438
346066,14108,346066,10639,346066.0,36642.0,56.299980649302825,-36.047388111978535,-7.05208673975244
346076,13949,346076,10663,346076.0,36659.0,44.91526472982946,-40.28203692552705,-17.061271853847074
346076,13830,346076,10618,346076.0,36678.0,33.56110139135353,-44.49592237873355,-27.037528011574295
346076,13817,346076,10627,346076.0,36638.0,22.247365451951737,-48.691256148420564,-36.983213884117504
346076,13831,346076,10621,346076.0,36617.0,10.980971215855561,-52.8693680711674,-46.89957038937018
346076,13798,346076,10612,346076.0,36614.0,-0.23513400493970948,-57.03082958944219,-56.7868347480146
346076,13783,346076,10601,346076.0,36585.0,-11.402054817609496,-61.175490638823646,-66.64450496609766
346087,13824,346087,10571,346087.0,36547.0,-22.52491261006685,-65.3026201876495,-76.47158069877696
346087,14048,346087,10540,346087.0,36526.0,-33.61209534883574,-69.41128197477065,-86.26697478827941
346087,14108,346087,10544,346087.0,36516.0,-44.67262853560942,-73.50090094390845,-96.03004896184234
346087,14069,346087,10520,346087.0,36503.0,-55.71236325300879,-77.57177350626819,-105.76098635533435
346087,14005,346087,10559,346087.0,36497.0,-66.73141356587576,-81.6252990368215,-115.46092195803885
346087,13885,346087,10600,346087.0,36537.0,-77.72406949993024,-85.66375653102017,-125.13183704664607
346097,13706,346097,10604,346097.0,36539.0,-88.68072014928453,-89.68953126856559,-134.77607591957894
346097,13683,346097,10568,346097.0,36539.0,-99.59102211225945,-93.70424473486321,-144.39556582829073
346097,13685,346097,10558,346097.0,36497.0,-110.44697585307426,-97.70846163248098,-153.99121359419087
346097,13638,346097,10529,346097.0,36506.0,-121.24459689663195,-101.70200631653745,-163.5627783716336
346097,13662,346097,10540,346097.0,36453.0,-131.98439458275766,-105.68443532332259,-173.10906066232542
346097,13663,346097,10536,346097.0,36425.0,-142.67140120578665,-109.65531791558374,-182.62826795537103
346107,13792,346107,10496,346107.0,36377.0,-153.31461391625317,-113.61432668030875,-192.11864405024698
346107,13961,346107,10500,346107.0,36392.0,-163.92512475051444,-117.56142758338103,-201.57922855135826
346107,13980,346107,10485,346107.0,36418.0,-174.51271997275967,-121.4972302020326,-211.0102507762981
346107,13923,346107,10515,346107.0,36355.0,-185.08237311798052,-125.42318850624343,-220.41296180859172
346107,13807,346107,10525,346107.0,36392.0,-195.63271184825248,-129.34142551361504,-229.78938228909237
346107,13662,346107,10537,346107.0,36423.0,-206.15707774483462,-133.25423439204718,-239.14211769258804
346118,13575,346118,10515,346118.0,36413.0,-216.64633923193946,-137.16354938884115,-248.4737897461988
346118,13550,346118,10533,346118.0,36379.0,-227.092093831709,-141.0706576990524,-257.7862923610078
346118,13533,346118,10500,346118.0,36419.0,-237.48900327993704,-144.97612793294604,-267.0804366223098
346118,13528,346118,10501,346118.0,36370.0,-247.83587723861217,-148.8798681251061,-276.3558127730314
346118,13523,346118,10486,346118.0,36317.0,-258.1359449096923,-152.78130517322927,-285.6107598914251
346118,13557,346118,10480,346118.0,36275.0,-268.3967132591931,-156.67959464233041,-294.8428763542381
346128,13780,346128,10434,346128.0,36252.0,-278.6290151089088,-160.57386095176133,-304.0500225669779
346128,13844,346128,10419,346128.0,36253.0,-288.84435239666027,-164.46365010401797,-313.2312008218753
346128,13846,346128,10425,346128.0,36268.0,-299.0510422521842,-168.34953426750218,-322.3869015319599
346128,13752,346128,10461,346128.0,36268.0,-309.25138153915077,-172.2334149108135,-331.5188996830117
346128,13621,346128,10481,346128.0,36288.0,-319.44132111459396,-176.11819055635078,-340.62973017430954
346128,13457,346128,10473,346128.0,36317.0,-329.6124959405363,-180.0070137302656,-349.7220039004096
346138,13420,346138,10472,346138.0,36246.0,-339.755617513096,-183.90266926311278,-358.7977041431491
346138,13430,346138,10499,346138.0,36240.0,-349.8636381995075,-187.80724788987652,-367.8579205628215
346138,13398,346138,10460,346138.0,36239.0,-359.93342089962186,-191.7219005541042,-376.9031482265448
346138,13404,346138,10474,346138.0,36224.0,-369.96614089315574,-195.6466794257064,-385.93357690677533
346138,13400,346138,10434,346138.0,36186.0,-379.9672739757874,-199.58061940134257,-394.94915612177965
346138,13539,346138,10368,346138.0,36148.0,-389.94616073299653,-203.52214305836253,-403.9498447033434
346149,13731,346149,10368,346149.0,36143.0,-399.9142057645555,-207.46990241655783,-412.93617643513903
346149,13697,346149,10370,346149.0,36116.0,-409.8813736331732,-211.42372768364066,-421.9098179659054
346149,13659,346149,10405,346149.0,36146.0,-419.8527418517748,-215.3850111453558,-430.8738356575652
346149,13576,346149,10421,346149.0,36157.0,-429.8272031569712,-219.3563562105902,-439.83253977385095
346149,13420,346149,10436,346149.0,36207.0,-439.79845049488017,-223.3408315562844,-448.7908229456601
346149,13313,346149,10414,346149.0,36176.0,-449.75748990302554,-227.341267421957,-457.75316075623687
346159,13301,346159,10443,346159.0,36139.0,-459.695823406744,-231.35984693085152,-466.7228449929039
346159,13289,346159,10430,346159.0,36130.0,-469.6079503410891,-235.39786486147148,-475.70191488929834
346159,13279,346159,10405,346159.0,36094.0,-479.4924628522017,-239.4555323825187,-484.69156567354366
346159,13264,346159,10375,346159.0,36086.0,-489.35226797753603,-243.5320604404651,-493.69259116322735
346159,13318,346159,10359,346159.0,36075.0,-499.1944948940476,-247.6261371446344,-502.70571870667516
346159,13523,346159,10318,346159.0,36001.0,-509.02958334462414,-251.7365846571289,-511.73191739211256
346169,13580,346169,10293,346169.0,36015.0,-518.8686484362495,-255.8630802703792,-520.7729021079399
346169,13548,346169,10358,346169.0,36038.0,-528.7198419578283,-260.0067656385204,-529.8316391435837
346169,13508,346169,10372,346169.0,36012.0,-538.5858854026817,-264.17020990760614,-538.9123250852533
346169,13357,346169,10394,346169.0,36069.0,-548.4638652526614,-268.3565971931481,-548.0198996260879
346169,13241,346169,10391,346169.0,36064.0,-558.3469727225126,-272.56875759019294,-557.1593552489196
346169,13168,346169,10375,346169.0,36030.0,-568.2274655734407,-276.80855969845845,-566.3349772013785
346180,13159,346180,10350,346180.0,36009.0,-578.09964199865,-281.0767677915927,-575.5499709754536
346180,13163,346180,10354,346180.0,35985.0,-587.9616894669232,-285.3732563179442,-584.806675485939
346180,13154,346180,10325,346180.0,35980.0,-597.8162589296653,-289.69732064883874,-594.1069631753076
346180,13178,346180,10322,346180.0,35968.0,-607.670314892843,-294.04794848715767,-603.4524890086393
346180,13302,346180,10289,346180.0,35895.0,-617.5344393609953,-298.42412480985774,-612.8448854358426
346180,13446,346180,10268,346180.0,35910.0,-627.4209641194277,-302.8252472748379,-622.2862088479471
346190,13465,346190,10251,346190.0,35892.0,-637.3407387950153,-307.2516561675724,-631.77949783596
346190,13435,346190,10316,346190.0,35930.0,-647.2998902344395,-311.7050097477254,-641.3289230890691
346190,13317,346190,10351,346190.0,35933.0,-657.29830924304,-316.1879707227845,-650.9393649155631
346190,13163,346190,10341,346190.0,35935.0,-667.3304878155698,-320.70317344637226,-660.6156833674129
346190,13057,346190,10284,346190.0,35929.0,-677.388267709714,-325.2523419659492,-670.3620491404283
346190,13059,346190,10302,346190.0,35897.0,-687.4642296150455,-329.836259051967,-680.181571880684
346200,13044,346200,10321,346200.0,35875.0,-697.5541284529925,-334.45512070319444,-690.0762925544827
346200,13034,346200,10305,346200.0,35866.0,-707.6578286130998,-339.10851316270146,-700.0474487184663
346200,13033,346200,10273,346200.0,35852.0,-717.7794151692567,-343.7951804076097,-710.0957475184764
346200,13078,346200,10246,346200.0,35798.0,-727.9269971271237,-348.5131750765978,-720.2215714992451
346200,13274,346200,10212,346200.0,35767.0,-738.1117168892329,-353.260457633516,-730.4253944502013
346200,13326,346200,10170,346200.0,35776.0,-748.3451865696888,-358.03570704893855,-740.7084275088705
346211,13317,346211,10239,346211.0,35761.0,-758.6359883100149,-362.8390475934799,-751.0730421905419
346211,13249,346211,10220,346211.0,35765.0,-768.9872194864745,-367.67219799194356,-761.5227557891094
346211,13128,346211,10255,346211.0,35784.0,-779.3962219199161,-372.537953890547,-772.0619510911681
346211,12987,346211,10284,346211.0,35796.0,-789.8562804837663,-377.4394305929303,-782.695368747972
346211,12948,346211,10256,346211.0,35778.0,-800.3595201419032,-382.3793007378664,-793.4274268152701
346211,12926,346211,10234,346211.0,35783.0,-810.8997327290151,-387.3592939605537,-804.2616587352131
346221,12920,346221,10216,346221.0,35724.0,-821.4740631476479,-392.38027011088366,-815.2004821190512
346221,12885,346221,10190,346221.0,35750.0,-832.0836320603798,-397.4426757449145,-826.2452881046811
346221,12896,346221,10220,346221.0,35709.0,-842.7337609617855,-402.5469689966777,-837.3966265819067
346221,13029,346221,10174,346221.0,35658.0,-853.4337651912447,-407.6937962741805,-848.6543901028958
346221,13205,346221,10157,346221.0,35634.0,-864.1953150120189,-412.8841008729918,-860.0182757317175
346221,13205,346221,10137,346221.0,35600.0,-875.0290083135214,-418.1194872786908,-871.4885369742651
346231,13169,346231,10158,346231.0,35630.0,-885.9408363155951,-423.40267517952384,-883.0665724801884
346231,13055,346231,10189,346231.0,35636.0,-896.9306385492391,-428.7375554188319,-894.7549649749271
346231,12900,346231,10187,346231.0,35676.0,-907.9930447794543,-434.12869804565,-906.5568914547205
346231,12825,346231,10254,346231.0,35689.0,-919.1201793780092,-439.58053900161406,-918.4751028966916
346231,12794,346231,10194,346231.0,35623.0,-930.3048290623378,-445.09650029726026,-930.5109307576329
346231,12791,346231,10187,346231.0,35608.0,-941.5427142791953,-450.67843817186565,-942.6639273026615
346242,12764,346242,10165,346242.0,35562.0,-952.8334819534502,-456.3267409050204,-954.9322611516507
346242,12799,346242,10143,346242.0,35564.0,-964.1809074404944,-462.0407908774213,-967.3133378443551
346242,12805,346242,10118,346242.0,35515.0,-975.5926274626352,-467.8194407613581,-979.8042549015204
346242,13021,346242,10058,346242.0,35459.0,-987.0790659564884,-473.66159694481996,-992.4022452631409
346242,13060,346242,10078,346242.0,35467.0,-998.650915138204,-479.56698914252183,-1005.1053378719471
346242,13061,346242,10103,346242.0,35475.0,-1010.3156834900351,-485.53672957218896,-1017.9128975253532
346252,12992,346252,10100,346252.0,35442.0,-1022.0751984962576,-491.5732043399837,-1030.825627170916
346252,12855,346252,10129,346252.0,35505.0,-1033.9252801746386,-497.6794872300967,-1043.845200635729
346252,12682,346252,10149,346252.0,35487.0,-1045.8575509497196,-503.8586481932225,-1056.9736471980789
346252,12677,346252,10139,346252.0,35433.0,-1057.8626635623077,-510.1130212052316,-1070.2126275948988
346252,12663,346252,10103,346252.0,35438.0,-1069.9333141087106,-516.4436722301915,-1083.563168050943
346252,12653,346252,10125,346252.0,35427.0,-1082.0657068459986,-522.8503303032925,-1097.0258441875153
346263,12611,346263,10084,346263.0,35429.0,-1094.259871672318,-529.3315509990874,-1110.6008036187463
346263,12628,346263,10076,346263.0,35393.0,-1106.5198037567181,-535.8848876611236,-1124.2875462707877
346263,12727,346263,10041,346263.0,35360.0,-1118.8533322277376,-542.5071959075158,-1138.084855023258
346263,12918,346263,10014,346263.0,35302.0,-1131.2706715416339,-549.1951301751067,-1151.991137750476
346263,12919,346263,10012,346263.0,35331.0,-1143.7812019933504,-555.9457109746887,-1166.005037115413
346263,12888,346263,10011,346263.0,35312.0,-1156.38995032651,-562.7567403499825,-1180.1257860450644
346273,12770,346273,10037,346273.0,35329.0,-1169.0958991342031,-569.6268389761931,-1194.3530154903324
346273,12639,346273,10052,346273.0,35327.0,-1181.8927644078308,-576.5550543769666,-1208.6862350841336
346273,12535,346273,10037,346273.0,35329.0,-1194.7715208185443,-583.5402305396706,-1223.1242315882744
346273,12508,346273,10026,346273.0,35270.0,-1207.7234768638582,-590.5805234744438,-1237.6645915743181
346273,12483,346273,10039,346273.0,35289.0,-1220.742673760081,-597.6732327541207,-1252.3035892080006
346273,12495,346273,9996,346273.0,35264.0,-1233.8270639492266,-604.8147669649015,-1267.0362752990584
346283,12478,346283,9990,346283.0,35236.0,-1246.978744620173,-612.0007229193624,-1281.8564641819423
346283,12512,346283,9963,346283.0,35181.0,-1260.203699618287,-619.2261839801442,-1296.75682298361
346283,12702,346283,9938,346283.0,35117.0,-1273.5108594537867,-626.486138471133,-1311.7294297690748
346283,12776,346283,9925,346283.0,35112.0,-1286.9096717747086,-633.7759252388872,-1326.7667238940896
346283,12762,346283,9923,346283.0,35164.0,-1300.4065382284016,-641.0916296191647,-1341.86219515143
346283,12714,346283,9962,346283.0,35123.0,-1314.0020723626326,-648.4301871092224,-1357.010208882113
346294,12572,346294,9989,346294.0,35154.0,-1327.6905120257288,-655.7889439322976,-1372.2052849881911
346294,12393,346294,9989,346294.0,35153.0,-1341.461324707552,-663.1647575728729,-1387.4414057742138
346294,12355,346294,9945,346294.0,35092.0,-1355.302419109668,-670.5531959257925,-1402.7114661344947
346294,12355,346294,9944,346294.0,35117.0,-1369.2034151023781,-677.9483471713023,-1418.0070281876242
346294,12319,346294,9931,346294.0,35079.0,-1383.1574546313175,-685.3430826741131,-1433.3183482139275
346294,12319,346294,9896,346294.0,35058.0,-1397.161701612254,-692.7293501400053,-1448.6343847564558
346304,12334,346304,9897,346304.0,35019.0,-1411.2173627716013,-700.0984588060065,-1463.942895458134
346304,12443,346304,9841,346304.0,34979.0,-1425.329172861803,-707.4414662005235,-1479.2308111963553
346304,12606,346304,9821,346304.0,34974.0,-1439.5036075942057,-714.7497193650818,-1494.4847563652834
346304,12593,346304,9831,346304.0,34965.0,-1453.745678459569,-722.015490107594,-1509.6914182373548
346304,12595,346304,9844,346304.0,34944.0,-1468.0556732556809,-729.2323139824879,-1524.8375938165614
346304,12488,346304,9893,346304.0,34951.0,-1482.4275036740587,-736.3946932604061,-1539.910046155485
346314,12336,346314,9911,346314.0,34956.0,-1496.8491577952134,-743.4972207654464,-1554.8952474669804
346314,12226,346314,9895,346314.0,34966.0,-1511.3049885307023,-750.5335032046536,-1569.7788961363976
346314,12212,346314,9850,346314.0,34933.0,-1525.778864963477,-757.4954993881793,-1584.5453052183043
346314,12188,346314,9872,346314.0,34922.0,-1540.2566409336375,-764.3735508051429,-1599.1769968021385
346314,12165,346314,9858,346314.0,34925.0,-1554.7272876965174,-771.1566353158609,-1613.6545796620194
346314,12171,346314,9816,346314.0,34902.0,-1569.1832192800252,-777.8324617890809,-1627.9566416065184
346325,12193,346325,9830,346325.0,34824.0,-1583.6202257528882,-784.3876347179389,-1642.0597077503928
346325,12417,346325,9782,346325.0,34774.0,-1598.0365289621664,-790.8079903949583,-1655.9387510912768
346325,12477,346325,9785,346325.0,34789.0,-1612.4301048656257,-797.0789553201637,-1669.568201502984
346325,12454,346325,9768,346325.0,34800.0,-1626.7948614578506,-803.185892891927,-1682.9226019601726
346325,12388,346325,9801,346325.0,34793.0,-1641.1179005151323,-809.1142850451055,-1695.976437241254
346325,12272,346325,9823,346325.0,34795.0,-1655.3791565473562,-814.8494922968201,-1708.7035649612612
346335,12098,346335,9833,346335.0,34807.0,-1669.5530855404943,-820.3760845787183,-1721.076682842302
346335,12058,346335,9809,346335.0,34788.0,-1683.6116776026654,-825.677113677831,-1733.066833076025
346335,12040,346335,9797,346335.0,34771.0,-1697.5275395959832,-830.733777059188,-1744.6430074045531
346335,12017,346335,9784,346335.0,34762.0,-1711.2757574884358,-835.5255262402095,-1755.7720096882392
346335,12023,346335,9748,346335.0,34715.0,-1724.8345109505385,-840.0303916449416,-1766.4185506576935
346335,12031,346335,9740,346335.0,34704.0,-1738.1850663175526,-844.2254294836365,-1776.5455415196875
346345,12133,346345,9713,346345.0,34660.0,-1751.311213382084,-848.0872529108743,-1786.1145713641222
346345,12310,346345,9669,346345.0,34657.0,-1764.1975476160533,-851.5926097455233,-1795.086440047356
346345,12303,346345,9681,346345.0,34600.0,-1776.8263089846612,-854.7190459501309,-1803.4216729088328
346345,12276,346345,9698,346345.0,34643.0,-1789.1740831902596,-857.4454208616494,-1811.0809862015292
346345,12177,346345,9737,346345.0,34610.0,-1801.2102561127797,-859.7518458662922,-1818.0255082063263
346345,12034,346345,9762,346345.0,34663.0,-1812.897730178598,-861.6190067292059,-1824.2166034959455
346356,11921,346356,9739,346356.0,34636.0,-1824.1953552130049,-863.0272891396467,-1829.6154088647556
346356,11901,346356,9765,346356.0,34618.0,-1835.0610974884758,-863.9561897517076,-1834.1823918079801
346356,11884,346356,9729,346356.0,34611.0,-1845.4546004623583,-864.3841226442818,-1837.8772687489065
346356,11865,346356,9702,346356.0,34598.0,-1855.338456534421,-864.2885469892656,-1840.659237748681
346356,11854,346356,9706,346356.0,34589.0,-1864.6786444186446,-863.6464287661399,-1842.4872355841046
346356,11916,346356,9668,346356.0,34533.0,-1873.444582594252,-862.4348470160727,-1843.320252887681
346366,12090,346366,9632,346366.0,34514.0,-1881.6082960331305,-860.6316300194085,-1843.1179636592153
346366,12156,346366,9587,346366.0,34478.0,-1889.1419666488816,-858.2162528294818,-1841.8416724880635
346366,12161,346366,9615,346366.0,34512.0,-1896.0145342097771,-855.1709321063389,-1839.455214483992
346366,12091,346366,9672,346366.0,34510.0,-1902.1892205951906,-851.4812692873516,-1835.9253983410827
346366,11974,346366,9707,346366.0,34553.0,-1907.6231663533306,-847.1359063773746,-1831.221898581815
346366,11837,346366,9745,346366.0,34562.0,-1912.2691342099395,-842.1254498155844,-1825.3167943547662
346376,11777,346376,9673,346376.0,34555.0,-1916.0785442581218,-836.4414985922458,-1818.1840573044708
346376,11760,346376,9709,346376.0,34582.0,-1919.0045997537907,-830.0764488033885,-1809.799260599242
346376,11763,346376,9715,346376.0,34539.0,-1921.0043737867675,-823.0238624282827,-1800.1395726966539
346376,11754,346376,9732,346376.0,34565.0,-1922.0396822445605,-815.2786517981913,-1789.184004255492
346376,11770,346376,9734,346376.0,34545.0,-1922.0772867946973,-806.8369403247989,-1776.913838096945
346376,11889,346376,9696,346376.0,34525.0,-1921.0886152969995,-797.6960387973572,-1763.3131336045678
346387,12071,346387,9669,346387.0,34519.0,-1919.0483065936812,-787.8548996156668,-1748.369387106061
346387,12091,346387,9649,346387.0,34538.0,-1915.9311779063623,-777.3150753450996,-1732.0743042174336
346387,12057,346387,9732,346387.0,34564.0,-1911.7089978968381,-766.0816554474843,-1714.4243222958144
346387,11985,346387,9779,346387.0,34604.0,-1906.3490575804283,-754.1633716392975,-1695.4206748160689
346387,11837,346387,9802,346387.0,34671.0,-1899.8150783312415,-741.5717361207812,-1675.0690159953851
346387,11750,346387,9809,346387.0,34686.0,-1892.0698751941588,-728.320017839187,-1653.3786987187327
346397,11760,346397,9815,346397.0,34710.0,-1883.0787081165383,-714.42274651097,-1630.362043548476
346397,11749,346397,9829,346397.0,34714.0,-1872.8118813694603,-699.8956913630585,-1606.0340032640843
346397,11782,346397,9839,346397.0,34746.0,-1861.2459466765372,-684.7559943759886,-1580.4122326530037
346397,11780,346397,9879,346397.0,34766.0,-1848.364008819894,-669.02223895415,-1553.5172736738673
346397,11852,346397,9863,346397.0,34754.0,-1834.1556464710175,-652.7143947775777,-1525.3727481570982
346397,12060,346397,9882,346397.0,34774.0,-1818.6161128563767,-635.8538163181947,-1496.0057455748731
346407,12152,346407,9834,346407.0,34819.0,-1801.744009146802,-618.4635574533086,-1465.447370702078
346407,12155,346407,9887,346407.0,34861.0,-1783.5379407313662,-600.5690095723869,-1433.733029347783
346407,12137,346407,9938,346407.0,34923.0,-1763.9941376767642,-582.1983868478869,-1400.9022386521096
346407,12047,346407,10028,346407.0,34993.0,-1743.1061787967687,-563.3824102528038,-1366.9980660332415
346407,11917,346407,10047,346407.0,35036.0,-1720.866633273461,-544.1531772720211,-1332.06632502661
346407,11907,346407,10054,346407.0,35049.0,-1697.2700513467075,-524.5429833122577,-1296.154832209384
346418,11922,346418,10058,346418.0,35121.0,-1672.3160880140367,-504.58381017908096,-1259.313043479127
346418,11955,346418,10101,346418.0,35150.0,-1646.011444455287,-484.307413798916,-1221.59189814865
346418,11970,346418,10104,346418.0,35170.0,-1618.370550256494,-463.7454657705617,-1183.0436405746436
346418,12009,346418,10133,346418.0,35196.0,-1589.4157228284253,-442.9295514140195,-1143.7218362288218
346418,12172,346418,10097,346418.0,35233.0,-1559.1769472281676,-421.891274227895,-1103.6816816997375
346418,12397,346418,10111,346418.0,35254.0,-1527.6903872541886,-400.66272273889444,-1062.980370107567
346428,12466,346428,10179,346428.0,35317.0,-1494.9950885581256,-379.27709026854194,-1021.6773603796187
346428,12479,346428,10205,346428.0,35411.0,-1461.129293290439,-357.7688151701839,-979.8343582968289
346428,12428,346428,10261,346428.0,35470.0,-1426.12851829063,-336.17307653669604,-937.5147341814722
346428,12346,346428,10307,346428.0,35529.0,-1390.026069502904,-314.52504293898164,-894.7825573651983
346428,12293,346428,10329,346428.0,35593.0,-1352.8553317265041,-292.85911995753736,-851.7017250136795
346428,12320,346428,10335,346428.0,35619.0,-1314.65270537718,-271.2083896534921,-808.3353613279328
346438,12371,346438,10373,346438.0,35660.0,-1275.4599101454182,-249.60442705221254,-764.7455154131385
346438,12397,346438,10363,346438.0,35713.0,-1235.3250350769104,-228.077363051664,-720.9931436282804
346438,12437,346438,10392,346438.0,35749.0,-1194.3027971299664,-206.6560449991225,-677.1381517948623
346438,12543,346438,10412,346438.0,35781.0,-1152.45453078213,-185.36825348131282,-633.2393981470207
346438,12812,346438,10400,346438.0,35775.0,-1109.8473261060392,-164.24090355812115,-589.3548878034801
346438,12971,346438,10416,346438.0,35848.0,-1066.5512326791927,-143.30033476700726,-545.5422782690151
346449,13013,346449,10467,346449.0,35918.0,-1022.6350735946677,-122.57268092443013,-501.8592792142898
346449,13003,346449,10518,346449.0,35981.0,-978.1632168861104,-102.08388781393751,-458.36344480016203
346449,12953,346449,10549,346449.0,36061.0,-933.1948503179292,-81.8591775651239,-415.1114578606496
346449,12875,346449,10596,346449.0,36118.0,-887.7854559305249,-61.922294824073106,-372.1582663298726
346449,12896,346449,10566,346449.0,36160.0,-841.9894705425472,-42.29494269612695,-329.55628459816774
346449,12910,346449,10614,346449.0,36201.0,-795.8629424507824,-22.996642448211958,-287.3548644432359
346459,12988,346459,10621,346459.0,36212.0,-749.465233399038,-4.0448806793491485,-245.6001572877036
346459,13023,346459,10632,346459.0,36265.0,-702.8596405217171,14.544786541406097,-204.33530142306734
346459,13108,346459,10654,346459.0,36290.0,-656.1133532065436,32.75867314025362,-163.6007141368417
346459,13273,346459,10649,346459.0,36311.0,-609.2968682910295,50.58482316861182,-123.43433758153174
346459,13519,346459,10595,346459.0,36367.0,-562.4822097878885,68.01264836298316,-83.87188968301905
346459,13587,346459,10635,346459.0,36374.0,-515.7395663756041,85.03214116005074,-44.947102660513565
346469,13619,346469,10694,346469.0,36427.0,-469.13371036993476,101.6331087400684,-6.691909541245536
346469,13627,346469,10746,346469.0,36523.0,-422.7220982363634,117.80525006115863,30.863529687444725
346469,13517,346469,10808,346469.0,36559.0,-376.5551139986683,133.53910252422912,67.6912830739285
346469,13454,346469,10744,346469.0,36564.0,-330.67810964327964,148.82708755839582,103.76637133242468
346469,13496,346469,10791,346469.0,36619.0,-285.13454469460976,163.6638783170187,139.06707899404228
346469,13551,346469,10811,346469.0,36648.0,-239.96867327895313,178.0461625797775,173.57486705464316
346480,13616,346480,10824,346480.0,36664.0,-195.22667834883464,191.9725356440743,207.27430875979496
346480,13667,346480,10801,346480.0,36705.0,-150.95663813744864,205.4435941470271,240.15302282626863
346480,13753,346480,10815,346480.0,36713.0,-107.20808223059203,218.46174922325622,272.20150139732687
346480,14003,346480,10762,346480.0,36672.0,-64.03097987485921,231.03066994188754,303.4127440985196
346480,14124,346480,10775,346480.0,36756.0,-21.473313020297837,243.15447635481695,333.78155078323437
346480,14176,346480,10822,346480.0,36762.0,20.42243155297706,254.83696334786634,363.30388402359256
346490,14168,346490,10875,346490.0,36828.0,61.621942151594794,266.08146026387624,391.9768034097366
346490,14087,346490,10884,346490.0,36875.0,102.09959982385135,276.89147593378254,419.7988402542444
346490,13994,346490,10940,346490.0,36923.0,141.83685509884413,287.27157855268706,446.77059828400365
346490,13983,346490,10896,346490.0,36903.0,180.81918511054664,297.2280508950014,472.8953496609921
346490,14020,346490,10894,346490.0,36954.0,219.03297752584035,306.769061678625,498.17923168628977
346490,14060,346490,10918,346490.0,36953.0,256.46358435753564,315.90432049527976,522.6310845579301
346501,14089,346501,10901,346501.0,36967.0,293.09462506550494,324.64466936009296,546.2622396186775
346501,14159,346501,10905,346501.0,36989.0,328.9078999477481,333.0018513958854,569.0862780537409
346501,14286,346501,10917,346501.0,36961.0,363.88376460553786,340.98827619772885,591.1186848038687
346501,14534,346501,10858,346501.0,36967.0,398.00265210777707,348.6166944845186,612.3763061985944
346501,14608,346501,10887,346501.0,36973.0,431.2482514219166,355.89967236354505,632.8765966567355
346501,14585,346501,10916,346501.0,37011.0,463.6111224068691,362.84903479715945,652.6369797424775
346511,14517,346511,10961,346511.0,37085.0,495.09044486953394,369.475862726389,671.6747399106837
346511,14437,346511,10970,346511.0,37105.0,525.6930661791739,375.7911264428344,690.0075779487665
346511,14352,346511,10965,346511.0,37091.0,555.4307864862803,381.80638213418774,707.6543802899555
346511,14368,346511,10978,346511.0,37121.0,584.3171299993787,387.5340941193132,724.6355257004795
346511,14393,346511,10948,346511.0,37108.0,612.3647312226599,392.9875965617492,740.9727064691617
346511,14403,346511,10976,346511.0,37129.0,639.583952994594,398.1808662757578,756.6886418800568
346521,14443,346521,10967,346521.0,37121.0,665.9823878700288,403.12829440360065,771.8067945793714
346521,14528,346521,10966,346521.0,37130.0,691.5648155230631,407.8445759158815,786.3510607790945
346521,14730,346521,10870,346521.0,37066.0,716.3340490042099,412.34441291760277,800.3453060544045
346521,14859,346521,10914,346521.0,37096.0,740.2933658434172,416.6416548822875,813.8125597931901
346521,14878,346521,10924,346521.0,37128.0,763.4499977117453,420.7483468771886,826.7741852643364
346521,14837,346521,10953,346521.0,37170.0,785.8177863225121,424.674494830011,839.2496883525741
346532,14742,346532,10997,346532.0,37189.0,807.4175806136388,428.42854947689204,851.2572148686072
346532,14627,346532,11016,346532.0,37242.0,828.2754152366119,432.0182059449635,862.8142743956162
346532,14602,346532,11002,346532.0,37237.0,848.4193702603436,435.45120703480586,873.9384431861065
346532,14601,346532,11016,346532.0,37197.0,867.876430758208,438.7357978183139,884.6477885252332
346532,14616,346532,10989,346532.0,37214.0,886.6704179884864,441.88075641904084,894.9606638888988
346532,14626,346532,10973,346532.0,37245.0,904.8210419262523,444.8951423688312,904.8951819226991
346542,14643,346542,10983,346542.0,37215.0,922.343519901852,447.7878533293082,914.4689818901463
346542,14788,346542,10958,346542.0,37185.0,939.2486494158686,450.56718416958233,923.699076499825
346542,15022,346542,10939,346542.0,37189.0,955.5441947163408,453.2404407375383,932.6012675740992
346542,15035,346542,10921,346542.0,37207.0,971.238167574556,455.81341581253173,941.1894113174862
346542,15041,346542,11010,346542.0,37218.0,986.3424558512261,458.289935454834,949.4750831368406
346542,14951,346542,10993,346542.0,37246.0,1000.874516803038,460.6720503052975,957.4676759775525
346552,14837,346552,11046,346552.0,37310.0,1014.8565701095247,462.9608332598133,965.1748164529577
346552,14760,346552,11022,346552.0,37285.0,1028.3130206303917,465.1571722827674,972.6030802470623
346552,14768,346552,11019,346552.0,37291.0,1041.2672880162468,467.26219404720393,979.7586200092151
346552,14754,346552,11007,346552.0,37295.0,1053.7393578463202,469.27725968054847,986.6472947103503
346552,14773,346552,11033,346552.0,37283.0,1065.7445210552219,471.2037410227766,993.2744884680033
346552,14785,346552,11020,346552.0,37283.0,1077.2928780733014,473.04293353014555,999.6448797156695
346563,14862,346563,11018,346563.0,37255.0,1088.389327927571,474.79610983071404,1005.7621119808368
346563,15079,346563,10942,346563.0,37265.0,1099.034519575513,476.4643314106572,1011.6283357746486
346563,15183,346563,10933,346563.0,37249.0,1109.2275221677637,478.0476946024306,1017.2437388611488
346563,15202,346563,10955,346563.0,37300.0,1118.9696354014195,479.54429619651705,1022.6062692425471
346563,15150,346563,11018,346563.0,37303.0,1128.267275759947,480.9497726948971,1027.7117471618906
346563,15059,346563,11070,346563.0,37342.0,1137.1325604138622,482.2579212264885,1032.5543500023668
346573,14891,346573,11091,346573.0,37388.0,1145.5816553520558,483.46205620424007,1037.1273184367815
346573,14869,346573,11078,346573.0,37369.0,1153.631589608014,484.5563106363262,1041.4237807994182
346573,14856,346573,11060,346573.0,37396.0,1161.2968889712433,485.5362731538552,1045.4374328081797
346573,14885,346573,11040,346573.0,37337.0,1168.5874513551876,486.3988982014589,1049.1627652493537
346573,14900,346573,11026,346573.0,37373.0,1175.5078819502442,487.14201737657515,1052.5948438767753
346573,14918,346573,11047,346573.0,37380.0,1182.0576119398022,487.7638405765199,1055.7290059773327
346583,15037,346583,11030,346583.0,37339.0,1188.2314464847134,488.262714161982,1058.5607854216987
346583,15253,346583,10978,346583.0,37320.0,1194.021147077527,488.63697430403283,1061.085746610818
346583,15272,346583,10993,346583.0,37366.0,1199.4186352873778,488.8844908313404,1063.299012956474
346583,15268,346583,11036,346583.0,37378.0,1204.4195694899004,489.00215257955017,1065.1950829956313
346583,15196,346583,11050,346583.0,37382.0,1209.0252083519877,488.985978333204,1066.7682358348131
346583,15060,346583,11090,346583.0,37420.0,1213.2419297905788,488.8318615553734,1068.013109216445
346594,14977,346594,11068,346594.0,37414.0,1217.0789416580928,488.53641476552934,1068.9252338501442
346594,14978,346594,11073,346594.0,37424.0,1220.5452302437423,488.09750894564354,1069.501534295721
346594,14969,346594,11070,346594.0,37407.0,1223.647169009433,487.51441903380703,1069.7406407125734
346594,14966,346594,11056,346594.0,37407.0,1226.3873903755616,486.78776580137526,1069.6429346723144
346594,14985,346594,11050,346594.0,37401.0,1228.764428612607,485.91938568001206,1069.2104444326058
346594,15036,346594,11022,346594.0,37392.0,1230.7727796148504,484.91208197669573,1068.4467171578005
346604,15241,346604,11000,346604.0,37335.0,1232.4038390108274,483.7692068299049,1067.3565911249416
346604,15342,346604,10986,346604.0,37346.0,1233.6484675475713,482.49408799003214,1065.945677578973
346604,15345,346604,11023,346604.0,37355.0,1234.5007023479604,481.0895391229676,1064.2197807700436
346604,15303,346604,11039,346604.0,37367.0,1234.9606452173268,479.55784613657397,1062.1847497872157
346604,15193,346604,11034,346604.0,37387.0,1235.0351419124509,477.90124158247676,1059.846810574502
346604,15059,346604,11068,346604.0,37409.0,1234.7363252154166,476.122466359376,1057.2131350928375
346614,14992,346614,11012,346614.0,37374.0,1234.0787238427224,474.22514746119515,1054.2924389784948
346614,14993,346614,11074,346614.0,37348.0,1233.076130831939,472.21395120228874,1051.0952411681162
346614,14999,346614,11024,346614.0,37382.0,1231.7395261595234,470.09464941254583,1047.6336678320001
346614,15002,346614,11002,346614.0,37340.0,1230.0763648303753,467.8741227356775,1043.9212495425963
346614,15011,346614,11019,346614.0,37354.0,1228.0906108450536,465.5600863321468,1039.972911637947
346614,15133,346614,10978,346614.0,37294.0,1225.7832011081491,463.16068954706174,1035.8048578366195
346625,15330,346625,10966,346625.0,37231.0,1223.1536454173865,460.68418155246064,1031.4340430692312
346625,15335,346625,10964,346625.0,37284.0,1220.203270429781,458.13850307084056,1026.8772653685326
346625,15302,346625,10972,346625.0,37288.0,1216.938680860272,455.5309435558391,1022.1505825583073
346625,15225,346625,10975,346625.0,37303.0,1213.373339236362,452.8681104711565,1017.2695955612734
346625,15086,346625,11004,346625.0,37328.0,1209.5268106626193,450.15617400633056,1012.2501849680966
346625,14957,346625,10991,346625.0,37285.0,1205.4223055931627,447.40127975599734,1007.1091681185534
346635,14951,346635,11016,346635.0,37285.0,1201.0833760476169,444.6099955924593,1001.8646090431874
346635,14958,346635,10958,346635.0,37277.0,1196.5311730725202,441.7895901558345,996.5357422673858
346635,14922,346635,10983,346635.0,37237.0,1191.7831794464405,438.94798287270714,991.1427628592376
346635,14917,346635,10985,346635.0,37239.0,1186.852838187764,436.0935352605599,985.7065590041201
346635,15001,346635,10988,346635.0,37181.0,1181.7494509831909,433.23507181661836,980.2482994390787
346635,15191,346635,10927,346635.0,37171.0,1176.4790726151277,430.3820047510866,974.788869008058
346645,15260,346645,10878,346645.0,37136.0,1171.0472692433564,427.54395921410327,969.3481901136075
346645,15265,346645,10923,346645.0,37149.0,1165.4628438019358,424.72987038642316,963.9446216533962
346645,15190,346645,10939,346645.0,37173.0,1159.7404560008097,421.9474122113339,958.5947322920408
346645,15087,346645,10953,346645.0,37200.0,1153.9010013092102,419.20329579334424,953.3136458020516
346645,14936,346645,10987,346645.0,37202.0,1147.9699366465393,416.5040243754392,948.1158304400533
346645,14906,346645,10935,346645.0,37169.0,1141.9743494723255,413.8565663608136,943.015836049772
346656,14872,346656,10961,346656.0,37179.0,1135.9400302675251,411.26865676852196,938.028575696027
346656,14833,346656,10931,346656.0,37144.0,1129.8895290754506,408.7487289167576,933.1692403982548
346656,14848,346656,10892,346656.0,37116.0,1123.8411163760825,406.30566428924266,928.4530488537206
346656,14861,346656,10913,346656.0,37115.0,1117.8083298608026,403.948366387313,923.8948357113223
346656,14945,346656,10875,346656.0,37078.0,1111.8002562789788,401.685293875476,919.5085892147051
346656,15131,346656,10849,346656.0,37067.0,1105.8229971773662,399.52408023352274,915.3070389282569
346666,15169,346666,10849,346666.0,37044.0,1099.882615700264,397.4710514433248,911.3012202474421
346666,15135,346666,10890,346666.0,37075.0,1093.9885483077476,395.5308236046912,907.5001245695366
346666,15050,346666,10890,346666.0,37082.0,1088.1555019799885,393.7064396629355,903.910724163559
346666,14906,346666,10933,346666.0,37116.0,1082.4029522145286,391.99999045679704,900.5384625156298
346666,14793,346666,10918,346666.0,37117.0,1076.7527229911746,390.4133496407245,897.3880115940408
346666,14779,346666,10895,346666.0,37087.0,1071.225740914224,388.94869253859656,894.4639356272462
346676,14764,346676,10898,346676.0,37074.0,1065.839381495118,387.6085600630488,891.7709010144424
346676,14765,346676,10890,346676.0,37052.0,1060.606169878316,386.3956275018002,889.3134099575606
346676,14752,346676,10897,346676.0,37048.0,1055.5334307292544,385.31254438289056,887.0953794376195
346676,14805,346676,10841,346676.0,37018.0,1050.6233404857348,384.36182509804974,885.119771814783
346676,15000,346676,10803,346676.0,36981.0,1045.873754097182,383.5454077203941,883.3881737232384
346676,15107,346676,10808,346676.0,36974.0,1041.280718859105,382.86377570977356,881.9001835367974
346687,15082,346687,10847,346687.0,36995.0,1036.842234205168,382.31523135507746,880.6528319954608
346687,15025,346687,10868,346687.0,37031.0,1032.561088114946,381.89594425031424,879.6405075388186
346687,14924,346687,10898,346687.0,37060.0,1028.4453130906745,381.6006655788235,878.8555503640223
346687,14796,346687,10921,346687.0,37070.0,1024.5065914698298,381.4236408426899,878.2892138490931
346687,14715,346687,10929,346687.0,37027.0,1020.7574719375143,381.3594641823162,877.9324512221128
346687,14713,346687,10874,346687.0,37064.0,1017.2083723312232,381.4036316142917,877.7761715752024
346697,14704,346697,10876,346697.0,37043.0,1013.8654652279414,381.552475632291,877.8112083568722
346697,14706,346697,10876,346697.0,37059.0,1010.7298082539847,381.8026533326635,878.0283912126672
346697,14728,346697,10828,346697.0,37044.0,1007.7972474094671,382.15066983317456,878.418685043431
346697,14830,346697,10849,346697.0,36986.0,1005.0588748152003,382.59245936155656,878.9731274232904
346697,15050,346697,10815,346697.0,36951.0,1002.5026845472794,383.1229269960298,879.6822651633491
346697,15045,346697,10822,346697.0,36951.0,1000.1168781071359,383.73557059525933,880.5351449602032
346708,15015,346708,10883,346708.0,37026.0,997.8934133889105,384.4223348665798,881.5186031748194
346708,14919,346708,10879,346708.0,37029.0,995.8295977034657,385.1739608666734,882.6175370958599
346708,14801,346708,10898,346708.0,37058.0,993.9272110732821,385.98073000462017,883.8158828857726
346708,14688,346708,10909,346708.0,37068.0,992.1899977129805,386.8331070275972,885.0975660783124
346708,14675,346708,10882,346708.0,37042.0,990.6205436012903,387.7221021838436,886.4471074108482
346708,14681,346708,10867,346708.0,37046.0,989.2177462011108,388.639306320315,887.8498298620784
346718,14691,346718,10903,346718.0,37021.0,987.9756513632193,389.5766457506505,889.2917098903399
346718,14683,346718,10886,346718.0,37032.0,986.8833316519436,390.52626393378137,890.7591000050414
346718,14719,346718,10888,346718.0,37009.0,985.9251081098776,391.48065164853097,892.2384910965745
346718,14940,346718,10856,346718.0,36978.0,985.0813505613045,392.4326555785234,893.7162461644582
346718,15022,346718,10807,346718.0,36975.0,984.3308870139313,393.3750822316846,895.1781460123818
346718,15020,346718,10832,346718.0,37011.0,983.654680749457,394.29994802466365,896.6089416342381
346728,14991,346728,10871,346728.0,37034.0,983.0386690536217,395.19791408200626,897.9924034945266
346728,14889,346728,10921,346728.0,37047.0,982.4744629146401,396.0585495550763,899.311930930388
346728,14759,346728,10948,346728.0,37085.0,981.9581084803112,396.8713731659036,900.5513478052569
346728,14686,346728,10907,346728.0,37056.0,981.487461012405,397.6269690477519,901.6956198331718
346728,14667,346728,10919,346728.0,37037.0,981.0591428859713,398.3174992627126,902.7312492168874
346728,14680,346728,10864,346728.0,37025.0,980.6663202107686,398.93652222585735,903.6461366147213
346739,14690,346739,10909,346739.0,37045.0,980.2977920032639,399.4785200092391,904.4291982403522
346739,14689,346739,10891,346739.0,37021.0,979.9379732379771,399.93858805100706,905.0701877549817
346739,14793,346739,10852,346739.0,36982.0,979.5673329969187,400.3123542351375,905.559601890533
346739,15016,346739,10798,346739.0,36971.0,979.1638305663889,400.59560943331263,905.8882653958508
346739,15056,346739,10831,346739.0,36968.0,978.7061251680066,400.7834331197412,906.046690733201
346739,15008,346739,10873,346739.0,37004.0,978.1774004027831,400.8695650027869,906.0247167339928
346749,14914,346749,10906,346749.0,37014.0,977.567339165965,400.84672709107605,905.8117098439069
346749,14799,346749,10925,346749.0,37042.0,976.8713773280947,400.7076312858941,905.3971926943922
346749,14687,346749,10912,346749.0,37039.0,976.0881552888106,400.44595228024303,904.7715785644122
346749,14653,346749,10905,346749.0,37031.0,975.2163494341645,400.05683291166963,903.926738858943
346749,14657,346749,10910,346749.0,36986.0,974.2519885337229,399.53694644933506,902.856179273015
346749,14676,346749,10874,346749.0,37007.0,973.1870403595283,398.8843628626944,901.5547824027883
346759,14679,346759,10872,346759.0,37000.0,972.0091897528205,398.098285963252,900.0184833070998
346759,14722,346759,10872,346759.0,36950.0,970.7022195033229,397.17868576986126,898.2441311519972
346759,14917,346759,10815,346759.0,36941.0,969.2470308591039,396.1259414796905,896.2292132781218
346759,15032,346759,10801,346759.0,36904.0,967.6241237741524,394.94033113087846,893.9712475207066
346759,15006,346759,10829,346759.0,36947.0,965.8172865314014,393.6213517624816,891.4672111857682
346759,14962,346759,10859,346759.0,36938.0,963.8164533948085,392.1674528995442,888.713425677153
346770,14843,346770,10861,346770.0,36974.0,961.6182190613774,390.57647681997037,885.7059474653404
346770,14720,346770,10895,346770.0,36964.0,959.224222718084,388.846392810106,882.4411983802515
346770,14653,346770,10862,346770.0,36943.0,956.6382781020993,386.97592072540493,878.9164973854178
346770,14645,346770,10876,346770.0,36946.0,953.863390924748,384.9648779673806,875.1302612133088
346770,14625,346770,10858,346770.0,36928.0,950.8997320977619,382.8142357458587,871.0819508443063
346770,14629,346770,10848,346770.0,36929.0,947.7437306155011,380.52603033726785,866.7720047002483
346780,14644,346780,10848,346780.0,36890.0,944.3878348147887,378.10322037466585,862.2017707116611
346780,14750,346780,10796,346780.0,36872.0,940.8208672529961,375.5494577257626,857.3732753473976
346780,14955,346780,10760,346780.0,36820.0,937.0296270975155,372.8685958036169,852.2887283796115
346780,14977,346780,10765,346780.0,36846.0,933.0021734332244,370.0638805588078,846.9498887941256
346780,14952,346780,10800,346780.0,36861.0,928.7315007612674,367.1373319899202,841.357724855442
346780,14862,346780,10828,346780.0,36882.0,924.2174740311023,364.0898806894746,835.5127203973693
346790,14717,346790,10846,346790.0,36878.0,919.466282723803,360.92216019516667,829.4156168354696
346790,14582,346790,10851,346790.0,36883.0,914.487938136974,357.6354370343824,823.0681213725512
346790,14574,346790,10818,346790.0,36871.0,909.29282758458,354.2322453528228,816.4733850602897
346790,14561,346790,10781,346790.0,36830.0,903.8888389712054,350.7164569223446,809.6362122013378
346790,14553,346790,10829,346790.0,36816.0,898.2799742100522,347.0929078658981,802.5629139650159
346790,14556,346790,10783,346790.0,36807.0,892.4660202006212,343.3671445686525,795.2609274832473
346801,14589,346801,10775,346801.0,36777.0,886.4426539389101,339.54541206756693,787.7384997343945
346801,14786,346801,10713,346801.0,36717.0,880.2022934132567,335.6343828604363,780.004369194587
346801,14903,346801,10715,346801.0,36706.0,873.7365848391212,331.6404539206127,772.0671515552955
346801,14876,346801,10696,346801.0,36736.0,867.0402147852606,327.568984072957,763.9346882657436
346801,14826,346801,10740,346801.0,36719.0,860.1139346513596,323.4239086549067,755.6139485504336
346801,14707,346801,10754,346801.0,36731.0,852.9652029394551,319.20795997264884,747.1114502441391
346811,14554,346811,10793,346811.0,36747.0,845.6066011070058,314.9234225905295,738.4337904211408
346811,14475,346811,10755,346811.0,36705.0,838.0528160748004,310.5730408718101,729.588152031997
346811,14473,346811,10747,346811.0,36708.0,830.3173668238313,306.16055454165354,720.5826264509177
346811,14460,346811,10736,346811.0,36680.0,822.4104224422819,301.6906800402487,711.4262302708217
346811,14450,346811,10713,346811.0,36662.0,814.3380087017661,297.1688370520368,702.1287820250361
346811,14449,346811,10699,346811.0,36650.0,806.1019026423071,292.60084873988546,692.7007478226152
346821,14552,346821,10659,346821.0,36606.0,797.6999195090901,287.9925548011738,683.1530373658068
346821,14755,346821,10639,346821.0,36553.0,789.1273609832022,283.34926228504514,673.496618470536
346821,14759,346821,10612,346821.0,36541.0,780.3802176957934,278.67507851081905,663.7418262941192
346821,14728,346821,10672,346821.0,36564.0,771.4587702417579,273.97241531462043,653.8977230949886
346821,14649,346821,10678,346821.0,36558.0,762.369419351555,269.2421137600432,643.9720465023793
346821,14500,346821,10704,346821.0,36565.0,753.124158305423,264.4842135157263,633.9716913603697
346832,14384,346832,10708,346832.0,36551.0,743.7382823569624,259.6988750988455,623.9032715753883
346832,14342,346832,10697,346832.0,36568.0,734.2272110752544,254.88707653433747,613.7735715035947
346832,14324,346832,10667,346832.0,36556.0,724.6037001153029,250.05093668155166,603.5899837914133
346832,14337,346832,10655,346832.0,36502.0,714.8763384600284,245.19360245521844,593.3608626097238
346832,14333,346832,10635,346832.0,36483.0,705.049223485594,240.31886986347993,583.0954662171719
346832,14362,346832,10657,346832.0,36454.0,695.1222894347839,235.43086053460223,572.8034825087636
346842,14524,346842,10612,346842.0,36406.0,685.0922689201064,230.53391348569994,562.4944630707082
346842,14661,346842,10562,346842.0,36378.0,674.9550099019052,225.63240665812393,552.1772220972892
346842,14621,346842,10595,346842.0,36378.0,664.7090834479142,220.7302166670317,541.8592140330743
346842,14553,346842,10602,346842.0,36399.0,654.3587456627896,215.83028005872188,531.5462498807749
346842,14446,346842,10604,346842.0,36400.0,643.9145154213496,210.9347659289042,521.2428069215109
346842,14289,346842,10661,346842.0,36424.0,633.3915154852436,206.04566552698643,510.9527454700304
346852,14226,346852,10599,346852.0,36390.0,622.8065440159198,201.16548306730357,500.6800783570126
346852,14195,346852,10607,346852.0,36351.0,612.174995146026,196.29767959305005,490.4294206360557
346852,14182,346852,10570,346852.0,36337.0,601.5087350773135,191.446582437165,480.2058906963215
346852,14160,346852,10593,346852.0,36311.0,590.8151558446712,186.61704955756878,470.0147054738738
346852,14185,346852,10540,346852.0,36325.0,580.0969206849343,181.8142447821656,459.8609046953145
346852,14253,346852,10531,346852.0,36266.0,569.3522793494151,177.04339226767542,449.7492970759421
346863,14467,346863,10494,346863.0,36211.0,558.5765623997321,172.3093015658994,439.6842620165789
346863,14481,346863,10473,346863.0,36225.0,547.7653381808321,167.6157380114,429.66913546649397
346863,14460,346863,10509,346863.0,36223.0,536.9180972699326,162.9648993410523,419.7056594347461
346863,14353,346863,10516,346863.0,36234.0,526.0403213796874,158.35735055477517,409.7940495420289
346863,14212,346863,10559,346863.0,36271.0,515.1430401941252,153.79256062856533,399.93359150880065
346863,14081,346863,10531,346863.0,36245.0,504.240402126106,149.2697273771605,390.1234872884884
346873,14059,346873,10526,346873.0,36225.0,493.3463676639903,144.7883906137559,380.36359063228815
346873,14053,346873,10534,346873.0,36218.0,482.4719900601994,140.3486272034072,370.6546880662504
346873,14023,346873,10489,346873.0,36185.0,471.6241126680887,135.95102027193695,360.99844669926915
346873,14018,346873,10497,346873.0,36156.0,460.80501915831996,131.59650577554078,351.39723727517537
346873,14064,346873,10458,346873.0,36150.0,450.0124474971025,127.28605998627927,341.85383646142634
346873,14223,346873,10423,346873.0,36091.0,439.2403865147897,123.02025417464205,332.37107103347466
346883,14337,346883,10434,346883.0,36076.0,428.48146864981504,118.79868455786902,322.95137958237433
346883,14316,346883,10425,346883.0,36051.0,417.7305603503288,114.61950820516398,313.59625927834134
346883,14252,346883,10453,346883.0,36077.0,406.98764398134983,110.47938645046207,304.3058849820768
346883,14131,346883,10489,346883.0,36097.0,396.25846143322326,106.37388039303158,295.0792548059386
346883,14023,346883,10542,346883.0,36130.0,385.5530165551854,102.29832489402156,285.91493901374156
346883,13920,346883,10478,346883.0,36085.0,374.882879293947,98.24895858938362,276.81209431724596
346894,13917,346894,10485,346894.0,36050.0,364.25834155486405,94.22359568293541,267.7710777968797
346894,13891,346894,10457,346894.0,36039.0,353.68638571201336,90.22153404944959,258.793334643962
346894,13882,346894,10447,346894.0,35994.0,343.1697811603142,86.24316517005434,249.88092600102266
346894,13870,346894,10445,346894.0,35980.0,332.7068513370573,82.28965828859845,241.03605707644715
346894,13964,346894,10379,346894.0,35946.0,322.2916520886904,78.36265806853777,232.26061558880372
346894,14170,346894,10336,346894.0,35915.0,311.9152879395001,74.46368204153998,223.55570225965744
346904,14187,346904,10377,346904.0,35911.0,301.5690484170956,70.59319756551201,214.9211775819267
346904,14155,346904,10401,346904.0,35928.0,291.248126161248,66.75012095512335,206.35540494090776
346904,14072,346904,10414,346904.0,35933.0,280.953660604451,62.932232559616295,197.85544912682212
346904,13925,346904,10415,346904.0,35963.0,270.69234035891,59.13699784124162,189.41770600029201
346904,13787,346904,10439,346904.0,35946.0,260.47410662766697,55.362235968930804,181.03871649950804
346904,13754,346904,10410,346904.0,35917.0,250.30885193295444,51.60659754630967,172.71582308300094
346915,13741,346915,10397,346915.0,35893.0,240.20349607833157,47.86980498988663,164.44734491279848
346915,13734,346915,10382,346915.0,35882.0,230.16045294261198,44.15253619695176,156.2323426865663
346915,13750,346915,10382,346915.0,35860.0,220.17730172120662,40.45613364547904,148.0703333923242
346915,13768,346915,10375,346915.0,35870.0,210.24709387706355,36.782418178050534,139.96115333959312
346915,13943,346915,10285,346915.0,35792.0,200.35936062865972,33.133475886748215,131.904882461361
346915,14071,346915,10334,346915.0,35752.0,190.502517333294,29.511086154391307,123.9014575282007
346925,14050,346925,10319,346925.0,35797.0,180.66755375758487,25.916110537045995,115.9499317760309
346925,13964,346925,10326,346925.0,35791.0,170.8510900516934,22.348409075224083,108.04813175168783
346925,13892,346925,10350,346925.0,35813.0,161.0560623276233,18.807148417215785,100.19311817258915
346925,13712,346925,10390,346925.0,35846.0,151.29021197401266,15.291309500487955,92.38204004760416
346925,13640,346925,10339,346925.0,35784.0,141.56326096688133,11.800394808017131,84.61298346687875
346925,13634,346925,10335,346925.0,35750.0,131.8837645816393,8.334869767544035,76.8853638490757
346935,13617,346935,10316,346935.0,35756.0,122.25694045544378,4.896012484598145,69.19961682965936
346935,13607,346935,10296,346935.0,35691.0,112.68387849424846,1.4855057058750276,61.5566613564024
346935,13607,346935,10322,346935.0,35714.0,103.16144542843028,-1.8948728518923303,53.95748508336112
346935,13678,346935,10259,346935.0,35686.0,93.68254197287831,-5.243407218919629,46.40285608353736
346935,13899,346935,10261,346935.0,35636.0,84.23739264864139,-8.558669599398911,38.89315073024568
346935,13908,346935,10227,346935.0,35653.0,74.8165767667374,-11.840004766801314,31.428087255780724
346946,13882,346946,10255,346946.0,35647.0,65.41468780028686,-15.088019504723945,24.006451994692043
346946,13810,346946,10260,346946.0,35640.0,56.03239935995714,-18.304708794434987,16.626168421721673
346946,13643,346946,10320,346946.0,35662.0,46.67612842850235,-21.49306492784575,9.284634141365132
346946,13530,346946,10280,346946.0,35657.0,37.35576735635675,-24.656294959054605,1.9791741090635924
346946,13497,346946,10323,346946.0,35640.0,28.081417369897395,-27.797073413521105,-5.292452578111238
346946,13486,346946,10293,346946.0,35614.0,18.86060669491303,-30.91708717527797,-12.531757352121417
346956,13473,346956,10263,346956.0,35606.0,9.69689760405663,-34.016862356248964,-19.739569782964054
346956,13465,346956,10258,346956.0,35578.0,0.5895098011058053,-37.09595809328215,-26.916241899914894
346956,13496,346956,10249,346956.0,35587.0,-8.466622798329468,-40.15338964271103,-34.061818970643344
346956,13668,346956,10206,346956.0,35504.0,-17.480106883256326,-43.187997463258114,-41.17621315515953
346956,13779,346956,10179,346956.0,35492.0,-26.460818200276435,-46.19890599795451,-48.25965525778872
346956,13777,346956,10187,346956.0,35518.0,-35.41631589464055,-49.186177419642945,-55.31335374744026
346966,13705,346966,10225,346966.0,35531.0,-44.348834644729436,-52.15121109746872,-62.33968106780503
346966,13593,346966,10203,346966.0,35542.0,-53.25450574040633,-55.09653665341102,-69.34162007060092
346966,13441,346966,10286,346966.0,35539.0,-62.12487180849223,-58.02520091527879,-76.32196226810129
346966,13367,346966,10253,346966.0,35529.0,-70.9498493827366,-60.93995511380746,-83.28268685057526
346966,13350,346966,10208,346966.0,35519.0,-79.72089699485775,-63.84255591416979,-90.22460943533304
346966,13351,346966,10207,346966.0,35474.0,-88.43314448888464,-66.73375493769328,-97.14730454060134
346977,13346,346977,10190,346977.0,35455.0,-97.08614787073736,-69.61383708336939,-104.04934426081843
346977,13324,346977,10232,346977.0,35432.0,-105.68389111991974,-72.4829669425207,-110.92877423314201
346977,13435,346977,10184,346977.0,35406.0,-114.23447007846539,-75.34110247287987,-117.78359623548329
346977,13625,346977,10107,346977.0,35384.0,-122.74876012016057,-78.18802030618309,-124.6121765276489
346977,13668,346977,10152,346977.0,35379.0,-131.23727811960987,-81.02397683117096,-131.4136042820968
346977,13632,346977,10144,346977.0,35386.0,-139.7063939590247,-83.85045055563796,-138.18787266229424
346987,13536,346987,10192,346987.0,35381.0,-148.15618010639696,-86.67013601064792,-144.93575508600748
346987,13381,346987,10210,346987.0,35405.0,-156.58085630982487,-89.48625998055331,-151.65842929610528
346987,13268,346987,10211,346987.0,35401.0,-164.97129312156392,-92.30167734136666,-158.35693826695092
346987,13242,346987,10197,346987.0,35372.0,-173.3183622046539,-95.11815318379826,-165.03164981730708
346987,13235,346987,10154,346987.0,35363.0,-181.61563410382882,-97.93616100556562,-171.68200834588163
346987,13221,346987,10143,346987.0,35348.0,-189.86066080096987,-100.75523132382557,-178.30660904094202
346997,13215,346997,10142,346997.0,35295.0,-198.05528036689384,-103.57452891967364,-184.90341447571086
346997,13238,346997,10161,346997.0,35277.0,-206.20555494665962,-106.39318517579107,-191.47017029879873
346997,13405,346997,10086,346997.0,35242.0,-214.32110525112296,-109.21033696179455,-198.00504234395987
346997,13532,346997,10072,346997.0,35253.0,-222.41295903890204,-112.02541444899015,-204.50719393105078
346997,13504,346997,10090,346997.0,35240.0,-230.4900387862009,-114.83882965736956,-210.97704033082334
346997,13464,346997,10115,346997.0,35214.0,-238.55619052977704,-117.65237161364394,-217.41623303681274
347007,13349,347007,10137,347007.0,35250.0,-246.60937665666256,-120.46885884016586,-223.82757822918802
347007,13197,347007,10177,347007.0,35246.0,-254.6430325336289,-123.29131220566956,-230.21479426832934
347007,13133,347007,10126,347007.0,35223.0,-262.6488665863966,-126.12208113409258,-236.58203325804368
347007,13117,347007,10088,347007.0,35226.0,-270.6199322759992,-128.9624715132345,-242.93351464692273
347007,13106,347007,10113,347007.0,35224.0,-278.5526851201015,-131.81310593701977,-249.27338811785103
347007,13087,347007,10115,347007.0,35203.0,-286.4477962767894,-134.67436257886033,-255.60559493313133
347017,13106,347017,10105,347017.0,35190.0,-294.31032788406196,-137.54633817576507,-261.93375593886196
347017,13193,347017,10108,347017.0,35174.0,-302.1494239362404,-140.4286245029142,-268.2612196711357
347017,13374,347017,10011,347017.0,35126.0,-309.97685479169763,-143.3203860533206,-274.59126640238287
347017,13418,347017,10049,347017.0,35130.0,-317.8039617341643,-146.22095951989553,-280.92747611505376
347017,13366,347017,10056,347017.0,35133.0,-325.63813655774345,-149.13055619239407,-287.2740741134962
347017,13278,347017,10051,347017.0,35160.0,-333.4809162367094,-152.05038326923994,-293.6358696527178
347027,13166,347027,10090,347027.0,35150.0,-341.32850195712615,-154.98225895418085,-300.0177307884858
347027,13039,347027,10090,347027.0,35149.0,-349.17399416021397,-157.92807343091573,-306.42395147716866
347027,13013,347027,10039,347027.0,35103.0,-357.010321718315,-160.88929399010567,-312.8578932614571
347027,12998,347027,10079,347027.0,35113.0,-364.83278071869427,-163.86684007349578,-319.32201878767034
347027,12983,347027,10054,347027.0,35081.0,-372.64042820589464,-166.86119867423105,-325.81810455986863
347027,12977,347027,10014,347027.0,35059.0,-380.4365374342833,-169.8724825790132,-332.34743857608305
347038,13011,347038,10022,347038.0,35043.0,-388.22860641802276,-172.9006682102568,-338.9110715955235
347038,13178,347038,9991,347038.0,35004.0,-396.0276424291201,-175.94604746533565,-345.51017056357864
347038,13291,347038,9955,347038.0,34997.0,-403.84592082992856,-179.00967498801037,-352.1464235660785
347038,13275,347038,9997,347038.0,34975.0,-411.6934850529267,-182.09381288060678,-358.82242544258713
347038,13242,347038,10014,347038.0,34995.0,-419.575222889885,-185.2020733091503,-365.54188412882183
347038,13112,347038,10036,347038.0,35011.0,-427.4900102859797,-188.33892501635768,-372.3094634877035
347048,12971,347048,10081,347048.0,35030.0,-435.43202165991806,-191.50879433733212,-379.1301977564948
347048,12905,347048,10031,347048.0,35002.0,-443.39355311308384,-194.71515521146313,-386.0087142455899
347048,12884,347048,10003,347048.0,34976.0,-451.3680999312163,-197.96007351525685,-392.9487417359451
347048,12878,347048,10003,347048.0,34962.0,-459.3524136490885,-201.24447274138913,-399.9531310918136
347048,12865,347048,10007,347048.0,34932.0,-467.34732029953807,-204.56861907585306,-407.02415929269273
347048,12844,347048,9972,347048.0,34968.0,-475.35791312481297,-207.9323259822857,-414.1637606191921
347058,12936,347058,9974,347058.0,34913.0,-483.39345363527195,-211.33507862963893,-421.3734987380036
347058,13167,347058,9919,347058.0,34875.0,-491.46619970658855,-214.77635743982614,-428.65454270890393
347058,13173,347058,9910,347058.0,34860.0,-499.5882700088837,-218.25618707636306,-436.0080597024114
347058,13147,347058,9923,347058.0,34848.0,-507.7678072163668,-221.7757388686647,-443.4358098748975
347058,13057,347058,9966,347058.0,34855.0,-516.0069065652939,-225.33752121113957,-450.9404435024783
347058,12923,347058,9998,347058.0,34883.0,-524.3020785411926,-228.94482398650638,-458.5253424663698
347069,12791,347069,9969,347069.0,34894.0,-532.646553517226,-232.60073871132937,-466.19402219962865
347069,12785,347069,9978,347069.0,34860.0,-541.0334307373671,-236.30744035002164,-473.9493449379787
347069,12762,347069,9971,347069.0,34845.0,-549.4583017691946,-240.06596141238833,-481.79305415028
347069,12750,347069,9935,347069.0,34808.0,-557.9205310348257,-243.87620733017525,-489.72583850821763
347069,12750,347069,9882,347069.0,34812.0,-566.4236043574093,-247.73724950699267,-497.7476561886066
347069,12763,347069,9932,347069.0,34794.0,-574.9751020601757,-251.64795068131195,-505.8579734307599
347079,12929,347079,9883,347079.0,34730.0,-583.5860556884982,-255.6074288402158,-514.0559133023036
347079,13050,347079,9869,347079.0,34688.0,-592.268878642176,-259.61519579468364,-522.3407093136115
347079,13057,347079,9831,347079.0,34729.0,-601.0339027770042,-263.6714622039133,-530.7124639053022
347079,12986,347079,9869,347079.0,34720.0,-609.8862751840736,-267.7776495349787,-539.1724832912291
347079,12862,347079,9897,347079.0,34718.0,-618.8250301277898,-271.936513975297,-547.7229073567811
347079,12770,347079,9949,347079.0,34760.0,-627.8444837248064,-276.15150179491457,-556.3660818175249
347089,12656,347089,9901,347089.0,34718.0,-636.936917263548,-280.42566594477455,-565.103893166178
347089,12638,347089,9915,347089.0,34700.0,-646.0954403189727,-284.76090066320967,-573.937242407735
347089,12643,347089,9890,347089.0,34684.0,-655.316143439974,-289.15779148988406,-582.8659671600097
347089,12629,347089,9882,347089.0,34657.0,-664.5990488412234,-293.615752789571,-591.8890663880223
347089,12627,347089,9854,347089.0,34642.0,-673.9481769352551,-298.13324027698906,-601.0049383873122
347089,12699,347089,9824,347089.0,34600.0,-683.3712143951384,-302.7081114127838,-610.2116421662386
347100,12891,347100,9784,347100.0,34549.0,-692.8782999610212,-307.33820454561845,-619.5073320319243
347100,12932,347100,9771,347100.0,34570.0,-702.4791850654099,-312.0220943638455,-628.8908694859563
347100,12896,347100,9807,347100.0,34558.0,-712.1796897830206,-316.75970599426273,-638.3622198841138
347100,12810,347100,9824,347100.0,34573.0,-721.9795929043266,-321.55232638098823,-647.922312124829
347100,12680,347100,9846,347100.0,34578.0,-731.8729273592082,-326.4019643789815,-657.5725333869889
347100,12540,347100,9834,347100.0,34567.0,-741.8501851888368,-331.3105168889713,-667.3141280509434
347110,12510,347110,9825,347110.0,34547.0,-751.9014729909436,-336.27919631660785,-677.1477112351896
347110,12497,347110,9822,347110.0,34526.0,-762.0193188807334,-341.30833060849403,-687.0730750049815
347110,12498,347110,9823,347110.0,34502.0,-772.2001457018098,-346.3973334598031,-697.0892649781787
347110,12473,347110,9794,347110.0,34504.0,-782.4446049836088,-351.54467266968237,-707.1947431792975
347110,12517,347110,9788,347110.0,34469.0,-792.7574496992622,-356.7479297552912,-717.3874752765767
347110,12649,347110,9730,347110.0,34429.0,-803.1468365277062,-362.0040965808654,-727.6650353433231
347121,12778,347121,9714,347121.0,34389.0,-813.6222641885347,-367.3101616925584,-738.0249933154136
347121,12759,347121,9720,347121.0,34387.0,-824.1912589252672,-372.6638164569652,-748.4655305797589
347121,12721,347121,9723,347121.0,34395.0,-834.8564784648172,-378.0638520652361,-758.9858405740047
347121,12601,347121,9765,347121.0,34393.0,-845.6147763208892,-383.50999855661263,-769.5860149441546
347121,12447,347121,9792,347121.0,34444.0,-856.4584307670957,-389.002250425523,-780.2664719541906
347121,12372,347121,9755,347121.0,34403.0,-867.3779355007714,-394.53994798540435,-791.0271032186347
347131,12364,347131,9759,347131.0,34374.0,-878.3651278644131,-400.1211649524667,-801.8665556434048
347131,12377,347131,9723,347131.0,34337.0,-889.4152119839428,-405.74266333934133,-812.7821383288003
347131,12337,347131,9705,347131.0,34323.0,-900.5273330282705,-411.4001850203936,-823.7702371072278
347131,12333,347131,9673,347131.0,34292.0,-911.7045486465602,-417.0889080548877,-834.8267612280943
347131,12413,347131,9675,347131.0,34268.0,-922.9536752076913,-422.803968737892,-845.9474725479363
347131,12615,347131,9583,347131.0,34243.0,-934.2841547449323,-428.54100298221687,-857.1282944925667
347141,12637,347141,9625,347141.0,34174.0,-945.705092450363,-434.29684074535527,-868.3657223480536
347141,12604,347141,9640,347141.0,34219.0,-957.2216260691923,-440.0700642426599,-879.6573471499339
347141,12530,347141,9673,347141.0,34230.0,-968.8328489863602,-445.8608128116448,-891.0020521105546
347141,12377,347141,9694,347141.0,34248.0,-980.5321004035459,-451.6698992356605,-902.3994425175104
347141,12234,347141,9692,347141.0,34226.0,-992.3091794423356,-457.4977981033207,-913.8488774648149
347141,12213,347141,9635,347141.0,34203.0,-1004.153631376319,-463.3439858120558,-925.3487854347857
347152,12209,347152,9653,347152.0,34178.0,-1016.0576107545157,-469.20691350656676,-936.896488395724
347152,12198,347152,9624,347152.0,34167.0,-1028.017216768213,-475.0843458413294,-948.4883341240409
347152,12171,347152,9604,347152.0,34148.0,-1040.0327017888405,-480.9736426585233,-960.1198434003873
347152,12200,347152,9601,347152.0,34123.0,-1052.108395062193,-486.8720079341337,-971.7857811305116
347152,12373,347152,9587,347152.0,34031.0,-1064.2520966858326,-492.7767425009977,-983.4803984283958
347152,12462,347152,9580,347152.0,34078.0,-1076.4729379841224,-498.6853873083542,-995.1980441516391
347162,12473,347162,9567,347162.0,34077.0,-1088.777908411373,-504.5957998012821,-1006.9336259752465
347162,12415,347162,9591,347162.0,34042.0,-1101.1688923389286,-510.50617361743144,-1018.6823950179648
347162,12316,347162,9592,347162.0,34053.0,-1113.6416807106941,-516.4148438216982,-1030.439505476832
347162,12156,347162,9633,347162.0,34078.0,-1126.1870748983674,-522.3197826269082,-1042.199693461891
347162,12097,347162,9601,347162.0,34047.0,-1138.7934919549466,-528.217911132592,-1053.956769615176
347162,12065,347162,9568,347162.0,34020.0,-1151.449907894186,-534.104629876,-1065.7030835430019
347172,12055,347172,9590,347172.0,34008.0,-1164.1478866524494,-539.9738556689119,-1077.4293994154132
347172,12040,347172,9562,347172.0,33950.0,-1176.8824178110565,-545.8182370289676,-1089.1251202489057
347172,12037,347172,9534,347172.0,33929.0,-1189.652079384261,-551.6292630571631,-1100.7787093913153
347172,12093,347172,9527,347172.0,33927.0,-1202.4588111759056,-557.3974946765725,-1112.378204313737
347172,12296,347172,9463,347172.0,33862.0,-1215.3067624741736,-563.1130358791615,-1123.9115984445812
347172,12328,347172,9456,347172.0,33889.0,-1228.1994915793096,-568.7661987337963,-1135.3671116650874
347183,12292,347183,9491,347183.0,33881.0,-1241.1363994109204,-574.3481459290563,-1146.7333255671633
347183,12199,347183,9491,347183.0,33874.0,-1254.110594880185,-579.8509930862784,-1157.9989571988363
347183,12077,347183,9517,347183.0,33894.0,-1267.109191791176,-585.2672881556632,-1169.1523809516548
347183,11945,347183,9512,347183.0,33899.0,-1280.1154485928903,-590.5893153977077,-1180.1810507414489
347183,11915,347183,9504,347183.0,33855.0,-1293.111733442553,-595.8085419240683,-1191.070881556584
347183,11907,347183,9491,347183.0,33844.0,-1306.0820907345267,-600.9153385973971,-1201.805926725174
347193,11895,347193,9505,347193.0,33815.0,-1319.0135394324138,-605.8989249784681,-1212.3684909987926
347193,11881,347193,9467,347193.0,33803.0,-1331.896336426466,-610.7473524525409,-1222.7393865307267
347193,11894,347193,9478,347193.0,33831.0,-1344.72386708388,-615.4475319554186,-1232.898026738864
347193,12056,347193,9395,347193.0,33712.0,-1357.4920297452115,-619.9854827477823,-1242.8223728393575
347193,12173,347193,9374,347193.0,33709.0,-1370.1972037250262,-624.3469928856268,-1252.489255834404
347193,12163,347193,9378,347193.0,33727.0,-1382.8328171724004,-628.5185825487185,-1261.875151563418
347203,12098,347203,9432,347203.0,33693.0,-1395.3863423684245,-632.4880785649955,-1270.9566000743882
347203,11992,347203,9440,347203.0,33719.0,-1407.8384267279346,-636.244268323916,-1279.710037344431
347203,11844,347203,9494,347203.0,33753.0,-1420.164230754904,-639.7759046546041,-1288.1113618809854
347203,11765,347203,9445,347203.0,33716.0,-1432.336170146338,-643.0706570164925,-1296.1352410210263
347203,11765,347203,9455,347203.0,33708.0,-1444.3268971514465,-646.1144970958234,-1303.7544673466482
347203,11753,347203,9439,347203.0,33656.0,-1456.1112572163584,-648.8916386154766,-1310.939857807386
347214,11731,347214,9404,347214.0,33663.0,-1467.666936425915,-651.3847586129966,-1317.6606094126475
347214,11733,347214,9397,347214.0,33634.0,-1478.9745149135886,-653.5753711770478,-1323.884707692488
347214,11788,347214,9367,347214.0,33607.0,-1490.017285156374,-655.4443521731039,-1329.5792189261847
347214,12012,347214,9339,347214.0,33538.0,-1500.7801214187866,-656.9725224575895,-1334.7107160857163
347214,12018,347214,9317,347214.0,33569.0,-1511.246613684193,-658.141304355835,-1339.2460075205806
347214,11998,347214,9335,347214.0,33577.0,-1521.3954986978154,-658.9333649944213,-1343.15268781272
347224,11915,347224,9382,347224.0,33559.0,-1531.1986107361968,-659.3328463853402,-1346.3990686757434
347224,11786,347224,9396,347224.0,33577.0,-1540.6211845661765,-659.3249015240872,-1348.9538228356992
347224,11647,347224,9374,347224.0,33579.0,-1549.6239792657436,-658.8948952176431,-1350.7856900014217
347224,11619,347224,9379,347224.0,33540.0,-1558.1663922552575,-658.0279399811654,-1351.8632378480922
347224,11597,347224,9380,347224.0,33533.0,-1566.2092979200193,-656.7088808115204,-1352.154869257489
347224,11596,347224,9343,347224.0,33526.0,-1573.7166366670317,-654.9224338585694,-1351.6291496848316
347234,11568,347234,9372,347234.0,33513.0,-1580.6559539789491,-652.6534167471953,-1350.2551480663628
347234,11599,347234,9343,347234.0,33453.0,-1586.9985280895546,-649.8870164004602,-1348.0027720419023
347234,11747,347234,9304,347234.0,33438.0,-1592.718947692797,-646.6090766370104,-1344.8434283510705
347234,11889,347234,9289,347234.0,33451.0,-1597.7932340018917,-642.8066812406203,-1340.7509102041506
347234,11887,347234,9306,347234.0,33451.0,-1602.1954796784544,-638.4689520017417,-1335.7019600671274
347234,11830,347234,9325,347234.0,33462.0,-1605.8947923911412,-633.5875076408227,-1329.6763366839707
347245,11712,347245,9362,347245.0,33466.0,-1608.8543895079627,-628.1563249232329,-1322.656678500363
347245,11569,347245,9408,347245.0,33513.0,-1611.0331059934138,-622.1711216369506,-1314.6282835433708
347245,11500,347245,9409,347245.0,33503.0,-1612.3884566013894,-615.6284761496149,-1305.5787112073028
347245,11493,347245,9371,347245.0,33489.0,-1612.879907882782,-608.5251491485808,-1295.497398678597
347245,11480,347245,9351,347245.0,33484.0,-1612.4711147273806,-600.8581399186403,-1284.375682981657
347245,11475,347245,9361,347245.0,33491.0,-1611.1309162966581,-592.625374051457,-1272.2071824407103
347255,11490,347255,9376,347255.0,33481.0,-1608.8336773564322,-583.8263447309882,-1258.9881877292755
347255,11573,347255,9363,347255.0,33483.0,-1605.5591864759026,-574.4623575498747,-1244.7179898527322
347255,11782,347255,9333,347255.0,33486.0,-1601.2914845745672,-564.5367148027804,-1229.399234219465
347255,11847,347255,9334,347255.0,33498.0,-1596.0159930927612,-554.055231808677,-1213.0382502235716
347255,11820,347255,9382,347255.0,33518.0,-1589.7159056294245,-543.02684837222,-1195.64525101334
347255,11757,347255,9416,347255.0,33552.0,-1582.3700210799839,-531.4637240263901,-1177.234332405687
347265,11633,347265,9466,347265.0,33607.0,-1573.9530529634071,-519.3806447492093,-1157.8231775233492
347265,11511,347265,9488,347265.0,33657.0,-1564.4379359997097,-506.7941009883558,-1137.4323817053105
347265,11492,347265,9477,347265.0,33642.0,-1553.7991613627707,-493.72149995644463,-1116.084597473352
347265,11511,347265,9500,347265.0,33656.0,-1542.0157794757297,-480.1808314195318,-1093.8040412516582
347265,11489,347265,9489,347265.0,33664.0,-1529.0730714141127,-466.1907378502796,-1070.6165958611532
347265,11526,347265,9495,347265.0,33713.0,-1514.9631708597938,-451.7707515874441,-1046.550093141266
347276,11580,347276,9539,347276.0,33703.0,-1499.6851935877266,-436.9415364963819,-1021.6343832552905
347276,11736,347276,9500,347276.0,33701.0,-1483.2445995113794,-421.7250039757727,-995.9013860738601
347276,11892,347276,9513,347276.0,33722.0,-1465.6511660457088,-406.14447870019893,-969.3854555537137
347276,11916,347276,9536,347276.0,33746.0,-1446.915770963412,-390.2251015892638,-942.1238759599737
347276,11903,347276,9570,347276.0,33812.0,-1427.0474961829646,-373.9941049733344,-914.1570496653462
347276,11851,347276,9641,347276.0,33838.0,-1406.0525436491148,-357.48056046620854,-885.5282113929279
347286,11728,347286,9702,347286.0,33949.0,-1383.9351653961041,-340.7145379543108,-856.2827364022636
347286,11665,347286,9680,347286.0,33937.0,-1360.7001239091626,-323.7259641626103,-826.4671707438437
347286,11690,347286,9682,347286.0,33967.0,-1336.3557780077606,-306.5439124210296,-796.1283990086033
347286,11718,347286,9692,347286.0,33995.0,-1310.9164118533804,-289.196703128354,-765.3133811481371
347286,11741,347286,9743,347286.0,33998.0,-1284.4031753743068,-271.7122635216266,-734.0692868576695
347286,11779,347286,9727,347286.0,34052.0,-1256.844200239029,-254.11817311846542,-702.4436779189597
347296,11887,347296,9740,347296.0,34064.0,-1228.274346020937,-236.44158617731796,-670.4846115001072
347296,12132,347296,9737,347296.0,34090.0,-1198.7339887695666,-218.70942085694642,-638.2406547727228
347296,12219,347296,9729,347296.0,34127.0,-1168.2660919864604,-200.94879800141996,-605.7609226140338
347296,12230,347296,9750,347296.0,34188.0,-1136.9124815502964,-183.18755867902988,-573.0950538458266
347296,12191,347296,9850,347296.0,34207.0,-1104.711535164001,-165.45451960470402,-540.2929240703797
347296,12119,347296,9870,347296.0,34285.0,-1071.6982968543118,-147.77897175484304,-507.4041764691636
347307,12040,347307,9912,347307.0,34325.0,-1037.906442566985,-130.189597310019,-474.47764990182577
347307,12050,347307,9886,347307.0,34322.0,-1003.3711081195187,-112.71361752155028,-441.5607796045483
347307,12108,347307,9911,347307.0,34386.0,-968.1313783146958,-95.37660568141251,-408.69928056308015
347307,12139,347307,9952,347307.0,34397.0,-932.2315091764377,-78.20266075977747,-375.9371059550091
347307,12177,347307,9940,347307.0,34431.0,-895.7210884357908,-61.21444102273671,-343.31639788364737
347307,12256,347307,9956,347307.0,34439.0,-858.6548370756509,-44.433095297902355,-310.8774896885423
347317,12456,347317,9933,347317.0,34432.0,-821.091890454606,-27.87845137264594,-278.6591588113577
347317,12652,347317,9928,347317.0,34444.0,-783.0936263414728,-11.569533688637762,-246.69919366196956
347317,12683,347317,9996,347317.0,34522.0,-744.7200602369116,4.474865543245073,-215.03501215877435
347317,12692,347317,10002,347317.0,34561.0,-706.0266213101966,20.23604812350851,-183.70376002169985
347317,12642,347317,10055,347317.0,34598.0,-667.063029226694,35.69582657493078,-152.7417945109056
347317,12544,347317,10105,347317.0,34689.0,-627.8743672224176,50.83719889986463,-122.1839652486475
347327,12534,347327,10083,347327.0,34676.0,-588.5036030469553,65.64507959350641,-92.06286296987685
347327,12565,347327,10079,347327.0,34707.0,-548.994427042786,80.10671306851219,-62.40824757070288
347327,12620,347327,10103,347327.0,34739.0,-509.39315527017897,94.21149677465473,-33.24693367606051
347327,12661,347327,10108,347327.0,34729.0,-469.74935826875833,107.95063333778899,-4.602936462039111
347327,12673,347327,10103,347327.0,34780.0,-430.1158635495882,121.31696014592347,23.502339677542295
347327,12822,347327,10100,347327.0,34755.0,-390.54860982530454,134.30474620666462,51.04985623866878
347338,13089,347338,10066,347338.0,34762.0,-351.1055701155641,146.90923592938537,78.02256531240153
347338,13164,347338,10120,347338.0,34784.0,-311.8437057927715,159.12603716468755,104.40482761321766
347338,13194,347338,10109,347338.0,34818.0,-272.8150789615686,170.95072198084307,130.18189152431898
347338,13181,347338,10191,347338.0,34854.0,-234.0645093554075,182.37892364612077,155.33977973153696
347338,13098,347338,10205,347338.0,34913.0,-195.62957548373151,193.4069218658443,179.86559000011107
347338,13009,347338,10234,347338.0,34967.0,-157.54246074232128,204.0325018952737,203.7481437632332
347348,13049,347348,10193,347348.0,34944.0,-119.83286613289658,214.2556019478904,226.97877853930413
347348,13073,347348,10211,347348.0,34983.0,-82.53062654522512,224.0783462450762,249.551792770647
347348,13104,347348,10201,347348.0,34952.0,-45.66705416750085,233.50464584374146,271.4643430138075
347348,13153,347348,10182,347348.0,34960.0,-9.27533789563563,242.5397476375183,292.71599401796516
347348,13211,347348,10214,347348.0,34997.0,26.60945183676324,251.1898224805759,313.30816059123754
347348,13391,347348,10161,347348.0,34959.0,61.950936020986205,259.4615902488,333.2436861496112
347359,13590,347359,10174,347359.0,34977.0,96.71331154044128,267.36189260341894,352.52647494121186
347359,13617,347359,10189,347359.0,35003.0,130.86464948036155,274.89717884506535,371.1610179906687
347359,13611,347359,10209,347359.0,35022.0,164.3799894283909,282.07324665265935,389.15212227481095
347359,13570,347359,10248,347359.0,35065.0,197.24242763542316,288.89546011147684,406.505051433678
347359,13462,347359,10305,347359.0,35101.0,229.4420521020685,295.3693800822856,423.22596048738524
347359,13408,347359,10277,347359.0,35120.0,260.9734253619049,301.50165495156045,439.32251105749685
347369,13437,347369,10258,347369.0,35092.0,291.8325300422024,307.3006352885469,454.80436940255436
347369,13464,347369,10253,347369.0,35109.0,322.01444629482876,312.77625280486575,469.68322072464673
347369,13484,347369,10291,347369.0,35116.0,351.51232993070914,317.9395680905237,483.9724249069068
347369,13529,347369,10248,347369.0,35105.0,380.3171632522806,322.8025838060888,497.6867059106203
347369,13610,347369,10229,347369.0,35106.0,408.4178700266143,327.37811453603786,510.84188655008234
347369,13869,347369,10175,347369.0,35075.0,435.8023473654374,331.67918270801067,523.4544658055593
347379,13931,347379,10207,347379.0,35088.0,462.46018791369795,335.71803731209354,535.5410240062622
347379,13941,347379,10247,347379.0,35137.0,488.38622857828614,339.50549926462406,547.1177467750533
347379,13893,347379,10259,347379.0,35123.0,513.5827060788984,343.0511328866904,558.2004294519563
347379,13817,347379,10315,347379.0,35151.0,538.0590440333651,346.36401041978377,568.8048016027312
347379,13678,347379,10292,347379.0,35177.0,561.8297855340609,349.4535795217595,578.9468189747561
347379,13691,347379,10268,347379.0,35142.0,584.9114318611723,352.33022060131157,588.6429041757322
347390,13698,347390,10299,347390.0,35161.0,607.3194132821311,355.0052548804348,597.9100060408587
347390,13716,347390,10241,347390.0,35157.0,629.0663348492958,357.49066188405084,606.765392163242
347390,13728,347390,10244,347390.0,35151.0,650.161351022786,359.798706342851,615.2264229604648
347390,13778,347390,10275,347390.0,35129.0,670.6099826899406,361.94148424732816,623.3103249384465
347390,13939,347390,10208,347390.0,35107.0,690.4144916437483,363.9306345564182,631.0337460605188
347390,14116,347390,10178,347390.0,35110.0,709.5756420586208,365.7769915440025,638.4121169587474
347400,14140,347400,10214,347400.0,35130.0,728.0959460042102,367.4898354074779,645.4591270880039
347400,14111,347400,10234,347400.0,35126.0,745.9827537250451,369.0763620779637,652.1865723451028
347400,14045,347400,10270,347400.0,35176.0,763.2493571077828,370.5419628628513,658.604537288156
347400,13937,347400,10305,347400.0,35211.0,779.9138794300595,371.8910506029981,664.72189133709
347400,13889,347400,10293,347400.0,35178.0,795.9967786778261,373.1279849194916,670.5470318412931
347400,13863,347400,10244,347400.0,35209.0,811.5179838356914,374.2576309415035,676.0884224320771
347410,13886,347410,10289,347410.0,35197.0,826.4946409875158,375.2852660241591,681.3547341302487
347410,13898,347410,10266,347410.0,35179.0,840.9399199086774,376.2162815399504,686.3548317794412
347410,13910,347410,10251,347410.0,35177.0,854.8626438453618,377.0561005091413,691.0976115984836
347410,13991,347410,10247,347410.0,35151.0,868.2673838692826,377.810045791942,695.5916369546565
347410,14226,347410,10207,347410.0,35130.0,881.1554505975193,378.48296439460046,699.8446570738331
347410,14276,347410,10185,347410.0,35141.0,893.5275905753304,379.0786603405636,703.8630650841174
347421,14286,347421,10217,347421.0,35132.0,905.3875494269521,379.59925333478793,707.6514813342228
347421,14247,347421,10258,347421.0,35173.0,916.7443687134946,380.0449447509568,711.2126641589373
347421,14123,347421,10288,347421.0,35224.0,927.6124591319797,380.41456526282656,714.5478794867972
347421,14000,347421,10275,347421.0,35177.0,938.0097108234297,380.7065317440705,717.6576705095372
347421,14011,347421,10250,347421.0,35207.0,947.9543891283158,380.9194829030259,720.5424829862234
347421,13982,347421,10273,347421.0,35201.0,957.4622743544537,381.0523245418173,723.2028405772357
347431,14000,347431,10251,347431.0,35184.0,966.54505079676,381.1040588693391,725.6393757725803
347431,14033,347431,10268,347431.0,35189.0,975.2097219206191,381.0737297945479,727.8528115131622
347431,14042,347431,10262,347431.0,35185.0,983.458630413515,380.96045792608936,729.8438408708994
347431,14200,347431,10221,347431.0,35150.0,991.290080858108,380.7634276977713,731.6129836927794
347431,14365,347431,10203,347431.0,35150.0,998.7001214629229,380.4815858287606,733.1603169820263
347431,14374,347431,10206,347431.0,35146.0,1005.6857257012725,380.1130390084912,734.4850830534101
347441,14356,347441,10241,347441.0,35160.0,1012.2479128247071,379.6546385634831,735.5854648581609
347441,14273,347441,10280,347441.0,35183.0,1018.3929960877504,379.10220548452315,736.4587045710354
347441,14148,347441,10312,347441.0,35244.0,1024.1316571024838,378.45138174743306,737.1016363278187
347441,14100,347441,10273,347441.0,35203.0,1029.4765261014416,377.6986345031575,737.5115745087357
347441,14064,347441,10272,347441.0,35198.0,1034.4393322735732,376.84177782006617,737.6870274474028
347441,14095,347441,10288,347441.0,35216.0,1039.0287631588346,375.87992911328485,737.6278440442308
347452,14092,347452,10251,347452.0,35193.0,1043.249494164074,374.8133718562222,737.3351596224057
347452,14111,347452,10242,347452.0,35162.0,1047.1020661691086,373.64341971986386,736.8113656649474
347452,14167,347452,10215,347452.0,35151.0,1050.5831820518247,372.3720453602926,736.0598241274621
347452,14394,347452,10173,347452.0,35096.0,1053.6867884035296,371.0012819134272,735.0842797102022
347452,14437,347452,10218,347452.0,35156.0,1056.4067398660884,369.53258332417016,733.8882512866929
347452,14429,347452,10199,347452.0,35133.0,1058.7403035478112,367.9664915321297,732.4748050958849
347462,14389,347462,10245,347462.0,35158.0,1060.6904232964039,366.3028189142959,730.8468411302459
347462,14278,347462,10233,347462.0,35169.0,1062.2658311936827,364.5411395470696,729.0075809668473
347462,14141,347462,10265,347462.0,35143.0,1063.4793704445167,362.6813504893864,726.9610181444114
347462,14112,347462,10255,347462.0,35145.0,1064.34511425758,360.72419988332115,724.7121832456996
347462,14117,347462,10227,347462.0,35154.0,1064.8754844550715,358.67163818466673,722.2671911740389
347462,14116,347462,10212,347462.0,35127.0,1065.0796018404567,356.52678202889297,719.6332910453265
347472,14128,347472,10242,347472.0,35127.0,1064.9628598566983,354.2936080453091,716.8189225454811
347472,14145,347472,10228,347472.0,35089.0,1064.5270453323742,351.9768520942391,713.833596385898
347472,14295,347472,10159,347472.0,35082.0,1063.7709575728265,349.5820591605477,710.6875864445124
347472,14458,347472,10128,347472.0,35061.0,1062.692294738398,347.1151240226119,707.3915344760663
347472,14445,347472,10208,347472.0,35043.0,1061.290981559095,344.58143382874465,703.9560763464624
347472,14411,347472,10197,347472.0,35036.0,1059.5722850432537,341.98565461171796,700.3915238569462
347483,14324,347483,10200,347483.0,35078.0,1057.547900849104,339.3323558463296,696.7077252658081
347483,14198,347483,10232,347483.0,35088.0,1055.2348887112814,336.6266795975754,692.9143915431238
347483,14097,347483,10205,347483.0,35083.0,1052.6531830726365,333.87478494841844,689.0218273243457
347483,14107,347483,10216,347483.0,35061.0,1049.822595149158,331.0841747901509,685.0415400745424
347483,14097,347483,10170,347483.0,35068.0,1046.7605625530346,328.2637631117137,680.9864316603139
347483,14085,347483,10184,347483.0,35019.0,1043.4812125078913,325.42364611764316,676.87072170862
347493,14081,347493,10156,347493.0,35010.0,1039.9951390927006,322.5747711655397,672.709685308715
347493,14147,347493,10151,347493.0,34967.0,1036.3094326582393,319.728657003222,668.5191681754982
347493,14363,347493,10065,347493.0,34934.0,1032.428626873001,316.8969969885805,664.3149394992112
347493,14400,347493,10089,347493.0,34950.0,1028.357415134695,314.0908899391821,660.1120236392692
347493,14390,347493,10104,347493.0,34912.0,1024.1042335867974,311.3200604886068,655.9242469363588
