c_ts,c_val,d_ts,d_val,e_ts,e_val,c_val_filtered,d_val_filtered,e_val_filtered
414341,8693,414341,7549,414341.0,28413.0,-880.2727884009566,-242.97276665457997,-574.5492501024341
414341,8778,414341,7551,414341.0,28441.0,-847.4251256531954,-231.45390490218827,-551.3041582698634
414341,8983,414341,7515,414341.0,28462.0,-813.5059772650014,-219.65559816566025,-527.4223564494102
414341,9162,414341,7563,414341.0,28493.0,-778.5963739529755,-207.59896149009765,-502.948714407059
414341,9193,414341,7590,414341.0,28557.0,-742.774725462491,-195.30704142029504,-477.9301345417418
414341,9155,414341,7620,414341.0,28581.0,-706.1139493157631,-182.80468178319302,-452.4152938918063
414351,9103,414351,7669,414351.0,28652.0,-668.6809806830619,-170.11798621946917,-426.45416494488865
414351,9017,414351,7703,414351.0,28689.0,-630.5385800683746,-157.27362760548718,-400.0974391476936
414351,9032,414351,7703,414351.0,28723.0,-591.7482648813398,-144.29814114116377,-373.39593245006824
414351,9081,414351,7725,414351.0,28751.0,-552.3730433538365,-131.2174754729157,-346.40015338007584
414351,9144,414351,7747,414351.0,28789.0,-512.4789429770059,-118.05686575602172,-319.16012712080175
414351,9171,414351,7747,414351.0,28828.0,-472.13535567076053,-104.84079306637287,-291.72531205507164
414362,9235,414362,7753,414362.0,28855.0,-431.4149665419235,-91.59300303476482,-264.1444735902562
414362,9396,414362,7779,414362.0,28895.0,-390.3934562295567,-78.33665980916646,-236.4655541328773
414362,9633,414362,7752,414362.0,28901.0,-349.14809012277533,-65.09455159949846,-208.73562869775355
414362,9736,414362,7794,414362.0,28940.0,-307.7545687152186,-51.88933895442625,-181.00100935356443
414362,9749,414362,7834,414362.0,28989.0,-266.2833690729449,-38.743717532671724,-153.3073957886686
414362,9709,414362,7829,414362.0,29028.0,-224.79774240242273,-25.680237619867853,-125.69981347985993
414372,9644,414372,7883,414372.0,29089.0,-183.3542174404597,-12.720939529232567,-98.2222671506164
414372,9593,414372,7873,414372.0,29111.0,-142.00492156671567,0.1129388301645804,-70.91726591043209
414372,9649,414372,7938,414372.0,29141.0,-100.80048532788373,12.801239592477941,-43.82543721291347
414372,9723,414372,7921,414372.0,29187.0,-59.79218084452236,25.32521727289594,-16.985353726994504
414372,9767,414372,7944,414372.0,29208.0,-19.032608407081398,37.66780503162386,9.56655164229744
414372,9787,414372,7950,414372.0,29232.0,21.424445093500253,49.813657620132346,35.79606276069694
414382,9883,414382,7944,414382.0,29255.0,61.52411348798114,61.74901203798032,61.67113108416629
414382,10108,414382,7933,414382.0,29265.0,101.21094708162786,73.46139878087348,87.16166902541579
414382,10252,414382,7929,414382.0,29315.0,140.43096831439107,84.9391312792593,112.23929214623524
414382,10288,414382,7958,414382.0,29328.0,179.13499970880048,96.17073381433835,136.8771629368082
414382,10284,414382,8016,414382.0,29355.0,217.28126638829508,107.14472316061614,161.04995532199825
414382,10217,414382,8060,414382.0,29422.0,254.8358581315831,117.85005193529497,184.73387601068407
414393,10143,414393,8057,414393.0,29479.0,291.771161595919,128.27698534296178,207.9069560017474
414393,10181,414393,8058,414393.0,29472.0,328.0631745068008,138.41774586296845,230.54967170485043
414393,10192,414393,8065,414393.0,29518.0,363.68901614280776,148.26658620437183,252.64540259862554
414393,10228,414393,8056,414393.0,29524.0,398.62546668277173,157.81952755467302,274.1804771406005
414393,10276,414393,8064,414393.0,29545.0,432.8483196511588,167.07402234889412,295.1440482919336
414393,10336,414393,8086,414393.0,29568.0,466.3321900361195,176.02865502296413,315.52792659995066
414403,10465,414403,8062,414403.0,29555.0,499.0508760124592,184.68296178909867,335.32634084177926
414403,10681,414403,8086,414403.0,29543.0,530.9787729242098,193.03726020414837,354.53549293868923
414403,10729,414403,8077,414403.0,29619.0,562.0936358205795,201.0923995079719,373.15292757713314
414403,10767,414403,8123,414403.0,29651.0,592.3796268691494,208.84960374259498,391.1772691455849
414403,10690,414403,8127,414403.0,29668.0,621.8288796081358,216.31057964412344,408.6085952284219
414403,10619,414403,8153,414403.0,29710.0,650.4408661653667,223.4778366519817,425.4489387505471
414414,10562,414414,8164,414414.0,29716.0,678.2200513814469,230.35503279645212,441.70257878497057
414414,10588,414414,8161,414414.0,29717.0,705.1729772919689,236.94721888653322,457.37614221821036
414414,10593,414414,8164,414414.0,29727.0,731.3059900770163,243.2609019534329,472.4784372137957
414414,10629,414414,8184,414414.0,29775.0,756.62402012201,249.3039540954059,487.0201538548449
414414,10662,414414,8160,414414.0,29756.0,781.1300790767118,255.085508176046,501.0137514352141
414414,10737,414414,8154,414414.0,29762.0,804.825218781491,260.61576929536454,514.4733964715645
414424,10936,414424,8156,414424.0,29745.0,827.7092798111769,265.9056122260208,527.4145867719433
414424,11064,414424,8117,414424.0,29775.0,849.7830751588322,270.9660656780534,539.8535400374517
414424,11062,414424,8167,414424.0,29795.0,871.051602272033,275.80780649631356,551.8067472029056
414424,11048,414424,8191,414424.0,29800.0,891.5264316818973,280.44093259626595,563.2908660654509
414424,10970,414424,8188,414424.0,29829.0,911.2259930509301,284.8752429766297,574.3227705164609
414424,10856,414424,8228,414424.0,29845.0,930.1739545666426,289.1207148528075,584.9196152055874
414434,10849,414434,8209,414434.0,29882.0,948.3964155557107,293.1878578429372,595.0990021133293
414434,10867,414434,8211,414434.0,29879.0,965.9190610682194,297.0878902398249,604.8792565732274
414434,10859,414434,8178,414434.0,29863.0,982.7653684158113,300.83259739203345,614.279565282081
414434,10883,414434,8205,414434.0,29885.0,998.9557879672439,304.43389814330817,623.3197571468697
414434,10927,414434,8199,414434.0,29887.0,1014.507349037568,307.9034609635419,632.0199246782529
414434,11034,414434,8181,414434.0,29857.0,1029.4338055729309,311.2525211712781,640.4001058825361
414445,11233,414445,8182,414445.0,29844.0,1043.7469484319267,314.49165805410087,648.4797912616252
414445,11297,414445,8186,414445.0,29886.0,1057.4594015249615,317.63044450940515,656.2772168339345
414445,11272,414445,8206,414445.0,29900.0,1070.5878328757685,320.6772238571584,663.8089626527874
414445,11187,414445,8213,414445.0,29917.0,1083.1545766846104,323.6391592268302,671.090080873521
414445,11089,414445,8266,414445.0,29971.0,1095.1867754041623,326.52253096496815,678.1344715399391
414445,11038,414445,8220,414445.0,29981.0,1106.713808108772,329.33318671443647,684.9553983445342
414455,11045,414455,8254,414455.0,29978.0,1117.7644108000122,332.07684040104334,691.5660467704477
414455,11039,414455,8245,414455.0,29995.0,1128.3646007869322,334.75907827591607,697.9797963408371
414455,11056,414455,8226,414455.0,29967.0,1138.5366167392867,337.3852620584821,704.2101316714538
414455,11067,414455,8245,414455.0,29994.0,1148.298454688005,339.960355310624,710.2703558185983
414455,11141,414455,8252,414455.0,29969.0,1157.6637888013254,342.4887275129865,716.1732390589561
414455,11287,414455,8198,414455.0,29981.0,1166.6426487226954,344.97403282540716,721.9306714861389
414465,11438,414465,8218,414465.0,29954.0,1175.2434662047683,347.4188881700182,727.553264380055
414465,11443,414465,8242,414465.0,29991.0,1183.476251890599,349.8243990945423,733.0499100929956
414465,11404,414465,8279,414465.0,29998.0,1191.3552849845926,352.1901262854595,738.4275247509092
414465,11330,414465,8284,414465.0,30072.0,1198.8998017212323,354.51461816712634,743.6912244291796
414465,11199,414465,8313,414465.0,30047.0,1206.1325910972614,356.79607449785703,748.844922437763
414465,11171,414465,8303,414465.0,30068.0,1213.0772723512534,359.0328516113719,753.8919225663462
414476,11168,414476,8289,414476.0,30068.0,1219.7554029659048,361.22370412273216,758.835125677138
414476,11185,414476,8287,414476.0,30066.0,1226.184557849331,363.3676761304977,763.676958818578
414476,11187,414476,8307,414476.0,30088.0,1232.3775712857796,365.46382004464203,768.4192574731153
414476,11206,414476,8285,414476.0,30069.0,1238.3423542305432,367.51104460914183,773.063161577071
414476,11298,414476,8260,414476.0,30076.0,1244.0820356025715,369.50797477913585,777.6089685947293
414476,11514,414476,8298,414476.0,30083.0,1249.5960789542648,371.45260897928483,782.0558930231618
414486,11562,414486,8309,414486.0,30092.0,1254.8830644871382,373.34210163481833,786.4018658899074
414486,11548,414486,8291,414486.0,30096.0,1259.944124539308,375.1729260317702,790.6434714135473
414486,11493,414486,8324,414486.0,30134.0,1264.784913722969,376.94108368634784,794.7759925666778
414486,11362,414486,8326,414486.0,30184.0,1269.4152394085847,378.64222272387804,798.793715408701
414486,11274,414486,8356,414486.0,30173.0,1273.846832001432,380.2718940748205,802.690587453606
414486,11281,414486,8398,414486.0,30182.0,1278.0902827753068,381.8260387164008,806.4608376520155
414496,11309,414496,8348,414496.0,30165.0,1282.1526242177476,383.30158062786126,810.0991352227711
414496,11316,414496,8339,414496.0,30186.0,1286.0363924247908,384.6966702492943,813.6003927540967
414496,11317,414496,8327,414496.0,30205.0,1289.7396249375784,386.01029319895525,816.9596002807882
414496,11360,414496,8357,414496.0,30180.0,1293.256008746623,387.24171988689375,820.1718503804741
414496,11539,414496,8273,414496.0,30179.0,1296.5754497057817,388.39017652425264,823.2322913725469
414496,11663,414496,8315,414496.0,30161.0,1299.6860571941045,389.4544198370362,826.1357720091958
414507,11679,414507,8317,414507.0,30184.0,1302.5774512344267,390.4322033754126,828.8763680525294
414507,11643,414507,8359,414507.0,30235.0,1305.2436155932203,391.32019603453176,831.4472017270765
414507,11546,414507,8374,414507.0,30236.0,1307.6837328333272,392.114476308083,833.8408011371141
414507,11438,414507,8415,414507.0,30275.0,1309.9008942490007,392.81128060684495,836.0497752376515
414507,11410,414507,8379,414507.0,30297.0,1311.8995104057826,393.4077244636057,838.0674706818336
414507,11410,414507,8381,414507.0,30276.0,1313.6827012118101,393.90215877734556,839.8885237571548
414517,11407,414517,8380,414517.0,30269.0,1315.2506732283366,394.2940519055375,841.5090991782081
414517,11421,414517,8371,414517.0,30288.0,1316.600080101418,394.5837255009901,842.9267187708874
414517,11436,414517,8385,414517.0,30277.0,1317.7238824573783,394.77219100764125,844.1400343257552
414517,11531,414517,8359,414517.0,30275.0,1318.6116244047673,394.8610503819901,845.1487248167634
414517,11739,414517,8358,414517.0,30253.0,1319.250738028564,394.8523355405672,845.9533075680994
414517,11789,414517,8336,414517.0,30284.0,1319.6294650955756,394.7481954185493,846.5548208874634
414527,11774,414527,8365,414527.0,30262.0,1319.7403986487134,394.5505459309904,846.9546048114611
414527,11692,414527,8375,414527.0,30286.0,1319.5825300472466,394.2609640685035,847.1542527888423
414527,11574,414527,8395,414527.0,30309.0,1319.1608505228564,393.8809515377401,847.1556856925827
414527,11478,414527,8403,414527.0,30345.0,1318.4840557176767,393.41239790123393,846.9614877459155
414527,11485,414527,8375,414527.0,30309.0,1317.5615349261702,392.85794770079457,846.57546179928
414527,11488,414527,8377,414527.0,30331.0,1316.4010350955396,392.22103674869686,846.0029687716539
414538,11481,414538,8377,414538.0,30315.0,1315.0076367883964,391.50565618878085,845.2508953047735
414538,11500,414538,8341,414538.0,30313.0,1313.3835399982777,390.71607897054645,844.3274963511511
414538,11521,414538,8387,414538.0,30297.0,1311.5281274261968,389.85660932342284,843.242191402144
414538,11712,414538,8368,414538.0,30270.0,1309.438622870565,388.9314744963104,842.0052108853214
414538,11793,414538,8334,414538.0,30269.0,1307.1121258923754,387.94486267299385,840.6270782680624
414538,11792,414538,8360,414538.0,30293.0,1304.5487314023303,386.9007649209815,839.1181400353285
414548,11758,414548,8366,414548.0,30295.0,1301.753971570724,385.80272222665366,837.4884568846742
414548,11671,414548,8392,414548.0,30311.0,1298.7393496087427,384.65392877824115,835.7480416410693
414548,11543,414548,8428,414548.0,30339.0,1295.521082611007,383.45773185514577,833.9072270278165
414548,11504,414548,8420,414548.0,30300.0,1292.1176237943318,382.2183278662435,831.9770415429176
414548,11495,414548,8399,414548.0,30307.0,1288.546979549465,380.9413205071729,829.9693543051732
414548,11482,414548,8375,414548.0,30296.0,1284.8249095066894,379.63375638881075,827.8966711375652
414558,11475,414558,8361,414558.0,30293.0,1280.9641142965227,378.3036642637653,825.7718445900989
414558,11501,414558,8352,414558.0,30284.0,1276.973918750935,376.9594558263202,823.6078573761349
414558,11585,414558,8325,414558.0,30276.0,1272.8604460940116,375.6094023487902,821.4176059579075
414558,11757,414558,8326,414558.0,30280.0,1268.6278858832154,374.2611585591859,819.2136737475076
414558,11776,414558,8360,414558.0,30231.0,1264.2811529691417,372.921422543637,817.0080752976014
414558,11774,414558,8346,414558.0,30279.0,1259.8288748530754,371.59597022882303,814.8119103691587
414569,11690,414569,8349,414569.0,30258.0,1255.2850194684129,370.2899266157145,812.6351197459409
414569,11567,414569,8412,414569.0,30293.0,1250.6684689521758,369.00803680051786,810.4865690966691
414569,11472,414569,8348,414569.0,30304.0,1246.0008627557086,367.75504994040244,808.3743775911121
414569,11447,414569,8388,414569.0,30308.0,1241.3036323288202,366.536054108423,806.3063553910637
414569,11453,414569,8353,414569.0,30334.0,1236.5955259441055,365.35647856048104,804.2904505860819
414569,11455,414569,8363,414569.0,30287.0,1231.8913758270012,364.2219352648323,802.3350596085203
414579,11439,414579,8335,414579.0,30270.0,1227.2017973797133,363.13802094355935,800.4489681408736
414579,11480,414579,8344,414579.0,30269.0,1222.5332027957425,362.1100349264886,798.640843321336
414579,11638,414579,8312,414579.0,30244.0,1217.8883250220133,361.142663233941,796.9186230257197
414579,11754,414579,8307,414579.0,30265.0,1213.268142283509,360.23961657999394,795.2890913457327
414579,11768,414579,8345,414579.0,30248.0,1208.6751018671641,359.40329702786073,793.7576460856862
414579,11717,414579,8363,414579.0,30293.0,1204.1159391244155,358.634841259945,792.3282782998001
414589,11621,414589,8390,414589.0,30313.0,1199.6025373648197,357.9346759725935,791.0038628581593
414589,11515,414589,8401,414589.0,30312.0,1195.1507029404997,357.3032716761004,789.7867396713974
414589,11445,414589,8391,414589.0,30308.0,1190.7776524968076,356.7417569158076,788.6792373954638
414589,11426,414589,8375,414589.0,30285.0,1186.4992763872865,356.25218647169936,787.6837995511459
414589,11424,414589,8326,414589.0,30306.0,1182.328112691848,355.83732588409663,786.8027858349419
414589,11424,414589,8329,414589.0,30308.0,1178.2723511026288,355.4999967641298,786.0382905521765
414600,11431,414600,8347,414600.0,30306.0,1174.335556662174,355.2423794561694,785.392170351464
414600,11513,414600,8335,414600.0,30282.0,1170.51686417865,355.06572628191276,784.8660788226821
414600,11710,414600,8317,414600.0,30248.0,1166.8121450789354,354.9703537596948,784.4611861296137
414600,11747,414600,8336,414600.0,30280.0,1163.2167497730977,354.95552116033446,784.1776099371887
414600,11728,414600,8344,414600.0,30285.0,1159.7288562665356,355.01929860032175,784.0140149621075
414600,11654,414600,8373,414600.0,30294.0,1156.3513912950389,355.15872623041406,783.9676745871595
414610,11538,414610,8370,414610.0,30316.0,1153.0916760796872,355.3702301767572,784.0347739983492
414610,11435,414610,8386,414610.0,30333.0,1149.9593106338184,355.650056526787,784.2107687480725
414610,11433,414610,8404,414610.0,30331.0,1146.9632961292823,355.99462025986765,784.490796838744
414610,11423,414610,8402,414610.0,30327.0,1144.1096618965184,356.4008420919586,784.8699825716349
414610,11410,414610,8355,414610.0,30335.0,1141.4002646279528,356.8663438280661,785.3435007730386
414610,11425,414610,8321,414610.0,30331.0,1138.8323629634747,357.38911579170644,785.9065229772159
414620,11469,414620,8360,414620.0,30338.0,1136.3985768304215,357.96673129087253,786.5541772642159
414620,11642,414620,8359,414620.0,30290.0,1134.087638392085,358.5958225655884,787.2814308432739
414620,11748,414620,8341,414620.0,30317.0,1131.8866208672603,359.27209757516357,788.0827376927359
414620,11747,414620,8351,414620.0,30333.0,1129.7842630698535,359.9904059740531,788.9516659379922
414620,11708,414620,8371,414620.0,30313.0,1127.7736375063655,360.7446682334542,789.8808491827779
414620,11617,414620,8398,414620.0,30355.0,1125.8528226611493,361.52802020093475,790.862132485937
414631,11494,414631,8431,414631.0,30358.0,1124.0236242043866,362.3333392362006,791.8867654896096
414631,11456,414631,8425,414631.0,30374.0,1122.2890514780815,363.1539619085641,792.9457441449517
414631,11453,414631,8419,414631.0,30360.0,1120.6506643029138,363.9842352795399,794.0301515591906
414631,11403,414631,8355,414631.0,30371.0,1119.1067735710496,364.81953973441387,795.1312736189317
414631,11445,414631,8378,414631.0,30354.0,1117.6514935796745,365.6557147394116,796.2405220557391
414631,11450,414631,8422,414631.0,30366.0,1116.2743466668592,366.48844824900004,797.3492765409956
414641,11525,414641,8387,414641.0,30369.0,1114.9605154605133,367.31326332691617,798.4487452519675
414641,11752,414641,8377,414641.0,30337.0,1113.6921680528867,368.1257580909968,799.5298583562312
414641,11784,414641,8349,414641.0,30388.0,1112.4513543895573,368.9213989213328,800.5831157761556
414641,11770,414641,8377,414641.0,30370.0,1111.2235677838053,369.6949884996424,801.5985291648857
414641,11668,414641,8404,414641.0,30403.0,1109.9997601717118,370.44040987484846,802.565816250894
414641,11581,414641,8432,414641.0,30407.0,1108.7758462379647,371.15095028261464,803.4747143066093
414652,11484,414652,8425,414652.0,30422.0,1107.5504738148118,371.81996813800913,804.3153118834553
414652,11475,414652,8404,414652.0,30415.0,1106.3222688726646,372.4413671262571,805.0783485471995
414652,11454,414652,8440,414652.0,30417.0,1105.0875913260588,373.0096549912413,805.7553594832834
414652,11484,414652,8403,414652.0,30394.0,1103.839315755623,373.5198664889373,806.3386086055446
414652,11471,414652,8407,414652.0,30390.0,1102.5664854049778,373.9674882963333,806.8208144902054
414652,11516,414652,8419,414652.0,30431.0,1101.2544369710292,374.34828080487495,807.1948494992001
414662,11663,414662,8388,414662.0,30366.0,1099.8854693926935,374.65810217967714,807.4536389875225
414662,11783,414662,8411,414662.0,30372.0,1098.440745160134,374.89277732193443,807.5899997686361
414662,11780,414662,8423,414662.0,30400.0,1096.9033477850255,375.04800984668054,807.5962177223386
414662,11763,414662,8412,414662.0,30408.0,1095.260933692218,375.11948494237276,807.4638626146789
414662,11670,414662,8418,414662.0,30440.0,1093.5066150603566,375.10303980339415,807.1841216767442
414662,11548,414662,8467,414662.0,30506.0,1091.6379525733832,374.99480261049484,806.7484801942285
414672,11503,414672,8449,414672.0,30455.0,1089.654588531176,374.79154505927477,806.1496198642413
414672,11496,414672,8429,414672.0,30438.0,1087.5555889506143,374.491104872947,805.3820110404106
414672,11486,414672,8414,414672.0,30437.0,1085.337638102543,374.09237449437956,804.4417214987624
414672,11488,414672,8426,414672.0,30430.0,1082.9942636285843,373.5949086433674,803.3258830727957
414672,11492,414672,8393,414672.0,30428.0,1080.5155945250406,372.99857171099234,802.0323586451807
414672,11571,414672,8378,414672.0,30395.0,1077.8884903095611,372.3032250106828,800.5595185265788
414683,11775,414683,8396,414683.0,30410.0,1075.0976508211306,371.5083122355032,798.9059138044257
414683,11817,414683,8405,414683.0,30380.0,1072.12836678646,370.6126062137003,797.0699054060207
414683,11787,414683,8407,414683.0,30408.0,1068.9699483191043,369.6143274490877,795.0493946341984
414683,11709,414683,8436,414683.0,30424.0,1065.6176765262778,368.5114584212316,792.8417847487791
414683,11603,414683,8441,414683.0,30417.0,1062.0723840591231,367.30214036988156,790.4442424670503
414683,11486,414683,8440,414683.0,30441.0,1058.3383002069704,365.9851202425971,787.8540753047536
414693,11486,414693,8432,414693.0,30458.0,1054.4201764405332,364.5600515585332,785.0690933011458
414693,11464,414693,8426,414693.0,30416.0,1050.3208640358068,363.02753387228057,782.0879673502079
414693,11481,414693,8435,414693.0,30448.0,1046.0400742188667,361.38902036456733,778.9103858788579
414693,11471,414693,8417,414693.0,30416.0,1041.574063746743,359.6467513899751,775.5369775317613
414693,11507,414693,8411,414693.0,30434.0,1036.9157339397811,357.8036815556239,771.9692305748648
414693,11660,414693,8397,414693.0,30380.0,1032.0552889893715,355.86328895495177,768.209380665121
414703,11785,414703,8362,414703.0,30382.0,1026.9822106230154,353.8292381313248,764.2600746865654
414703,11765,414703,8358,414703.0,30395.0,1021.6884583429347,351.704884521219,760.1239178404977
414703,11718,414703,8392,414703.0,30401.0,1016.1711490686204,349.49281454098247,755.803300555503
414703,11598,414703,8405,414703.0,30396.0,1010.4331277907146,347.194844169041,751.3005941770065
414703,11509,414703,8431,414703.0,30421.0,1004.4814596734012,344.8125467685572,746.6184421539888
414703,11463,414703,8409,414703.0,30414.0,998.3248695525394,342.34790736524894,741.760067715257
414714,11437,414714,8414,414714.0,30385.0,991.971308458673,339.80371071949,736.7295453264596
414714,11442,414714,8371,414714.0,30386.0,985.4263774759934,337.1835336041193,731.5317929728536
414714,11441,414714,8361,414714.0,30380.0,978.6926512003313,334.49138369467966,726.1723337029202
414714,11421,414714,8380,414714.0,30368.0,971.7695464749457,331.7312055448204,720.657115665154
414714,11473,414714,8339,414714.0,30335.0,964.6534084800857,328.90656922172485,714.9923601044197
414714,11686,414714,8318,414714.0,30333.0,957.3382958322844,326.0204382690079,709.1842388029179
414724,11731,414724,8356,414724.0,30322.0,949.818444268557,323.07479427681363,703.2384718339889
414724,11696,414724,8365,414724.0,30320.0,942.0917149347358,320.07049842436356,697.1600700644784
414724,11615,414724,8401,414724.0,30341.0,934.1617183603009,317.0077319378192,690.9533011468606
414724,11497,414724,8397,414724.0,30356.0,926.0374930198432,313.8867422273753,684.6219334772057
414724,11389,414724,8386,414724.0,30358.0,917.7313657143516,310.70846565942395,678.169743808759
414724,11385,414724,8386,414724.0,30349.0,909.2561267850026,307.47479219497313,671.6010334019817
414734,11372,414734,8363,414734.0,30319.0,900.62276438034,304.18852042742594,664.9208571175113
414734,11343,414734,8353,414734.0,30332.0,891.8393685544646,300.85315068843283,658.1349228088555
414734,11352,414734,8341,414734.0,30315.0,882.9107414268631,297.4725768444798,651.2494117897654
414734,11357,414734,8346,414734.0,30301.0,873.8382557878815,294.0507920257036,644.2708962540229
414734,11493,414734,8333,414734.0,30259.0,864.6202655487286,290.5917316103226,637.2061692895447
414734,11638,414734,8323,414734.0,30251.0,855.2538268702453,287.0991946493017,630.0618010935036
414745,11621,414745,8328,414745.0,30254.0,845.7378048693446,283.5767363475607,622.8436194961098
414745,11572,414745,8329,414745.0,30282.0,836.0757712664581,280.02760028510664,615.556525398076
414745,11470,414745,8318,414745.0,30273.0,826.276912101318,276.4547651397985,608.2047906636998
414745,11349,414745,8387,414745.0,30292.0,816.3547915816265,272.86113616025176,600.7925772458321
414745,11290,414745,8327,414745.0,30254.0,806.3248622129954,269.24997640205083,593.3243455060509
414745,11271,414745,8330,414745.0,30252.0,796.201837891755,265.62528823531363,585.8049674289144
414755,11244,414755,8316,414755.0,30253.0,785.997870521081,261.9917281276125,578.239599221502
414755,11243,414755,8299,414755.0,30257.0,775.7216673115562,258.35426099034316,570.6336187188838
414755,11242,414755,8262,414755.0,30201.0,765.3781739980184,254.71779273904903,562.9926800432445
414755,11281,414755,8263,414755.0,30200.0,754.9686739379736,251.0866716315051,555.3225291670208
414755,11494,414755,8271,414755.0,30219.0,744.4917602828436,247.46421000914765,547.6286085290558
414755,11524,414755,8265,414755.0,30182.0,733.9458874332793,243.85252783917772,539.9158997833621
414765,11500,414765,8289,414765.0,30198.0,723.3327712218679,240.2526956904536,532.1889883144142
414765,11413,414765,8297,414765.0,30196.0,712.659494712443,236.6650516012272,524.4521146040679
414765,11290,414765,8328,414765.0,30201.0,701.9382489831966,233.08969989224528,516.7093256253602
414765,11162,414765,8284,414765.0,30197.0,691.1842024479521,229.52706441148513,508.96476254707926
414765,11156,414765,8286,414765.0,30175.0,680.412522345089,225.97813800118976,501.2228862875899
414765,11142,414765,8290,414765.0,30180.0,669.6358896622583,222.44435126730275,493.48852340230786
414776,11135,414776,8253,414776.0,30147.0,658.8633327127901,218.92737227004767,485.76677667818205
414776,11105,414776,8272,414776.0,30154.0,648.0999519663648,215.42893220514935,478.06287313055924
414776,11121,414776,8247,414776.0,30161.0,637.3468194508181,211.95062643042226,470.38205649288005
414776,11273,414776,8228,414776.0,30097.0,626.601287306877,208.4937231626108,462.72956855014064
414776,11402,414776,8240,414776.0,30096.0,615.8587375403591,205.05891908328354,455.11042975384146
414776,11403,414776,8206,414776.0,30091.0,605.1158640916211,201.64608228922802,447.5289400247507
414786,11341,414786,8271,414786.0,30066.0,594.3737064552766,198.25415862954168,439.9882962316542
414786,11240,414786,8264,414786.0,30098.0,583.6386297603029,194.88143773288914,432.49048001131786
414786,11120,414786,8291,414786.0,30127.0,572.9211035262856,191.52619696651163,425.03645225144504
414786,11054,414786,8277,414786.0,30105.0,562.2331936187445,188.18737124596382,417.6267411852583
414786,11040,414786,8265,414786.0,30100.0,551.5859226352783,184.8649249464273,410.2620355028846
414786,11038,414786,8231,414786.0,30064.0,540.9874980793999,181.55982678094756,402.94332306880375
414796,11005,414796,8223,414796.0,30085.0,530.4426042884397,178.27366002486934,395.6716804501688
414796,11002,414796,8231,414796.0,30074.0,519.9521790774808,175.0081412596609,388.4481159410402
414796,11053,414796,8223,414796.0,30055.0,509.51336734368977,171.76487745469993,381.27361175347403
414796,11252,414796,8195,414796.0,30022.0,499.12034775071857,168.54531276484687,374.14908202037236
414796,11321,414796,8202,414796.0,30029.0,488.76692906802657,165.3505715539993,367.0750563474873
414796,11269,414796,8223,414796.0,30023.0,478.4501432523166,162.18127247574887,360.0513600628579
414807,11178,414807,8198,414807.0,30016.0,468.1725081497135,159.03759284716742,353.0770420876032
414807,11064,414807,8226,414807.0,30056.0,457.94170517741975,155.91948008406993,346.150526146988
414807,10937,414807,8220,414807.0,30053.0,447.76832758352714,152.8268482906699,339.27001772587187
414807,10917,414807,8202,414807.0,30042.0,437.66289912402056,149.75977416633765,332.43408181404436
414807,10903,414807,8205,414807.0,30015.0,427.63334672373855,146.71856068670365,325.641978651194
414807,10892,414807,8176,414807.0,30003.0,417.6836735631316,143.7035916531225,318.8935490676048
414817,10888,414817,8179,414817.0,29998.0,407.8135814115012,140.71508031019533,312.1888882398457
414817,10906,414817,8198,414817.0,29986.0,398.01849365467706,137.75286582274884,305.5280972579948
414817,11048,414817,8172,414817.0,29970.0,388.2901267518523,134.8164195031594,298.9111428571954
414817,11185,414817,8147,414817.0,29961.0,378.6183833101653,131.90487663540836,292.33769983949765
414817,11194,414817,8161,414817.0,29966.0,368.9946418867229,129.0168024974521,285.8069863044436
414817,11135,414817,8156,414817.0,29957.0,359.41485922698246,126.14991521930256,279.31772121507856
414827,11027,414827,8184,414827.0,29976.0,349.8806779964301,123.30111157925063,272.86824277207245
414827,10890,414827,8245,414827.0,30009.0,340.39820620242915,120.46691318477372,266.4568382245162
414827,10852,414827,8206,414827.0,29949.0,330.975356673482,117.64430277401368,260.082252782908
414827,10817,414827,8204,414827.0,29953.0,321.61910636479286,114.83145492786736,253.74394258174766
414827,10790,414827,8207,414827.0,29943.0,312.3336628403416,112.02789582499815,247.4418572119622
414827,10797,414827,8162,414827.0,29932.0,303.11954177757696,109.23431267815721,241.17615860506442
414838,10800,414838,8161,414838.0,29912.0,293.9732315757175,106.45222130990032,234.94707257065795
414838,10845,414838,8137,414838.0,29910.0,284.88739243500527,103.68347565937586,228.75470703711107
414838,11049,414838,8090,414838.0,29874.0,275.8519583261932,100.92970012540366,222.59880056063537
414838,11103,414838,8128,414838.0,29883.0,266.8567673892735,98.19168719091192,216.47842943143712
414838,11066,414838,8120,414838.0,29890.0,257.8950552412009,95.46901324701344,210.39178873752144
414838,10984,414838,8137,414838.0,29893.0,248.9656703818148,92.7601316294635,204.33625585723667
414848,10868,414848,8166,414848.0,29922.0,240.07285836501364,90.06277491051412,198.30874452902458
414848,10746,414848,8168,414848.0,29920.0,231.22417128913548,87.37450256791749,192.3062321990144
414848,10730,414848,8160,414848.0,29897.0,222.42758113154127,84.69326457679603,186.32627252964346
414848,10719,414848,8159,414848.0,29869.0,213.68902106481733,82.01771791099537,180.36715317287747
414848,10702,414848,8129,414848.0,29871.0,205.01112353828137,79.34722518372342,174.42761995652597
414848,10692,414848,8101,414848.0,29861.0,196.39282913155841,76.681571895775,168.50652573512195
414859,10698,414859,8104,414859.0,29866.0,187.8292650561466,74.02044683619317,162.6026933375117
414859,10836,414859,8098,414859.0,29834.0,179.31206535073989,71.36295884879092,156.71491169840806
414859,11010,414859,8111,414859.0,29819.0,170.83106989219573,68.7074530620227,150.84181224547706
414859,11000,414859,8114,414859.0,29847.0,162.3776878024039,66.05160637510903,144.98161748435473
414859,10928,414859,8113,414859.0,29804.0,153.94818311168615,63.392654520251824,139.1320309787634
414859,10824,414859,8119,414859.0,29847.0,145.544717535862,60.72761518249621,133.29031127883934
414869,10701,414869,8178,414869.0,29877.0,137.17392583461037,58.053584161963954,127.453535938193
414869,10627,414869,8152,414869.0,29827.0,128.84417316233635,55.36832120462293,121.61915486164435
414869,10630,414869,8100,414869.0,29839.0,120.56274893179057,52.67078762578484,115.78541618260567
414869,10623,414869,8105,414869.0,29816.0,112.33403916683415,49.96100034546117,109.95132071229716
414869,10598,414869,8099,414869.0,29809.0,104.15887343170516,47.239429024445485,104.11640452237543
414869,10586,414869,8112,414869.0,29797.0,96.03435206978088,44.50665269939924,98.28055611082152
414879,10646,414879,8051,414879.0,29772.0,87.95377933719101,41.763296142445824,92.44380340643977
414879,10835,414879,8065,414879.0,29753.0,79.9074310540957,39.00977642646535,86.60600585676059
414879,10907,414879,8051,414879.0,29726.0,71.88507168648061,36.24583336992538,80.76641314901701
414879,10877,414879,8054,414879.0,29769.0,63.87949259399761,33.470218238563916,74.92325853938655
414879,10789,414879,8096,414879.0,29771.0,55.888875994504815,30.68071677763629,69.07376120250876
414879,10668,414879,8117,414879.0,29777.0,47.91669775969831,27.87457744253419,63.214602413021794
414890,10556,414890,8097,414890.0,29806.0,39.969614311621854,25.049241681730052,57.3425336316451
414890,10535,414890,8093,414890.0,29770.0,32.054529544895786,22.20287042159913,51.454898029496576
414890,10519,414890,8083,414890.0,29777.0,24.176132723948513,19.33439969668433,45.54994209752772
414890,10511,414890,8098,414890.0,29737.0,16.335603320003884,16.443418919116596,39.62678587739151
414890,10528,414890,8054,414890.0,29749.0,8.530245878269625,13.530106571288968,33.68516114701015
414890,10529,414890,8056,414890.0,29736.0,0.7536157339834517,10.595069532742514,27.725166505115453
414900,10642,414900,8040,414900.0,29720.0,-7.003880532501398,7.638992945812731,21.747152690811276
414900,10810,414900,8036,414900.0,29678.0,-14.753343071134395,4.662300950759061,15.751553975873776
414900,10809,414900,8027,414900.0,29685.0,-22.504352883620186,1.664939575465496,9.738475389039309
414900,10750,414900,8055,414900.0,29709.0,-30.261889335277147,-1.3537121613389331,3.7073211031514575
414900,10657,414900,8062,414900.0,29707.0,-38.025165936811845,-4.394673415068098,-2.3431130623258696
414900,10532,414900,8075,414900.0,29722.0,-45.788766739000266,-7.458916719665638,-8.41417205241828
414910,10444,414910,8040,414910.0,29707.0,-53.54519089962673,-10.546936597110744,-14.50687528283595
414910,10446,414910,8063,414910.0,29728.0,-61.28769657285579,-13.658610820508954,-20.62158922100764
414910,10434,414910,8051,414910.0,29684.0,-69.01232319170686,-16.793238967824095,-26.757818581259244
414910,10416,414910,8034,414910.0,29665.0,-76.71871187837928,-19.949545782678285,-32.91424362285204
414910,10421,414910,8015,414910.0,29658.0,-84.41029478715018,-23.125780907459443,-39.08908856593098
414910,10467,414910,8000,414910.0,29659.0,-92.09421968416268,-26.32005264218145,-45.280525705328046
414921,10664,414921,7980,414921.0,29622.0,-99.78043492779966,-29.530774360080613,-51.48687445660528
414921,10728,414921,8021,414921.0,29626.0,-107.47914944162517,-32.75700507593365,-57.70677955111489
414921,10687,414921,8008,414921.0,29607.0,-115.19736962926959,-35.998437323092276,-63.93947569200532
414921,10636,414921,8009,414921.0,29631.0,-122.93661558994813,-39.255084988071644,-70.18494443914733
414921,10518,414921,8025,414921.0,29644.0,-130.69289913134844,-42.526998959592106,-76.44376907366643
414921,10388,414921,8017,414921.0,29644.0,-138.4585082032147,-45.81405309587336,-82.71668542532291
414931,10350,414931,8034,414931.0,29631.0,-146.2248086129407,-49.11568718654502,-89.00409578392737
414931,10337,414931,8020,414931.0,29613.0,-153.98495829094372,-52.4306514408039,-95.30585753305377
414931,10316,414931,7997,414931.0,29609.0,-161.73555082701364,-55.75688001929575,-101.6213687612094
414931,10346,414931,7986,414931.0,29601.0,-169.4771965727632,-59.0916353133793,-107.94974039239787
414931,10336,414931,7978,414931.0,29573.0,-177.21448056005715,-62.43185827973929,-114.28993748208075
414931,10452,414931,7952,414931.0,29564.0,-184.9553842409532,-65.77452052117485,-120.64098887027967
414941,10605,414941,7919,414941.0,29547.0,-192.70970141619773,-69.11702070658521,-127.0023057000817
414941,10641,414941,7937,414941.0,29536.0,-200.48608183454803,-72.45770434812175,-133.37399145684333
414941,10569,414941,7962,414941.0,29557.0,-208.28885166244936,-75.79618119697818,-139.75702212399472
414941,10463,414941,7952,414941.0,29579.0,-216.11664239892298,-79.13313068154099,-146.15311836711055
414941,10360,414941,7990,414941.0,29563.0,-223.96347166069722,-82.4698099181195,-152.56426519921172
414941,10260,414941,7991,414941.0,29560.0,-231.8213166343853,-85.80751319759867,-158.99222918391104
414952,10269,414952,7983,414952.0,29557.0,-239.6828993488234,-89.14703553424306,-165.43835846596926
414952,10269,414952,7951,414952.0,29538.0,-247.54361547219776,-92.48838916077665,-171.90356237042
414952,10238,414952,7958,414952.0,29552.0,-255.4022446007789,-95.83094698895968,-178.38832482406224
414952,10229,414952,7960,414952.0,29523.0,-263.26108774347006,-99.17371959782844,-184.89270502850786
414952,10259,414952,7931,414952.0,29509.0,-271.1260764209079,-102.51547435398459,-191.41638406017046
414952,10456,414952,7940,414952.0,29483.0,-279.0062300074202,-105.8548221655214,-197.95890108150502
414962,10549,414962,7897,414962.0,29486.0,-286.91138250395477,-109.1904398773093,-204.52002655744923
414962,10523,414962,7912,414962.0,29479.0,-294.8486034696026,-112.52139597162028,-211.1000316691543
414962,10454,414962,7931,414962.0,29485.0,-302.81950047972623,-115.84738533797167,-217.6997264385435
414962,10325,414962,7954,414962.0,29505.0,-310.81993892140054,-119.16856351379431,-224.3202746529779
414962,10205,414962,7931,414962.0,29486.0,-318.8419240972346,-122.4850289792007,-230.96283818688937
414962,10172,414962,7923,414962.0,29469.0,-326.8765509226164,-125.7964493183004,-237.62827734699056
414972,10160,414972,7931,414972.0,29478.0,-334.9166695988274,-129.10205183544343,-244.31711565355772
414972,10146,414972,7887,414972.0,29485.0,-342.95837708292515,-132.4007722213551,-251.0295605928003
414972,10142,414972,7900,414972.0,29452.0,-351.0015268185939,-135.6914864165662,-257.7653678380036
414972,10146,414972,7897,414972.0,29433.0,-359.0498194408058,-138.9732852305924,-264.52380999634227
414972,10267,414972,7864,414972.0,29404.0,-367.1104441069932,-142.2456359254287,-271.3040008327732
414972,10456,414972,7863,414972.0,29397.0,-375.1924608645237,-145.5085603089969,-278.1054130967427
414983,10431,414983,7887,414983.0,29426.0,-383.3035595862219,-148.762881970975,-284.92823380398795
414983,10385,414983,7881,414983.0,29409.0,-391.44680408228203,-152.01021886553838,-291.7733060492608
414983,10279,414983,7876,414983.0,29414.0,-399.6194779908732,-155.25271514512514,-298.6418030551042
414983,10147,414983,7911,414983.0,29437.0,-407.8143177140845,-158.49278135146147,-305.53490966207823
414983,10072,414983,7905,414983.0,29427.0,-416.0221712130765,-161.7327740944806,-312.4534565912287
414983,10079,414983,7883,414983.0,29399.0,-424.2348726849975,-164.97460705317428,-319.39755399514684
414993,10060,414993,7873,414993.0,29413.0,-432.4471454624943,-168.2196392833785,-326.36649545658304
414993,10047,414993,7883,414993.0,29364.0,-440.6572986247671,-171.4688711296057,-333.35889803326154
414993,10038,414993,7870,414993.0,29362.0,-448.86740352006507,-174.72309152368274,-340.3729589745143
414993,10077,414993,7864,414993.0,29354.0,-457.08331249923526,-177.98288961789245,-347.40680486964686
414993,10282,414993,7833,414993.0,29312.0,-465.31390863941647,-181.24875333592223,-354.4588118619906
414993,10331,414993,7798,414993.0,29331.0,-473.5686999032649,-184.5214389796762,-361.5278969877628
415002,10322,415002,7855,415002.0,29321.0,-481.8543807904256,-187.80248033111445,-368.6137402170208
415002,10239,415002,7868,415002.0,29333.0,-490.17246588527166,-191.09427867594763,-375.7167429561665
415002,10130,415002,7882,415002.0,29328.0,-498.51920530174857,-194.39951264201989,-382.8377695717588
415002,10021,415002,7866,415002.0,29350.0,-506.88739343135785,-197.72039799608075,-389.97781561320846
415002,9968,415002,7848,415002.0,29319.0,-515.2690956660904,-201.05835182056802,-397.13765128408807
415002,9969,415002,7881,415002.0,29302.0,-523.6581721585515,-204.4140144605263,-404.3176303670731
415013,9949,415013,7835,415013.0,29304.0,-532.0517792401367,-207.78728314281398,-411.5178062434543
415013,9935,415013,7834,415013.0,29299.0,-540.4509195060018,-211.17735117679513,-418.73811215277817
415013,9961,415013,7833,415013.0,29293.0,-548.8605668174569,-214.58293285043283,-425.97836284703476
415013,10049,415013,7784,415013.0,29259.0,-557.2893297651854,-218.0025748843879,-433.2382233514146
415013,10235,415013,7786,415013.0,29249.0,-565.7479228853667,-221.43504841119693,-440.5173856623504
415013,10262,415013,7789,415013.0,29234.0,-574.2460770651578,-224.87981747439704,-447.8159230384206
415023,10208,415023,7777,415023.0,29242.0,-582.7891273515693,-228.33729873921783,-455.1345749999548
415023,10114,415023,7805,415023.0,29243.0,-591.3763481567912,-231.80883350511164,-462.4747829239967
415023,9961,415023,7839,415023.0,29289.0,-600.0018027021597,-235.29639426935262,-469.83840336005676
415023,9870,415023,7839,415023.0,29251.0,-608.6570065135932,-238.80194485643648,-477.22713545450347
415023,9868,415023,7840,415023.0,29239.0,-617.3341119755146,-242.3267070241846,-484.6420388447565
415023,9847,415023,7824,415023.0,29231.0,-626.0282157918234,-245.8707362133312,-492.08350219846625
415033,9843,415033,7787,415033.0,29200.0,-634.7383220995141,-249.43292783156414,-499.55149844707523
415033,9849,415033,7758,415033.0,29213.0,-643.4675320667459,-253.0114439531025,-507.0458474290923
415033,9865,415033,7750,415033.0,29203.0,-652.2228991523523,-256.6044228523312,-514.5663624969404
415033,10081,415033,7725,415033.0,29158.0,-661.0145775715912,-260.2106597706434,-522.1128972835609
415033,10155,415033,7759,415033.0,29173.0,-669.8534016600634,-263.83002826504264,-529.6855233392463
415033,10136,415033,7759,415033.0,29162.0,-678.7472722591492,-267.46351265510975,-537.2847961459289
415044,10063,415044,7761,415044.0,29166.0,-687.6984888892002,-271.1128900236805,-544.9118019023123
415044,9922,415044,7772,415044.0,29171.0,-696.7035290897304,-274.7803470881002,-552.5679810167379
415044,9798,415044,7785,415044.0,29161.0,-705.7550380865232,-278.46815129058245,-560.2548800561884
415044,9761,415044,7792,415044.0,29189.0,-714.8449542850449,-282.1782606925161,-567.9738665146165
415044,9754,415044,7766,415044.0,29151.0,-723.9673218101368,-285.9119474839573,-575.7258124292247
415044,9762,415044,7772,415044.0,29139.0,-733.1197723886628,-289.66966170717336,-583.5109167994999
415054,9731,415054,7723,415054.0,29102.0,-742.3038609049163,-293.45119182024206,-591.3288914174644
415054,9743,415054,7760,415054.0,29109.0,-751.5250277585417,-297.2559864967604,-599.1794008226179
415054,9858,415054,7706,415054.0,29100.0,-760.7922952353811,-301.08343934168727,-607.062404262186
415054,10061,415054,7679,415054.0,29057.0,-770.1167142039751,-304.9331911778379,-614.9783106217808
415054,10038,415054,7717,415054.0,29074.0,-779.5080347116079,-308.80560169681064,-622.9281750064819
415054,10004,415054,7715,415054.0,29077.0,-788.9712373557113,-312.7020100233864,-630.9138904135074
415064,9880,415064,7715,415064.0,29091.0,-798.5051573194664,-316.6244907417958,-638.9380486455461
415064,9756,415064,7752,415064.0,29105.0,-808.1036198428551,-320.5754230671069,-647.0034643373434
415064,9687,415064,7741,415064.0,29077.0,-817.7581016086033,-324.55702488050395,-655.112641292922
415064,9652,415064,7735,415064.0,29092.0,-827.4606270807074,-328.5708798919943,-663.2674299689813
415064,9662,415064,7731,415064.0,29063.0,-837.20581127583,-332.6176986882865,-671.4689124582369
415064,9652,415064,7711,415064.0,29052.0,-846.9917193325589,-336.69734802253635,-679.7174238504606
415075,9627,415075,7691,415075.0,29024.0,-856.819984209774,-340.8090410673747,-688.0127321990539
415075,9655,415075,7664,415075.0,29033.0,-866.6957471914948,-344.9517088706033,-696.354330536625
415075,9842,415075,7672,415075.0,28979.0,-876.62709938083,-349.12448220455497,-704.7417053567241
415075,9923,415075,7674,415075.0,28995.0,-886.6229676557816,-353.3270187318753,-713.174624073873
415075,9894,415075,7667,415075.0,28966.0,-896.6897504416431,-357.5595277813469,-721.6534455236537
415075,9834,415075,7667,415075.0,28999.0,-906.8287976014985,-361.82265666547016,-730.1792531609883
415085,9693,415085,7689,415085.0,28992.0,-917.036175158458,-366.1173619818098,-738.7536733333746
415085,9586,415085,7709,415085.0,28996.0,-927.3044962528479,-370.4446060077158,-747.3784635945732
415085,9554,415085,7674,415085.0,28986.0,-937.6257802754458,-374.804874115963,-756.0551138595143
415085,9532,415085,7661,415085.0,28980.0,-947.993988538901,-379.19792400074266,-764.7846161771017
415085,9537,415085,7658,415085.0,28954.0,-958.4064009182227,-383.62297514475597,-773.5674030786678
415085,9507,415085,7651,415085.0,28955.0,-968.8640461254233,-388.07900664583354,-782.4034342359416
415096,9507,415096,7654,415096.0,28937.0,-979.3717928133187,-392.5648780822648,-791.2923403485383
415096,9621,415096,7604,415096.0,28907.0,-989.9381520691536,-397.07939891852953,-800.233569621925
415096,9811,415096,7603,415096.0,28882.0,-1000.5738663140164,-401.6216176643241,-809.2266724356224
415096,9810,415096,7611,415096.0,28884.0,-1011.2887116500065,-406.191266063168,-818.2717343352571
415096,9767,415096,7623,415096.0,28902.0,-1022.0880230444793,-410.78893538106735,-827.3696315417614
415096,9667,415096,7634,415096.0,28901.0,-1032.9711459066352,-415.415822905654,-836.5218499385466
415106,9536,415106,7654,415106.0,28915.0,-1043.9323117424012,-420.0732469645096,-845.7300031012285
415106,9445,415106,7652,415106.0,28895.0,-1054.9631000840445,-424.7620943525139,-854.9953427682941
415106,9431,415106,7641,415106.0,28888.0,-1066.0553414278472,-429.4823539367451,-864.318455985623
415106,9409,415106,7619,415106.0,28872.0,-1077.203291707494,-434.23294081252385,-873.6992035309145
415106,9396,415106,7607,415106.0,28858.0,-1088.404655580933,-439.01185755975087,-883.1368125824679
415106,9383,415106,7584,415106.0,28832.0,-1099.6609282016097,-443.81654692614393,-892.6300487598012
415116,9415,415116,7552,415116.0,28814.0,-1110.977444096267,-448.64433683555677,-902.1774898206812
415116,9599,415116,7561,415116.0,28807.0,-1122.3626959824044,-453.4929494658287,-911.7778585539154
415116,9682,415116,7559,415116.0,28799.0,-1133.82606126828,-458.36087817587344,-921.4302631321508
415116,9671,415116,7555,415116.0,28793.0,-1145.3743245504556,-463.2474542644117,-931.1342660392519
415116,9587,415116,7561,415116.0,28795.0,-1157.0090114720988,-468.1527290782528,-940.8898261227895
415116,9474,415116,7598,415116.0,28799.0,-1168.726021189482,-473.07724232390325,-950.6971320014981
415127,9326,415127,7568,415127.0,28807.0,-1180.517413722271,-478.0215915896042,-960.5562985010704
415127,9302,415127,7572,415127.0,28795.0,-1192.3743606787082,-482.9860216277986,-970.466976710959
415127,9309,415127,7565,415127.0,28787.0,-1204.2898348798183,-487.9703025383763,-980.4280355148474
415127,9275,415127,7541,415127.0,28749.0,-1216.2599665639168,-492.97379768578566,-990.4374765086168
415127,9268,415127,7533,415127.0,28733.0,-1228.284365886894,-497.99563029015115,-1000.4926511508376
415127,9284,415127,7566,415127.0,28738.0,-1240.3661747761598,-503.03486371525304,-1010.5906284302334
415137,9368,415137,7531,415137.0,28707.0,-1252.5117348242663,-508.09045263483745,-1020.728431836227
415137,9542,415137,7491,415137.0,28702.0,-1264.7291061675405,-513.1611614080018,-1030.9031416771545
415137,9544,415137,7523,415137.0,28685.0,-1277.025137661782,-518.2458382502296,-1041.112032832781
415137,9516,415137,7506,415137.0,28683.0,-1289.4022983174539,-523.3437335856836,-1051.3527116077234
415137,9404,415137,7522,415137.0,28689.0,-1301.8571417508203,-528.4544518014429,-1061.6231222554884
415137,9268,415137,7559,415137.0,28711.0,-1314.3810714193535,-533.5776153534619,-1071.9213180187744
415147,9182,415147,7518,415147.0,28681.0,-1326.9628077256646,-538.7123667123583,-1082.2450129465294
415147,9170,415147,7514,415147.0,28693.0,-1339.5913308653378,-543.8570036302608,-1092.5911796639298
415147,9166,415147,7522,415147.0,28668.0,-1352.2579640931988,-549.0090007255067,-1102.9558672147991
415147,9141,415147,7491,415147.0,28646.0,-1364.9571788255737,-554.1651523350044,-1113.3341905091431
415147,9146,415147,7486,415147.0,28643.0,-1377.6867107450864,-559.3216910072578,-1123.7204712672876
415147,9168,415147,7494,415147.0,28605.0,-1390.4474383718907,-564.4744707810098,-1134.1084739533262
415158,9330,415158,7453,415158.0,28595.0,-1403.2426295553128,-569.6191202545717,-1144.4916883093165
415158,9430,415158,7447,415158.0,28601.0,-1416.0757726972408,-574.7512323599053,-1154.8636182138573
415158,9397,415158,7439,415158.0,28617.0,-1428.9472800031199,-579.8667124021647,-1165.2178261322088
415158,9327,415158,7462,415158.0,28581.0,-1441.8519265323664,-584.9620254677884,-1175.5476524196029
415158,9216,415158,7487,415158.0,28615.0,-1454.7785044039722,-590.0340296556788,-1185.8459071753255
415158,9085,415158,7492,415158.0,28627.0,-1467.711500080779,-595.0794033434208,-1196.104559152668
415168,9043,415168,7483,415168.0,28592.0,-1480.63381964356,-600.0939924157116,-1206.314249947828
415168,9043,415168,7450,415168.0,28585.0,-1493.529358410073,-605.0724843373966,-1216.4639393148864
415168,9021,415168,7464,415168.0,28565.0,-1506.3844399861937,-610.0085103959348,-1226.540959162854
415168,9015,415168,7465,415168.0,28546.0,-1519.1882122668123,-614.8948403487559,-1236.531258031263
415168,9008,415168,7465,415168.0,28545.0,-1531.9326645976832,-619.7233377910716,-1246.4196300326528
415168,9104,415168,7436,415168.0,28512.0,-1544.612345373883,-624.4848100431508,-1256.189902404711
415178,9278,415178,7391,415178.0,28472.0,-1557.2230174025963,-629.1691494685832,-1265.825199535968
415178,9295,415178,7383,415178.0,28475.0,-1569.7587270893014,-633.7659182963635,-1275.308421595772
415178,9259,415178,7425,415178.0,28500.0,-1582.208475545674,-638.2649664525338,-1284.622642846166
415178,9147,415178,7434,415178.0,28506.0,-1594.554541877033,-642.6564533573151,-1293.7509748490838
415178,9015,415178,7435,415178.0,28506.0,-1606.7732219684633,-646.9302821104545,-1302.676000351143
415178,8920,415178,7436,415178.0,28501.0,-1618.837327651188,-651.07552314765,-1311.3792377820441
415189,8904,415189,7441,415189.0,28518.0,-1630.7191963270866,-655.0800968564307,-1319.8407907399787
415189,8904,415189,7416,415189.0,28469.0,-1642.392900522739,-658.9306203959957,-1328.0391081902985
415189,8891,415189,7411,415189.0,28472.0,-1653.8351421879242,-662.6124292326806,-1335.9509673284422
415189,8867,415189,7386,415189.0,28452.0,-1665.0253728916894,-666.1098142975529,-1343.5517243258064
415189,8906,415189,7392,415189.0,28429.0,-1675.9457518260258,-669.4063558380972,-1350.8156252639683
415189,9082,415189,7334,415189.0,28422.0,-1686.5805314705242,-672.4852836370322,-1357.7161112670274
415199,9179,415199,7328,415199.0,28402.0,-1696.9138535818847,-675.3300017353165,-1364.226149015412
415199,9169,415199,7356,415199.0,28393.0,-1706.9262596083356,-677.9246972450452,-1370.318532854677
415199,9110,415199,7370,415199.0,28395.0,-1716.5918993270072,-680.2545339243894,-1375.9661229417447
415199,8968,415199,7397,415199.0,28408.0,-1725.8779763928064,-682.3052367472011,-1381.1419251903899
415199,8840,415199,7387,415199.0,28425.0,-1734.7464700938842,-684.062444362467,-1385.8188924698238
415199,8811,415199,7374,415199.0,28406.0,-1743.1571771346466,-685.5112629880388,-1389.969536975159
415209,8794,415209,7360,415209.0,28410.0,-1751.0705426833658,-686.6362286277872,-1393.5656440399266
415209,8761,415209,7339,415209.0,28370.0,-1758.4492943715038,-687.4216113119799,-1396.5782886302873
415209,8760,415209,7354,415209.0,28394.0,-1765.2591820292546,-687.8518250825084,-1398.97810079269
415209,8760,415209,7342,415209.0,28363.0,-1771.4693707503623,-687.9117114988385,-1400.7355644492636
415209,8881,415209,7348,415209.0,28359.0,-1777.0523163722369,-687.5866384764153,-1401.8212594186502
415209,9060,415209,7301,415209.0,28343.0,-1781.9823250071247,-686.8626233871852,-1402.2061690344253
415220,9072,415220,7324,415220.0,28329.0,-1786.2324595790446,-685.7266832633371,-1401.8620907335198
415220,9038,415220,7355,415220.0,28364.0,-1789.7712270284055,-684.1671676821618,-1400.7619926965813
415220,8930,415220,7340,415220.0,28345.0,-1792.5611234275216,-682.1736760763848,-1398.880125193941
415220,8794,415220,7375,415220.0,28369.0,-1794.5596512302152,-679.73670353035,-1396.1919198876617
415220,8728,415220,7398,415220.0,28384.0,-1795.7220550096495,-676.8472724136659,-1392.673839819189
415220,8713,415220,7377,415220.0,28365.0,-1796.004445416999,-673.4965137382285,-1388.3032132574708
415230,8714,415230,7357,415230.0,28370.0,-1795.3660317527901,-669.6754514977167,-1383.0581918055314
415230,8698,415230,7357,415230.0,28356.0,-1793.770158954091,-665.3752837159493,-1376.917979204545
415230,8695,415230,7345,415230.0,28362.0,-1791.1847371728086,-660.5879095496674,-1369.8632040432174
415230,8743,415230,7361,415230.0,28356.0,-1787.5824678391573,-655.3063505964803,-1361.8762893070666
415230,8914,415230,7318,415230.0,28345.0,-1782.9403876251035,-649.5250626146814,-1352.9418214097768
415230,9031,415230,7338,415230.0,28359.0,-1777.2378690985183,-643.2403301262377,-1343.0469617649046
415240,9015,415240,7365,415240.0,28372.0,-1770.4534289415021,-636.4506671738989,-1332.1818062735042
415240,8965,415240,7376,415240.0,28386.0,-1762.5622730385571,-629.1568661492886,-1320.3395433807138
415240,8867,415240,7411,415240.0,28419.0,-1753.5360524226953,-621.3616684296301,-1307.5164170875082
415240,8749,415240,7456,415240.0,28432.0,-1743.3446831525498,-613.0692470293167,-1293.7115538232679
415240,8733,415240,7436,415240.0,28470.0,-1731.9592859361087,-604.2845801088137,-1278.9266957982147
415240,8732,415240,7442,415240.0,28468.0,-1719.3550079175868,-595.0130309119736,-1263.1659319318733
415251,8735,415251,7427,415251.0,28494.0,-1705.5127743489952,-585.2604355075116,-1246.4355477244635
415251,8748,415251,7431,415251.0,28518.0,-1690.420059961995,-575.0335281668245,-1228.7440081038887
415251,8777,415251,7471,415251.0,28523.0,-1674.0712108516518,-564.3403318191306,-1210.1019597144116
415251,8896,415251,7467,415251.0,28524.0,-1656.467311197429,-553.1902482526984,-1190.5223049856581
415251,9100,415251,7440,415251.0,28549.0,-1637.6149069435205,-541.5940177902008,-1170.0204811970405
415251,9141,415251,7464,415251.0,28561.0,-1617.523169537127,-529.5639812051357,-1148.6148085236277
415261,9141,415261,7502,415261.0,28596.0,-1596.2007097290248,-517.114477581773,-1126.3267062076939
415261,9081,415261,7544,415261.0,28630.0,-1573.6539940604944,-504.26179083678625,-1103.1807256630527
415261,8990,415261,7537,415261.0,28696.0,-1549.887995174487,-491.02364038980915,-1079.2043330321358
415261,8935,415261,7564,415261.0,28703.0,-1524.9084504023747,-477.41874769595205,-1054.4274323057289
415261,8960,415261,7593,415261.0,28748.0,-1498.7246518140737,-463.4666703233945,-1028.8818891776577
415261,8983,415261,7602,415261.0,28783.0,-1471.3515674399014,-449.1876479839572,-1002.6012529928284
415271,9022,415271,7607,415271.0,28814.0,-1442.8107853747738,-434.6024295282932,-975.6205442167055
415271,9053,415271,7624,415271.0,28828.0,-1413.130687024423,-419.73227655035674,-947.976065865161
415271,9128,415271,7637,415271.0,28838.0,-1382.3462940016852,-404.59909435831133,-919.7054360827345
415271,9331,415271,7627,415271.0,28870.0,-1350.4985084804116,-389.22557831551796,-890.8478892580143
415271,9481,415271,7663,415271.0,28907.0,-1317.6319586596824,-373.63542138305223,-861.444603628321
415271,9529,415271,7678,415271.0,28963.0,-1283.7916200585819,-357.85348700933537,-831.5387687515952
415282,9515,415282,7695,415282.0,29005.0,-1249.0199394886054,-341.9057907695797,-801.1753146060831
415282,9456,415282,7743,415282.0,29052.0,-1213.3559922322074,-325.81933851702235,-770.4004446023074
415282,9344,415282,7796,415282.0,29106.0,-1176.8368268865393,-309.62176151657525,-739.2611349757435
415282,9356,415282,7800,415282.0,29136.0,-1139.5002720942998,-293.3406647183383,-707.8046537077073
415282,9394,415282,7844,415282.0,29177.0,-1101.3878480299652,-277.00297869786664,-676.078166262752
415282,9446,415282,7814,415282.0,29210.0,-1062.5464801227197,-260.6346320990298,-644.1285035145829
415292,9490,415292,7845,415292.0,29233.0,-1023.0289286428361,-244.26060239790593,-612.0020700955517
415292,9559,415292,7894,415292.0,29316.0,-982.8936247260966,-227.90511141916525,-579.7447762990726
415292,9699,415292,7857,415292.0,29278.0,-942.204113495202,-211.59162683228146,-547.4018989387112
415292,9937,415292,7843,415292.0,29340.0,-901.0274770651815,-195.34295013572765,-515.018092282206
415292,10045,415292,7892,415292.0,29340.0,-859.4311970898925,-179.18176475063302,-482.6377216281225
415292,10061,415292,7944,415292.0,29410.0,-817.4794564556593,-163.13104648195775,-450.3052023714168
415303,10024,415303,7957,415303.0,29465.0,-775.2309482394685,-147.21374872975048,-418.06499098678205
415303,9949,415303,8029,415303.0,29517.0,-732.7391734028965,-131.452087525533,-385.96115161001615
415303,9907,415303,7993,415303.0,29557.0,-690.0546404602599,-115.86688504046464,-354.036709268982
415303,9932,415303,8030,415303.0,29592.0,-647.2277470776617,-100.4772278645404,-322.3331222541632
415303,9990,415303,8031,415303.0,29623.0,-604.311073052833,-85.30051426278982,-290.88999770896214
415303,10030,415303,8045,415303.0,29633.0,-561.3604435104922,-70.35262872960504,-259.7450389786486
415313,10101,415313,8059,415313.0,29702.0,-518.4350681902782,-55.648069234166485,-228.93414855442518
415313,10173,415313,8068,415313.0,29706.0,-475.5972447474711,-41.200063064859194,-198.4914728964236
415313,10408,415313,8047,415313.0,29713.0,-432.911425825063,-27.020743652305896,-168.44941832313305
415313,10573,415313,8063,415313.0,29774.0,-390.4418788815841,-13.121521501884843,-138.83887565338546
415313,10589,415313,8090,415313.0,29787.0,-348.24915932681404,0.4864705639912472,-109.68946231498342
415313,10611,415313,8123,415313.0,29837.0,-306.3872992400187,13.79223868915426,-81.02951580577644
415323,10559,415323,8164,415323.0,29904.0,-264.90313443640775,26.78523579312707,-52.88587801747394
415323,10464,415323,8205,415323.0,29932.0,-223.8375819560972,39.45598067200467,-25.283435100213524
415323,10505,415323,8226,415323.0,29972.0,-183.22812980411152,51.796814686147684,1.7554766949656369
415323,10528,415323,8180,415323.0,29991.0,-143.1113577509269,63.802448254857666,28.211476204411838
415323,10564,415323,8187,415323.0,30014.0,-103.52440929866873,75.46985623220803,54.06826322577081
415323,10601,415323,8195,415323.0,30015.0,-64.50554513913539,86.7976397141876,79.31251427688619
415334,10673,415334,8223,415334.0,30050.0,-26.094313167003747,97.78550804396241,103.93359127183737
415334,10789,415334,8211,415334.0,30040.0,11.66875321894122,108.43415831866719,127.9231768825515
415334,11038,415334,8202,415334.0,30081.0,48.74354120404564,118.74520635814832,151.27491181820665
415334,11089,415334,8196,415334.0,30092.0,85.09328114326536,128.72083722927283,173.9840889426182
415334,11120,415334,8235,415334.0,30132.0,120.68789005457779,138.3633351539848,196.04750765411768
415334,11069,415334,8250,415334.0,30152.0,155.50577214722625,147.6749197417481,217.46350082982428
415344,10972,415344,8268,415344.0,30192.0,189.53331035247993,156.65798156773297,238.23207373135187
415344,10908,415344,8289,415344.0,30219.0,222.76251906992934,165.31543775234616,258.35513064396434
415344,10939,415344,8301,415344.0,30239.0,255.1879190350371,173.651037470162,277.8367427051634
415344,10978,415344,8331,415344.0,30261.0,286.80408561869945,181.66965371785255,296.6833475814501
415344,10998,415344,8296,415344.0,30251.0,317.604577054683,189.3775207432027,314.90377158312685
415344,11014,415344,8319,415344.0,30263.0,347.5816599675884,196.78222472409385,332.50899913604985
415354,11097,415354,8322,415354.0,30258.0,376.7261909067429,203.89247178243807,349.5117196886572
415354,11288,415354,8256,415354.0,30266.0,405.0280993592703,210.71777880009972,365.92579539364226
415354,11431,415354,8301,415354.0,30272.0,432.4784176062918,217.26793498443635,381.7657564229695
415354,11456,415354,8297,415354.0,30284.0,459.0725561898453,223.55238971140795,397.04637609668737
415354,11442,415354,8325,415354.0,30320.0,484.8129998537188,229.58006619616725,411.7824083383704
415354,11354,415354,8336,415354.0,30333.0,509.70996295550344,235.35957235856108,425.98857400711995
415365,11258,415365,8388,415365.0,30390.0,533.7799314116457,240.89958193863538,439.67980372805016
415365,11235,415365,8362,415365.0,30385.0,557.0428619053928,246.20935117652806,452.87165579720727
415365,11238,415365,8361,415365.0,30400.0,579.5192763817074,251.29908745123896,465.58068606801385
415365,11259,415365,8360,415365.0,30401.0,601.2283015380367,256.1798781615298,477.82452444595765
415365,11282,415365,8341,415365.0,30411.0,622.1867741064234,260.8633454654064,489.62170198025683
415365,11269,415365,8332,415365.0,30430.0,642.4088912363263,265.36122687358886,500.9914505964905
415375,11406,415375,8335,415375.0,30395.0,661.9061201024917,269.6848995428787,511.95351737555416
415375,11629,415375,8320,415375.0,30382.0,680.6881352927919,273.8449470606837,522.5277539669087
415375,11692,415375,8370,415375.0,30418.0,698.7656861671499,277.8509079969642,532.7334319389022
415375,11668,415375,8353,415375.0,30430.0,716.154201872514,281.7113192144783,542.5887671039709
415375,11589,415375,8365,415375.0,30452.0,732.8756606478153,285.4339483972735,552.110945643976
415375,11499,415375,8422,415375.0,30501.0,748.957836512848,289.02603338604604,561.3164470556912
415385,11415,415385,8414,415385.0,30490.0,764.4317948634725,292.49470008181197,570.2215014628794
415385,11407,415385,8400,415385.0,30494.0,779.3288564132251,295.847491896629,578.8424621984334
415385,11431,415385,8385,415385.0,30467.0,793.6781334722345,299.092486374901,587.1957571945311
415385,11412,415385,8404,415385.0,30493.0,807.5052062555139,302.23796838567455,595.2974571067596
415385,11438,415385,8396,415385.0,30537.0,820.8315760620594,305.2921352018776,603.1629412929817
415385,11494,415385,8393,415385.0,30513.0,833.6744513199064,308.262989030223,610.8070031420568
415396,11683,415396,8399,415396.0,30498.0,846.0473251905862,311.15823662045693,618.2440158244478
415396,11800,415396,8359,415396.0,30490.0,857.9621415110335,313.98508237102783,625.4876196821638
415396,11828,415396,8370,415396.0,30516.0,869.4326620790587,316.7498499284652,632.5501372195818
415396,11764,415396,8384,415396.0,30531.0,880.477205418817,319.457549430021,639.4422677380669
415396,11684,415396,8430,415396.0,30568.0,891.119228645668,322.1118010055184,646.173231215543
415396,11552,415396,8454,415396.0,30589.0,901.3857052880294,324.7153309155875,652.7512194270976
415406,11522,415406,8439,415406.0,30575.0,911.3041826965546,327.27072855260656,659.1838990181627
415406,11537,415406,8436,415406.0,30584.0,920.8998214850587,329.78091173469625,665.4786444921326
415406,11535,415406,8417,415406.0,30573.0,930.1935615804045,332.2490715247865,671.6424118213558
415406,11552,415406,8419,415406.0,30580.0,939.2014667177548,334.6783170666546,677.6814548190996
415406,11564,415406,8399,415406.0,30601.0,947.9345869916315,337.07127128141747,683.6010924972068
415406,11657,415406,8422,415406.0,30579.0,956.3991386032487,339.4297266121206,689.4056101863885
415416,11873,415416,8395,415416.0,30597.0,964.5976561283503,341.75441942627697,695.0981728302224
415416,11907,415416,8393,415416.0,30599.0,972.531762651914,344.04483802818095,700.6806612763473
415416,11905,415416,8427,415416.0,30616.0,980.205541748697,346.2990035509707,706.1535791991569
415416,11833,415416,8432,415416.0,30641.0,987.6274348877366,348.5134706420532,711.5161439257281
415416,11729,415416,8500,415416.0,30653.0,994.8098546213782,350.6837604965709,716.7665530561487
415416,11636,415416,8484,415416.0,30671.0,1001.7670596964745,352.80512515998555,721.9023479784476
415427,11630,415427,8483,415427.0,30671.0,1008.512275244706,354.87326682533126,726.9207306513968
415427,11638,415427,8483,415427.0,30680.0,1015.0552860295834,356.88461359933956,731.8187406428458
415427,11651,415427,8458,415427.0,30682.0,1021.4012410171922,358.8361842530669,736.5932985861052
415427,11652,415427,8468,415427.0,30673.0,1027.5503775645032,360.7252869445963,741.2411505559389
415427,11715,415427,8466,415427.0,30671.0,1033.4981308098347,362.5492139131409,745.7586932313181
415427,11877,415427,8461,415427.0,30678.0,1039.2358751523527,364.30505973152344,750.1417062646622
415437,12020,415437,8462,415437.0,30682.0,1044.7531013709763,365.98961666412106,754.3851376887615
415437,12012,415437,8453,415437.0,30698.0,1050.040821189785,367.59923794760914,758.4830376188049
415437,11972,415437,8470,415437.0,30709.0,1055.094388364889,369.12969945766656,762.4286343465646
415437,11888,415437,8517,415437.0,30748.0,1059.9141924568498,370.576256182781,766.2145712347053
415437,11775,415437,8520,415437.0,30788.0,1064.5042962616742,371.9341020838924,769.8334078388393
415437,11743,415437,8537,415437.0,30769.0,1068.8699113908597,373.1990594491615,773.2783389455551
415447,11753,415447,8532,415447.0,30779.0,1073.0148492352216,374.3681012439283,776.5437290417567
415447,11750,415447,8484,415447.0,30770.0,1076.9399529695845,375.4394860004413,779.6251973253211
415447,11752,415447,8500,415447.0,30773.0,1080.6425489546866,376.41243451507603,782.5194558113681
415447,11745,415447,8493,415447.0,30768.0,1084.1162739842102,377.28660947377796,785.2241192418253
415447,11858,415447,8512,415447.0,30736.0,1087.3511206213398,378.0618493266137,787.7374525078685
415447,12068,415447,8491,415447.0,30733.0,1090.3345629315934,378.73818678363216,790.0579261525334
415458,12112,415458,8499,415458.0,30768.0,1093.0545339525509,379.3158645724368,792.1837216791228
415458,12090,415458,8491,415458.0,30796.0,1095.503065324033,379.79523513010264,794.1126542012933
415458,12017,415458,8511,415458.0,30792.0,1097.6783107243025,380.176671717858,795.8426217778774
415458,11892,415458,8527,415458.0,30800.0,1099.58411148064,380.4606609409367,797.372107952071
415458,11827,415458,8519,415458.0,30800.0,1101.2277823652505,380.6480867798081,798.7004036468311
415458,11800,415458,8516,415458.0,30815.0,1102.617291239426,380.7404794589387,799.827673934241
415468,11819,415468,8530,415468.0,30808.0,1103.7590526513209,380.74007532022443,800.7550437419667
415468,11808,415468,8520,415468.0,30823.0,1104.6568835920743,380.6498272873274,801.4846984453898
415468,11796,415468,8512,415468.0,30825.0,1105.3117104110354,380.4734265606563,802.0199810966401
415468,11844,415468,8503,415468.0,30808.0,1105.7214823983657,380.2151978363667,802.3654720548599
415468,12003,415468,8477,415468.0,30772.0,1105.8816421103447,379.879819363863,802.5268586589444
415468,12128,415468,8482,415468.0,30788.0,1105.7870935213505,379.47192639484683,802.510471353145
415478,12134,415478,8476,415478.0,30765.0,1105.4354940829253,378.9957354917836,802.3227572676461
415478,12093,415478,8511,415478.0,30809.0,1104.830104111682,378.45490204175917,801.9700188999818
415478,11984,415478,8524,415478.0,30815.0,1103.9806312398541,377.85275047810654,801.4585330463095
415478,11855,415478,8554,415478.0,30849.0,1102.9018897026272,377.1928345910369,800.7950275181133
415478,11795,415478,8531,415478.0,30811.0,1101.6109986582824,376.47957282497316,799.9872462831835
415478,11804,415478,8521,415478.0,30810.0,1100.1243980901857,375.7185941716726,799.044179852132
415489,11792,415489,8490,415489.0,30805.0,1098.4559263649094,374.9165982122845,797.9758675678648
415489,11787,415489,8506,415489.0,30798.0,1096.6161046546524,374.0809051914842,796.793091257425
415489,11795,415489,8485,415489.0,30802.0,1094.611953896954,373.21905613424343,795.5071845592926
415489,11879,415489,8485,415489.0,30780.0,1092.4471314677414,372.338584197803,794.1299009185049
415489,12085,415489,8428,415489.0,30775.0,1090.1231077791012,371.44673036455197,792.6732184647152
415489,12126,415489,8473,415489.0,30772.0,1087.6420444178038,370.54995550706946,791.1490591369319
415499,12105,415499,8483,415499.0,30766.0,1085.0103396204595,369.65361084254704,789.5690390485594
415499,12011,415499,8477,415499.0,30773.0,1082.2406675029383,368.7621126268885,787.944332684398
415499,11882,415499,8505,415499.0,30797.0,1079.3515191915924,367.879341642157,786.285693055466
415499,11779,415499,8507,415499.0,30797.0,1076.3647959029383,367.0089941288641,784.6037003045936
415499,11743,415499,8506,415499.0,30811.0,1073.3026109725024,366.1549285539696,782.9091513931988
415499,11740,415499,8487,415499.0,30793.0,1070.1845892766646,365.32137857319697,781.2133719622165
415510,11756,415510,8498,415510.0,30768.0,1067.0264283371262,364.5129025429583,779.5282658572163
415510,11744,415510,8494,415510.0,30759.0,1063.8395545542635,363.73424955604156,777.8660169564062
415510,11790,415510,8466,415510.0,30772.0,1060.631305408009,362.99026732599197,776.2386493402514
415510,11940,415510,8455,415510.0,30720.0,1057.40567368197,362.28567368269404,774.6577064747821
415510,12066,415510,8443,415510.0,30743.0,1054.165362233251,361.62461057852454,773.1339377222213
415510,12062,415510,8432,415510.0,30729.0,1050.915058080659,361.01017271201647,771.6769371718563
415520,12005,415520,8482,415520.0,30745.0,1047.6642156433027,360.44414336911035,770.2949712237893
415520,11892,415520,8497,415520.0,30761.0,1044.427736042909,359.92719034963767,768.9950735435126
415520,11780,415520,8522,415520.0,30802.0,1041.2244510878293,359.45954417951424,767.7834050959167
415520,11738,415520,8508,415520.0,30772.0,1038.0743848837055,359.04174776487815,766.6658385524047
415520,11709,415520,8509,415520.0,30765.0,1034.9960593451738,358.6750808233431,765.6483762888893
415520,11718,415520,8499,415520.0,30741.0,1032.00472534007,358.3616185944396,764.737057749452
415530,11703,415530,8460,415530.0,30755.0,1029.1115775838707,358.1040279962845,763.9375583543488
415530,11690,415530,8466,415530.0,30750.0,1026.3234853292465,357.90512747330416,763.2548905765078
415530,11751,415530,8452,415530.0,30750.0,1023.6429288673721,357.7673581866295,762.6933284307534
415530,11977,415530,8431,415530.0,30724.0,1021.068773016331,357.69236681162977,762.2563589168626
415530,12036,415530,8462,415530.0,30748.0,1018.5989014989824,357.68069784707194,761.9465044546236
415530,12011,415530,8453,415530.0,30735.0,1016.233933079824,357.7316682413916,761.7651578613634
415541,11931,415541,8520,415541.0,30757.0,1013.9796011449419,357.8436044305153,761.7125916900553
415541,11804,415541,8498,415541.0,30766.0,1011.8465520900786,358.0144337111301,761.7881236706944
415541,11667,415541,8512,415541.0,30797.0,1009.8480540954499,358.24233048640576,761.9904443153008
415541,11676,415541,8479,415541.0,30775.0,1007.9967310411439,358.52601067682224,762.318062182936
415541,11684,415541,8474,415541.0,30765.0,1006.3018592019189,358.8645711420044,762.7695734038219
415541,11642,415541,8490,415541.0,30760.0,1004.7681471422536,359.25713723951003,763.3435430185103
415551,11656,415551,8470,415551.0,30764.0,1003.3953691602342,359.7026383010496,764.0382025743445
415551,11713,415551,8490,415551.0,30772.0,1002.1782146679793,360.1997576035676,764.8512756816496
415551,11860,415551,8457,415551.0,30703.0,1001.1069363457037,360.74688687992165,765.7798506424043
415551,11989,415551,8451,415551.0,30735.0,1000.1695601677383,361.34194172990954,766.8199622693885
415551,12003,415551,8448,415551.0,30743.0,999.3552670063115,361.9820076314223,767.9660550123148
415551,11968,415551,8492,415551.0,30763.0,998.6573373025108,362.66308375407164,769.2108840471558
415561,11856,415561,8481,415561.0,30794.0,998.0741797805869,363.38024239546326,770.545903079461
415561,11727,415561,8535,415561.0,30803.0,997.608136804116,364.12812321920285,771.9618497011842
415561,11687,415561,8526,415561.0,30788.0,997.2627646229902,364.90154388640167,773.4492837005113
415561,11685,415561,8511,415561.0,30789.0,997.0399787640533,365.69602689802656,774.9988074402398
415561,11685,415561,8491,415561.0,30807.0,996.9382949083766,366.507916991191,776.6010009864929
415561,11685,415561,8508,415561.0,30812.0,996.9522299804722,367.33408113792143,778.2464223941828
415572,11666,415572,8494,415572.0,30817.0,997.0721734246542,368.171608152569,779.925788805697
415572,11745,415572,8494,415572.0,30797.0,997.2843929136369,369.01768205281445,781.6301180822962
415572,11967,415572,8460,415572.0,30769.0,997.5718932152902,369.8694127344146,783.3505803275698
415572,12034,415572,8492,415572.0,30794.0,997.9171526423481,370.7235188211441,785.0780616201648
415572,11997,415572,8488,415572.0,30780.0,998.3058835883205,371.57610968047925,786.8027782074191
415572,11919,415572,8494,415572.0,30803.0,998.7293406432609,372.4227508719133,788.5141782347234
415582,11800,415582,8533,415582.0,30850.0,999.1839847534072,373.2587058965067,790.2011313291407
415582,11687,415582,8526,415582.0,30863.0,999.6691735589812,374.0793159370488,791.8524853003671
415582,11684,415582,8531,415582.0,30859.0,1000.1840821655192,374.8804408352861,793.4578263905887
415582,11681,415582,8498,415582.0,30834.0,1000.7251718500053,375.6586497996112,795.0079172591111
415582,11673,415582,8478,415582.0,30821.0,1001.2849494684438,376.41097174601293,796.4945580452883
415582,11707,415582,8494,415582.0,30826.0,1001.851673669603,377.1343672836245,797.9101217501916
415592,11724,415592,8506,415592.0,30835.0,1002.4095285443927,377.8253595694555,799.2471871640187
415592,11882,415592,8476,415592.0,30790.0,1002.9394148418535,378.4800143646955,800.498370777066
415592,12019,415592,8476,415592.0,30793.0,1003.4209643379493,379.0939112099063,801.656040195772
415592,12041,415592,8462,415592.0,30814.0,1003.8358123454805,379.6618609786858,802.7118688332373
415592,12003,415592,8516,415592.0,30820.0,1004.1706719047148,380.17766541807634,803.6566631770125
415592,11893,415592,8545,415592.0,30860.0,1004.4184981460825,380.63436608584345,804.4806389685997
415603,11755,415603,8590,415603.0,30882.0,1004.5773142105612,381.0250982322218,805.1740008807675
415603,11696,415603,8541,415603.0,30909.0,1004.6473809621898,381.34410462266396,805.7277187435559
415603,11704,415603,8536,415603.0,30854.0,1004.6281008860051,381.5872093058633,806.1342092097384
415603,11682,415603,8531,415603.0,30868.0,1004.5159938801567,381.7515875856038,806.3874819734656
415603,11713,415603,8509,415603.0,30859.0,1004.3039372452965,381.83530992907527,806.482811495757
415603,11697,415603,8511,415603.0,30862.0,1003.9810810976695,381.8369654893887,806.4164363139766
415613,11764,415613,8508,415613.0,30834.0,1003.5330913600267,381.7553551920613,806.1854115623328
415613,11992,415613,8477,415613.0,30805.0,1002.9431921995861,381.5892443172627,805.7873132949445
415613,12038,415613,8493,415613.0,30817.0,1002.1948825991501,381.33708557733183,805.2196975733576
415613,12021,415613,8505,415613.0,30829.0,1001.2755889077503,380.9967855870192,804.4796584345181
415613,11940,415613,8518,415613.0,30835.0,1000.1789447994204,380.5657778613371,803.5638065935834
415613,11814,415613,8533,415613.0,30866.0,998.9045556167453,380.0413862175835,802.4685860033394
415623,11699,415623,8528,415623.0,30862.0,997.455771447052,379.42124188507125,801.1907381459919
415623,11690,415623,8531,415623.0,30862.0,995.8365779682115,378.7035823872085,799.7277522676566
415623,11689,415623,8513,415623.0,30852.0,994.0490074309157,377.88735131918065,798.078099282736
415623,11670,415623,8512,415623.0,30842.0,992.0918690517359,376.9721051473599,796.2412069267075
415623,11677,415623,8515,415623.0,30839.0,989.9603697451187,375.95783836926057,794.2172956049851
415623,11703,415623,8505,415623.0,30845.0,987.6460505058246,374.84487073369905,792.0072226881292
415634,11850,415634,8510,415634.0,30785.0,985.1373138200863,373.63380664111617,789.6123372715388
415634,11991,415634,8455,415634.0,30796.0,982.4213295899067,372.32540684120283,787.0341166945761
415634,12002,415634,8468,415634.0,30784.0,979.4873118186479,370.9202003950289,784.2736232304978
415634,11944,415634,8496,415634.0,30823.0,976.3295555508253,369.4180473478172,781.3312301691557
415634,11848,415634,8524,415634.0,30810.0,972.9484636240155,367.8181964778919,778.2068236788955
415634,11731,415634,8545,415634.0,30838.0,969.3493286496482,366.1199433573578,774.9002497289068
415644,11659,415644,8509,415644.0,30819.0,965.5397606569031,364.32337876422633,771.4117389383255
415644,11649,415644,8505,415644.0,30833.0,961.5269097316008,362.42968915097657,767.7422041162026
415644,11631,415644,8493,415644.0,30798.0,957.3154811324102,360.4409545210389,763.8933679809277
415644,11638,415644,8477,415644.0,30761.0,952.9068179066456,358.35978973061015,759.8675996038234
415644,11638,415644,8479,415644.0,30822.0,948.2986744572457,356.18903961866,755.6675161860346
415644,11705,415644,8482,415644.0,30769.0,943.4854401983889,353.9315764535195,751.2957993589639
415654,11902,415654,8451,415654.0,30753.0,938.4592767946783,351.59020972496893,746.755244138339
415654,11939,415654,8459,415654.0,30756.0,933.2127985167657,349.1675523643247,742.0485567776213
415654,11937,415654,8449,415654.0,30764.0,927.7424925113264,346.6658008051465,737.1780471383911
415654,11840,415654,8463,415654.0,30785.0,922.050883795469,344.0866210545115,732.1456930875261
415654,11720,415654,8497,415654.0,30774.0,916.1463866550439,341.43130057727393,726.9535404168992
415654,11591,415654,8481,415654.0,30782.0,910.0411661577303,338.7011881968195,721.6041245392644
415665,11567,415665,8471,415665.0,30775.0,903.748019368501,335.8981447152276,716.1007479418993
415665,11575,415665,8488,415665.0,30772.0,897.2776904902456,333.0247026692228,710.4476477125036
415665,11559,415665,8439,415665.0,30740.0,890.6375585544372,330.0840221773816,704.6500489784137
415665,11558,415665,8458,415665.0,30739.0,883.8313877059829,327.07972779191977,698.7140170999912
415665,11565,415665,8453,415665.0,30734.0,876.8594011931029,324.01567887070536,692.6462076108578
415665,11692,415665,8404,415665.0,30694.0,869.7187214341934,320.8958048956131,686.4536675121674
415675,11838,415675,8432,415675.0,30676.0,862.4049957445334,317.7238680021204,680.1435460473183
415675,11846,415675,8389,415675.0,30690.0,854.9154546786917,314.50311616906464,673.722658067956
415675,11794,415675,8435,415675.0,30681.0,847.2519561294338,311.2360738431829,667.1972397468052
415675,11691,415675,8434,415675.0,30688.0,839.4221675795624,307.9246317918443,660.5730502201213
415675,11563,415675,8433,415675.0,30719.0,831.4384837075436,304.57041991016774,653.8556793183437
415675,11473,415675,8447,415675.0,30685.0,823.3154400257008,301.17521804602944,647.0509944092247
415685,11456,415685,8438,415685.0,30672.0,815.0667493912844,297.74124288625524,640.1654812948403
415685,11449,415685,8440,415685.0,30645.0,806.7031104281645,294.2713594094673,633.2061673144035
415685,11442,415685,8407,415685.0,30642.0,798.2312448045429,290.76915409448566,626.180260006288
415685,11442,415685,8404,415685.0,30642.0,789.6537421024129,287.2387645566474,619.094857277049
415685,11493,415685,8377,415685.0,30612.0,780.9692972013656,283.6845221612099,611.9568441974031
415685,11693,415685,8365,415685.0,30589.0,772.1737711346467,280.1105349777851,604.7727657296206
415696,11754,415696,8352,415696.0,30603.0,763.2628565888178,276.52027165228475,597.5485415985239
415696,11736,415696,8365,415696.0,30585.0,754.2356985259037,272.9162391592036,590.2892659407983
415696,11648,415696,8397,415696.0,30580.0,745.0973592829855,269.2999708622545,582.999221058674
415696,11516,415696,8420,415696.0,30581.0,735.8588491532576,265.6724887210759,575.6819351192656
415696,11355,415696,8391,415696.0,30619.0,726.5349752436466,262.03502709685654,568.3403382974076
415696,11357,415696,8398,415696.0,30599.0,717.1410282303344,258.3895061138327,560.9772155656206
415706,11347,415706,8374,415706.0,30594.0,707.6899174508014,254.73856834714445,553.5957455612308
415706,11318,415706,8370,415706.0,30573.0,698.1908284665705,251.08540340401183,546.1997368780785
415706,11322,415706,8370,415706.0,30547.0,688.6489109370119,247.43355256608874,538.7935131045826
415706,11339,415706,8353,415706.0,30548.0,679.0652639276155,243.78677636338892,531.3816225462258
415706,11440,415706,8303,415706.0,30540.0,669.4374208529789,240.14886556748573,523.9685890305882
415706,11615,415706,8314,415706.0,30492.0,659.7610524221536,236.5231749002735,516.5587643602726
415716,11636,415716,8334,415716.0,30507.0,650.0331507163726,232.91213837580415,509.1560839437242
415716,11574,415716,8323,415716.0,30496.0,640.2554053851065,229.31723364853855,501.7637760569571
415716,11457,415716,8363,415716.0,30517.0,630.4356977035872,225.73933457731908,494.3843484030645
415716,11301,415716,8373,415716.0,30532.0,620.5869676862849,222.17923541387944,487.0199348343161
415716,11234,415716,8324,415716.0,30526.0,610.7242958762947,218.6381988474147,479.6728564404056
415716,11237,415716,8357,415716.0,30496.0,600.8617617339695,215.11817776852524,472.3460974137955
415727,11207,415727,8333,415727.0,30495.0,591.0104563254602,211.62172892001965,465.04340621676846
415727,11195,415727,8314,415727.0,30461.0,581.1777561398156,208.15193204530965,457.76909075488453
415727,11181,415727,8300,415727.0,30471.0,571.367084628657,204.71221124266665,450.52775028023837
415727,11212,415727,8279,415727.0,30406.0,561.5778414843842,201.30594712334516,443.32399650270787
415727,11420,415727,8269,415727.0,30428.0,551.8061086779128,197.93603954013233,436.1620686476336
415727,11513,415727,8253,415727.0,30422.0,542.047122850848,194.60451184910121,429.0454738545754
415737,11471,415737,8262,415737.0,30396.0,532.2990527405444,191.31220316081775,421.97689765074887
415737,11383,415737,8295,415737.0,30405.0,522.5657180416158,188.05871243892895,414.9582346299043
415737,11251,415737,8286,415737.0,30413.0,512.8566347998448,184.84272798283044,407.9906056816565
415737,11115,415737,8301,415737.0,30434.0,503.18481218761303,181.66254600132135,401.07459847980545
415737,11091,415737,8324,415737.0,30425.0,493.5635631751291,178.51653344172894,394.21078177895777
415737,11083,415737,8301,415737.0,30373.0,484.00375543449064,175.40356142883473,387.4001089852495
415748,11068,415748,8279,415748.0,30401.0,474.5124147760008,172.32327376976227,380.64387301458913
415748,11054,415748,8281,415748.0,30386.0,465.09236508549446,169.27596592450038,373.94348155767074
415748,11084,415748,8263,415748.0,30355.0,455.74223469096063,166.26227277689273,367.30041292942013
415748,11189,415748,8234,415748.0,30312.0,446.4569565559491,163.28287768888018,360.7160549704775
415748,11322,415748,8239,415748.0,30335.0,437.22945848572783,160.33815377769463,354.1911982736192
415748,11353,415748,8233,415748.0,30329.0,428.0536406163151,157.42781025134894,347.72564105211535
415758,11318,415758,8237,415758.0,30323.0,418.9274281645743,154.55075223602907,341.31822942008426
415758,11198,415758,8275,415758.0,30324.0,409.85425633600335,151.70520874538667,334.9670679821867
415758,11053,415758,8271,415758.0,30364.0,400.84224472984226,148.88915108434185,328.6697631515262
415758,10991,415758,8251,415758.0,30335.0,391.90156301767695,146.1008094844881,322.4238672172118
415758,10958,415758,8276,415758.0,30337.0,383.0414002157004,143.33893590247956,316.22735526107004
415758,10940,415758,8256,415758.0,30330.0,374.2678304123831,140.6028737439231,310.07882536524556
415768,10953,415768,8210,415768.0,30305.0,365.58283371810876,137.89254180672333,303.9774849041889
415768,10950,415768,8236,415768.0,30276.0,356.9841181033514,135.2081381882119,297.9229836745088
415768,10974,415768,8219,415768.0,30268.0,348.4654202908408,132.5497503426304,291.9150271053058
415768,11185,415768,8171,415768.0,30251.0,340.01748813685697,129.91712627375438,285.9529274120627
415768,11247,415768,8191,415768.0,30247.0,331.63053392828454,127.30933973309175,280.03529305403
415768,11218,415768,8206,415768.0,30256.0,323.29775208637784,124.72441621777207,274.15990104041884
415779,11140,415779,8230,415779.0,30281.0,315.0177584308291,122.15942370464174,268.3238330771344
415779,11020,415779,8250,415779.0,30274.0,306.7946135125127,119.61105448948874,262.5239201418338
415779,10874,415779,8220,415779.0,30272.0,298.6358186057819,117.07627930866394,256.7572628451586
415779,10877,415779,8217,415779.0,30245.0,290.5493102742081,114.55266504986392,251.02150792373698
415779,10846,415779,8276,415779.0,30255.0,282.54083550024416,112.03841483072591,245.31483035816365
415779,10825,415779,8226,415779.0,30221.0,274.61258342314125,109.53260406825021,239.63579725109292
415789,10810,415789,8192,415789.0,30232.0,266.7626485388771,107.03543652950341,233.98322280319786
415789,10850,415789,8212,415789.0,30236.0,258.9847991322496,104.5479719641292,228.35608728540518
415789,10951,415789,8145,415789.0,30167.0,251.2688970552191,102.07155196951004,222.75351599612918
415789,11138,415789,8137,415789.0,30193.0,243.6027198356503,99.60720535658734,217.17454908073364
415789,11138,415789,8173,415789.0,30185.0,235.97529671418283,97.155032980828,211.61775890531408
415789,11094,415789,8155,415789.0,30167.0,228.3802897376636,94.71396056427949,206.08111975910583
415799,10976,415799,8193,415799.0,30186.0,220.817416738539,92.282003190643,200.56207933764847
415799,10840,415799,8181,415799.0,30221.0,213.29136390671204,89.85670151997004,195.0577571904198
415799,10769,415799,8216,415799.0,30181.0,205.8090500733241,87.43558002442163,189.56541996278543
415799,10766,415799,8193,415799.0,30198.0,198.37664704438384,85.01660505479083,184.0829380534774
415799,10728,415799,8182,415799.0,30158.0,190.99757204927778,82.59847686513814,178.6088817591093
415799,10734,415799,8165,415799.0,30175.0,183.67159986236823,80.18058161639857,173.1423885102621
415810,10717,415810,8158,415810.0,30128.0,176.39454000182263,77.76268637189713,167.6829793296539
415810,10767,415810,8143,415810.0,30146.0,169.15825033490955,75.34460578630757,162.23033465810192
415810,10966,415810,8126,415810.0,30093.0,161.95149921731604,72.92589716288938,156.78402146899145
415810,11033,415810,8122,415810.0,30112.0,154.76248184520364,70.505537343019,151.34317775325349
415810,11005,415810,8149,415810.0,30114.0,147.58237997969536,68.081698820577,145.90627985990818
415810,10943,415810,8161,415810.0,30106.0,140.40782226175702,65.6518720079577,140.4711829481954
415820,10827,415820,8168,415820.0,30141.0,133.24103923106168,63.213333709130325,135.0354001933007
415820,10685,415820,8174,415820.0,30143.0,126.08807944095702,60.7636684346478,129.59654997712948
415820,10649,415820,8168,415820.0,30094.0,118.95590622107954,58.30113824251413,124.15283959302224
415820,10642,415820,8163,415820.0,30075.0,111.84958915588015,55.82487486719475,118.70312412551891
415820,10638,415820,8117,415820.0,30130.0,104.77070313092213,53.334833477045606,113.24655877178338
415820,10630,415820,8138,415820.0,30097.0,97.71690040084297,50.83146356573144,107.78255698721296
415830,10645,415830,8153,415830.0,30061.0,90.6819817367982,48.31539649071601,102.31106864534343
415830,10761,415830,8091,415830.0,30032.0,83.65639184628787,45.787412728927166,96.83243957103593
415830,10928,415830,8066,415830.0,30019.0,76.62888802334817,43.24824766056793,91.34676138041038
415830,10946,415830,8111,415830.0,30056.0,69.58972431245957,40.697990989012226,85.85333492357427
415830,10866,415830,8109,415830.0,30031.0,62.53391466430071,38.13577188742897,80.35065814391419
415830,10775,415830,8120,415830.0,30051.0,55.46248890309994,35.56008402057404,74.83675421589555
415841,10648,415841,8148,415841.0,30056.0,48.381294403282595,32.96932143777309,69.3095182320136
415841,10565,415841,8138,415841.0,30054.0,41.2983674503688,30.36229467316582,63.76707439870893
415841,10552,415841,8122,415841.0,30042.0,34.22107823788281,27.738644123246388,58.20811344418337
415841,10543,415841,8107,415841.0,30047.0,27.154071251421556,25.09890991095176,52.63206863035157
415841,10533,415841,8085,415841.0,30005.0,20.09836914366167,22.444250150202777,47.03912635715801
415841,10530,415841,8095,415841.0,29988.0,13.051186649880492,19.77605448791752,41.43001875733853
415851,10556,415851,8083,415851.0,29996.0,6.006021436418791,17.095683592619707,35.805616488461965
415851,10755,415851,8030,415851.0,29970.0,-1.046585435763177,14.404281930729724,30.166613114474558
415851,10833,415851,8024,415851.0,29948.0,-8.116726785940727,11.702331900322577,24.51335366612966
415851,10832,415851,8084,415851.0,29945.0,-15.211596187642272,8.989111186975379,18.845574630903457
415851,10736,415851,8077,415851.0,29957.0,-22.332796212307244,6.262743415830414,13.162152499256308
415851,10616,415851,8101,415851.0,29973.0,-29.476052180853117,3.5208684287474625,7.461176573793637
415861,10474,415861,8130,415861.0,29987.0,-36.63320186390388,0.7613898821533667,1.7403946414361826
415861,10461,415861,8075,415861.0,29976.0,-43.79532189684414,-2.016938568941555,-4.002199142722134
415861,10446,415861,8066,415861.0,29952.0,-50.9554672798032,-4.814337359716092,-9.767965987719776
415861,10418,415861,8092,415861.0,29932.0,-58.11011354564221,-7.630298076216377,-15.557632320455014
415861,10415,415861,8011,415861.0,29947.0,-65.25967821123209,-10.463924452732044,-21.371559990192736
415861,10453,415861,8049,415861.0,29936.0,-72.40867004631957,-13.314270773503324,-27.209892296160547
415872,10537,415872,8040,415872.0,29917.0,-79.56521925716811,-16.18073436778576,-33.072494879911574
415872,10710,415872,8017,415872.0,29884.0,-86.73938134056516,-19.063206763745143,-38.95901325141631
415872,10735,415872,8030,415872.0,29878.0,-93.94007878926027,-21.962088752611407,-44.86922504213942
415872,10684,415872,8024,415872.0,29882.0,-101.17185817297752,-24.878361620063117,-50.80344010283909
415872,10562,415872,8035,415872.0,29895.0,-108.43338892913084,-27.813548588826734,-56.76260239754379
415872,10453,415872,8076,415872.0,29890.0,-115.71845049176761,-30.769445021016963,-62.748043093151296
415882,10368,415882,8061,415882.0,29871.0,-123.01854164578674,-33.74759305262927,-68.76116206941163
415882,10361,415882,8055,415882.0,29869.0,-130.32570782045707,-36.74872726717433,-74.8033130387779
415882,10331,415882,8055,415882.0,29892.0,-137.63453018351743,-39.77253742258716,-80.8757971225258
415882,10337,415882,8017,415882.0,29883.0,-144.9430602299451,-42.81774214218291,-86.97966128772282
415882,10326,415882,8022,415882.0,29852.0,-152.25309667645809,-45.882350134436024,-93.1153866055306
415882,10352,415882,8004,415882.0,29829.0,-159.5701163755956,-48.9640138666291,-99.28288925991012
415892,10539,415892,7967,415892.0,29818.0,-166.90254147576456,-52.06038063888212,-105.48190714820294
415892,10634,415892,7978,415892.0,29817.0,-174.25950485346902,-55.16950791292231,-111.71241387847897
415892,10604,415892,7961,415892.0,29809.0,-181.64739285714154,-58.29027618467677,-117.97479911147707
415892,10527,415892,8005,415892.0,29838.0,-189.06723335251593,-61.422522211357375,-124.26979501189487
415892,10412,415892,7991,415892.0,29836.0,-196.51447704288717,-64.56678537267453,-130.59814475397013
415892,10276,415892,8030,415892.0,29825.0,-203.9808968157895,-67.72380478921002,-136.96012639431922
415903,10245,415903,8025,415903.0,29813.0,-211.45753874580987,-70.89394325261708,-143.35524172595058
415903,10230,415903,7971,415903.0,29796.0,-218.9374480202813,-74.0767686570266,-149.78220772525447
415903,10237,415903,7983,415903.0,29788.0,-226.4171925897491,-77.27112076843781,-156.23911704748184
415903,10225,415903,7985,415903.0,29769.0,-233.89724545968477,-80.47550752162522,-162.72363404913108
415903,10231,415903,7972,415903.0,29747.0,-241.38187534199767,-83.68829661986467,-169.23321830479256
415903,10329,415903,7934,415903.0,29739.0,-248.87872576713698,-86.90776521926497,-175.76541414450196
415913,10520,415913,7940,415913.0,29710.0,-256.39735197336233,-90.13239225518757,-182.318175937526
415913,10501,415913,7928,415913.0,29729.0,-263.9462053808272,-93.36127608878095,-188.8901421812767
415913,10477,415913,7957,415913.0,29717.0,-271.5294172285338,-96.59431325131871,-195.48073096755456
415913,10367,415913,7962,415913.0,29726.0,-279.14540688431873,-99.83200677371485,-202.0900022325327
415913,10243,415913,7975,415913.0,29730.0,-286.7877862442476,-103.07501136568987,-208.7183900240126
415913,10134,415913,7927,415913.0,29716.0,-294.4478560139073,-106.32373315886204,-215.36641002477802
415923,10135,415923,7955,415923.0,29733.0,-302.11763362228896,-109.57828350890952,-222.03440303744253
415923,10115,415923,7943,415923.0,29716.0,-309.7921380724797,-112.8386229261533,-228.7223123982664
415923,10127,415923,7947,415923.0,29696.0,-317.47035115252424,-116.10455110084911,-235.42952162436086
415923,10108,415923,7917,415923.0,29680.0,-325.1553165612164,-119.37563004558689,-242.15490610387764
415923,10151,415923,7931,415923.0,29642.0,-332.85392338472263,-122.6512690427752,-248.89714539715703
415923,10341,415923,7890,415923.0,29628.0,-340.5760500411059,-125.9309289139411,-255.65520916456205
415934,10427,415934,7860,415934.0,29635.0,-348.3321618690901,-129.2144577706589,-262.4288467685086
415934,10405,415934,7888,415934.0,29644.0,-356.12974456461893,-132.50260075858927,-269.21878107068494
415934,10320,415934,7929,415934.0,29647.0,-363.970685934931,-135.79723655459043,-276.026493105593
415934,10213,415934,7943,415934.0,29650.0,-371.85106688850306,-139.1008812100132,-282.85381212673997
415934,10075,415934,7939,415934.0,29659.0,-379.76304186257335,-142.41579724751517,-289.702507286936
415934,10042,415934,7909,415934.0,29638.0,-387.6977524160859,-145.74340612370236,-296.57393554364535
415944,10033,415944,7920,415944.0,29633.0,-395.64802355085885,-149.08423874511442,-303.46883883171336
415944,10018,415944,7877,415944.0,29616.0,-403.6098979391736,-152.43817912591084,-310.38735117752515
415944,9984,415944,7868,415944.0,29608.0,-411.5831782608801,-155.80482510560284,-317.3291206198429
415944,10017,415944,7878,415944.0,29622.0,-419.57165369072777,-159.18391148644497,-324.29339010946524
415944,10119,415944,7880,415944.0,29544.0,-427.5828749549788,-162.57553656426643,-331.2790414486932
415944,10290,415944,7861,415944.0,29535.0,-435.6265833658099,-165.98009896899168,-338.28492811404953
415955,10305,415955,7855,415955.0,29577.0,-443.71155482185645,-169.39825241721667,-345.3104666411392
415955,10263,415955,7863,415955.0,29555.0,-451.84228927318907,-172.8310078833266,-352.3558066382119
415955,10167,415955,7873,415955.0,29578.0,-460.0174659189403,-176.2797463946702,-359.4214357651872
415955,10043,415955,7917,415955.0,29576.0,-468.23070637371325,-179.7459137410026,-366.5076952532987
415955,9954,415955,7904,415955.0,29575.0,-476.47292539913474,-183.2303909888962,-373.61436380978137
415955,9927,415955,7865,415955.0,29538.0,-484.7351644313086,-186.73292122235966,-380.74037466506866
415965,9918,415965,7868,415965.0,29531.0,-493.01079714363857,-190.252074133367,-387.883862076975
415965,9899,415965,7843,415965.0,29529.0,-501.29662970966695,-193.78563514540463,-395.04243412001824
415965,9881,415965,7829,415965.0,29521.0,-509.59328856535956,-197.33101437096497,-402.21334195562326
415965,9923,415965,7813,415965.0,29488.0,-517.9053288446435,-200.88562285334677,-409.39351732943385
415965,10114,415965,7803,415965.0,29464.0,-526.2405879001263,-204.44726069356858,-416.5797657532197
415965,10186,415965,7794,415965.0,29439.0,-534.6078569199248,-208.01444631188383,-423.7692308220344
415975,10186,415975,7824,415975.0,29464.0,-543.0133642122934,-211.58657965504653,-430.9598707317476
415975,10111,415975,7820,415975.0,29433.0,-551.4581098273586,-215.16380178437748,-438.15063341094583
415975,9982,415975,7834,415975.0,29466.0,-559.9374517641663,-218.746599436721,-445.3413384285652
415975,9849,415975,7826,415975.0,29463.0,-568.4428708881225,-222.33540347714796,-452.53239118594
415975,9808,415975,7810,415975.0,29446.0,-576.9649898521238,-225.930359321521,-459.7243921418311
415975,9793,415975,7814,415975.0,29434.0,-585.4964316837828,-229.53131181795555,-466.9178818873395
415986,9792,415986,7805,415986.0,29435.0,-594.0334639506161,-233.1378932804937,-474.1133515756653
415986,9782,415986,7785,415986.0,29418.0,-602.5764955015936,-236.74960540007652,-481.31131025058596
415986,9787,415986,7795,415986.0,29404.0,-611.1300492024051,-240.36594159002544,-488.5123220405965
415986,9881,415986,7761,415986.0,29378.0,-619.7023765991696,-243.9865538290362,-495.7171467690067
415986,10058,415986,7751,415986.0,29377.0,-628.3040465521365,-247.6114781827144,-502.9270102707194
415986,10081,415986,7764,415986.0,29346.0,-636.9449895308187,-251.24143317866157,-510.14389106227975
415996,10042,415996,7759,415996.0,29374.0,-645.6311548382038,-254.87797247049133,-517.3707180912845
415996,9937,415996,7788,415996.0,29390.0,-654.3628203933682,-258.5233298702282,-524.6113014149395
415996,9815,415996,7790,415996.0,29390.0,-663.1353016573928,-262.1800275322412,-531.8698682237282
415996,9715,415996,7806,415996.0,29385.0,-671.9413675792861,-265.8503605514967,-539.1504671785839
415996,9701,415996,7777,415996.0,29379.0,-680.774169693189,-269.5359481322638,-546.4565869905589
415996,9703,415996,7758,415996.0,29349.0,-689.6294460507953,-273.23760827187175,-553.791045784563
416005,9681,416005,7769,416005.0,29376.0,-698.5064558024305,-276.9555781712068,-561.1560438825476
416005,9676,416005,7764,416005.0,29345.0,-707.4081383368621,-280.6897383373161,-568.5531815939702
416005,9723,416005,7734,416005.0,29297.0,-716.3410170964834,-284.43966228224576,-575.9834844424706
416005,9897,416005,7702,416005.0,29307.0,-725.3143805023122,-288.20480347275804,-583.4477393348027
416005,9962,416005,7699,416005.0,29274.0,-734.3379343603316,-291.98501179479626,-590.947008071683
416005,9941,416005,7735,416005.0,29269.0,-743.4185123637963,-295.7809950396761,-598.4829822346921
416016,9881,416016,7720,416016.0,29265.0,-752.5577507623922,-299.5942822195982,-606.0581956013901
416016,9773,416016,7733,416016.0,29319.0,-761.7518441021589,-303.42683844543274,-613.676000942711
416016,9602,416016,7755,416016.0,29299.0,-770.9932059282708,-307.2806794016983,-621.3400743502583
416016,9594,416016,7737,416016.0,29302.0,-780.2733808941178,-311.15748738622773,-629.0537019822181
416016,9581,416016,7749,416016.0,29300.0,-789.585878905344,-315.05825718851895,-636.8193165983082
416016,9561,416016,7729,416016.0,29244.0,-798.9276909998244,-318.9831194895147,-644.6383849726184
416026,9542,416026,7687,416026.0,29265.0,-808.2997279730037,-322.9314085368533,-652.5115995646324
416026,9563,416026,7687,416026.0,29238.0,-817.706965015251,-326.9020489683969,-660.439192267033
416026,9676,416026,7676,416026.0,29207.0,-827.1581304362088,-330.8940897856872,-668.4211556926184
416026,9845,416026,7645,416026.0,29206.0,-836.6640559884215,-334.90710016243565,-676.4575035323423
416026,9862,416026,7634,416026.0,29178.0,-846.2344375981625,-338.94152425129596,-684.5486225991103
416026,9806,416026,7688,416026.0,29191.0,-855.8744673218491,-342.9989889270688,-692.69552430179
416036,9705,416036,7687,416036.0,29187.0,-865.5833518800453,-347.08213744665085,-700.8998903023855
416036,9581,416036,7709,416036.0,29200.0,-875.3552437906422,-351.19395052640095,-709.1638799460376
416036,9472,416036,7731,416036.0,29201.0,-885.1817715859016,-355.3369817647724,-717.4897520309263
416036,9463,416036,7684,416036.0,29199.0,-895.0550359906825,-359.51276636106076,-725.8794364445938
416036,9446,416036,7682,416036.0,29172.0,-904.9699066340596,-363.7216216181422,-734.3342215462939
416036,9441,416036,7665,416036.0,29156.0,-914.9250690682851,-367.96290394216095,-742.8547191363591
416047,9435,416047,7646,416047.0,29135.0,-924.9232330587517,-372.23540258057426,-751.4411009022803
416047,9482,416047,7626,416047.0,29141.0,-934.9709575199334,-376.5377082176976,-760.0933938311914
416047,9627,416047,7621,416047.0,29100.0,-945.0777783409669,-380.86861312557915,-768.8116726840327
416047,9722,416047,7626,416047.0,29083.0,-955.2539832252419,-385.22742755918097,-777.596272975313
416047,9722,416047,7620,416047.0,29114.0,-965.5073651610556,-389.61406672408566,-786.4480730234125
416047,9649,416047,7619,416047.0,29090.0,-975.8405974922852,-394.0289751207227,-795.3685313838382
416057,9514,416057,7631,416057.0,29116.0,-986.2506834005463,-398.47300564471936,-804.3593845241982
416057,9399,416057,7651,416057.0,29114.0,-996.7306213827659,-402.9471846258497,-813.4222252839962
416057,9353,416057,7639,416057.0,29094.0,-1007.2723032766836,-407.4523000477619,-822.558083493881
416057,9344,416057,7610,416057.0,29099.0,-1017.8691839025457,-411.98856993302314,-831.7671463229644
416057,9324,416057,7625,416057.0,29043.0,-1028.5177977100475,-416.55565597922623,-841.0487417731546
416057,9321,416057,7603,416057.0,29061.0,-1039.2182804688932,-421.1528443537278,-850.401563055507
416067,9317,416067,7571,416067.0,29041.0,-1049.97444857982,-425.77921354617325,-859.8239436401972
416067,9415,416067,7556,416067.0,29012.0,-1060.793486595041,-430.4339754806036,-869.3140008863697
416067,9599,416067,7573,416067.0,29001.0,-1071.6845304879248,-435.1169453906759,-878.869800082584
416067,9590,416067,7574,416067.0,28986.0,-1082.655678988722,-439.82873371218164,-888.4896462140803
416067,9528,416067,7527,416067.0,28963.0,-1093.7108048115826,-444.5706579727017,-898.1723537620333
416067,9434,416067,7580,416067.0,28989.0,-1104.848298547312,-449.344740950934,-907.9174014964901
416078,9316,416078,7593,416078.0,29000.0,-1116.0621498592727,-454.1536270963125,-917.7248124275195
416078,9239,416078,7634,416078.0,28985.0,-1127.3443460722333,-458.9999719305767,-927.5946840577748
416078,9224,416078,7585,416078.0,28986.0,-1138.6874692036868,-463.88555934275564,-937.5266967844692
416078,9200,416078,7586,416078.0,28959.0,-1150.086568847911,-468.8108266706681,-947.5198857989232
416078,9196,416078,7556,416078.0,28949.0,-1161.5400298294371,-473.7749938186016,-957.5726501908009
416078,9182,416078,7553,416078.0,28941.0,-1173.0498213009919,-478.7764523658396,-967.6828819144157
416088,9216,416088,7556,416088.0,28934.0,-1184.6214329147801,-483.8130767269903,-977.8480628901508
416088,9385,416088,7535,416088.0,28876.0,-1196.263125644346,-488.8823562264263,-988.0653505457728
416088,9476,416088,7507,416088.0,28892.0,-1207.9837038009632,-493.9815060028078,-998.331862343923
416088,9458,416088,7503,416088.0,28866.0,-1219.789129783257,-499.1077733597933,-1008.6450521278261
416088,9361,416088,7528,416088.0,28877.0,-1231.6799362282718,-504.25875751526365,-1019.0028626756043
416088,9270,416088,7535,416088.0,28901.0,-1243.650945096675,-509.43234416374867,-1029.4035655011385
416098,9150,416098,7565,416098.0,28892.0,-1255.6929941723397,-514.6262063623243,-1039.845302137278
416098,9108,416098,7525,416098.0,28886.0,-1267.7955257009487,-519.8371956093201,-1050.3255131462834
416098,9072,416098,7512,416098.0,28859.0,-1279.9489931924336,-525.0610522263937,-1060.8406050282686
416098,9064,416098,7481,416098.0,28848.0,-1292.1464370822596,-530.2926334737998,-1071.3859583253425
416098,9060,416098,7485,416098.0,28831.0,-1304.3841789433886,-535.5264085940564,-1081.956115142068
416098,9023,416098,7428,416098.0,28778.0,-1316.6620027778006,-540.7569356005502,-1092.545057186238
416109,9114,416109,7422,416109.0,28773.0,-1328.9830562303139,-545.9793948596307,-1103.1466635457282
416109,9319,416109,7458,416109.0,28793.0,-1341.352795816983,-551.1901189227883,-1113.7551824455225
416109,9327,416109,7456,416109.0,28751.0,-1353.7761119625181,-556.3866634232647,-1124.3653468381794
416109,9290,416109,7465,416109.0,28774.0,-1366.2537852042055,-561.5673645147879,-1134.9722412686604
416109,9181,416109,7475,416109.0,28782.0,-1378.7806614317005,-566.7308241061037,-1145.5711266042235
416109,9071,416109,7497,416109.0,28785.0,-1391.3463212456727,-571.8754524705618,-1156.157058871548
416119,8961,416119,7475,416119.0,28794.0,-1403.937393636246,-576.9989792404529,-1166.7243185505438
416119,8935,416119,7486,416119.0,28774.0,-1416.54038505495,-582.0980785521228,-1177.2659014334258
416119,8921,416119,7438,416119.0,28768.0,-1429.1439577758044,-587.1682824598201,-1187.7732149254184
416119,8929,416119,7453,416119.0,28761.0,-1441.7400488110268,-592.2041766562236,-1198.2359779950725
416119,8914,416119,7448,416119.0,28712.0,-1454.3240321006447,-597.1996661521316,-1208.642268390323
416119,8953,416119,7430,416119.0,28697.0,-1466.8944240891444,-602.148076336633,-1218.9788004239551
416129,9128,416129,7394,416129.0,28677.0,-1479.4519547577006,-607.0422494858285,-1229.2314296625418
416129,9222,416129,7403,416129.0,28643.0,-1491.997188622378,-611.8748898973922,-1239.385658285767
416129,9186,416129,7395,416129.0,28661.0,-1504.5270235528997,-616.6389453880595,-1249.4270221670795
416129,9123,416129,7418,416129.0,28693.0,-1517.0320709162459,-621.3276914727767,-1259.3411739578587
416129,8993,416129,7448,416129.0,28677.0,-1529.4963499694722,-625.9344314329778,-1269.1134461052618
416129,8894,416129,7468,416129.0,28693.0,-1541.8990074206285,-630.4518327332555,-1278.7281796171028
416140,8793,416140,7411,416140.0,28621.0,-1554.2170872218514,-634.8712015454696,-1288.1683411744575
416140,8793,416140,7377,416140.0,28637.0,-1566.428335325234,-639.1823391667043,-1297.4156517119081
416140,8831,416140,7390,416140.0,28648.0,-1578.5130221759912,-643.3741222737344,-1306.4509254823633
416140,8799,416140,7376,416140.0,28624.0,-1590.4543303235791,-647.4351253463449,-1315.2541061715028
416140,8793,416140,7404,416140.0,28628.0,-1602.237985723125,-651.3537796833091,-1323.8040634163794
416140,8889,416140,7378,416140.0,28598.0,-1613.8518152646757,-655.1182069897113,-1332.0785267888816
416150,9056,416150,7351,416150.0,28561.0,-1625.2845146076759,-658.7161103922699,-1340.0542712556676
416150,9091,416150,7360,416150.0,28571.0,-1636.5228071337824,-662.1349762313973,-1347.7075305472872
416150,9027,416150,7371,416150.0,28558.0,-1647.5481378212085,-665.3623502509683,-1355.014390265169
416150,8947,416150,7369,416150.0,28579.0,-1658.3350294349261,-668.3858101533831,-1361.9508640041443
416150,8808,416150,7415,416150.0,28597.0,-1668.8518220971746,-671.1926389703449,-1368.4926249305122
416150,8723,416150,7388,416150.0,28590.0,-1679.063052326977,-673.7693332205941,-1374.6145028753658
416161,8700,416161,7393,416161.0,28566.0,-1688.932325093992,-676.1011628098245,-1380.2900391509463
416161,8687,416161,7377,416161.0,28553.0,-1698.4245284997478,-678.1720461978139,-1385.4914297744126
416161,8680,416161,7361,416161.0,28558.0,-1707.5068964198792,-679.9647089316838,-1390.189772959654
416161,8684,416161,7334,416161.0,28536.0,-1716.1492804444883,-681.4610167826053,-1394.3552959556214
416161,8722,416161,7321,416161.0,28498.0,-1724.3239984616316,-682.6424840390475,-1397.9575763276184
416161,8838,416161,7286,416161.0,28504.0,-1732.005062537766,-683.4908988471888,-1400.965981247723
416171,8959,416171,7285,416171.0,28466.0,-1739.1662669101547,-683.9889872615784,-1403.350234703762
416171,8951,416171,7335,416171.0,28486.0,-1745.778268502324,-684.1208858818261,-1405.0808930241506
416171,8885,416171,7325,416171.0,28492.0,-1751.806085543285,-683.8720715016201,-1406.129610290712
416171,8775,416171,7349,416171.0,28518.0,-1757.208541151144,-683.2288697059981,-1406.4690610222576
416171,8629,416171,7332,416171.0,28543.0,-1761.9398938411414,-682.1780306065132,-1406.0725149748032
416171,8590,416171,7334,416171.0,28503.0,-1765.952828567924,-680.7065806042456,-1404.9133280293422
416181,8580,416181,7343,416181.0,28508.0,-1769.2014558746746,-678.8018635917063,-1402.9647709691294
416181,8570,416181,7339,416181.0,28500.0,-1771.643181285005,-676.4515979733642,-1400.2003022421832
416181,8552,416181,7320,416181.0,28483.0,-1773.2394706749578,-673.6439276517053,-1396.593971893802
416181,8562,416181,7345,416181.0,28466.0,-1773.9561990245863,-670.3675827255338,-1392.1208502631903
416181,8657,416181,7292,416181.0,28475.0,-1773.7636667600736,-666.612130043443,-1386.7575551284012
416181,8860,416181,7327,416181.0,28491.0,-1772.63546316459,-662.3683058772162,-1380.4826817964884
416192,8871,416192,7288,416192.0,28446.0,-1770.5456314349854,-657.6284229513809,-1373.2770316537956
416192,8840,416192,7312,416192.0,28481.0,-1767.4654476419255,-652.3867387935275,-1365.1239069918947
416192,8783,416192,7371,416192.0,28510.0,-1763.361909015764,-646.6396035136033,-1356.0094322492578
416192,8645,416192,7362,416192.0,28541.0,-1758.198474861855,-640.3851342313258,-1345.9224590101735
416192,8572,416192,7374,416192.0,28546.0,-1751.9374095260137,-633.6226287625499,-1334.8540875881408
416192,8550,416192,7374,416192.0,28552.0,-1744.5428097905356,-626.3522650333695,-1322.7972912482437
416202,8554,416202,7374,416202.0,28549.0,-1735.983121861379,-618.5751388642842,-1309.746894298899
416202,8559,416202,7377,416202.0,28574.0,-1726.2325014795229,-610.2934256039052,-1295.6997929740685
416202,8572,416202,7386,416202.0,28567.0,-1715.2713277790294,-601.5105765294996,-1280.655200706776
416202,8614,416202,7415,416202.0,28579.0,-1703.0863068126168,-592.2314305406163,-1264.61487741312
416202,8800,416202,7406,416202.0,28570.0,-1689.6699306248083,-582.4621600823696,-1247.5834601799918
416202,8933,416202,7383,416202.0,28613.0,-1675.0184990161279,-572.2102717245166,-1229.5688629115293
416212,8910,416212,7402,416212.0,28644.0,-1659.1289268766598,-561.4849384420214,-1210.5824776453135
416212,8883,416212,7437,416212.0,28660.0,-1641.9962820350909,-550.2974124076896,-1190.639035616119
416212,8819,416212,7459,416212.0,28718.0,-1623.6135027302164,-538.6610302788029,-1169.7563037591083
416212,8717,416212,7515,416212.0,28751.0,-1603.9729508351977,-526.5907640663221,-1147.9546971248194
416212,8709,416212,7513,416212.0,28772.0,-1583.0689207226578,-514.1025721467877,-1125.2567843726235
416212,8711,416212,7545,416212.0,28789.0,-1560.9001771165626,-501.21282516439584,-1101.686922458852
416223,8742,416223,7516,416223.0,28817.0,-1537.4716356878744,-487.9380491582298,-1077.2711938296563
416223,8757,416223,7521,416223.0,28832.0,-1512.7950771219985,-474.2950946667554,-1052.0375056912342
416223,8793,416223,7552,416223.0,28879.0,-1486.889366005318,-460.3015734208554,-1026.0156805163801
416223,8915,416223,7555,416223.0,28872.0,-1459.7803056816088,-445.9761654248578,-999.2375004515487
416223,9144,416223,7579,416223.0,28897.0,-1431.4994363583137,-431.3386541890137,-971.7368442894003
416223,9216,416223,7587,416223.0,28935.0,-1402.0811422223626,-416.40989592367725,-943.5499868011378
416233,9226,416233,7605,416233.0,28978.0,-1371.5591553383454,-401.21182728557136,-914.7157901699342
416233,9173,416233,7642,416233.0,29034.0,-1339.9645922976983,-385.76744421633,-885.2755434991525
416233,9107,416233,7676,416233.0,29085.0,-1307.32637048482,-370.10060747832006,-855.2724977042659
416233,9042,416233,7709,416233.0,29139.0,-1273.6733472605665,-354.23560331444537,-824.7512300427125
416233,9069,416233,7720,416233.0,29157.0,-1239.0370923342907,-338.19662643166964,-793.7570210442556
416233,9110,416233,7703,416233.0,29208.0,-1203.4541408524508,-322.0075022494227,-762.3354508453795
416243,9145,416243,7734,416243.0,29219.0,-1166.967078554428,-305.6918257176325,-730.5322478666837
416243,9203,416243,7750,416243.0,29254.0,-1129.6247431314669,-289.27326701293794,-698.3933114544793
416243,9278,416243,7790,416243.0,29277.0,-1091.4820078763041,-272.7756426485765,-665.9648685506585
416243,9487,416243,7764,416243.0,29292.0,-1052.5989254561537,-256.22277955996964,-633.2937203997421
416243,9660,416243,7770,416243.0,29359.0,-1013.0385055544874,-239.63858423016916,-600.4274907682977
416243,9716,416243,7778,416243.0,29398.0,-972.8632337471322,-223.047488095029,-567.4146636875544
416254,9701,416254,7869,416254.0,29452.0,-932.1320214387757,-206.47480704011735,-534.3042816784948
416254,9654,416254,7887,416254.0,29510.0,-890.8992564589105,-189.9464273161658,-501.1454546674006
416254,9584,416254,7929,416254.0,29559.0,-849.2160596751934,-173.48794454937166,-467.9867974055088
416254,9582,416254,7949,416254.0,29578.0,-807.1328068383681,-157.12386213093345,-434.8758889209936
416254,9622,416254,7965,416254.0,29642.0,-764.7017118766819,-140.8771051779663,-401.858930518924
416254,9677,416254,7932,416254.0,29656.0,-721.9784783459895,-124.76888368081984,-368.9805684100061
416264,9715,416264,7964,416264.0,29685.0,-679.022861486665,-108.81899516095501,-336.2838025694015
416264,9796,416264,7979,416264.0,29733.0,-635.8986308282088,-93.04630306390607,-303.81003501655584
416264,9928,416264,7998,416264.0,29752.0,-592.6730892497437,-77.4689551399025,-271.59914886164836
416264,10174,416264,7991,416264.0,29765.0,-549.4155393219779,-62.104395835413015,-239.68957629791294
416264,10256,416264,7989,416264.0,29814.0,-506.19422931802035,-46.969530300866325,-208.11850197258332
416264,10294,416264,8046,416264.0,29868.0,-463.0728330651349,-32.08103944463244,-176.92202442164842
416274,10269,416274,8081,416274.0,29882.0,-420.10837792512564,-17.455396216224187,-146.1350173464881
416274,10197,416274,8127,416274.0,29944.0,-377.3514060891939,-3.1083255655735798,-115.79086562287489
416274,10140,416274,8113,416274.0,29993.0,-334.8479342590846,10.945932229466223,-85.92119835842607
416274,10186,416274,8122,416274.0,30021.0,-292.6422467569482,24.69500289609431,-56.55548637600384
416274,10208,416274,8123,416274.0,30066.0,-250.77922130452748,38.128254863293535,-27.720610356749035
416274,10259,416274,8178,416274.0,30078.0,-209.30550400556444,51.23654611252573,0.5593948917987746
416285,10319,416285,8142,416285.0,30083.0,-168.26984775034452,64.0122017523604,28.26334198936115
416285,10433,416285,8177,416285.0,30115.0,-127.72288976724963,76.44904655362939,55.37260271494131
416285,10605,416285,8161,416285.0,30098.0,-87.71606520785349,88.54223568519922,81.8706398929121
416285,10778,416285,8150,416285.0,30164.0,-48.29924634887584,100.28792837693186,107.74253408742845
416285,10826,416285,8180,416285.0,30182.0,-9.517449806591458,111.68286740919791,132.97471409472234
416285,10822,416285,8192,416285.0,30233.0,28.591948927711883,122.72405681432997,157.5550515983864
416295,10740,416295,8228,416295.0,30261.0,66.0000501262848,133.4087888423183,181.47318686605604
416295,10672,416295,8286,416295.0,30310.0,102.68504164087767,143.73504457412542,204.7209118414396
416295,10642,416295,8260,416295.0,30324.0,138.6294023897226,153.702142796616,227.29256442084045
416295,10691,416295,8289,416295.0,30338.0,173.81702987050585,163.31125674011605,249.18529656665146
416295,10710,416295,8236,416295.0,30347.0,208.23138714333254,172.56542835693563,270.3990525217687
416295,10764,416295,8261,416295.0,30367.0,241.85479733492843,181.4691205791023,290.9363098388924
416305,10792,416305,8263,416305.0,30381.0,274.6683458888881,190.0276454248135,310.8017876295162
416305,10915,416305,8253,416305.0,30358.0,306.65213210846946,198.2467875658666,330.00214624659236
416305,11145,416305,8271,416305.0,30386.0,337.78643926754603,206.13258474209545,348.54551838521604
416305,11236,416305,8305,416305.0,30403.0,368.05453019419747,213.69120413028543,366.4409766307617
416305,11211,416305,8292,416305.0,30425.0,397.4461258809929,220.92906018304376,383.6982508785935
416305,11183,416305,8299,416305.0,30455.0,425.95933749298797,227.85299969981224,400.32772772036174
416316,11075,416316,8327,416316.0,30492.0,453.6001232018589,234.47031714835754,416.3406242302872
416316,10983,416316,8376,416316.0,30538.0,480.37990131792435,240.78888738292096,431.74937224390135
416316,11009,416316,8351,416316.0,30514.0,506.3123294003151,246.8176502725447,446.56811360306665
416316,11028,416316,8347,416316.0,30512.0,531.4105927730939,252.5670139064979,460.81287491272076
416316,11058,416316,8305,416316.0,30531.0,555.6860864138341,258.0486742046228,474.501218983081
416316,11069,416316,8329,416316.0,30528.0,579.1480769799186,263.2749679755251,487.65175897596487
416326,11112,416326,8336,416326.0,30525.0,601.8036181060347,268.2582933142587,500.2838038518163
416326,11302,416326,8331,416326.0,30521.0,623.6578927189603,273.01091264936565,512.4169665576203
416326,11481,416326,8301,416326.0,30539.0,644.716006135948,277.54486686692746,524.0706898201952
416326,11464,416326,8307,416326.0,30563.0,664.9863248701986,281.8716176382319,535.2639216478647
416326,11434,416326,8352,416326.0,30571.0,684.4833493692561,286.0016320816819,546.0150815800796
416326,11368,416326,8375,416326.0,30597.0,703.2282626154893,289.9444557965851,556.3421976781576
416336,11256,416336,8408,416336.0,30614.0,721.247352439399,293.7093488078501,566.2630841459502
416336,11229,416336,8377,416336.0,30654.0,738.569318743205,297.30600043930474,575.7956075673039
416336,11215,416336,8378,416336.0,30627.0,755.2224422819252,300.7448189041312,584.9580209466576
416336,11249,416336,8364,416336.0,30633.0,771.2325652651314,304.0367143480288,593.7690776073882
416336,11248,416336,8364,416336.0,30634.0,786.6221641971565,307.1926846402213,602.2477685343988
416336,11260,416336,8351,416336.0,30651.0,801.4100466645532,310.22344034113826,610.4129679045079
416347,11360,416347,8346,416347.0,30621.0,815.6113414902468,313.1390583802621,618.2831946413246
416347,11593,416347,8339,416347.0,30602.0,829.2384616158306,315.9486256545872,625.8762465472689
416347,11656,416347,8360,416347.0,30667.0,842.3039215470865,318.65994710623613,633.2086517833739
416347,11630,416347,8369,416347.0,30645.0,854.8239707612588,321.27947381689194,640.295418775087
416347,11543,416347,8415,416347.0,30677.0,866.8205919131501,323.8125520546067,647.150213534354
416347,11444,416347,8413,416347.0,30693.0,878.3208109616139,326.26395461170944,653.7855955992247
416357,11353,416357,8399,416357.0,30709.0,889.3541381213784,328.6384109356111,660.2132534615987
416357,11351,416357,8394,416357.0,30717.0,899.9494501719446,330.94075341135704,666.4442977641063
416357,11364,416357,8406,416357.0,30713.0,910.1325153039784,333.1757140453285,672.4894520145485
416357,11353,416357,8393,416357.0,30701.0,919.924726250676,335.3477255469161,678.3590068947155
416357,11385,416357,8400,416357.0,30711.0,929.3426584159206,337.4608177266855,684.0625499634355
416357,11419,416357,8414,416357.0,30733.0,938.3980030570781,339.518544312553,689.608693036352
416368,11589,416368,8386,416368.0,30705.0,947.0981623581274,341.52395826988766,695.004979073788
416368,11742,416368,8387,416368.0,30714.0,955.4482466857794,343.47950397197394,700.257772004087
416368,11752,416368,8383,416368.0,30704.0,963.4544110271286,345.3867229167075,705.3719471106274
416368,11705,416368,8405,416368.0,30729.0,971.1268284602627,347.2459995717023,710.350572013482
416368,11615,416368,8439,416368.0,30750.0,978.4805276515149,349.05663264600014,715.194835107219
416368,11502,416368,8469,416368.0,30816.0,985.533962500986,350.81733093799073,719.904383256807
416378,11454,416378,8449,416378.0,30811.0,992.3062646185717,352.52692331086155,724.4780808536852
416378,11456,416378,8444,416378.0,30787.0,998.8143902809031,354.18479713884506,728.9147450202045
416378,11478,416378,8453,416378.0,30811.0,1005.0712379110855,355.79087300498304,733.2133227334077
416378,11465,416378,8446,416378.0,30793.0,1011.0849521040489,357.3454313701102,737.3726616849622
416378,11474,416378,8415,416378.0,30809.0,1016.8587763295332,358.8489531163509,741.3912998965013
416378,11586,416378,8423,416378.0,30801.0,1022.3911383586103,360.3017958744566,745.267326750936
416388,11781,416388,8395,416388.0,30796.0,1027.6767696987608,361.7037223158994,748.9982304974665
416388,11834,416388,8401,416388.0,30782.0,1032.7095754660854,363.0534544459259,752.5806553973644
416388,11835,416388,8428,416388.0,30818.0,1037.4861438104965,364.34837735998576,756.010103002378
416388,11761,416388,8458,416388.0,30837.0,1042.0078470514347,365.58462118977775,759.2808751669932
416388,11657,416388,8490,416388.0,30888.0,1046.2806704839184,366.75763060384963,762.3864896469076
416388,11556,416388,8471,416388.0,30853.0,1050.3131937956603,367.86292449599046,765.3203660944662
416399,11548,416399,8489,416399.0,30900.0,1054.113716553281,368.89661090197035,768.0763394622184
416399,11540,416399,8474,416399.0,30903.0,1057.6877862743802,369.8555399081347,770.6489342405182
416399,11569,416399,8464,416399.0,30888.0,1061.0369019158652,370.7372424072446,773.0336162639198
416399,11574,416399,8470,416399.0,30892.0,1064.1582347754809,371.5397398015833,775.2268988168296
416399,11600,416399,8486,416399.0,30903.0,1067.0448426277828,372.2613744918897,777.2262141439232
416399,11760,416399,8462,416399.0,30891.0,1069.6863407602705,372.90081097442044,779.0297973752138
416409,11928,416409,8475,416409.0,30886.0,1072.070817348555,373.4570517760702,780.6366072384103
416409,11956,416409,8434,416409.0,30875.0,1074.1882869169758,373.9292739964591,782.0461136289512
416409,11899,416409,8451,416409.0,30898.0,1076.0340713508076,374.31649458812274,783.2580249313653
416409,11788,416409,8508,416409.0,30903.0,1077.61002836577,374.61735177413516,784.2721979608302
416409,11677,416409,8531,416409.0,30955.0,1078.9232025928068,374.83048630497865,785.0888823166479
416409,11627,416409,8501,416409.0,30949.0,1079.982981925079,374.95538902948886,785.7092789141614
416419,11629,416419,8503,416419.0,30914.0,1080.7982524420975,374.99291544873176,786.1360706750986
416419,11623,416419,8514,416419.0,30908.0,1081.3755979115922,374.94524263114397,786.3734234532631
416419,11627,416419,8483,416419.0,30937.0,1081.7185881358237,374.8157076068788,786.4265724625507
416419,11639,416419,8478,416419.0,30926.0,1081.8276196630868,374.60862228880103,786.3016173826063
416419,11712,416419,8459,416419.0,30882.0,1081.7001144796254,374.32890089629507,786.0055340733481
416419,11915,416419,8414,416419.0,30877.0,1081.3316453301945,373.9815179629298,785.5458603509855
416430,11962,416430,8452,416430.0,30878.0,1080.718631273792,373.57088177432377,784.9300616784442
416430,11945,416430,8495,416430.0,30900.0,1079.861737432873,373.10051568493185,784.1651188914709
416430,11868,416430,8477,416430.0,30922.0,1078.7679249415562,372.5734276335499,783.2576129516824
416430,11757,416430,8514,416430.0,30935.0,1077.4501776402944,371.99277918759,782.2141790082992
416430,11639,416430,8497,416430.0,30950.0,1075.9253849171616,371.3623602254205,781.0420786114239
416430,11628,416430,8480,416430.0,30942.0,1074.2113638326614,370.6868124841229,779.749679390104
416440,11627,416440,8478,416440.0,30957.0,1072.324292942169,369.97155125487205,778.3467508880098
416440,11626,416440,8477,416440.0,30901.0,1070.2774072391599,369.22248626309823,776.8445256908259
416440,11605,416440,8469,416440.0,30909.0,1068.0806319509056,368.44581071624583,775.2554162503591
416440,11637,416440,8456,416440.0,30904.0,1065.7404646842926,367.6478583321791,773.5925044233678
416440,11792,416440,8446,416440.0,30869.0,1063.2603180941921,366.83488042073105,771.8691170076862
416440,11949,416440,8432,416440.0,30855.0,1060.642348879072,366.01272460454584,770.0984200789629
