c_ts,c_val,d_ts,d_val,e_ts,e_val,c_val_filtered,d_val_filtered,e_val_filtered
103550,14609,103550,24480,103550.0,58862.0,184.5439623739643,185.5381708132708,622.3591147760994
103550,14624,103550,24488,103550.0,58883.0,185.8943956898344,184.92334874754937,623.1072314118937
103550,14628,103550,24485,103550.0,58874.0,187.2564838165596,184.26393823132412,623.652557686768
103550,14633,103550,24495,103550.0,58861.0,188.6244073895135,183.5583443700097,623.9883085056379
103550,14634,103550,24469,103550.0,58895.0,189.9924908404355,182.80520617080992,624.1085172647348
103550,14633,103550,24509,103550.0,58868.0,191.35533186868795,182.003444905723,624.0081960126538
103560,14642,103560,24490,103560.0,58870.0,192.70787236711445,181.15237482530935,623.6835454429225
103560,14631,103560,24524,103560.0,58816.0,194.04545549738484,180.25198148809957,623.1319254844874
103560,14615,103560,24436,103560.0,58844.0,195.36380836615476,179.30312892572553,622.351499592083
103560,14586,103560,24443,103560.0,58838.0,196.65879260382158,178.30727268612662,621.3409130447361
103560,14617,103560,24436,103560.0,58833.0,197.925969533047,177.26574348927204,620.0993068465477
103560,14615,103560,24438,103560.0,58756.0,199.16034635794028,176.1792105937885,618.6263394311666
103571,14644,103571,24482,103571.0,58838.0,200.3565321997265,175.04765672669177,616.9218579996184
103571,14644,103571,24511,103571.0,58830.0,201.5091462887837,173.87085241198025,614.9857476920024
103571,14641,103571,24459,103571.0,58829.0,202.6132174227251,172.64910101168658,612.818424049763
103571,14636,103571,24451,103571.0,58822.0,203.66438867720083,171.38359474670438,610.4214264095334
103571,14654,103571,24480,103571.0,58825.0,204.6589457398197,170.07618335810534,607.7976690117671
103571,14669,103571,24483,103571.0,58806.0,205.5939199465839,168.7292393849301,604.9515379723358
103581,14637,103581,24469,103581.0,58798.0,206.46733089741412,167.34592153183183,601.8889271088908
103581,14627,103581,24421,103581.0,58821.0,207.2782409025108,165.93030583427375,598.6172347375086
103581,14611,103581,24424,103581.0,58763.0,208.02642907041914,164.48700405989965,595.1454305263851
103581,14616,103581,24408,103581.0,58747.0,208.71194208326577,163.0205545615923,591.4839796742535
103581,14613,103581,24382,103581.0,58716.0,209.33481106257625,161.5349497084374,587.6443731825768
103581,14619,103581,24426,103581.0,58749.0,209.89497500225127,160.03333820488058,583.6385897037696
103592,14636,103592,24467,103592.0,58758.0,210.39236219948154,158.5181166852338,579.4790269043932
103592,14628,103592,24438,103592.0,58779.0,210.82709932814885,156.9915865414692,575.1790092101555
103592,14622,103592,24425,103592.0,58709.0,211.1997145885834,155.45658699742842,570.7534101159096
103592,14628,103592,24431,103592.0,58712.0,211.511187195371,153.91656401513347,566.2187713867349
103592,14627,103592,24437,103592.0,58710.0,211.76292615654643,152.3754149212788,561.5929510430693
103592,14648,103592,24425,103592.0,58692.0,211.95685032690506,150.8375154083721,556.894876352467
103602,14626,103602,24428,103602.0,58656.0,212.09557778272426,149.30781747927364,552.1444801753191
103602,14609,103602,24397,103602.0,58660.0,212.18251398690512,147.79181986801075,547.3624881623638
103602,14602,103602,24392,103602.0,58617.0,212.2216443821397,146.29535208867583,542.5700784198561
103602,14596,103602,24358,103602.0,58615.0,212.21716891632408,144.82418205543433,537.7885526092723
103602,14564,103602,24374,103602.0,58594.0,212.17316860456313,143.38356041766406,533.0390177981353
103602,14605,103602,24381,103602.0,58582.0,212.0933141149624,141.97794022690772,528.3421309906175
103612,14615,103612,24397,103612.0,58585.0,211.9808165966692,140.61106604464237,523.7179522007224
103612,14604,103612,24391,103612.0,58560.0,211.83876431441817,139.28632711178014,519.1858993272684
103612,14594,103612,24382,103612.0,58585.0,211.67045440456033,138.0070628015689,514.7647920365555
103612,14619,103612,24401,103612.0,58555.0,211.4794464466423,136.776686675882,510.4729860438798
103612,14598,103612,24413,103612.0,58555.0,211.26958665758966,135.59882533292014,506.32853039678537
103612,14584,103612,24367,103612.0,58509.0,211.04506532689783,134.47755288072858,502.3491508608415
103623,14578,103623,24375,103623.0,58518.0,210.81027464075248,133.41739914542055,498.5519879909208
103623,14583,103623,24347,103623.0,58466.0,210.56953759048432,132.42301613003104,494.9532249031479
103623,14580,103623,24334,103623.0,58460.0,210.3269709081888,131.49875352089035,491.56766490624227
103623,14580,103623,24332,103623.0,58459.0,210.08650212796766,130.64825844773466,488.40829692223645
103623,14577,103623,24343,103623.0,58501.0,209.8519131451335,129.87418840526283,485.48615784755896
103623,14593,103623,24343,103623.0,58484.0,209.6268919312901,129.17818697556822,482.8107261822738
103633,14578,103633,24366,103633.0,58477.0,209.4151469211992,128.56109190924582,480.3905065782542
103633,14577,103633,24350,103633.0,58467.0,209.2205110959573,128.02324194312595,478.2333233451193
103633,14570,103633,24370,103633.0,58465.0,209.04691826511103,127.56475482815956,476.3463287015065
103633,14577,103633,24363,103633.0,58484.0,208.89831618159994,127.18573000576028,474.7360351412846
103633,14568,103633,24363,103633.0,58459.0,208.77863778487887,126.88641235110114,473.40851333839925
103633,14561,103633,24325,103633.0,58401.0,208.69179604102268,126.66721781494087,472.3694720543334
103643,14557,103643,24330,103643.0,58398.0,208.64160713759904,126.52847524793854,471.6238252246111
103643,14544,103643,24338,103643.0,58417.0,208.63164190692638,126.47006045924266,471.1750253140064
103643,14552,103643,24342,103643.0,58380.0,208.66506606675316,126.49127260425098,471.02476382858555
103643,14551,103643,24318,103643.0,58370.0,208.74455011250245,126.59092659828174,471.1729093567418
103643,14548,103643,24348,103643.0,58426.0,208.87228923318423,126.76738837629757,471.61739774009374
103643,14557,103643,24381,103643.0,58411.0,209.05007245213739,127.01868457615736,472.3544224532039
103654,14543,103654,24332,103654.0,58430.0,209.27934627941252,127.34288906560474,473.3790163192106
103654,14549,103654,24348,103654.0,58389.0,209.5612424603783,127.73839174755929,474.6855045794373
103654,14573,103654,24338,103654.0,58395.0,209.89661631740404,128.20377650046487,476.2675299590816
103654,14557,103654,24375,103654.0,58373.0,210.28622921081418,128.73771304741115,478.1177956148191
103654,14542,103654,24301,103654.0,58419.0,210.73094152303577,129.33904695753424,480.2278641294614
103654,14547,103654,24328,103654.0,58364.0,211.231653055718,130.00668510312605,482.5882131356389
103664,14537,103664,24297,103664.0,58372.0,211.7890980681916,130.73915923575424,485.18828677963614
103664,14522,103664,24342,103664.0,58383.0,212.4036770637114,131.53429472414632,488.01632274519886
103664,14525,103664,24320,103664.0,58388.0,213.07526459026855,132.38924556323948,491.0592688521099
103664,14560,103664,24371,103664.0,58411.0,213.8030841117688,133.3007904904888,494.303022333868
103664,14546,103664,24333,103664.0,58376.0,214.58588875152032,134.26572232834636,497.7327696018041
103664,14536,103664,24346,103664.0,58434.0,215.42227591444913,135.28111613698576,501.3332144541719
103674,14538,103674,24337,103674.0,58427.0,216.31075738968144,136.3443386639405,505.08885102736537
103674,14534,103674,24310,103674.0,58414.0,217.24962949817976,137.4528882268595,508.9843892323493
103674,14560,103674,24349,103674.0,58411.0,218.2369327241833,138.60418653826366,513.0049931855297
103674,14530,103674,24345,103674.0,58428.0,219.27057171475673,139.79552290205987,517.1362258648152
103674,14543,103674,24320,103674.0,58370.0,220.34840750343596,141.02421764717923,521.3639412889652
103674,14519,103674,24294,103674.0,58390.0,221.46817226914493,142.28758799946758,525.6740356423554
103685,14516,103685,24322,103685.0,58384.0,222.62725526873092,143.58254446294524,530.0520456609502
103685,14533,103685,24316,103685.0,58368.0,223.82248346479287,144.9052852782124,534.4828942466024
103685,14523,103685,24305,103685.0,58332.0,225.0500507371321,146.251309645334,538.9506765217748
103685,14541,103685,24301,103685.0,58398.0,226.30562208871484,147.6154260403184,543.4383147973663
103685,14541,103685,24363,103685.0,58405.0,227.5845036864991,148.99172339024912,547.9275423505505
103685,14543,103685,24323,103685.0,58393.0,228.88183232837605,150.3738452565683,552.3994270270852
103695,14550,103695,24371,103695.0,58421.0,230.19274400987752,151.75546400329358,556.8348908703767
103695,14543,103695,24350,103695.0,58441.0,231.51248936488034,153.13063742561263,561.2150361496829
103695,14551,103695,24358,103695.0,58415.0,232.83650625324466,154.49404196560224,565.5215273109866
103695,14540,103695,24326,103695.0,58387.0,234.16044964673065,155.84102806234833,569.7367866077709
103695,14526,103695,24306,103695.0,58367.0,235.48014050882296,157.16734805268828,573.8436498495003
103695,14523,103695,24307,103695.0,58404.0,236.79137512128887,158.46863367683878,577.8247924650523
103705,14518,103705,24303,103705.0,58413.0,238.0896597531338,159.73991474696948,581.6625517658736
103705,14537,103705,24313,103705.0,58381.0,239.37004889692446,160.9753976864871,585.3391965609128
103705,14525,103705,24303,103705.0,58425.0,240.62717423857546,162.16845148699917,588.8371610214236
103705,14540,103705,24368,103705.0,58436.0,241.85537547595993,163.31175674788318,592.1392231242278
103705,14550,103705,24326,103705.0,58457.0,243.04885423234708,164.3977070524703,595.228976312014
103705,14550,103705,24342,103705.0,58427.0,244.20189374181993,165.41884030247826,598.0914168300196
103716,14557,103716,24347,103716.0,58425.0,245.3091080629183,166.36798657477163,600.7131898994928
103716,14556,103716,24416,103716.0,58429.0,246.3656258861042,167.2384484358597,603.0824769916107
103716,14538,103716,24363,103716.0,58400.0,247.36717065475273,168.0245741613371,605.1888200923293
103716,14550,103716,24377,103716.0,58407.0,248.3100047754706,168.72228694639617,607.0229561922056
103716,14536,103716,24310,103716.0,58416.0,249.1908088853162,169.32900971475027,608.5766603141263
103716,14525,103716,24312,103716.0,58405.0,250.00656915078608,169.8430322028604,609.8427552254947
103726,14524,103726,24303,103726.0,58343.0,250.75440390057796,170.26272919983936,610.8151140579146
103726,14513,103726,24324,103726.0,58344.0,251.43133980953857,170.5860711769732,611.4882331076601
103726,14527,103726,24329,103726.0,58372.0,252.03415308040348,170.81060949923858,611.8566016725038
103726,14525,103726,24318,103726.0,58386.0,252.55934857402045,170.9337177233603,611.9145834753521
103726,14530,103726,24336,103726.0,58353.0,253.00326889647744,170.9527915719812,611.656834134913
103726,14543,103726,24323,103726.0,58371.0,253.36226677083403,170.86536111906662,611.0786275059778
103736,14545,103736,24355,103736.0,58347.0,253.6329286653856,170.66923668979842,610.1758907054842
103736,14547,103736,24346,103736.0,58356.0,253.8123336017702,170.36276545182278,608.9451867689575
103736,14532,103736,24337,103736.0,58328.0,253.89822582556275,169.94511376755133,607.3837077991096
103736,14526,103736,24333,103736.0,58323.0,253.8889982206717,169.41636691351064,605.4891896701764
103736,14517,103736,24322,103736.0,58319.0,253.7835168949112,168.77741785879653,603.2597584934554
103736,14508,103736,24288,103736.0,58268.0,253.58089626997443,168.02973414306837,600.6937473653664
103747,14497,103747,24273,103747.0,58298.0,253.28027530718444,167.17493604524208,597.7894308400583
103747,14524,103747,24277,103747.0,58299.0,252.88065156343515,166.2142446879585,594.5448512181533
103747,14511,103747,24326,103747.0,58283.0,252.3809147654681,165.14820882095177,590.957991691786
103747,14511,103747,24306,103747.0,58301.0,251.78003136394312,163.9769976124221,587.0271001020042
103747,14516,103747,24290,103747.0,58281.0,251.0771655860458,162.70088503922943,582.7509448034032
103747,14513,103747,24301,103747.0,58287.0,250.271739040208,161.3203895796928,578.1290431572979
103757,14524,103757,24316,103757.0,58279.0,249.3635422247604,159.83622502143365,573.1618626842644
103757,14485,103757,24277,103757.0,58236.0,248.35283117355328,158.2493983013407,567.850926077286
103757,14496,103757,24276,103757.0,58228.0,247.2402392510148,156.56122567301094,562.1986783938148
103757,14469,103757,24262,103757.0,58192.0,246.02651015914404,154.77306479679189,556.2081062558468
103757,14457,103757,24267,103757.0,58217.0,244.7121877267483,152.88601567548125,549.8823781319702
103757,14462,103757,24285,103757.0,58177.0,243.2973069815195,150.9008453814933,543.2247302362252
103767,14486,103767,24231,103767.0,58156.0,241.78124029212847,148.81807785218342,536.2384603254742
103767,14489,103767,24266,103767.0,58196.0,240.1629090450312,146.63796945420268,528.92685727048
103767,14491,103767,24271,103767.0,58154.0,238.44122528305567,144.3604168439952,521.2932969914916
103767,14483,103767,24291,103767.0,58149.0,236.6154415628741,141.985179595798,513.341522858274
103767,14482,103767,24251,103767.0,58118.0,234.68529370813008,139.5123164100539,505.0757198599659
103767,14496,103767,24281,103767.0,58136.0,232.65106194785426,136.94239980519177,496.5003965830664
103778,14474,103778,24290,103778.0,58107.0,230.5136860340757,134.2765902337419,487.62039662682633
103778,14465,103778,24284,103778.0,58108.0,228.27483718808662,131.51690755986067,478.44105954123705
103778,14441,103778,24226,103778.0,58072.0,225.93676673237354,128.6664691524692,468.96833279959947
103778,14428,103778,24199,103778.0,58030.0,223.50195563910054,125.72916228900979,459.20866463411943
103778,14419,103778,24195,103778.0,58040.0,220.97271468012804,122.70882160214421,449.16866134820646
103778,14423,103778,24196,103778.0,58030.0,218.35088485688414,119.60853070831743,438.85482257048176
103788,14425,103788,24207,103788.0,57989.0,215.63774934189985,116.43041217024867,428.2735687476695
103788,14430,103788,24193,103788.0,58035.0,212.8341508008207,113.1757599884726,417.4313684076486
103788,14428,103788,24237,103788.0,57980.0,209.94071084069444,109.84529801315102,406.33494069255164
103788,14440,103788,24225,103788.0,57940.0,206.9580706036053,106.43958446529356,394.9914439002261
103788,14425,103788,24194,103788.0,57955.0,203.88712819532688,102.9594492083431,383.4083199439302
103788,14431,103788,24229,103788.0,57917.0,200.72922232979877,99.4061520928808,371.59302519729476
103798,14432,103798,24218,103798.0,57912.0,197.48625001327483,95.78141816842913,359.55299151137876
103798,14408,103798,24207,103798.0,57909.0,194.16076071863296,92.08763708510384,347.29569775873074
103798,14385,103798,24182,103798.0,57859.0,190.7559075865103,88.32797366132911,334.8287524950697
103798,14377,103798,24140,103798.0,57839.0,187.27513819465256,84.50609407605992,322.15984785353396
103798,14367,103798,24137,103798.0,57829.0,183.721804906042,80.6255723441173,309.29649537701164
103798,14356,103798,24140,103798.0,57794.0,180.09889908249667,76.68930682749252,296.2457863819668
103809,14371,103809,24158,103809.0,57812.0,176.4089313182099,72.69932510697166,283.01433243358383
103809,14352,103809,24170,103809.0,57804.0,172.65395759632182,68.65705402242514,269.6084261715205
103809,14357,103809,24125,103809.0,57749.0,168.8356845025264,64.56373708846635,256.0343635761209
103809,14365,103809,24156,103809.0,57716.0,164.95557247729718,60.42060663228412,242.29849843487432
103809,14363,103809,24154,103809.0,57773.0,161.01501394849973,56.22889560443406,228.40698832416376
103809,14371,103809,24186,103809.0,57726.0,157.01561462394724,51.990101856016366,214.3658976969699
103819,14335,103819,24134,103819.0,57716.0,152.9594200433992,47.70645829119658,200.1817145329585
103819,14321,103819,24108,103819.0,57647.0,148.84887889081335,43.381076603095494,185.8615619254324
103819,14318,103819,24110,103819.0,57619.0,144.68653490429787,39.01754798041023,171.41280892477744
103819,14307,103819,24105,103819.0,57603.0,140.47472455474954,34.619462092950954,156.84241431887733
103819,14302,103819,24046,103819.0,57597.0,136.215446357292,30.19014173025201,142.15648678133277
103819,14301,103819,24076,103819.0,57572.0,131.91032483910493,25.732315732083407,127.36024936768194
103830,14321,103830,24107,103830.0,57569.0,127.56068123968527,21.24785962379417,112.45819971453875
103830,14293,103830,24101,103830.0,57577.0,123.16775945649755,16.738099677768503,97.45434838899541
103830,14294,103830,24104,103830.0,57556.0,118.73292303048999,12.204459749963064,82.35262427555472
103830,14290,103830,24068,103830.0,57509.0,114.25767337181426,7.64884170143614,67.15726877191287
103830,14293,103830,24074,103830.0,57497.0,109.74364905175963,3.0735875731777185,51.87287462430322
103830,14277,103830,24041,103830.0,57472.0,105.19272146117967,-1.518772154578926,36.504156277420975
103840,14250,103840,24080,103840.0,57494.0,100.60701881135668,-6.125727281878568,21.05586847046834
103840,14241,103840,24039,103840.0,57436.0,95.98871449414347,-10.744787724017755,5.533018628409536
103840,14234,103840,24032,103840.0,57385.0,91.33969306115364,-15.373418228073234,-10.05901566615887
103840,14247,103840,24018,103840.0,57381.0,86.66136493109144,-20.009179230739136,-25.71483260498428
103840,14225,103840,24022,103840.0,57365.0,81.95472083169656,-24.649976801329274,-41.42946151657554
103840,14248,103840,23990,103840.0,57376.0,77.2204903394231,-29.294211281585433,-57.198393575234036
103850,14230,103850,24004,103850.0,57365.0,72.459323531958,-33.940893495436455,-73.01718802348137
103850,14238,103850,23997,103850.0,57311.0,67.67199774845739,-38.589736675208826,-88.88101630926735
103850,14227,103850,24035,103850.0,57283.0,62.859592767273796,-43.241023790116174,-104.78457332055461
103850,14205,103850,24032,103850.0,57314.0,58.02356556505782,-47.895149105002645,-120.72230326508793
103850,14212,103850,24048,103850.0,57275.0,53.16569223960204,-52.55198372356642,-136.68836563793104
103850,14205,103850,24003,103850.0,57240.0,48.28798228055075,-57.21038688415359,-152.67631920272163
103861,14170,103861,23973,103861.0,57209.0,43.39264810153344,-61.86819086192074,-168.67908475295906
103861,14174,103861,23971,103861.0,57142.0,38.4819698943258,-66.52267772981449,-184.68934674133664
103861,14161,103861,23936,103861.0,57145.0,33.558047638603114,-71.17116960999371,-200.70016532745478
103861,14148,103861,23933,103861.0,57101.0,28.622634470766798,-75.81148358052778,-216.7055137351549
103861,14148,103861,23961,103861.0,57133.0,23.67704932061639,-80.44220882074342,-232.70047603635487
103861,14155,103861,23956,103861.0,57125.0,18.722150544984174,-85.06262190615402,-248.68098818487408
103871,14161,103871,23936,103871.0,57102.0,13.758487888620209,-89.6723313685896,-264.6432499631421
103871,14133,103871,23958,103871.0,57059.0,8.786567981365579,-94.27104415078682,-280.5832653458732
103871,14147,103871,23929,103871.0,57060.0,3.8070006213959573,-98.8584823056652,-296.4968089019335
103871,14144,103871,23980,103871.0,57040.0,-1.1794559631164816,-103.43422936918554,-312.3795249335009
103871,14116,103871,23937,103871.0,57010.0,-6.171805189979011,-107.9974295193455,-328.2268761752217
103871,14115,103871,23949,103871.0,56986.0,-11.168805058140379,-112.5464933428672,-344.0341020741745
103881,14084,103881,23872,103881.0,56939.0,-16.169159327708257,-117.07913606009413,-359.79637905600487
103881,14085,103881,23879,103881.0,56912.0,-21.17179568050659,-121.59289801474736,-375.50917888753395
103881,14086,103881,23876,103881.0,56921.0,-26.17608114680462,-126.0858317980908,-391.16864518269256
103881,14086,103881,23891,103881.0,56889.0,-31.181839243557874,-130.55682384391423,-406.7716947614392
103881,14078,103881,23907,103881.0,56940.0,-36.18919313102231,-135.00539068122168,-422.3157326872148
103881,14069,103881,23870,103881.0,56880.0,-41.198423002633206,-139.4312676072911,-437.7980883496688
103892,14085,103892,23854,103892.0,56816.0,-46.20988627756816,-143.83424716198004,-453.2156118354593
103892,14065,103892,23879,103892.0,56837.0,-51.22388726301443,-148.21436455405586,-468.5648920906108
103892,14052,103892,23903,103892.0,56792.0,-56.24054484781567,-152.57192614277096,-483.8427023563854
103892,14083,103892,23895,103892.0,56820.0,-61.25975131230081,-156.90705111123157,-499.04605980606846
103892,14038,103892,23869,103892.0,56765.0,-66.28108464153217,-161.2191472609993,-514.1719865112755
103892,14048,103892,23815,103892.0,56734.0,-71.30370672830423,-165.50690376081644,-529.2173725372056
103902,14023,103902,23810,103902.0,56695.0,-76.32643973526785,-169.7688919371421,-544.1792144715512
103902,14029,103902,23817,103902.0,56691.0,-81.34792148277052,-174.00429654682245,-559.0550837829476
103902,13988,103902,23814,103902.0,56664.0,-86.36673871509947,-178.2132392629934,-573.8434325060925
103902,14013,103902,23835,103902.0,56665.0,-91.38160304776386,-182.3966498755638,-588.5436230055686
103902,13977,103902,23853,103902.0,56656.0,-96.39150690612041,-186.55587543413856,-603.1557668694322
103902,14026,103902,23832,103902.0,56626.0,-101.39571783748676,-190.6921588520152,-617.680466051698
103912,13979,103912,23840,103912.0,56617.0,-106.39358087609384,-194.8062378769356,-632.1186262613471
103912,13991,103912,23825,103912.0,56623.0,-111.38430707585582,-198.89820605565342,-646.4713527053864
103912,13981,103912,23852,103912.0,56632.0,-116.36693037106593,-202.96744544423376,-660.7396569878333
103912,13964,103912,23800,103912.0,56563.0,-121.34034577416793,-207.0125035704025,-674.9239913287347
103912,13956,103912,23775,103912.0,56566.0,-126.30337025607781,-211.03117370567986,-689.0240714880797
103912,13938,103912,23785,103912.0,56511.0,-131.25489515183926,-215.0209525329609,-703.0391300474444
103923,13926,103923,23766,103923.0,56500.0,-136.19409977412965,-218.9795008901409,-716.968304599478
103923,13938,103923,23753,103923.0,56447.0,-141.12063115509795,-222.904844583554,-730.8110374232263
103923,13911,103923,23752,103923.0,56492.0,-146.03465887570803,-226.79551771552946,-744.5674097715967
103923,13929,103923,23743,103923.0,56438.0,-150.93683535079157,-230.65071739520567,-758.2381578260511
103923,13912,103923,23792,103923.0,56507.0,-155.82823037300415,-234.47027155612938,-771.8243055624739
103923,13921,103923,23765,103923.0,56430.0,-160.71021763701157,-238.25428027320714,-785.3265946253889
103933,13923,103933,23746,103933.0,56423.0,-165.58430511837634,-242.00269367327235,-798.745067363531
103933,13923,103933,23756,103933.0,56402.0,-170.45190319640506,-245.71523725619323,-812.0790924044384
103933,13918,103933,23763,103933.0,56400.0,-175.31406488094922,-249.39151059232597,-825.3275514767417
103933,13905,103933,23746,103933.0,56362.0,-180.1713114311243,-253.03089716222945,-838.4888475205487
103933,13887,103933,23728,103933.0,56348.0,-185.02362428493973,-256.6324573692253,-851.5609000709237
103933,13854,103933,23709,103933.0,56328.0,-189.87064983027386,-260.1950900902525,-864.5412736778717
103943,13879,103943,23693,103943.0,56295.0,-194.71204416327026,-263.71791017786666,-877.4273463429174
103943,13862,103943,23700,103943.0,56265.0,-199.54767249987424,-267.2006254081679,-890.2165322193111
103943,13852,103943,23704,103943.0,56262.0,-204.37756206530543,-270.6437085046127,-902.9065869940634
103943,13863,103943,23719,103943.0,56240.0,-209.2018270285755,-274.0482711553511,-915.4958179494868
103943,13854,103943,23694,103943.0,56230.0,-214.02060191107086,-277.4157756004568,-927.9831016408425
103943,13837,103943,23701,103943.0,56229.0,-218.83392680489925,-280.74785088786285,-940.3677962685235
103954,13850,103954,23704,103954.0,56222.0,-223.64169570418693,-284.04626232385937,-952.6495508112212
103954,13840,103954,23710,103954.0,56213.0,-228.44362545306922,-287.31282157847426,-964.828002853784
103954,13850,103954,23698,103954.0,56199.0,-233.23911175188965,-290.5491807275808,-976.9024825056258
103954,13806,103954,23661,103954.0,56154.0,-238.0270855624678,-293.75675504589566,-988.871878255907
103954,13807,103954,23644,103954.0,56146.0,-242.80609861471106,-296.937011273214,-1000.7347720503528
103954,13792,103954,23667,103954.0,56096.0,-247.57461781278442,-300.0919573846923,-1012.48978494064
103964,13781,103964,23677,103964.0,56090.0,-252.33129181155493,-303.22433193257257,-1024.1359896682093
103964,13790,103964,23669,103964.0,56061.0,-257.0750845780334,-306.3373390911853,-1035.6732910635283
103964,13773,103964,23684,103964.0,56085.0,-261.80529014718684,-309.43427739892616,-1047.1026204876862
103964,13779,103964,23675,103964.0,56065.0,-266.5214690814606,-312.5182745896772,-1058.4258026612413
103964,13765,103964,23664,103964.0,56073.0,-271.22338558414833,-315.59211424636203,-1069.6451798522878
103964,13773,103964,23664,103964.0,56046.0,-275.91095337857445,-318.6581987008496,-1080.7632362193506
103974,13758,103974,23642,103974.0,56059.0,-280.5841600079123,-321.7186399971134,-1091.7823375946539
103974,13794,103974,23710,103974.0,56052.0,-285.24292301631584,-324.7752784928158,-1102.7044793794066
103974,13737,103974,23675,103974.0,55959.0,-289.8868638500022,-327.829363926786,-1113.5311153360722
103974,13739,103974,23613,103974.0,55959.0,-294.5152382834114,-330.8811882885397,-1124.2634881498843
103974,13726,103974,23623,103974.0,55955.0,-299.1271832582347,-333.9303585156522,-1134.9033443367343
103974,13727,103974,23600,103974.0,55912.0,-303.7219907675694,-336.97653294401925,-1145.4533716982069
103985,13704,103985,23591,103985.0,55958.0,-308.2992104876273,-340.0199496433965,-1155.917245936872
103985,13710,103985,23628,103985.0,55902.0,-312.85872081546796,-343.0616211721761,-1166.2994846707263
103985,13714,103985,23639,103985.0,55904.0,-317.4007784465352,-346.10316133865325,-1176.6052564641755
103985,13714,103985,23636,103985.0,55922.0,-321.92590686126005,-349.14624596357584,-1186.8402884190045
103985,13708,103985,23620,103985.0,55920.0,-326.4346682374641,-352.1921285317189,-1197.0106293188312
103985,13703,103985,23641,103985.0,55899.0,-330.9274887680351,-355.2414737684854,-1207.1221588689084
103995,13708,103995,23639,103995.0,55927.0,-335.4045657020555,-358.2942622129058,-1217.180150449901
103995,13680,103995,23606,103995.0,55873.0,-339.8658055061668,-361.34962815611306,-1227.1889661301093
103995,13684,103995,23598,103995.0,55848.0,-344.3108477823949,-364.4059041494622,-1237.151958650813
103995,13654,103995,23592,103995.0,55811.0,-348.73921744452895,-367.4609469876189,-1247.0718028558952
103995,13643,103995,23566,103995.0,55791.0,-353.1505727845681,-370.51248213477663,-1256.9511046770754
103995,13638,103995,23568,103995.0,55791.0,-357.5450089681716,-373.5583897579726,-1266.7929111729884
104004,13654,104004,23553,104004.0,55753.0,-361.92325102315635,-376.59697493524277,-1276.6009697546767
104004,13642,104004,23572,104004.0,55744.0,-366.28657644384003,-379.6271249659325,-1286.3798822045287
104004,13651,104004,23566,104004.0,55754.0,-370.6365807179475,-382.6482627696837,-1296.1352525291543
104004,13637,104004,23583,104004.0,55768.0,-374.9749779918047,-385.6601247436109,-1305.8735897008942
104004,13639,104004,23566,104004.0,55750.0,-379.3034853958593,-388.662484522919,-1315.6018558310225
104004,13631,104004,23581,104004.0,55750.0,-383.6237646701372,-391.6549420572135,-1325.3269772952947
104015,13627,104015,23553,104015.0,55767.0,-387.9373866335868,-394.6368184881736,-1335.0554946594834
104015,13621,104015,23551,104015.0,55722.0,-392.24580630324544,-397.60718719944526,-1344.7932338141286
104015,13620,104015,23542,104015.0,55688.0,-396.55034456680966,-400.5650410610076,-1354.5451701293512
104015,13595,104015,23514,104015.0,55677.0,-400.85219052917245,-403.50952304272363,-1364.315736385306
104015,13598,104015,23503,104015.0,55636.0,-405.1524892499334,-406.44023843989265,-1374.1093395648275
104015,13586,104015,23500,104015.0,55651.0,-409.4524885252711,-409.3576487342681,-1383.9307645902563
104025,13595,104025,23515,104025.0,55615.0,-413.7536090879015,-412.26332651383984,-1393.7853839092284
104025,13589,104025,23504,104025.0,55622.0,-418.0573794975431,-415.1599216789585,-1403.6792092002338
104025,13599,104025,23548,104025.0,55603.0,-422.36527008120004,-418.0509097146105,-1413.6188740681666
104025,13572,104025,23529,104025.0,55640.0,-426.67851492071037,-420.9401765877034,-1423.611490874083
104025,13576,104025,23539,104025.0,55607.0,-430.99805540849496,-423.8315615863292,-1433.6642661376354
104025,13572,104025,23516,104025.0,55632.0,-435.32459926260964,-426.72860487487713,-1443.7840078545476
104035,13565,104035,23555,104035.0,55536.0,-439.65864116947665,-429.6344834556865,-1453.9768563930427
104035,13545,104035,23496,104035.0,55599.0,-444.0004551507001,-432.5519371012334,-1464.2484208883984
104035,13528,104035,23460,104035.0,55545.0,-448.3502245829965,-435.483396644499,-1474.604005238523
104035,13529,104035,23490,104035.0,55533.0,-452.70830986137685,-438.431547263019,-1485.0486260327698
104035,13518,104035,23497,104035.0,55488.0,-457.07546953949094,-441.39979241163996,-1495.5871338938573
104035,13530,104035,23493,104035.0,55484.0,-461.4529155344645,-444.39213666843995,-1506.2246323456
104046,13524,104046,23516,104046.0,55492.0,-465.8422124904231,-447.4128010600037,-1516.966835848608
104046,13514,104046,23504,104046.0,55472.0,-470.2451123308074,-450.46587632215653,-1527.8200693500505
104046,13523,104046,23499,104046.0,55449.0,-474.6634393036022,-453.55505241572587,-1538.7910872495997
104046,13507,104046,23486,104046.0,55464.0,-479.0990193945706,-456.6835354733949,-1549.8869969231523
104046,13510,104046,23496,104046.0,55445.0,-483.5536115537926,-459.8541257515538,-1561.115179331868
104046,13519,104046,23489,104046.0,55436.0,-488.02883055990947,-463.0692541120506,-1572.4830810191415
104056,13485,104056,23464,104056.0,55419.0,-492.5260412303829,-466.3309627769676,-1583.9980492756329
104056,13494,104056,23479,104056.0,55397.0,-497.0463372554203,-469.6409861033251,-1595.6673154676537
104056,13472,104056,23463,104056.0,55378.0,-501.59066937117933,-473.0008786942746,-1607.4980939127174
104056,13453,104056,23424,104056.0,55316.0,-506.16003176898704,-476.41213412498047,-1619.497844636298
104056,13447,104056,23456,104056.0,55356.0,-510.75571277874997,-479.8764338666881,-1631.6746937015146
104056,13453,104056,23445,104056.0,55334.0,-515.3795430088769,-483.3958563656045,-1644.0376567160679
104067,13464,104067,23453,104067.0,55394.0,-520.0339162668055,-486.9727811137457,-1656.5962969360753
104067,13470,104067,23469,104067.0,55340.0,-524.7215224901245,-490.60961513943437,-1669.3599593402716
104067,13456,104067,23447,104067.0,55334.0,-529.4449767728947,-494.3085037411103,-1682.3371247539642
104067,13450,104067,23422,104067.0,55264.0,-534.2065892749107,-498.0711893112707,-1695.5353451350675
104067,13454,104067,23462,104067.0,55320.0,-539.008322478805,-501.89911936849205,-1708.9616099951413
104067,13446,104067,23450,104067.0,55264.0,-543.8517657305164,-505.79345970982365,-1722.622532546388
104077,13434,104077,23399,104077.0,55271.0,-548.738068313188,-509.7549175223695,-1736.5241995206202
104077,13410,104077,23421,104077.0,55254.0,-553.6679767114631,-513.7838418946332,-1750.6720224064695
104077,13405,104077,23380,104077.0,55231.0,-558.6420549532859,-517.8806219399426,-1765.070674905955
104077,13400,104077,23392,104077.0,55172.0,-563.6609524140035,-522.0460202713382,-1779.7241528625457
104077,13400,104077,23390,104077.0,55180.0,-568.7255349036536,-526.281356814163,-1794.6361224517736
104077,13392,104077,23397,104077.0,55181.0,-573.836860801503,-530.5885044781983,-1809.8102671094912
104087,13406,104087,23385,104087.0,55184.0,-578.9960770876896,-534.9697168835376,-1825.2501696449585
104087,13383,104087,23389,104087.0,55143.0,-584.2042676190738,-539.4274722391085,-1840.9588751274596
104087,13381,104087,23409,104087.0,55126.0,-589.4623446817274,-543.964339374282,-1856.9386504812612
104087,13389,104087,23410,104087.0,55120.0,-594.7710364033662,-548.5826918067349,-1873.1910519970957
104087,13359,104087,23403,104087.0,55094.0,-600.1308688116324,-553.2843041707206,-1889.7169971295175
104087,13363,104087,23372,104087.0,55094.0,-605.5421688233894,-558.0701284194031,-1906.5166988682804
104098,13354,104098,23365,104098.0,55040.0,-611.0051549304956,-562.9404318805093,-1923.5895962186025
104098,13333,104098,23329,104098.0,55039.0,-616.5200305747333,-567.8951918991283,-1940.934430537519
104098,13321,104098,23340,104098.0,54988.0,-622.0871146065152,-572.9345467057335,-1958.5494717893807
104098,13325,104098,23330,104098.0,54990.0,-627.7070472692476,-578.0591122742178,-1976.432775357946
104098,13328,104098,23358,104098.0,54965.0,-633.3808814677916,-583.2700052874039,-1994.582343995814
104098,13341,104098,23336,104098.0,55010.0,-639.109917639691,-588.5685904024783,-2012.996012836815
104108,13317,104108,23363,104108.0,54980.0,-644.8953955253176,-593.9561440355967,-2031.67091182978
104108,13313,104108,23356,104108.0,54981.0,-650.7382977865036,-599.4335297405189,-2050.6027262543325
104108,13315,104108,23371,104108.0,54936.0,-656.6393484085643,-605.0008345518597,-2069.7851905181337
104108,13349,104108,23386,104108.0,54969.0,-662.5989326540705,-610.6569419860787,-2089.2098781163513
104108,13308,104108,23359,104108.0,54956.0,-668.6167483180337,-616.3990963434155,-2108.865905477829
104108,13298,104108,23316,104108.0,54869.0,-674.6915221887568,-622.2227275060498,-2128.73951354674
104118,13281,104118,23334,104118.0,54876.0,-680.8211276633592,-628.1217447651907,-2148.8140718330765
104118,13261,104118,23301,104118.0,54846.0,-687.0029295187405,-634.0889719796778,-2169.0705033512704
104118,13265,104118,23269,104118.0,54839.0,-693.2340887722803,-640.1164652215576,-2189.487507675662
104118,13273,104118,23270,104118.0,54780.0,-699.5116941481008,-646.195911457901,-2210.0415361792775
104118,13249,104118,23288,104118.0,54803.0,-705.8326716695649,-652.3190012626128,-2230.706847983291
104118,13265,104118,23321,104118.0,54786.0,-712.193634369821,-658.4773265584045,-2251.455499645691
104129,13254,104129,23279,104129.0,54784.0,-718.5907693598363,-664.6618319905365,-2272.2570043150063
104129,13239,104129,23318,104129.0,54754.0,-725.0197158199117,-670.8623220910858,-2293.0778514844596
104129,13252,104129,23319,104129.0,54757.0,-731.4754866561011,-677.067143932402,-2313.8811615384107
104129,13243,104129,23307,104129.0,54712.0,-737.9523934895258,-683.2627966885391,-2334.626470107639
104129,13220,104129,23252,104129.0,54704.0,-744.4439245483218,-689.4336910947816,-2355.269623190713
104129,13206,104129,23202,104129.0,54658.0,-750.9427658760126,-695.5625489812867,-2375.76282482399
104139,13200,104139,23225,104139.0,54600.0,-757.4410247537696,-701.6313199323498,-2396.054893365933
104139,13184,104139,23236,104139.0,54583.0,-763.9304572462911,-707.6218466074876,-2416.0917967412706
104139,13183,104139,23208,104139.0,54586.0,-770.4026050085866,-713.5158684851152,-2435.817201161315
104139,13171,104139,23220,104139.0,54550.0,-776.8488719733207,-719.2948078066025,-2455.17262222149
104139,13178,104139,23234,104139.0,54579.0,-783.2605351196677,-724.9396540118719,-2474.097220668171
104139,13165,104139,23241,104139.0,54574.0,-789.6286754351738,-730.4307044244241,-2492.5273823393154
104149,13177,104149,23213,104149.0,54554.0,-795.9440495905816,-735.7471678752954,-2510.396104488673
104149,13171,104149,23221,104149.0,54516.0,-802.1969086888255,-740.8669718912076,-2527.632522446377
104149,13178,104149,23231,104149.0,54506.0,-808.3767583185193,-745.7667579322915,-2544.161870201834
104149,13172,104149,23223,104149.0,54480.0,-814.4720986810628,-750.4217638609608,-2559.905676853113
104149,13159,104149,23179,104149.0,54441.0,-820.470224058917,-754.8056874891274,-2574.7819787284398
104149,13126,104149,23174,104149.0,54426.0,-826.3572115167628,-758.8909003203242,-2588.7056185183346
104160,13126,104160,23147,104160.0,54405.0,-832.1181720995339,-762.6489779304583,-2601.5886219204876
104160,13117,104160,23156,104160.0,54375.0,-837.7375828397544,-766.0511997947735,-2613.340518955395
104160,13141,104160,23130,104160.0,54367.0,-843.1994045892434,-769.0688636464854,-2623.868633028004
104160,13113,104160,23192,104160.0,54334.0,-848.4869254637166,-771.6733788638523,-2633.078389223777
104160,13110,104160,23152,104160.0,54337.0,-853.5825854076894,-773.836044697676,-2640.8736104265154
104160,13094,104160,23124,104160.0,54305.0,-858.4680131246637,-775.5277854433355,-2647.1567800255134
104170,13106,104170,23143,104170.0,54284.0,-863.124168683126,-776.7193048933897,-2651.829333003775
104170,13111,104170,23169,104170.0,54297.0,-867.5313414504856,-777.3813635237977,-2654.7920230756495
104170,13105,104170,23196,104170.0,54280.0,-871.6689493302142,-777.4845520078513,-2655.945205133718
104170,13071,104170,23144,104170.0,54274.0,-875.5153767156055,-776.9987441398723,-2655.1889633543233
104170,13078,104170,23083,104170.0,54188.0,-879.0480987197427,-775.8930618698787,-2652.4234382808545
104170,13042,104170,23086,104170.0,54206.0,-882.2440134536494,-774.1367399507753,-2647.5496940666444
104180,13034,104180,23098,104180.0,54173.0,-885.0798272500717,-771.700221336081,-2640.4708558905336
104180,13059,104180,23086,104180.0,54163.0,-887.5324045301896,-768.5557051789077,-2631.093045153235
104180,13045,104180,23106,104180.0,54191.0,-889.5788665240998,-764.6772374212769,-2619.326062953266
104180,13051,104180,23101,104180.0,54169.0,-891.196437567285,-760.0407050895885,-2605.0838653381497
104180,13039,104180,23093,104180.0,54164.0,-892.3623291043411,-754.6238504857531,-2588.284942516835
104180,13056,104180,23118,104180.0,54190.0,-893.0537309435236,-748.4063606923003,-2568.8528314609002
104191,13052,104191,23143,104191.0,54190.0,-893.2477607444258,-741.3698894256477,-2546.7166350012217
104191,13055,104191,23178,104191.0,54216.0,-892.9213380734441,-733.4977589297099,-2521.811371794118
104191,13046,104191,23129,104191.0,54215.0,-892.0510991193107,-724.7745165450003,-2494.078288956516
104191,13043,104191,23127,104191.0,54226.0,-890.6134398347764,-715.1859151586577,-2463.4652912391193
104191,13014,104191,23115,104191.0,54173.0,-888.5847125428677,-704.7195001670922,-2429.9276646873745
104191,13020,104191,23104,104191.0,54207.0,-885.9415909327247,-693.3653925888534,-2393.429256329988
104201,12998,104201,23119,104201.0,54251.0,-882.6615192073878,-681.1169509945198,-2353.943759191207
104201,13018,104201,23142,104201.0,54277.0,-878.7230963754171,-667.9712093513949,-2311.4554865388577
104201,12998,104201,23161,104201.0,54333.0,-874.1063316499494,-653.9289837322161,-2265.959632151814
104201,13017,104201,23179,104201.0,54365.0,-868.7928121159412,-638.9947329751794,-2217.4623955344896
104201,13010,104201,23179,104201.0,54398.0,-862.765831876882,-623.1764242077201,-2165.9811584039476
104201,13029,104201,23228,104201.0,54448.0,-856.0104670832889,-606.4855022507584,-2111.544801280484
104211,13010,104211,23256,104211.0,54523.0,-848.5136216648517,-588.9367683676537,-2054.194050324566
104211,13038,104211,23281,104211.0,54590.0,-840.2641251945724,-570.5480162088936,-1993.981568128375
104211,13027,104211,23282,104211.0,54661.0,-831.2528569968765,-551.3396632734266,-1930.971752729639
104211,13039,104211,23273,104211.0,54680.0,-821.472848288072,-531.3347314616614,-1865.2405628816102
104211,13044,104211,23278,104211.0,54745.0,-810.9194071619141,-510.55926509963183,-1796.8757277067573
104211,13051,104211,23322,104211.0,54816.0,-799.590262593969,-489.0429043844215,-1725.9772755268934
104222,13058,104222,23314,104222.0,54908.0,-787.485695232625,-466.81923293921693,-1652.6579115354323
104222,13079,104222,23377,104222.0,55064.0,-774.6086509981548,-443.92586005940456,-1577.0428383402113
104222,13086,104222,23401,104222.0,55165.0,-760.9647929548513,-420.4043175060839,-1499.2688518005298
104222,13120,104222,23468,104222.0,55250.0,-746.5624630254943,-396.2996866562074,-1419.4830298780516
104222,13131,104222,23495,104222.0,55389.0,-731.4125533626664,-371.65998299941833,-1337.8416192179654
104222,13140,104222,23523,104222.0,55491.0,-715.5283498410191,-346.53553127837444,-1254.5091349431245
104232,13186,104232,23595,104232.0,55647.0,-698.9254302893129,-320.9784774553649,-1169.6572962448108
104232,13201,104232,23609,104232.0,55718.0,-681.621505727267,-295.0423023160408,-1083.4637964976807
104232,13191,104232,23604,104232.0,55817.0,-663.6362000550427,-268.7813957378095,-996.1112888754506
104232,13204,104232,23640,104232.0,55976.0,-644.9910893913977,-242.25106023262185,-907.7867375449171
104232,13242,104232,23681,104232.0,56105.0,-625.7100064926531,-215.50779426953915,-818.6806205745322
104232,13245,104232,23724,104232.0,56225.0,-605.8192209948747,-188.6093132499662,-728.985642571271
104242,13263,104242,23766,104242.0,56372.0,-585.3474542275908,-161.61420916484929,-638.8953131314286
104242,13309,104242,23814,104242.0,56522.0,-564.3259119021509,-134.58146360367743,-548.602550821432
104242,13346,104242,23878,104242.0,56622.0,-542.7881779159952,-107.569868886486,-458.2981829892997
104242,13374,104242,23895,104242.0,56696.0,-520.7698266017304,-80.63734732051648,-368.1696731317172
104242,13412,104242,23929,104242.0,56829.0,-498.3079567308041,-53.84037512700945,-278.400468317438
104242,13432,104242,23972,104242.0,56961.0,-475.44082218639403,-27.2336771363083,-189.16958014053216
104253,13462,104253,24003,104253.0,57065.0,-452.20757227298617,-0.870010314579531,-100.65081448038995
104253,13482,104253,24044,104253.0,57169.0,-428.6481004249722,25.200133616747394,-13.011798075160186
104253,13515,104253,24037,104253.0,57259.0,-404.8029636191231,50.92877865849243,73.58676052304872
104253,13541,104253,24090,104253.0,57337.0,-380.71329834393936,76.27049975120826,158.99147175793496
104253,13569,104253,24087,104253.0,57457.0,-356.4207014551258,101.18231511820068,243.0564603448497
104253,13590,104253,24098,104253.0,57529.0,-331.9671170816077,125.62352625291885,325.64358259471874
104263,13635,104263,24158,104263.0,57629.0,-307.394744423264,149.55549278217313,406.6227393222557
104263,13664,104263,24197,104263.0,57744.0,-282.7458719900456,172.94161470620622,485.8722260828649
104263,13687,104263,24218,104263.0,57812.0,-258.0626187020016,195.74771956930215,563.2791978088162
104263,13725,104263,24234,104263.0,57908.0,-233.38670999877195,217.94248135789292,638.740176911841
104263,13767,104263,24270,104263.0,57976.0,-208.75927950011368,239.49756867351698,712.161398043306
104263,13799,104263,24323,104263.0,58099.0,-184.2205572543421,260.38775996888603,783.4590900054379
104273,13842,104273,24344,104273.0,58086.0,-159.80945741034793,280.5913181791352,852.5597848748503
104273,13846,104273,24311,104273.0,58180.0,-135.5632117440963,300.0903766462561,919.4003089796227
104273,13843,104273,24304,104273.0,58199.0,-111.51726836569196,318.8707521872682,983.9272962231489
104273,13885,104273,24325,104273.0,58225.0,-87.70555558482351,336.9211676773658,1046.0964909237591
104273,13904,104273,24350,104273.0,58334.0,-64.16080015239038,354.23254637390494,1105.8720301243457
104273,13951,104273,24345,104273.0,58366.0,-40.91455676524777,370.79774262748913,1163.226012405944
104284,13959,104284,24392,104284.0,58428.0,-17.997010505237995,386.6114866739989,1218.1384940196076
104284,14003,104284,24436,104284.0,58480.0,4.56323227330563,401.67049315026156,1270.5975368412182
104284,14025,104284,24452,104284.0,58486.0,26.73931701616698,415.9739095674729,1320.59907000774
104284,14060,104284,24413,104284.0,58553.0,48.506351782227284,429.52377498071826,1368.1465474201682
104284,14056,104284,24458,104284.0,58653.0,69.84160202652629,442.3249687860024,1413.2506663660188
104284,14102,104284,24485,104284.0,58599.0,90.72453659520397,454.38492682983133,1455.9294689326744
104294,14104,104294,24443,104294.0,58668.0,111.13679042981744,465.7136144170769,1496.2083260187806
104294,14125,104294,24446,104294.0,58639.0,131.06214178760354,476.32340587896306,1534.1193176809907
104294,14119,104294,24448,104294.0,58661.0,150.486395296232,486.2285364721971,1569.7003145931967
104294,14144,104294,24432,104294.0,58676.0,169.39710054405953,495.44448441582347,1602.994028756827
104294,14159,104294,24434,104294.0,58732.0,187.7832544038729,503.98747891679307,1634.0472407023499
104294,14184,104294,24430,104294.0,58726.0,205.63515546891472,511.87402846131715,1662.9104365704088
104305,14225,104305,24484,104305.0,58769.0,222.94446357955871,519.1206105160194,1689.6376592979054
104305,14213,104305,24500,104305.0,58769.0,239.70440202242958,525.7438115017156,1714.286305156888
104305,14244,104305,24489,104305.0,58827.0,255.90989018332073,531.7608173451973,1736.91693473871
104305,14263,104305,24516,104305.0,58842.0,271.5575239027737,537.1897784964709,1757.5932827178908
104305,14294,104305,24545,104305.0,58841.0,286.64562630990076,542.0499881405063,1776.3824077799477
104305,14286,104305,24543,104305.0,58816.0,301.1744299583279,546.3621988318166,1793.354588057553
104315,14300,104315,24508,104315.0,58812.0,315.1461414035049,550.1489170519916,1808.5827008802548
104315,14293,104315,24494,104315.0,58815.0,328.56475869908945,553.4342075405981,1822.1413375439984
104315,14313,104315,24489,104315.0,58802.0,341.4357672169208,556.2430552452189,1834.1060271724268
104315,14310,104315,24487,104315.0,58817.0,353.7658694944836,558.6007475522869,1844.5526482242117
104315,14338,104315,24467,104315.0,58791.0,365.5628116747316,560.5324723014554,1853.5569402230662
104315,14341,104315,24479,104315.0,58810.0,376.83532454070007,562.0630012565632,1861.194048511628
104325,14363,104325,24485,104325.0,58816.0,387.5931627086229,563.2164582252012,1867.5381501847442
104325,14366,104325,24508,104325.0,58819.0,397.84717694103756,564.0163349508484,1872.6622842532392
104325,14373,104325,24498,104325.0,58825.0,407.609348436398,564.4857398326477,1876.6383290069903
104325,14388,104325,24493,104325.0,58848.0,416.89276046210705,564.6476237238275,1879.537027083058
104325,14383,104325,24521,104325.0,58858.0,425.7115433733271,564.524848494717,1881.4281449620676
104325,14390,104325,24462,104325.0,58828.0,434.08078855053986,564.1401846377064,1882.380705919943
104336,14386,104336,24453,104336.0,58787.0,442.01638223404643,563.5160894457141,1882.462895510589
104336,14378,104336,24432,104336.0,58778.0,449.53475674879485,562.6740950416435,1881.7414167700263
104336,14367,104336,24459,104336.0,58776.0,456.65254039899435,561.6341738577465,1880.2806632899787
104336,14370,104336,24448,104336.0,58816.0,463.38611158025094,560.4145058578457,1878.1422787061188
104336,14397,104336,24479,104336.0,58790.0,469.7512366907231,559.0316165059484,1875.3852684981161
104336,14404,104336,24483,104336.0,58829.0,475.76301190346703,557.5007088304321,1872.066362602634
104346,14419,104346,24484,104346.0,58788.0,481.4360698431175,555.8360757178788,1868.2403152798997
104346,14413,104346,24470,104346.0,58789.0,486.78479973845117,554.0513976642471,1863.9600007636527
104346,14437,104346,24489,104346.0,58773.0,491.823453083197,552.1598202851205,1859.2762523343836
104346,14448,104346,24508,104346.0,58806.0,496.5662456440185,550.1740418450639,1854.2376717919778
104346,14444,104346,24508,104346.0,58763.0,501.0275443984833,548.1066390593691,1848.89066672559
104346,14432,104346,24469,104346.0,58767.0,505.22196895144054,545.9704000516109,1843.2795217615226
104356,14398,104356,24463,104356.0,58723.0,509.16416614519267,543.7782471733152,1837.4462027837703
104356,14438,104356,24426,104356.0,58729.0,512.8683201313534,541.5427391563749,1831.429937224541
104356,14424,104356,24456,104356.0,58699.0,516.3477981341201,539.2755063376692,1825.2667775208088
104356,14448,104356,24423,104356.0,58727.0,519.6151479904958,536.9869140210576,1818.9893103997647
104356,14457,104356,24457,104356.0,58700.0,522.6822790700384,534.6859819390703,1812.6265998802355
104356,14453,104356,24442,104356.0,58719.0,525.5606764136163,532.3804623441328,1806.2042961594798
104367,14442,104367,24450,104367.0,58710.0,528.2615181877919,530.0770076317873,1799.7447920740728
104367,14457,104367,24444,104367.0,58742.0,530.795592874865,527.7813159401921,1793.267468805458
104367,14443,104367,24454,104367.0,58731.0,533.1731534524711,525.4982140358313,1786.7891090316684
104367,14485,104367,24451,104367.0,58732.0,535.4038883279756,523.23176027306,1780.324351427099
104367,14469,104367,24443,104367.0,58755.0,537.4970775046941,520.9853593763521,1773.886040258687
104367,14446,104367,24419,104367.0,58685.0,539.461767722614,518.7617472544141,1767.4854453202506
104377,14448,104377,24444,104377.0,58686.0,541.3066364092031,516.5628113347495,1761.1321494206318
104377,14447,104377,24412,104377.0,58664.0,543.0396149817396,514.3894304916195,1754.8335362859252
104377,14444,104377,24388,104377.0,58671.0,544.6676172820619,512.2413243918475,1748.5943035569521
104377,14456,104377,24467,104377.0,58678.0,546.1964376523042,510.1168474755327,1742.416316353786
104377,14465,104377,24454,104377.0,58707.0,547.6307698629604,508.0131647053988,1736.2988134051052
104377,14487,104377,24468,104377.0,58697.0,548.9743912292574,505.9269366300904,1730.2388989015249
104387,14480,104387,24464,104387.0,58710.0,550.230477360333,503.8549188747087,1724.232089392688
104387,14492,104387,24466,104387.0,58699.0,551.401887543602,501.7942191481943,1718.272701305189
104387,14504,104387,24498,104387.0,58733.0,552.4913538770364,499.74247697488636,1712.3541419601784
104387,14495,104387,24494,104387.0,58683.0,553.5016529804171,497.69819492091085,1706.4692095073533
104387,14482,104387,24392,104387.0,58699.0,554.4356974618553,495.66095628265225,1700.6102441396474
104387,14457,104387,24408,104387.0,58665.0,555.2963568223029,493.6309059829374,1694.7690073783237
104398,14470,104398,24382,104398.0,58671.0,556.0860421118826,491.60768087888175,1688.9364495554455
104398,14476,104398,24392,104398.0,58633.0,556.8063659043124,489.5896394506125,1683.102468977675
104398,14463,104398,24416,104398.0,58657.0,557.4580657234964,487.57365802522645,1677.2556549779142
104398,14511,104398,24467,104398.0,58673.0,558.0410977830812,485.5554308588079,1671.3832054182922
104398,14488,104398,24415,104398.0,58695.0,558.554872683889,483.53015679920065,1665.4712699590887
104398,14488,104398,24418,104398.0,58683.0,558.9985379548156,481.4930176902599,1659.5055899892989
104408,14490,104408,24434,104408.0,58654.0,559.3710463961313,479.4391248738898,1653.4719641385293
104408,14508,104408,24448,104408.0,58687.0,559.6711033439983,477.3634560632804,1647.3563232917486
104408,14519,104408,24474,104408.0,58717.0,559.8972984722502,475.2611955833212,1641.1448344762873
104408,14508,104408,24452,104408.0,58722.0,560.0483958649962,473.128267671142,1634.8244792932558
104408,14507,104408,24440,104408.0,58686.0,560.1235172979262,470.96165824449645,1628.383781519657
104408,14488,104408,24425,104408.0,58665.0,560.1220811553965,468.7593228954694,1621.8130346855874
104418,14492,104418,24392,104418.0,58653.0,560.0435739154077,466.51979251319665,1615.1039672634183
104418,14486,104418,24443,104418.0,58620.0,559.887308028313,464.2417518329154,1608.2492424377851
104418,14491,104418,24411,104418.0,58679.0,559.6522775153102,461.9239086879537,1601.242126646908
104418,14480,104418,24433,104418.0,58666.0,559.3371011946803,459.5651702001004,1594.07661045991
104418,14522,104418,24410,104418.0,58643.0,558.9400454761736,457.1648021555076,1586.7478970137847
104418,14519,104418,24440,104418.0,58632.0,558.4592623578277,454.72248660445297,1579.2526672786425
104429,14510,104429,24438,104429.0,58641.0,557.8931900629177,452.2384679366448,1571.5889705274533
104429,14508,104429,24428,104429.0,58664.0,557.2407723425648,449.7138137490368,1563.7562298587102
104429,14512,104429,24407,104429.0,58630.0,556.5014195919365,447.15053955559114,1555.7555712795352
104429,14525,104429,24423,104429.0,58610.0,555.6749850164936,444.5514718335393,1547.5900817430957
104429,14495,104429,24341,104429.0,58543.0,554.7618469360401,441.9199505291143,1539.2645529114852
104429,14487,104429,24358,104429.0,58555.0,553.7628624819499,439.2592839174506,1530.7847469776443
104439,14498,104439,24394,104439.0,58559.0,552.6791036347707,436.5721317802712,1522.1567186631876
104439,14501,104439,24370,104439.0,58573.0,551.5116710408549,433.8604057025826,1513.3867052160197
104439,14504,104439,24384,104439.0,58551.0,550.2617677111934,431.12559533784946,1504.4814769595832
104439,14502,104439,24360,104439.0,58571.0,548.9308666234032,428.36895191452305,1495.4487029737943
104439,14501,104439,24403,104439.0,58566.0,547.5208163614883,425.59151476744694,1486.2972385943112
104439,14504,104439,24391,104439.0,58568.0,546.0338887928094,422.79429452771535,1477.0374680438542
104449,14489,104449,24423,104449.0,58534.0,544.472797054898,419.97868376466727,1467.6815986965948
104449,14504,104449,24425,104449.0,58590.0,542.8406777084427,417.1469614767174,1458.2438175934194
104449,14496,104449,24372,104449.0,58468.0,541.1410875629125,414.30266877093254,1448.7403887370303
104449,14502,104449,24339,104449.0,58452.0,539.3780717382135,411.45046102994326,1439.18934263053
104449,14480,104449,24386,104449.0,58456.0,537.5562178519128,408.5954627624055,1429.6095612406905
104449,14471,104449,24343,104449.0,58440.0,535.6805565658882,405.74282519868996,1420.020014683428
104460,14467,104460,24378,104460.0,58414.0,533.7563063229419,402.8977353888749,1410.43955782243
104460,14458,104460,24331,104460.0,58422.0,531.7886098462614,400.0654860618314,1400.8868490514633
104460,14473,104460,24342,104460.0,58392.0,529.7823897313823,397.2513794219773,1391.3802247090532
104460,14479,104460,24363,104460.0,58392.0,527.7423877262205,394.46057399417714,1381.937617567789
104460,14477,104460,24377,104460.0,58416.0,525.6733774216701,391.69819611685347,1372.576559281289
104460,14476,104460,24343,104460.0,58403.0,523.5803903243911,388.96972198587235,1363.314426081985
104470,14472,104470,24361,104470.0,58441.0,521.4688236138359,386.28118891007966,1354.1689433489155
104470,14462,104470,24368,104470.0,58351.0,519.3444415621611,383.63918500540063,1345.1586469440776
104470,14462,104470,24299,104470.0,58380.0,517.2133048461997,381.05082355030544,1336.3029142097078
104470,14456,104470,24307,104470.0,58293.0,515.0816741121034,378.5234468033132,1327.6215033156857
104470,14433,104470,24272,104470.0,58311.0,512.9558977175343,376.0639578720821,1319.13387353799
104470,14429,104470,24322,104470.0,58259.0,510.8421964321125,373.6782721673656,1310.8585044003057
104480,14427,104480,24306,104480.0,58293.0,508.74637120314253,371.3712686835209,1302.8123931700604
104480,14444,104480,24303,104480.0,58267.0,506.67364627963207,369.1470709239899,1295.0108859446839
104480,14435,104480,24305,104480.0,58291.0,504.6287567901592,367.0092404265242,1287.467807378005
104480,14440,104480,24301,104480.0,58248.0,502.61613894555705,364.9607916850089,1280.1956780834466
104480,14440,104480,24302,104480.0,58263.0,500.6400648620314,363.00419834342824,1273.2057946321738
104480,14449,104480,24332,104480.0,58258.0,498.70475221514636,361.14148972603857,1266.5082000719526
104491,14439,104491,24343,104491.0,58305.0,496.8145072727708,359.3745630916125,1260.1118522046686
104491,14417,104491,24312,104491.0,58240.0,494.9737858177154,357.70563464043795,1254.0250682194005
104491,14428,104491,24261,104491.0,58207.0,493.1870544455422,356.1373212558787,1248.2557050552996
104491,14407,104491,24277,104491.0,58181.0,491.4585714947087,354.6720878022343,1242.810623936442
104491,14405,104491,24264,104491.0,58188.0,489.7922109145012,353.3115536868678,1237.6948557160326
104491,14404,104491,24293,104491.0,58186.0,488.1912945334,352.056213112636,1232.911122501173
104501,14412,104501,24295,104501.0,58203.0,486.65848724576426,350.9055871860951,1228.459836825406
104501,14427,104501,24259,104501.0,58211.0,485.1958784574156,349.8584881178307,1224.339398171182
104501,14404,104501,24297,104501.0,58190.0,483.80519708681754,348.9130757810082,1220.5465723116267
104501,14411,104501,24311,104501.0,58207.0,482.4879374438522,348.0668665381196,1217.0767288859297
104501,14410,104501,24303,104501.0,58204.0,481.24532307539096,347.3170364012765,1213.92394945128
104501,14415,104501,24316,104501.0,58236.0,480.0782866162048,346.6608162310313,1211.081242932786
104512,14415,104512,24320,104512.0,58225.0,478.9875546493356,346.095724072036,1208.5409536543302
104512,14402,104512,24281,104512.0,58195.0,477.97373231222866,345.61966304325097,1206.2951132546793
104512,14392,104512,24271,104512.0,58159.0,477.037258107098,345.23074320198896,1204.3353380607723
104512,14390,104512,24264,104512.0,58171.0,476.1782106837495,344.92678900217925,1202.652258011608
104512,14376,104512,24268,104512.0,58178.0,475.39607484040795,344.7048764452707,1201.235001551828
104512,14386,104512,24266,104512.0,58188.0,474.6895517396816,344.5611286800614,1200.0711334522894
104522,14404,104522,24286,104522.0,58216.0,474.0565024026493,344.4907215803547,1199.1469609140695
104522,14392,104522,24276,104522.0,58228.0,473.4941034488069,344.48802657229146,1198.4480383621026
104522,14408,104522,24308,104522.0,58181.0,472.99908158440184,344.5468342013223,1197.959648755317
104522,14404,104522,24294,104522.0,58193.0,472.5678812204462,344.6606242142441,1197.6668773687406
104522,14420,104522,24302,104522.0,58181.0,472.1968219875527,344.8228175942027,1197.5542987591334
104522,14405,104522,24338,104522.0,58239.0,471.8822766159365,345.0269824235172,1197.6058116587496
104532,14395,104532,24301,104532.0,58211.0,471.6207438274474,345.26709699266456,1197.804927877613
104532,14407,104532,24301,104532.0,58206.0,471.40874957382374,345.537720604898,1198.1351818187736
104532,14372,104532,24287,104532.0,58214.0,471.24267994514867,345.833819305644,1198.5802219890495
104532,14401,104532,24267,104532.0,58163.0,471.1186065748885,346.15038027955364,1199.1236093202747
104532,14396,104532,24263,104532.0,58160.0,471.0321775147836,346.48199114631166,1199.7484017567137
104532,14393,104532,24309,104532.0,58205.0,470.9786769174395,346.82253812542723,1200.436657187207
104543,14400,104543,24334,104543.0,58204.0,470.9531302207342,347.1653834688003,1201.169361202989
104543,14417,104543,24312,104543.0,58234.0,470.95038820281087,347.50400211875404,1201.926895613101
104543,14396,104543,24321,104543.0,58243.0,470.9652831577252,347.83248282693785,1202.6896415594406
104543,14404,104543,24300,104543.0,58247.0,470.99274200480255,348.14558026274466,1203.4385033429153
104543,14426,104543,24352,104543.0,58249.0,471.02780185716483,348.4386259042147,1204.1552908509502
104543,14424,104543,24316,104543.0,58255.0,471.0657548681224,348.7076439354912,1204.8229267939291
104553,14396,104553,24307,104553.0,58262.0,471.1023739447865,348.9495164744253,1205.4255825432044
104553,14404,104553,24273,104553.0,58187.0,471.1338815191056,349.1617793492503,1205.9486803848492
104553,14390,104553,24259,104553.0,58192.0,471.15668377427465,349.3420201961814,1206.3784368835813
104553,14382,104553,24283,104553.0,58174.0,471.16711734476706,349.4872533520178,1206.7010308060903
104553,14378,104553,24264,104553.0,58203.0,471.1612247998703,349.5936116115251,1206.90199305408
104553,14395,104553,24319,104553.0,58200.0,471.13457319866427,349.6564136380324,1206.9661185704165
104563,14422,104563,24301,104563.0,58182.0,471.0823161939039,349.6705100129876,1206.8776396284293
104563,14414,104563,24297,104563.0,58181.0,470.99956660927955,349.63069558095873,1206.620262322274
104563,14390,104563,24312,104563.0,58247.0,470.8817538243766,349.5319008836035,1206.177135571878
104563,14409,104563,24334,104563.0,58243.0,470.7246382795895,349.36928224581,1205.5312469518556
104563,14415,104563,24337,104563.0,58283.0,470.52419168977747,349.1385283975111,1204.6662681421149
104563,14407,104563,24329,104563.0,58258.0,470.27666689809206,348.836260336342,1203.5673587748531
104574,14397,104574,24275,104574.0,58245.0,469.97870976849543,348.4601157754654,1202.221579090559
104574,14377,104574,24281,104574.0,58199.0,469.62724813097776,348.00831186615176,1200.617766167633
104574,14379,104574,24253,104574.0,58178.0,469.2191821738326,347.4789412644867,1198.7459105706516
104574,14375,104574,24306,104574.0,58176.0,468.75107673367336,346.86949337047344,1196.5963474602486
104574,14387,104574,24286,104574.0,58166.0,468.21902153169395,346.17686591331636,1194.1591550974044
104574,14394,104574,24307,104574.0,58225.0,467.6186979195264,345.39770101952496,1191.4240039064587
104584,14414,104584,24278,104584.0,58207.0,466.9456239278375,344.5286552832737,1188.380525223657
104584,14398,104584,24310,104584.0,58211.0,466.19549073374856,343.5664622832182,1185.0189228093502
104584,14412,104584,24314,104584.0,58184.0,465.36442069504926,342.5080122832867,1181.330317473633
104584,14407,104584,24336,104584.0,58205.0,464.4490904223025,341.35066373348405,1177.306732033443
104584,14401,104584,24311,104584.0,58200.0,463.4467999598385,340.0926611959071,1172.9410690103423
104584,14396,104584,24278,104584.0,58171.0,462.35547806300855,338.7332752701156,1168.2272169124346
104594,14381,104594,24270,104594.0,58118.0,461.173573065755,337.2724500590248,1163.1599352247154
104594,14365,104594,24266,104594.0,58149.0,459.899829406603,335.7102233086756,1157.734322005102
104594,14392,104594,24246,104594.0,58121.0,458.5330308143567,334.04629361732253,1151.9453155469068
104594,14376,104594,24234,104594.0,58161.0,457.0719166153131,332.2797124578037,1145.7876451302911
104594,14377,104594,24269,104594.0,58149.0,455.51528132042347,330.4086281736582,1139.2561541233222
104594,14374,104594,24304,104594.0,58178.0,453.86203087609204,328.43038958564216,1132.346315484805
104605,14386,104605,24265,104605.0,58155.0,452.1111854973642,326.3421064037342,1125.0547860225995
104605,14374,104605,24267,104605.0,58132.0,450.2619606587509,324.14109381211927,1117.3797668154793
104605,14364,104605,24259,104605.0,58118.0,448.31384532410743,321.8248289512839,1109.3209897876059
104605,14376,104605,24306,104605.0,58141.0,446.2665661351411,319.3908403138105,1100.8795267896762
104605,14355,104605,24309,104605.0,58123.0,444.12002661768247,316.83701784887944,1092.0578320063696
104605,14359,104605,24269,104605.0,58109.0,441.87426795981526,314.1621536211883,1082.8599953900882
104615,14342,104615,24215,104615.0,58037.0,439.5293744639016,311.3660007391318,1073.2917436055159
104615,14335,104615,24229,104615.0,58060.0,437.0853135532483,308.448593578936,1063.359967764851
104615,14336,104615,24255,104615.0,57975.0,434.5417568773953,305.40953964236814,1053.072059066609
104615,14343,104615,24262,104615.0,58041.0,431.89798370415326,302.24799944824355,1042.435379961622
104615,14338,104615,24245,104615.0,58000.0,429.1529475576368,298.9631359094607,1031.4570932184538
104615,14358,104615,24258,104615.0,57976.0,426.30545755462475,295.55443824558205,1020.1443223404318
104625,14345,104625,24267,104625.0,57985.0,423.35441780539156,292.02186378778504,1008.5042322836711
104625,14345,104625,24245,104625.0,57994.0,420.29904801186314,288.3660202965677,996.5440342872331
104625,14355,104625,24309,104625.0,57967.0,417.13901041684574,284.5884211686476,984.2712505136549
104625,14348,104625,24236,104625.0,57944.0,413.8745281219201,280.6918155315747,971.6940075556818
104625,14329,104625,24240,104625.0,57904.0,410.5065049003567,276.68035437345713,958.8209679814122
104625,14310,104625,24234,104625.0,57882.0,407.03645221917293,272.55933358076686,945.6609279833611
104636,14298,104636,24190,104636.0,57893.0,403.46617082472363,268.334782905052,932.2223904794143
104636,14298,104636,24185,104636.0,57859.0,399.79738516973055,264.0130544940304,918.5134128912382
104636,14293,104636,24155,104636.0,57844.0,396.0315289510269,259.60029342209896,904.5416503982126
104636,14315,104636,24177,104636.0,57827.0,392.16975051025497,255.10196001299056,890.3143151295203
104636,14314,104636,24170,104636.0,57837.0,388.21314412082825,250.52265267740725,875.8381158009776
104636,14304,104636,24189,104636.0,57817.0,384.1630917677875,245.86625942205288,861.1194021901869
104646,14286,104646,24173,104646.0,57803.0,380.0214482494491,241.13626991006964,846.1644373249839
104646,14287,104646,24180,104646.0,57782.0,375.7904622954022,236.33603949886134,830.9795624207258
104646,14285,104646,24179,104646.0,57780.0,371.47263196364,231.46895252047398,815.5712361425107
104646,14270,104646,24191,104646.0,57747.0,367.0706601886348,226.5385980190698,799.9460754748834
104646,14268,104646,24130,104646.0,57745.0,362.5874355216767,221.5489234286478,784.1109020315619
104646,14245,104646,24159,104646.0,57672.0,358.0259347660447,216.50412120276155,768.0726660916475
104656,14238,104656,24099,104656.0,57669.0,353.3890372949806,211.40826850574203,751.8381085023256
104656,14234,104656,24100,104656.0,57619.0,348.6793015502639,206.26489994358388,735.4132270052746
104656,14245,104656,24117,104656.0,57637.0,343.89884933683646,201.076608322026,718.8028442565459
104656,14250,104656,24173,104656.0,57650.0,339.04948532436293,195.84505782580425,702.0105748316696
104656,14249,104656,24131,104656.0,57638.0,334.13299704351886,190.57162404599825,685.0392942642488
104656,14235,104656,24122,104656.0,57626.0,329.1514369892501,185.25803546536665,667.8918064322797
104667,14214,104667,24117,104667.0,57630.0,324.10719653887776,179.906449708176,650.5713428929255
104667,14222,104667,24150,104667.0,57615.0,319.0028655446796,174.5193267387259,633.0819466776535
104667,14214,104667,24119,104667.0,57594.0,313.84109406046855,169.0995987938594,615.4288395929948
104667,14190,104667,24116,104667.0,57565.0,308.62456337515806,163.65094066620233,597.6186292016081
104667,14189,104667,24055,104667.0,57476.0,303.35590234640085,158.17768895147614,579.6591407933695
104667,14163,104667,24048,104667.0,57476.0,298.03747609384953,152.68430086050725,561.5587648495584
104677,14180,104677,24053,104677.0,57469.0,292.6711785093743,147.17466816045476,543.3257103266881
104677,14158,104677,24050,104677.0,57402.0,287.2583458841386,141.65175560951303,524.967663349473
104677,14193,104677,24048,104677.0,57445.0,281.79983813607396,136.11764268777847,506.49170129292384
104677,14180,104677,24064,104677.0,57382.0,276.2963098521768,130.57371961042156,487.90428189115346
104677,14171,104677,24038,104677.0,57401.0,270.7485658791104,125.02091612885323,469.2113799911607
104677,14161,104677,24046,104677.0,57374.0,265.1577484705107,119.45986997909381,450.418680668334
104687,14162,104687,24040,104687.0,57371.0,259.5253154860493,113.890980302913,431.5318123115152
104687,14150,104687,24063,104687.0,57344.0,253.85300590308225,108.31451600965758,412.5566194840957
104687,14158,104687,24041,104687.0,57310.0,248.14287556432205,102.73088834230401,393.4993154962559
104687,14141,104687,24040,104687.0,57302.0,242.3973747709133,97.14090954715991,374.36644366111136
104687,14119,104687,24021,104687.0,57286.0,236.61937456103055,91.54584537609725,355.16480487737726
104687,14105,104687,23978,104687.0,57247.0,230.81200195679017,85.94722294222981,335.90148691008176
104698,14095,104698,23969,104698.0,57194.0,224.97832658516066,80.34637365230068,316.5837806303192
104698,14086,104698,23982,104698.0,57200.0,219.12108880290344,74.7439014002943,297.2188129889055
104698,14097,104698,24010,104698.0,57176.0,213.2425805324356,69.1395414376874,277.81322635156494
104698,14096,104698,24007,104698.0,57177.0,207.34472526503802,63.53257179767985,258.37322370940285
104698,14087,104698,24009,104698.0,57121.0,201.42930453779755,57.922413007072805,238.90478729097958
104698,14081,104698,23984,104698.0,57155.0,195.49814463567967,52.30900326213015,219.4137991895725
104708,14078,104708,24030,104708.0,57113.0,189.553180484303,46.69293896102033,199.90618724985848
104708,14071,104708,23948,104708.0,57115.0,183.59648369057362,41.075580937381005,180.38822755591514
104708,14048,104708,23963,104708.0,57074.0,177.63027085575396,35.458974594508334,160.86680701866328
104708,14043,104708,23941,104708.0,57028.0,171.65680102519653,29.845446283876925,141.3494293128981
104708,14018,104708,23941,104708.0,56987.0,165.67815815521672,24.237230014621048,121.84387084465266
104708,14016,104708,23892,104708.0,56969.0,159.69599947373035,18.63624989257113,102.35760388007316
104718,13997,104718,23889,104718.0,56937.0,153.7113263329169,13.043762757609613,82.89731038011098
104718,14028,104718,23903,104718.0,56943.0,147.72437261606186,7.45991560105108,63.46866843408054
104718,14021,104718,23925,104718.0,56884.0,141.73476042002122,1.8836629425573506,44.07634024360914
104718,14038,104718,23928,104718.0,56918.0,135.74191288271422,-3.6868101319676043,24.72401576067614
104718,14011,104718,23947,104718.0,56901.0,129.74548131478315,-9.253458754333451,5.414594793847982
104718,14003,104718,23938,104718.0,56903.0,123.74553975341843,-14.817807938137378,-13.849326602010024
104729,13994,104729,23958,104729.0,56858.0,117.74251456515827,-20.38049368693146,-33.064910428535995
104729,13994,104729,23929,104729.0,56855.0,111.73704741738169,-25.940917529953936,-52.228821938648025
104729,13964,104729,23903,104729.0,56823.0,105.72992314554199,-31.497133870684877,-71.33721523287545
104729,13963,104729,23843,104729.0,56754.0,99.7219532145474,-37.046198849617724,-90.38586223364314
104729,13961,104729,23853,104729.0,56722.0,93.71379855911044,-42.58495447217621,-109.37061539413037
104729,13948,104729,23878,104729.0,56707.0,87.70588962642313,-48.11070371002762,-128.28813749494054
104739,13931,104739,23859,104739.0,56734.0,81.69841121981153,-53.621272766621644,-147.13631987782242
104739,13949,104739,23823,104739.0,56709.0,75.69124284761187,-59.11478438765607,-165.91403709960014
104739,13944,104739,23878,104739.0,56718.0,69.68399622939944,-64.5896563128,-184.6205335449083
104739,13953,104739,23856,104739.0,56688.0,63.67626531196214,-70.04455173134477,-203.25487309930008
104739,13927,104739,23824,104739.0,56688.0,57.667914762899386,-75.47809561478658,-221.81556929655676
104739,13916,104739,23850,104739.0,56653.0,51.659170175062854,-80.88878802477211,-240.3003494374725
104750,13912,104750,23863,104750.0,56635.0,45.650485698157865,-86.27503551962303,-258.7060527380348
104750,13928,104750,23803,104750.0,56598.0,39.64243598214114,-91.63496882189565,-277.0286929436585
104750,13897,104750,23808,104750.0,56556.0,33.63581050322108,-96.96642928310058,-295.2637037302251
104750,13877,104750,23792,104750.0,56493.0,27.631679548079603,-102.2673468154639,-313.40643380504093
104750,13871,104750,23808,104750.0,56534.0,21.631182912124927,-107.53605199924118,-331.4527845973121
104750,13877,104750,23801,104750.0,56475.0,15.63524971982946,-112.77125327671695,-349.3995454695573
104760,13868,104760,23799,104760.0,56512.0,9.64454884084148,-117.97184118528554,-367.2442646868568
104760,13861,104760,23786,104760.0,56475.0,3.659603088247252,-123.13673823625822,-384.9849112426257
104760,13874,104760,23773,104760.0,56454.0,-2.319096746561229,-128.26489971196446,-402.619540120225
104760,13853,104760,23777,104760.0,56446.0,-8.290957806259883,-133.35542089626642,-420.1461290351475
104760,13866,104760,23801,104760.0,56470.0,-14.255129023631355,-138.40754637825978,-437.5624592355673
104760,13857,104760,23783,104760.0,56473.0,-20.21036139550347,-143.42041956357588,-454.865645812711
104770,13829,104770,23778,104770.0,56408.0,-26.154906967187515,-148.39276669913346,-472.0514531940105
104770,13809,104770,23735,104770.0,56346.0,-32.08661644416566,-153.3228675701032,-489.11412851024363
104770,13799,104770,23725,104770.0,56324.0,-38.00329215184473,-158.20891005027494,-506.0470646323736
104770,13806,104770,23726,104770.0,56277.0,-43.90302725678396,-163.04949785519932,-522.8437507068602
104770,13789,104770,23738,104770.0,56256.0,-49.78430870981248,-167.84392907035073,-539.498504467999
104770,13794,104770,23752,104770.0,56243.0,-55.64596694503501,-172.59205931583506,-556.0069561763328
104781,13806,104781,23722,104781.0,56297.0,-61.48706750066452,-177.29394992086782,-572.3661427055529
104781,13771,104781,23720,104781.0,56245.0,-67.30673448487573,-181.9496815762683,-588.5740216956833
104781,13767,104781,23727,104781.0,56236.0,-73.1040779366802,-186.55942048674808,-604.6288308593389
104781,13788,104781,23716,104781.0,56209.0,-78.87828987190875,-191.12346179735005,-620.5288692788126
104781,13776,104781,23738,104781.0,56233.0,-84.62859536967153,-195.6421066065231,-636.2725267214187
104781,13783,104781,23749,104781.0,56190.0,-90.35397373273491,-200.1153847020824,-651.8581259373027
104791,13756,104791,23715,104791.0,56188.0,-96.05293104828769,-204.5426857511972,-667.2836690661659
104791,13729,104791,23673,104791.0,56115.0,-101.72353465301,-208.92267535968642,-682.5468383177497
104791,13722,104791,23660,104791.0,56105.0,-107.36373383679313,-213.253787436685,-697.6453906315612
104791,13716,104791,23665,104791.0,56094.0,-112.9717543556934,-217.5349306584572,-712.5777156876666
104791,13699,104791,23668,104791.0,56069.0,-118.54633409025195,-221.76585862489202,-727.3431627155069
104791,13724,104791,23692,104791.0,56072.0,-124.08678978646032,-225.94707826995074,-741.9420754415994
104801,13709,104801,23684,104801.0,56062.0,-129.59291087368837,-230.07947462289223,-756.3756829324539
104801,13703,104801,23688,104801.0,56062.0,-135.0647370491933,-234.1638967795298,-770.6458564469401
104801,13690,104801,23653,104801.0,56065.0,-140.50244629640224,-238.20094993113617,-784.754744409767
104801,13695,104801,23685,104801.0,56014.0,-145.90639381363712,-242.19103997356353,-798.7044250919957
104801,13694,104801,23696,104801.0,56044.0,-151.2771116207203,-246.13436105103762,-812.496746930995
104801,13695,104801,23689,104801.0,56005.0,-156.61517371996104,-250.03056901285095,-826.1332694107907
104812,13680,104812,23640,104812.0,56004.0,-161.92101988885065,-253.87847874181665,-839.6151385054886
104812,13653,104812,23632,104812.0,55918.0,-167.19492224765906,-257.6762730844962,-852.943123296812
104812,13656,104812,23593,104812.0,55906.0,-172.4371795858351,-261.4221424713969,-866.1181294310738
104812,13641,104812,23594,104812.0,55896.0,-177.6483775409173,-265.1149748208218,-879.1419789218564
104812,13650,104812,23584,104812.0,55891.0,-182.8295122477383,-268.7548751915632,-892.017881529759
104812,13647,104812,23660,104812.0,55940.0,-187.9819450596379,-272.34328451116147,-904.7503102914618
104822,13644,104822,23628,104822.0,55946.0,-193.10724902323363,-275.8824950054715,-917.3443053855324
104822,13624,104822,23633,104822.0,55892.0,-198.20707860780664,-279.3749306060521,-929.8045522593391
104822,13645,104822,23627,104822.0,55899.0,-203.2831435905441,-282.8227892666179,-942.1349016955485
104822,13644,104822,23653,104822.0,55897.0,-208.3371271738543,-286.22796212161273,-954.3383863190998
104822,13633,104822,23621,104822.0,55866.0,-213.37044305003786,-289.5918651517914,-966.4172052375452
104822,13622,104822,23613,104822.0,55790.0,-218.3840438535588,-292.91531888765365,-978.37277588293
104832,13610,104832,23581,104832.0,55785.0,-223.3784489274243,-296.1987513317744,-990.2063123683597
104832,13584,104832,23620,104832.0,55757.0,-228.3539347106248,-299.44256622259223,-1001.9196793692026
104832,13580,104832,23558,104832.0,55761.0,-233.31082701751853,-302.6473568759165,-1013.5159325826012
104832,13575,104832,23526,104832.0,55747.0,-238.24979603583563,-305.81416188810334,-1024.9994364205584
104832,13606,104832,23590,104832.0,55749.0,-243.17193546990262,-308.94498528612905,-1036.375753115475
104832,13578,104832,23589,104832.0,55758.0,-248.0785327175834,-312.0429820674536,-1047.6513982171723
104843,13589,104843,23605,104843.0,55734.0,-252.97076480064896,-315.11193265426886,-1058.8334967121743
104843,13587,104843,23585,104843.0,55760.0,-257.8495325024939,-318.1556051857239,-1069.9294306308975
104843,13571,104843,23598,104843.0,55757.0,-262.71535982622584,-321.1774689653145,-1080.9464556608864
104843,13558,104843,23622,104843.0,55705.0,-267.56836279482917,-324.18055050568574,-1091.891300703503
104843,13573,104843,23605,104843.0,55701.0,-272.4083341238469,-327.1671406487719,-1102.7700840604193
104843,13540,104843,23583,104843.0,55695.0,-277.23480210403415,-330.13851658901393,-1113.5885763931492
104853,13513,104853,23554,104853.0,55652.0,-282.0471304836682,-333.09506121102993,-1124.35242980068
104853,13519,104853,23512,104853.0,55656.0,-286.84485364144604,-336.0368363631927,-1135.0673485443037
104853,13516,104853,23552,104853.0,55631.0,-291.62802243581103,-338.9643044673237,-1145.7393084936368
104853,13502,104853,23550,104853.0,55633.0,-296.3972936130317,-341.87869657338297,-1156.3746915452077
104853,13511,104853,23551,104853.0,55603.0,-301.1538922896851,-344.78183863488675,-1166.9803145842889
104853,13507,104853,23541,104853.0,55626.0,-305.899554746813,-347.6758488044641,-1177.5634236163633
104863,13517,104863,23572,104863.0,55601.0,-310.6363766216785,-350.56297889623926,-1188.1315860686836
104863,13523,104863,23554,104863.0,55598.0,-315.3665502553562,-353.4454178167546,-1198.6924891275867
104863,13502,104863,23560,104863.0,55589.0,-320.0920781534692,-356.32502856371093,-1209.2537916034075
104863,13511,104863,23531,104863.0,55600.0,-324.8146061782251,-359.2032474054265,-1219.8229987244365
104863,13505,104863,23545,104863.0,55572.0,-329.5353764112854,-362.0812018468739,-1230.4072462897807
104863,13476,104863,23507,104863.0,55551.0,-334.25521059350694,-364.95991579400226,-1241.0131477464254
104874,13462,104874,23508,104874.0,55538.0,-338.97464350174727,-367.8405694982933,-1251.6468921695177
104874,13460,104874,23499,104874.0,55533.0,-343.69425075693204,-370.7248182923298,-1262.314451273902
104874,13438,104874,23476,104874.0,55501.0,-348.4149545060981,-373.6150810309247,-1273.0217009809292
104874,13454,104874,23531,104874.0,55499.0,-353.1381936289362,-376.5146949715461,-1283.7745241303758
104874,13470,104874,23533,104874.0,55494.0,-357.86590177404094,-379.4277184540289,-1294.5789224801238
104874,13458,104874,23505,104874.0,55524.0,-362.60021830309677,-382.35840960730616,-1305.4409192446476
104884,13463,104884,23527,104884.0,55456.0,-367.34312433836084,-385.31088688686657,-1316.3662236501289
104884,13467,104884,23490,104884.0,55451.0,-372.09620622184923,-388.2891392785958,-1327.3600984869831
104884,13455,104884,23549,104884.0,55467.0,-376.8604795451001,-391.29706224372063,-1338.4275863046878
104884,13427,104884,23508,104884.0,55456.0,-381.6363060817293,-394.338290597386,-1349.5735760096484
104884,13423,104884,23498,104884.0,55416.0,-386.4235594177319,-397.41598807059194,-1360.8025781633999
104884,13417,104884,23474,104884.0,55380.0,-391.2219259391775,-400.5329698507605,-1372.118755229024
104894,13397,104894,23451,104894.0,55367.0,-396.0311205941673,-403.6921741868203,-1383.5263988733675
104894,13392,104894,23481,104894.0,55337.0,-400.85104779266214,-406.89713893097684,-1395.030493965855
104894,13384,104894,23489,104894.0,55322.0,-405.6819843528384,-410.15213079064273,-1406.6371343783123
104894,13374,104894,23512,104894.0,55348.0,-410.52472580799656,-413.46179765742625,-1418.353743874981
104894,13388,104894,23484,104894.0,55320.0,-415.3806434476901,-416.83063731817646,-1430.188980471523
104894,13394,104894,23474,104894.0,55370.0,-420.2515812380759,-420.2627296452441,-1442.1523321212624
104905,13376,104905,23514,104905.0,55332.0,-425.13959662734305,-423.7617624806683,-1454.2535491633455
104905,13389,104905,23537,104905.0,55333.0,-430.04673945749573,-427.33084920386625,-1466.5021135835789
104905,13381,104905,23505,104905.0,55320.0,-434.97492963173306,-430.97194359135676,-1478.906963342421
104905,13375,104905,23466,104905.0,55250.0,-439.92583431273374,-434.68547720194886,-1491.4765220620454
104905,13349,104905,23427,104905.0,55265.0,-444.90082149358284,-438.47075551183997,-1504.2190459265455
104905,13350,104905,23437,104905.0,55232.0,-449.9011032165878,-442.32681731898464,-1517.1431013377635
104915,13336,104915,23437,104915.0,55242.0,-454.9279591145448,-446.2530835324957,-1530.25779664455
104915,13338,104915,23417,104915.0,55204.0,-459.9828783363986,-450.2495444288699,-1543.5727676657161
104915,13344,104915,23445,104915.0,55213.0,-465.0675671983455,-454.3167343066851,-1557.0981453918737
104915,13345,104915,23434,104915.0,55225.0,-470.1838063234618,-458.45561901031965,-1570.8444630584033
104915,13337,104915,23430,104915.0,55229.0,-475.3332179290567,-462.667382141751,-1584.8222796567209
104915,13315,104915,23435,104915.0,55194.0,-480.5171293895239,-466.95325968683085,-1599.0416207353153
104925,13307,104925,23415,104925.0,55187.0,-485.7366625424147,-471.31448373184537,-1613.5116489943139
104925,13325,104925,23467,104925.0,55195.0,-490.99290905868554,-475.7521935722242,-1628.2406028056905
104925,13299,104925,23432,104925.0,55190.0,-496.2869449471224,-480.2671543026037,-1643.235623931697
104925,13314,104925,23415,104925.0,55134.0,-501.6197165374722,-484.85945082354107,-1658.5024559653182
104925,13285,104925,23391,104925.0,55109.0,-506.9919780198111,-489.52857210429,-1674.0454645528296
104925,13281,104925,23360,104925.0,55068.0,-512.4043391987318,-494.27390391116717,-1689.8681249196538
104936,13269,104936,23372,104936.0,55079.0,-517.8574173668917,-499.0953041938695,-1705.9735879996872
104936,13268,104936,23379,104936.0,55071.0,-523.3520001861694,-503.9934434189845,-1722.3649020930309
104936,13267,104936,23375,104936.0,55101.0,-528.8891021798048,-508.96975402481667,-1739.0447381693598
104936,13263,104936,23405,104936.0,55058.0,-534.4699067150185,-514.026124564715,-1756.0147887138369
104936,13265,104936,23391,104936.0,55030.0,-540.0956460612452,-519.1644922989799,-1773.275305491168
104936,13255,104936,23393,104936.0,55037.0,-545.7674700808624,-524.3864434607979,-1790.8250534277627
104946,13290,104946,23420,104946.0,55042.0,-551.4862711360782,-529.6929122065366,-1808.6613082435474
104946,13253,104946,23427,104946.0,55025.0,-557.2523923249167,-535.0838082128253,-1826.779507298621
104946,13247,104946,23397,104946.0,55004.0,-563.0653930612023,-540.5575344457337,-1845.1727884980942
104946,13213,104946,23362,104946.0,54934.0,-568.924153286616,-546.1108200903818,-1863.8318646487717
104946,13210,104946,23323,104946.0,54949.0,-574.8272556168515,-551.7391601085496,-1882.745344795143
104946,13207,104946,23303,104946.0,54862.0,-580.7733499918303,-557.4376470104241,-1901.9002377249055
104956,13198,104956,23304,104956.0,54900.0,-586.7613167134243,-563.2017679711798,-1921.282393136119
104956,13185,104956,23346,104956.0,54899.0,-592.7902906471245,-569.027758650311,-1940.876652200499
104956,13218,104956,23313,104956.0,54903.0,-598.8596336431424,-574.9123742181907,-1960.6664327543617
104956,13198,104956,23345,104956.0,54852.0,-604.9687378310699,-580.8524278159279,-1980.633047098484
104956,13195,104956,23320,104956.0,54836.0,-611.1167083812312,-586.8444527325679,-2000.7553904206036
104956,13182,104956,23392,104956.0,54842.0,-617.3022070526224,-592.8843629383373,-2021.0100024734534
104967,13193,104967,23355,104967.0,54819.0,-623.5234565593375,-598.9668651995605,-2041.3710154772834
104967,13187,104967,23343,104967.0,54773.0,-629.7781750968181,-605.0848536188407,-2061.809940437357
104967,13171,104967,23351,104967.0,54765.0,-636.0634228735171,-611.2292137827421,-2082.2956630540734
104967,13164,104967,23306,104967.0,54750.0,-642.3755428578578,-617.3889537778832,-2102.7946137201475
104967,13161,104967,23281,104967.0,54744.0,-648.7102302398328,-623.5514984481194,-2123.2707584602394
104967,13123,104967,23300,104967.0,54703.0,-655.062645729134,-629.7031634329996,-2143.685411898685
104977,13114,104977,23276,104977.0,54697.0,-661.4276517519982,-635.8295058310903,-2163.9971344812457
104977,13140,104977,23249,104977.0,54694.0,-667.800117059735,-641.9154406212449,-2184.1617091321914
104977,13126,104977,23278,104977.0,54661.0,-674.1749418334546,-647.945394483361,-2204.1319983408225
104977,13125,104977,23311,104977.0,54651.0,-680.5467913086359,-653.9032951335798,-2223.8577539388843
104977,13147,104977,23293,104977.0,54643.0,-686.9098214073883,-659.7720647903927,-2243.285512637149
104977,13131,104977,23295,104977.0,54638.0,-693.2573904845307,-665.5329926846863,-2262.3584352647895
104988,13148,104988,23258,104988.0,54651.0,-699.5817088123713,-671.1655011968937,-2281.0159457363184
104988,13103,104988,23255,104988.0,54586.0,-705.873596016024,-676.6473244433225,-2299.193295036186
104988,13092,104988,23228,104988.0,54533.0,-712.1225328958938,-681.9548793908032,-2316.8214994252585
104988,13092,104988,23226,104988.0,54502.0,-718.3169796018582,-687.0636480803537,-2333.8279484013447
104988,13064,104988,23202,104988.0,54476.0,-724.4446852706812,-691.9485029107152,-2350.137292036444
104988,13081,104988,23213,104988.0,54507.0,-730.492851883324,-696.5839676745472,-2365.6719867241445
104998,13062,104998,23220,104998.0,54483.0,-736.4481911862773,-700.9443240892149,-2380.3522508258798
104998,13067,104998,23229,104998.0,54494.0,-742.2968852085883,-705.0034573881433,-2394.095643189974
104998,13066,104998,23216,104998.0,54463.0,-748.0244973503825,-708.7345490632687,-2406.8166678235784
104998,13051,104998,23204,104998.0,54450.0,-753.6158729417298,-712.1098928318011,-2418.4266178553307
104998,13057,104998,23201,104998.0,54387.0,-759.0550661671671,-715.1009540961904,-2428.83374655177
104998,13058,104998,23202,104998.0,54429.0,-764.325281705142,-717.678522014483,-2437.9437176609263
105007,13067,105007,23198,105007.0,54350.0,-769.4087162480618,-719.8127790394136,-2445.660036511309
105007,13036,105007,23171,105007.0,54327.0,-774.2863409229006,-721.473347557104,-2451.8844831233932
105007,13023,105007,23173,105007.0,54305.0,-778.9378781547475,-722.6294886274507,-2456.5178560264685
105007,12995,105007,23166,105007.0,54312.0,-783.3421010825159,-723.2504113075856,-2459.4607850771818
105007,13008,105007,23159,105007.0,54285.0,-787.4772679735337,-723.3055154616202,-2460.6142097101783
105007,13001,105007,23110,105007.0,54301.0,-791.3213907848607,-722.764658091361,-2459.879627011722
105018,13007,105018,23144,105018.0,54269.0,-794.8522353614121,-721.5986242828415,-2457.159323280725
105018,12991,105018,23159,105018.0,54267.0,-798.0472118309456,-719.7795123223611,-2452.356689396066
105018,12992,105018,23157,105018.0,54220.0,-800.8833400738932,-717.2806595353481,-2445.3767526617858
105018,12997,105018,23154,105018.0,54237.0,-803.3372829043917,-714.0763728325978,-2436.1269484817713
105018,12993,105018,23152,105018.0,54184.0,-805.3853222356104,-710.1418796893419,-2424.5179871915966
105018,12981,105018,23157,105018.0,54208.0,-807.0032951741684,-705.4534680091544,-2410.4647320066015
105028,12999,105028,23174,105028.0,54204.0,-808.1665899731606,-699.9885991346496,-2393.8870100099
105028,12962,105028,23110,105028.0,54202.0,-808.8501864356613,-693.7260210775856,-2374.710227377882
105028,12922,105028,23140,105028.0,54209.0,-809.0288811994808,-686.6461680368465,-2352.8658905855436
105028,12937,105028,23120,105028.0,54219.0,-808.6778828656477,-678.7317983154594,-2328.292179675993
105028,12942,105028,23139,105028.0,54203.0,-807.7734195804338,-669.968474612246,-2300.9345677020983
105028,12933,105028,23138,105028.0,54266.0,-806.2929409561273,-660.3448062888648,-2270.746466065713
105038,12963,105038,23171,105038.0,54242.0,-804.2150547313968,-649.8525532353445,-2237.689770010463
105038,12952,105038,23212,105038.0,54303.0,-801.5193891292536,-638.4864945618361,-2201.7352733823627
105038,12949,105038,23210,105038.0,54302.0,-798.1864504122643,-626.2440178620935,-2162.8630833965776
105038,12942,105038,23189,105038.0,54317.0,-794.1976543814528,-613.1247914654377,-2121.06311121994
105038,12953,105038,23251,105038.0,54397.0,-789.5355304246159,-599.1308395103315,-2076.335636975408
105038,12967,105038,23214,105038.0,54435.0,-784.1838619377437,-584.2667365286497,-2028.691664137497
105049,12935,105049,23200,105049.0,54441.0,-778.1277151127468,-568.5398182610634,-1978.1529803252527
105049,12935,105049,23213,105049.0,54504.0,-771.3536237433882,-551.9607485322283,-1924.7524077940539
105049,12942,105049,23246,105049.0,54549.0,-763.850021595208,-534.5442092110584,-1868.5343198106498
105049,12961,105049,23271,105049.0,54572.0,-755.607594926917,-516.3091584028691,-1809.5550919696195
105049,12967,105049,23270,105049.0,54635.0,-746.6193369705431,-497.27872519762104,-1747.8835639009885
105049,12986,105049,23308,105049.0,54719.0,-736.8804382338158,-477.4801430768834,-1683.6015216710418
105059,12988,105059,23374,105059.0,54807.0,-726.3881767717157,-456.94467670805045,-1616.803818176131
105059,12994,105059,23385,105059.0,54949.0,-715.1418854837116,-435.7072113793296,-1547.597902217212
105059,13007,105059,23409,105059.0,55030.0,-703.1430248554595,-413.805682153454,-1476.1028159187097
105059,13039,105059,23471,105059.0,55111.0,-690.39524783617,-391.2807058841239,-1402.4480334300524
105059,13028,105059,23488,105059.0,55246.0,-676.9043394267077,-368.1752489268172,-1326.772560020554
105059,13062,105059,23488,105059.0,55325.0,-662.6781421629389,-344.53425840228306,-1249.2241619124306
105069,13051,105069,23518,105069.0,55389.0,-647.7265867047452,-320.40460167831253,-1169.958613075753
105069,13050,105069,23550,105069.0,55515.0,-632.0618535825353,-295.83527011536944,-1089.1392415708185
105069,13070,105069,23582,105069.0,55628.0,-615.6987042254073,-270.8774468831384,-1006.9365821890332
105069,13077,105069,23589,105069.0,55787.0,-598.6548432574104,-245.58440690276112,-923.5275735829033
105069,13123,105069,23652,105069.0,55880.0,-580.9510849211742,-220.01144153205092,-839.0942478230332
105069,13127,105069,23698,105069.0,56011.0,-562.6112785294521,-194.21567472680607,-753.8223377146213
105080,13178,105080,23755,105080.0,56139.0,-543.6620894073931,-168.2555260440115,-667.9000712175033
105080,13204,105080,23787,105080.0,56284.0,-524.1326912184516,-142.1899461367446,-581.5169628097474
105080,13215,105080,23829,105080.0,56410.0,-504.05440119251216,-116.07773046205267,-494.86238929369733
105080,13260,105080,23897,105080.0,56537.0,-483.46039492713754,-89.97695179932555,-408.12407343966083
105080,13282,105080,23911,105080.0,56630.0,-462.3854997502423,-63.94435183322042,-321.48673648030444
105080,13293,105080,23875,105080.0,56729.0,-440.8659724807027,-38.03492467770275,-235.13112385586692
105090,13328,105090,23936,105090.0,56803.0,-418.9393677167599,-12.302131675466569,-149.2334731132612
105090,13338,105090,23980,105090.0,56928.0,-396.6445278572941,13.201646912418312,-63.965272400185086
105090,13375,105090,24026,105090.0,57028.0,-374.0215782866739,38.42519609844845,20.50703411540144
105090,13405,105090,24019,105090.0,57142.0,-351.1118617046608,63.31894425652848,104.0226159930944
105090,13435,105090,24081,105090.0,57243.0,-327.95776577932133,87.83524381377458,186.4269975438167
105090,13466,105090,24091,105090.0,57315.0,-304.60247516387335,111.92845412554965,267.5727365368132
105100,13499,105100,24143,105100.0,57415.0,-281.0897213835935,135.55511342004695,347.31986547948486
105100,13549,105100,24171,105100.0,57554.0,-257.4634907456672,158.67423569275985,425.53624999968224
105100,13590,105100,24219,105100.0,57617.0,-233.76758564937558,181.24769752930314,502.0982331317623
105100,13612,105100,24269,105100.0,57703.0,-210.04507632730343,203.24075058278595,576.8914018154844
105100,13634,105100,24258,105100.0,57760.0,-186.33787635521793,224.6225779625487,649.810983800425
105100,13635,105100,24242,105100.0,57842.0,-162.6866307684852,245.36650305441754,720.7618604492204
105111,13660,105111,24231,105111.0,57879.0,-139.13089721379515,265.44950369244725,789.6584315660705
105111,13687,105111,24274,105111.0,57943.0,-115.70942049177268,284.85134623020576,856.4243495068192
105111,13718,105111,24283,105111.0,57973.0,-92.4602583818471,303.5540060719055,920.9920666675723
105111,13774,105111,24316,105111.0,58086.0,-69.42064416292902,321.5415696059273,983.3023587119487
105111,13792,105111,24375,105111.0,58153.0,-46.626604834240425,338.80044004231274,1043.3042122674256
105111,13809,105111,24390,105111.0,58220.0,-24.11254227575688,355.3198132657325,1100.9552004404509
105121,13824,105121,24372,105121.0,58262.0,-1.911069622932871,371.09219546026395,1156.2219268739618
105121,13873,105121,24370,105121.0,58252.0,19.946944803356075,386.113434663302,1209.0800337959204
105121,13894,105121,24430,105121.0,58345.0,41.432452887142745,400.3823272041077,1259.5136780102848
105121,13912,105121,24395,105121.0,58377.0,62.518475045137734,413.900396162584,1307.5149613243152
105121,13928,105121,24418,105121.0,58420.0,83.18026339702169,426.67185808275474,1353.0837469909598
105121,13937,105121,24407,105121.0,58424.0,103.39525315846436,438.703395414493,1396.2275528061323
105131,13953,105131,24408,105131.0,58450.0,123.14287996231747,450.00376288474513,1436.9610999445404
105131,13980,105131,24414,105131.0,58464.0,142.40438324257616,460.5833894866687,1475.3055861112844
105131,14000,105131,24436,105131.0,58515.0,161.16272384606935,470.45406485490344,1511.2879881310214
105131,14035,105131,24429,105131.0,58519.0,179.40266707576808,479.6288088578093,1544.9405997249564
105131,14041,105131,24435,105131.0,58549.0,197.1109629127522,488.1218147493686,1576.3007145737865
105131,14062,105131,24462,105131.0,58553.0,214.27648629786097,495.9483501109969,1605.4102472157952
105142,14069,105142,24455,105142.0,58616.0,230.89024278831636,503.1247365496487,1632.3153472494082
105142,14089,105142,24480,105142.0,58629.0,246.94528244968024,509.6684420631424,1657.0662625068085
105142,14112,105142,24486,105142.0,58641.0,262.43663560567074,515.5981985256021,1679.7174254290107
105142,14094,105142,24481,105142.0,58641.0,277.36128281662036,520.9341194429709,1700.3273947306566
105142,14119,105142,24413,105142.0,58632.0,291.71801152011017,525.6975805989396,1718.9584522768355
105142,14118,105142,24449,105142.0,58600.0,305.5071391992619,529.910597838714,1735.6758917395964
105152,14127,105152,24430,105152.0,58635.0,318.7302609737684,533.5950615297005,1750.5471123865304
105152,14135,105152,24424,105152.0,58611.0,331.39004387058674,536.7723005471252,1763.640821487861
105152,14148,105152,24430,105152.0,58616.0,343.4900393965645,539.4628394965594,1775.026486861993
105152,14172,105152,24481,105152.0,58628.0,355.0345932564744,541.6862837300088,1784.7738754536445
105152,14190,105152,24477,105152.0,58657.0,366.0289229349271,543.4616127894884,1792.9527485625317
105152,14193,105152,24481,105152.0,58653.0,376.47930633885414,544.8077298624637,1799.6328814656213
105162,14208,105162,24501,105162.0,58701.0,386.3932174109033,545.7438436735673,1804.8842938763773
105162,14222,105162,24509,105162.0,58657.0,395.7793660128673,546.2897125515908,1808.7775149453705
105162,14227,105162,24490,105162.0,58656.0,404.6477410002303,546.4658977778977,1811.383635668687
105162,14222,105162,24463,105162.0,58636.0,413.00963192294375,546.2937948718741,1812.7739521499598
105162,14216,105162,24436,105162.0,58627.0,420.877491419094,545.7952195414757,1813.019401819579
105162,14223,105162,24443,105162.0,58622.0,428.26463591667084,544.9917337950551,1812.1900675647098
105173,14216,105173,24429,105173.0,58618.0,435.1849279301649,543.9040960243133,1810.3548203402693
105173,14217,105173,24473,105173.0,58593.0,441.65250631045967,542.5520650728297,1807.581061575941
105173,14232,105173,24429,105173.0,58623.0,447.6815579344591,540.9545252434427,1803.9345064953923
105173,14242,105173,24439,105173.0,58612.0,453.2862174018262,539.1296199539156,1799.4791215249188
105173,14242,105173,24437,105173.0,58588.0,458.48062666241924,537.094664750301,1794.2772318833786
105173,14250,105173,24472,105173.0,58571.0,463.279012458651,534.866106222212,1788.3894694456103
105183,14255,105183,24466,105183.0,58564.0,467.69570220128617,532.4598176747008,1781.874443516142
105183,14268,105183,24467,105183.0,58569.0,471.7451506731229,529.8915448401689,1774.7884361155734
105183,14269,105183,24419,105183.0,58591.0,475.4420276908287,527.1770923223988,1767.1854011865544
105183,14252,105183,24443,105183.0,58554.0,478.801273167124,524.332092412406,1759.1172416173722
105183,14248,105183,24387,105183.0,58515.0,481.8379572031481,521.3715783767227,1750.633945453298
105183,14229,105183,24398,105183.0,58520.0,484.5669265181584,518.3095418298619,1741.783255825124
105194,14258,105194,24389,105194.0,58523.0,487.0024249406523,515.1585081155088,1732.6102392762923
105194,14255,105194,24417,105194.0,58507.0,489.15793438006153,511.9293397167023,1723.1572103350263
105194,14282,105194,24428,105194.0,58475.0,491.046314746696,508.63144537975654,1713.463808507141
105194,14282,105194,24441,105194.0,58467.0,492.6801108422758,505.2732812706272,1703.5668458664586
105194,14275,105194,24431,105194.0,58493.0,494.07183759714144,501.8628767233074,1693.5000737198548
105194,14280,105194,24439,105194.0,58485.0,495.23409146736753,498.40817383393266,1683.294286069549
105204,14283,105204,24470,105204.0,58468.0,496.1795199658146,494.9172636081116,1672.9777102130847
105204,14277,105204,24443,105204.0,58454.0,496.9207986755748,491.3987288667107,1662.5762463617534
105204,14264,105204,24374,105204.0,58395.0,497.47058700652497,487.8618123489258,1652.1133287085008
105204,14271,105204,24364,105204.0,58438.0,497.8413732440531,484.3158835701553,1641.6095265113347
105204,14259,105204,24369,105204.0,58398.0,498.04528740870717,480.76948139247133,1631.0822648997375
105204,14251,105204,24365,105204.0,58375.0,498.0939422381747,477.2297192413506,1620.545790215732
105214,14249,105214,24365,105214.0,58381.0,497.99824119195966,473.702200433166,1610.011059584424
105214,14270,105214,24397,105214.0,58418.0,497.7682219133741,470.19116209068466,1599.4856696090317
105214,14276,105214,24369,105214.0,58457.0,497.41312705173993,466.69976246815827,1588.974362145127
105214,14257,105214,24379,105214.0,58404.0,496.94164343283114,463.2303617911115,1578.4800057182179
105214,14266,105214,24380,105214.0,58412.0,496.3620158389467,459.7846305611538,1568.0042894821127
105214,14275,105214,24399,105214.0,58411.0,495.6820128563205,456.3636613107748,1557.5478543935283
105225,14283,105225,24399,105225.0,58407.0,494.9090015352331,452.96826386258414,1547.1103452142422
105225,14252,105225,24370,105225.0,58410.0,494.05011442196496,449.5992700152361,1536.6906504510048
105225,14269,105225,24346,105225.0,58354.0,493.1122456413393,446.2575096672359,1526.2870934705115
105225,14237,105225,24346,105225.0,58352.0,492.10185758705575,442.94340573654097,1515.897297577543
105225,14239,105225,24353,105225.0,58334.0,491.02472751816117,439.6565642652265,1505.5177898743523
105225,14245,105225,24338,105225.0,58336.0,489.88569456894083,436.39564909246417,1495.143708253619
105235,14245,105235,24360,105235.0,58341.0,488.68854257876274,433.15844194987324,1484.7687998493175
105235,14274,105235,24345,105235.0,58345.0,487.43611977358717,429.94196457630017,1474.3856645602275
105235,14262,105235,24379,105235.0,58342.0,486.13064053594974,426.7426851832587,1463.986142661955
105235,14265,105235,24356,105235.0,58348.0,484.7739991765569,423.55681138853305,1453.5617172260554
105235,14258,105235,24367,105235.0,58349.0,483.36791147497195,420.3805604481787,1443.1038931558908
105235,14274,105235,24388,105235.0,58357.0,481.91393249582575,417.2103542896177,1432.6046016800963
105245,14253,105245,24370,105245.0,58330.0,480.41350442742544,414.0430669591509,1422.0565901000246
105245,14270,105245,24347,105245.0,58333.0,478.86801213202705,410.8762274584203,1411.4536533653882
105245,14236,105245,24348,105245.0,58306.0,477.27876136585166,407.70790689216335,1400.7906712846086
105245,14246,105245,24312,105245.0,58263.0,475.64684319878234,404.5363689339684,1390.0634677614355
105245,14243,105245,24335,105245.0,58260.0,473.972943282199,401.3597123571517,1379.2684315170336
105245,14251,105245,24339,105245.0,58258.0,472.25726794856394,398.1756878264992,1368.402088668451
105256,14254,105256,24335,105256.0,58278.0,470.49964581020606,394.9818104381361,1357.4610259587926
105256,14254,105256,24347,105256.0,58305.0,468.69970164117296,391.7756122537565,1346.4423124846699
105256,14249,105256,24366,105256.0,58254.0,466.85699933700766,388.55490741265845,1335.3441792055894
105256,14254,105256,24346,105256.0,58244.0,464.9711114655329,385.3181265614148,1324.1664180154967
105256,14267,105256,24375,105256.0,58282.0,463.04169232330537,382.06463364753955,1312.9103668643827
105256,14256,105256,24357,105256.0,58275.0,461.06864355431867,378.79496036474416,1301.5790759069644
105266,14251,105266,24330,105266.0,58230.0,459.0522671077895,375.51093600622943,1290.1777922456897
105266,14231,105266,24307,105266.0,58188.0,456.9932314981836,372.2155002180697,1278.7140710559222
105266,14222,105266,24292,105266.0,58178.0,454.89233516944813,368.912174312407,1267.1972498415332
105266,14231,105266,24289,105266.0,58155.0,452.75021467689055,365.60450270437815,1255.6377955589533
105266,14229,105266,24293,105266.0,58164.0,450.567202060375,362.29571733099937,1244.04694929669
105266,14233,105266,24318,105266.0,58154.0,448.3433840076844,358.9887200569031,1232.436700557283
105276,14248,105276,24299,105276.0,58118.0,446.07876768301685,355.6863445125307,1220.8199045983567
105276,14252,105276,24338,105276.0,58137.0,443.7735350025669,352.391715133332,1209.2103036465012
105276,14234,105276,24274,105276.0,58129.0,441.4283246425194,349.1085171219928,1197.6225345398457
105276,14227,105276,24266,105276.0,58086.0,439.04432725709324,345.840936407591,1186.072266038031
105276,14244,105276,24277,105276.0,58083.0,436.6231857903505,342.5932209145625,1174.5761981951337
105276,14266,105276,24291,105276.0,58085.0,434.16703475652787,339.3693648916179,1163.1518625775757
105287,14207,105287,24294,105287.0,58083.0,431.6787533127037,336.1732703163553,1151.8176012227495
105287,14206,105287,24279,105287.0,58038.0,429.16195850467886,333.0090857356038,1140.5927379371583
105287,14212,105287,24240,105287.0,58000.0,426.62058883945747,329.8812792187399,1129.4974860046823
105287,14204,105287,24277,105287.0,57972.0,424.05857590559845,326.79436838778935,1118.552385263334
105287,14206,105287,24258,105287.0,58012.0,421.4798143848714,323.7526918876432,1107.7776827644464
105287,14213,105287,24261,105287.0,57987.0,418.8882279586379,320.7604629746081,1097.1932189491786
105297,14224,105297,24263,105297.0,57949.0,416.2879066978548,317.8218844981525,1086.8186770292755
105297,14201,105297,24262,105297.0,57942.0,413.6833218789873,314.94121585772626,1076.6735655541652
105297,14205,105297,24252,105297.0,57952.0,411.0794298860427,312.1228484610133,1066.7769335272128
105297,14201,105297,24292,105297.0,57952.0,408.4816083889593,309.37140775784314,1057.1473355122691
105297,14207,105297,24273,105297.0,57924.0,405.89560879636406,306.69200312802263,1047.8030825407295
105297,14187,105297,24226,105297.0,57903.0,403.3275895682329,304.0904696440472,1038.762351212766
105307,14175,105307,24223,105307.0,57875.0,400.78406628210877,301.57314013489173,1030.0429399327456
105307,14163,105307,24209,105307.0,57873.0,398.27167504576846,299.14623236105257,1021.6618497798974
105307,14163,105307,24210,105307.0,57802.0,395.79686642432574,296.8153631025545,1013.6348412221263
105307,14148,105307,24182,105307.0,57834.0,393.36567740251456,294.5852881277062,1005.9759033945691
105307,14169,105307,24194,105307.0,57816.0,390.98361558023873,292.45966751825836,998.6968034080965
105307,14155,105307,24213,105307.0,57856.0,388.65567766880855,290.44091286423486,991.8070815320539
105318,14160,105318,24235,105318.0,57831.0,386.38646163541364,288.5303752462105,985.3144594904306
105318,14158,105318,24213,105318.0,57815.0,384.1802529339675,286.7288152364215,979.2252365778129
105318,14160,105318,24257,105318.0,57836.0,382.04108062489894,285.0368209559896,973.5444001381353
105318,14161,105318,24233,105318.0,57831.0,379.9727999080673,283.4551235640712,968.2756707834042
105318,14157,105318,24261,105318.0,57836.0,377.979184747601,281.98491538721896,963.4217351525905
105318,14155,105318,24229,105318.0,57803.0,376.0639879647104,280.62808364045486,958.9844718099637
105328,14146,105328,24200,105328.0,57780.0,374.23094034360724,279.3871755405796,954.9648625888631
105328,14124,105328,24163,105328.0,57780.0,372.4836461313851,278.26492273597074,951.3625852728633
105328,14134,105328,24167,105328.0,57779.0,370.82535659951407,277.2634362815353,948.175611381225
105328,14128,105328,24214,105328.0,57762.0,369.25875714216596,276.3836225304171,945.4000337054212
105328,14127,105328,24211,105328.0,57796.0,367.78590137398373,275.62528128751984,943.0300487873506
105328,14128,105328,24149,105328.0,57844.0,366.40822535927487,274.987513832187,941.0582118398006
105338,14143,105338,24200,105338.0,57779.0,365.1265994081754,274.4687021578927,939.4760513111502
105338,14138,105338,24199,105338.0,57806.0,363.9414821509406,274.0662598045998,938.2744928769636
105338,14128,105338,24225,105338.0,57812.0,362.8530959116057,273.77680597232467,937.4438179011788
105338,14153,105338,24196,105338.0,57741.0,361.8615039647424,273.5966071712386,936.9735148556416
105338,14139,105338,24261,105338.0,57793.0,360.9666948994584,273.5218959355692,936.852005800533
105338,14100,105338,24178,105338.0,57798.0,360.1686417078847,273.5490930247055,937.0663433832201
105349,14117,105349,24194,105349.0,57747.0,359.46706846865993,273.674779427992,937.6022308583483
105349,14111,105349,24157,105349.0,57775.0,358.8610723603135,273.89521187143157,938.444007351294
105349,14101,105349,24184,105349.0,57764.0,358.3489470727575,274.2057300213178,939.5743721718619
105349,14116,105349,24170,105349.0,57811.0,357.92814491405557,274.60045418472066,940.9743121164116
105349,14126,105349,24211,105349.0,57815.0,357.5953068385535,275.0723080650456,942.6234549256262
105349,14127,105349,24211,105349.0,57819.0,357.34645559228477,275.61331414591154,944.5006147566335
105359,14121,105359,24248,105359.0,57831.0,357.17723268262466,276.2150951450115,946.5842146211185
105359,14139,105359,24228,105359.0,57850.0,357.083025495474,276.8694219150028,948.8525500400874
105359,14140,105359,24265,105359.0,57817.0,357.05908386028943,277.568642109626,951.2840079354364
105359,14147,105359,24243,105359.0,57875.0,357.1007253716741,278.3059736844349,953.8571928870332
105359,14128,105359,24226,105359.0,57828.0,357.20350819554494,279.0756351426709,956.5510140673639
105359,14126,105359,24195,105359.0,57811.0,357.3632096121763,279.8726164440433,959.3446768797301
105369,14104,105369,24195,105369.0,57821.0,357.5755982977753,280.69209683783197,962.2173249945424
105369,14108,105369,24158,105369.0,57816.0,357.836103693587,281.5287890623585,965.1475661866635
105369,14134,105369,24213,105369.0,57791.0,358.1395809274773,282.3764428028578,968.1131922815207
105369,14143,105369,24219,105369.0,57884.0,358.48040618903406,283.227766620347,971.0910716443152
105369,14132,105369,24240,105369.0,57879.0,358.8528298695773,284.07486366851737,974.0574881311215
105369,14149,105369,24210,105369.0,57879.0,359.25124766090744,284.9097604968114,976.9889373617501
105380,14143,105380,24257,105380.0,57879.0,359.67031491714306,285.72465075350476,979.8626889605673
105380,14138,105380,24288,105380.0,57906.0,360.1050198099997,286.5121333135314,982.6569111211664
105380,14137,105380,24274,105380.0,57887.0,360.55067902222197,287.26578303760215,985.3507649907931
105380,14133,105380,24229,105380.0,57893.0,361.0028419751935,287.98062131983613,987.9245181465027
105380,14138,105380,24210,105380.0,57866.0,361.4571988574877,288.6528693940968,990.3594572500672
105380,14111,105380,24207,105380.0,57875.0,361.90949462320435,289.27917276784945,992.6375964717788
105390,14123,105390,24202,105390.0,57855.0,362.3553560101328,289.8559262894422,994.7413320457947
105390,14117,105390,24212,105390.0,57844.0,362.7900762393091,290.37895697788446,996.6531062769627
105390,14139,105390,24221,105390.0,57906.0,363.2085437212111,290.84348581176,998.3551706149963
105390,14134,105390,24264,105390.0,57931.0,363.60537563268724,291.244350398884,999.8298187035002
105390,14140,105390,24254,105390.0,57902.0,363.97512903408176,291.57650284290304,1001.060118303868
105390,14140,105390,24234,105390.0,57880.0,364.31245208502605,291.83549559929946,1002.0303878114152
105401,14136,105401,24212,105401.0,57907.0,364.6121512476245,292.01751430811953,1002.7260293505723
105401,14170,105401,24260,105401.0,57890.0,364.8692657152606,292.1190569075378,1003.1332511906091
105401,14136,105401,24245,105401.0,57886.0,365.0792382762922,292.1368419826494,1003.2390118436679
105401,14134,105401,24246,105401.0,57875.0,365.23801884984056,292.0680557433987,1003.030941421398
105401,14135,105401,24219,105401.0,57926.0,365.3419085870682,291.9104722812661,1002.4972426945144
105401,14126,105401,24195,105401.0,57918.0,365.38732478051463,291.6621820877971,1001.6269162839726
105411,14120,105411,24196,105411.0,57875.0,365.37065062428593,291.3210604511501,1000.4101707233438
105411,14128,105411,24207,105411.0,57854.0,365.2881072079921,290.88430364021417,998.8383762250395
105411,14137,105411,24222,105411.0,57895.0,365.13570452656865,290.3483284121661,996.9035563936176
105411,14152,105411,24243,105411.0,57867.0,364.90938900312943,289.7090491008921,994.5981183720762
105411,14123,105411,24245,105411.0,57890.0,364.6052844419787,288.96234823976874,991.914999766373
105411,14143,105411,24250,105411.0,57883.0,364.2197877413883,288.1045283536657,988.8478885585705
105421,14135,105421,24250,105421.0,57933.0,363.74952353659546,287.1326074332417,985.391514206866
105421,14135,105421,24257,105421.0,57897.0,363.1913420466113,286.0444865373413,981.5421477403676
105421,14138,105421,24212,105421.0,57840.0,362.5423582095946,284.83899771104166,977.2979285276692
105421,14130,105421,24212,105421.0,57814.0,361.7999654250405,283.5156764603289,972.6584532182371
105421,14126,105421,24184,105421.0,57787.0,360.9618159002544,282.07426084751694,967.6237908394479
105421,14110,105421,24224,105421.0,57803.0,360.0257191160219,280.5142450693511,962.1936222525643
105432,14133,105432,24205,105432.0,57794.0,358.98949086745387,278.8347870405147,956.366886455437
105432,14128,105432,24215,105432.0,57829.0,357.85092901458427,277.0348910748146,950.1419033886878
105432,14126,105432,24208,105432.0,57844.0,356.6079564869534,275.1135722502392,943.5168680414187
105432,14103,105432,24218,105432.0,57842.0,355.258700907941,273.069933680386,936.490580310737
105432,14128,105432,24210,105432.0,57798.0,353.8013935290695,270.9032579069103,929.0630281781359
105432,14117,105432,24219,105432.0,57789.0,352.23430002425766,268.61311851039727,921.235435676854
105442,14148,105442,24228,105442.0,57801.0,350.5558673584687,266.1995180310444,913.0099618268415
105442,14106,105442,24208,105442.0,57798.0,348.7649754796891,263.66306637547405,904.3896029692054
105442,14113,105442,24202,105442.0,57710.0,346.8610166320408,261.0050580461135,895.378268072488
105442,14099,105442,24178,105442.0,57751.0,344.8437132809783,258.22731258286484,885.9804987216223
105442,14098,105442,24157,105442.0,57702.0,342.7128851371488,255.33181460311047,876.2009530617934
105442,14086,105442,24193,105442.0,57687.0,340.4682968313134,252.32033349529704,866.0440906743579
105452,14086,105452,24176,105452.0,57683.0,338.1095316074243,249.19432019099165,855.5139469310152
105452,14096,105452,24145,105452.0,57690.0,335.63591532682494,245.95503036606272,844.6139764441464
105452,14092,105452,24163,105452.0,57649.0,333.04657984001295,242.60346118509193,833.3471273770696
105452,14095,105452,24173,105452.0,57703.0,330.3406272951945,239.1401885673087,821.7160230508522
105452,14095,105452,24175,105452.0,57652.0,327.5172841042107,235.56550158898744,809.7232406262915
105452,14099,105452,24199,105452.0,57663.0,324.57603447258083,231.87979150226062,797.3716645064087
105463,14096,105463,24198,105463.0,57649.0,321.5167679182761,228.08400917265755,784.6646998531056
105463,14082,105463,24162,105463.0,57647.0,318.33989019968544,224.18003913619475,771.6064149226114
105463,14078,105463,24131,105463.0,57598.0,315.0463106339792,220.17066239780883,758.2016829319286
105463,14061,105463,24118,105463.0,57574.0,311.63730579165565,216.05901684265456,744.4560744023478
105463,14043,105463,24127,105463.0,57547.0,308.11429798902157,211.84797813160475,730.3754330368081
105463,14043,105463,24116,105463.0,57567.0,304.47856675288256,207.53986977589696,715.9654810063306
105473,14050,105473,24135,105473.0,57523.0,300.7310267790712,203.13649825376586,701.2317570132205
105473,14045,105473,24113,105473.0,57550.0,296.87222614709833,198.6393228636574,686.179787780638
105473,14062,105473,24111,105473.0,57516.0,292.9025242858041,194.04958418911144,670.8153187429882
105473,14043,105473,24090,105473.0,57503.0,288.8223262221406,189.36826363125712,655.1445430384126
105473,14049,105473,24120,105473.0,57478.0,284.6322638162007,184.59596705824228,639.1741909970597
105473,14064,105473,24130,105473.0,57504.0,280.3333178939213,179.733032048315,622.9115406290132
105483,14043,105483,24125,105483.0,57448.0,275.9270006520442,174.7799517940595,606.3645856623255
105483,14036,105483,24093,105483.0,57433.0,271.4155173510194,169.73775745298786,589.542196967622
105483,13996,105483,24093,105483.0,57397.0,266.8016643984109,164.6080088201747,572.4539755710596
105483,14006,105483,24067,105483.0,57377.0,262.0884617277912,159.39250459179001,555.1099143403894
105483,14022,105483,24081,105483.0,57318.0,257.2788452033173,154.09300560922836,537.5200299298973
105483,14008,105483,24062,105483.0,57348.0,252.37571846368354,148.71110661662036,519.6939747800077
105494,13986,105494,24097,105494.0,57319.0,247.3821597139946,143.24829290186923,501.6408716926142
105494,13985,105494,24076,105494.0,57324.0,242.30139481560096,137.70619390936403,483.36954470567906
105494,13992,105494,24049,105494.0,57295.0,237.13663168715703,132.0868435424723,464.88888895227785
105494,13979,105494,24066,105494.0,57297.0,231.8910513741945,126.39267389728312,446.2081505286176
105494,13980,105494,24053,105494.0,57293.0,226.56791925527983,120.6263900906678,427.3371949978068
105494,13994,105494,24088,105494.0,57240.0,221.17070295091855,114.79107418124823,408.2868046941271
105504,13965,105504,24032,105504.0,57220.0,215.7032352763401,108.89047559468682,389.0687616540064
105504,13962,105504,24041,105504.0,57187.0,210.1698148653015,102.92912772792806,369.69559641932733
105504,13937,105504,24011,105504.0,57160.0,204.57508648872707,96.912136806175,350.1802411271301
105504,13926,105504,23995,105504.0,57085.0,198.92376771143566,90.84483509924598,330.53564921508246
105504,13908,105504,24009,105504.0,57089.0,193.22033304301436,84.73247844571492,310.77422549955224
105504,13932,105504,23959,105504.0,57072.0,187.46877280835858,78.58004457904823,290.90729691272975
105514,13913,105514,23997,105514.0,57070.0,181.6725905151011,72.39209161312581,270.94503026472137
105514,13915,105514,23983,105514.0,57047.0,175.8349778760458,66.17271902447027,250.89671975879378
105514,13911,105514,23997,105514.0,57022.0,169.95895285602018,59.92577668907404,230.77107560664922
105514,13913,105514,23947,105514.0,56978.0,164.0474545647819,53.6551235133046,210.57628475392585
105514,13920,105514,23988,105514.0,56996.0,158.10350822234724,47.364650186096924,190.31988187788443
105514,13879,105514,23971,105514.0,56981.0,152.13040140980522,41.05826627212761,170.00876834712494
105525,13871,105525,23941,105525.0,56939.0,146.13163675346001,34.74003567556258,149.6495063867917
105525,13871,105525,23909,105525.0,56912.0,140.11063867414754,28.414106195834847,129.24848954598338
105525,13852,105525,23883,105525.0,56877.0,134.0705095519782,22.08419222268776,108.81175044963356
105525,13849,105525,23903,105525.0,56845.0,128.01393233556553,15.752952448680787,88.34460799552437
105525,13837,105525,23915,105525.0,56881.0,121.94308593066106,9.421754247298281,67.85144723839755
105525,13840,105525,23938,105525.0,56847.0,115.85957530465785,3.090998671080513,47.33591105788571
105535,13832,105535,23925,105535.0,56849.0,109.76444301788874,-3.239250991607662,26.801432629865985
105535,13827,105535,23925,105535.0,56821.0,103.65823986714912,-9.56874389044367,6.251705852401528
105535,13829,105535,23890,105535.0,56803.0,97.54110401202828,-15.896846184643096,-14.309058176207714
105535,13830,105535,23928,105535.0,56776.0,91.41287284769933,-22.222592553145148,-34.87602602163349
105535,13843,105535,23940,105535.0,56738.0,85.27329844559767,-28.544592066454754,-55.44378016876453
105535,13822,105535,23891,105535.0,56701.0,79.12234227757111,-34.86063870052726,-76.00653320891524
105545,13805,105545,23862,105545.0,56671.0,72.96035494938508,-41.16757092184719,-96.55850599427822
105545,13795,105545,23842,105545.0,56637.0,66.7879851149903,-47.461754804272914,-117.09435257156133
105545,13784,105545,23826,105545.0,56632.0,60.60594100567556,-53.73979008052214,-137.60948839789387
105545,13773,105545,23814,105545.0,56599.0,54.414792759637464,-59.99902842445533,-158.1002309456776
105545,13778,105545,23833,105545.0,56617.0,48.214860051786445,-66.237835261604,-178.56373058740928
105545,13782,105545,23842,105545.0,56606.0,42.00623357424712,-72.45552233782752,-198.9976615307794
105556,13770,105556,23837,105556.0,56586.0,35.78894856830465,-78.6519733624541,-219.3997154048526
105556,13766,105556,23839,105556.0,56564.0,29.563162669905864,-84.82723190848657,-239.76716876243904
105556,13753,105556,23825,105556.0,56525.0,23.329210569501868,-90.98125395225932,-260.09674314608367
105556,13759,105556,23861,105556.0,56535.0,17.087590118407547,-97.1137380375595,-280.3846606758432
105556,13756,105556,23834,105556.0,56511.0,10.839007362518146,-103.22384486557485,-300.6266139748053
105556,13737,105556,23838,105556.0,56495.0,4.584490603204131,-109.30987310889287,-320.81754330462525
105566,13704,105566,23782,105566.0,56434.0,-1.6746268878016508,-115.36919908643978,-340.95149223567114
105566,13706,105566,23754,105566.0,56408.0,-7.936995169942804,-121.39867867997833,-361.02183748431094
105566,13696,105566,23784,105566.0,56381.0,-14.20159450329487,-127.39531122565324,-381.0217899029859
105566,13705,105566,23757,105566.0,56310.0,-20.467861554828175,-133.35663323922688,-400.94491791950327
105566,13708,105566,23777,105566.0,56343.0,-26.735564618781893,-139.2806700526633,-420.78563900226607
105566,13698,105566,23757,105566.0,56310.0,-33.00454929542559,-145.16575507080756,-440.53947698684294
105576,13691,105576,23756,105576.0,56306.0,-39.27452665651401,-151.010408968432,-460.2028931941985
105576,13683,105576,23763,105576.0,56292.0,-45.5450071165227,-156.81327079035316,-479.7729545748241
105576,13696,105576,23747,105576.0,56325.0,-51.81528086052168,-162.57301017559013,-499.2469624503533
105576,13688,105576,23777,105576.0,56299.0,-58.08428497413797,-168.28816408894625,-518.6218436357037
105576,13667,105576,23728,105576.0,56217.0,-64.35041396626627,-173.95693858137992,-537.8935873630332
105576,13635,105576,23723,105576.0,56217.0,-70.61154490010887,-179.57717395417325,-557.0573291612313
105587,13649,105587,23711,105587.0,56181.0,-76.86534396817842,-185.1466029042063,-576.1079098098446
105587,13610,105587,23687,105587.0,56149.0,-83.10958947174993,-190.66320339460856,-595.0402983629801
105587,13626,105587,23689,105587.0,56097.0,-89.34236961769318,-196.12548644755407,-613.8499138113627
105587,13623,105587,23673,105587.0,56100.0,-95.56216734549298,-201.53272499257622,-632.5330782714027
105587,13621,105587,23699,105587.0,56089.0,-101.76776546458598,-206.88504084460072,-651.0873407897607
105587,13600,105587,23694,105587.0,56102.0,-107.95807536338799,-212.18324865024078,-669.5113561844889
105597,13617,105597,23711,105597.0,56065.0,-114.13207349100492,-217.4284912053103,-687.8044404316834
105597,13596,105597,23691,105597.0,56080.0,-120.28876874900521,-222.62184623414646,-705.9661406115449
105597,13611,105597,23701,105597.0,56046.0,-126.42709559614042,-227.76407256906953,-723.9959287283239
105597,13598,105597,23709,105597.0,56062.0,-132.54576528091997,-232.85545320272234,-741.8929202670752
105597,13572,105597,23655,105597.0,56001.0,-138.6431642836796,-237.89567245804602,-759.655623585073
105597,13551,105597,23633,105597.0,55945.0,-144.71747405179252,-242.88398832782877,-777.2819913517524
105607,13549,105607,23655,105607.0,55955.0,-150.76702422235633,-247.81976677484124,-794.769931938285
105607,13550,105607,23621,105607.0,55929.0,-156.79058797400188,-252.7028923207045,-812.1178254866029
105607,13535,105607,23634,105607.0,55911.0,-162.7874414730199,-257.53387078163064,-829.3246339101283
105607,13549,105607,23650,105607.0,55912.0,-168.75729471061834,-262.3138062878667,-846.3898052283746
105607,13534,105607,23658,105607.0,55922.0,-174.70017875313516,-267.0441655530027,-863.313071436799
105607,13527,105607,23642,105607.0,55856.0,-180.61632382116875,-271.72635364695356,-880.0941095820672
105618,13538,105618,23645,105618.0,55854.0,-186.5060868876934,-276.36142502591576,-896.7324141387435
105618,13533,105618,23642,105618.0,55868.0,-192.3698458188045,-280.9500046568363,-913.2274353443108
105618,13522,105618,23633,105618.0,55843.0,-198.20781148005426,-285.49225123747516,-929.5784917514873
105618,13503,105618,23615,105618.0,55801.0,-204.0199379105345,-289.9878564226231,-945.7844792822027
105618,13500,105618,23587,105618.0,55782.0,-209.8060317461841,-294.4362217118926,-961.8438908352218
105618,13494,105618,23590,105618.0,55738.0,-215.56591721077586,-298.8368251497066,-977.7551950560542
105628,13476,105628,23562,105628.0,55727.0,-221.29953323401435,-303.1896078610937,-993.5172930216249
