c_ts,c_val,d_ts,d_val,e_ts,e_val,c_val_filtered,d_val_filtered,e_val_filtered
69339.0,13771.0,69339.0,25424.0,69339.0,25084.0,-203.13190698932698,-23.803513390015553,-63.66717503283752
69339.0,13816.0,69339.0,25492.0,69339.0,25139.0,-189.56222383040983,-19.041856439566885,-55.32817850951038
69350.0,13818.0,69350.0,25497.0,69350.0,25143.0,-175.63879632723848,-14.176155496135323,-46.83681470036014
69350.0,13842.0,69350.0,25451.0,69350.0,25130.0,-161.3867165269793,-9.217068326698453,-38.21172975799399
69350.0,13842.0,69350.0,25451.0,69350.0,25144.0,-146.83159404601145,-4.174522523736684,-29.471137258591398
69350.0,13852.0,69350.0,25443.0,69350.0,25140.0,-131.99964216364938,0.9417199893105419,-20.6330229090364
69350.0,13875.0,69350.0,25441.0,69350.0,25124.0,-116.91786674941818,6.1214613708051075,-11.71543592858282
69350.0,13903.0,69350.0,25415.0,69350.0,25130.0,-101.61417706024031,11.35363593598882,-2.7368705643545184
69360.0,13936.0,69360.0,25441.0,69360.0,25175.0,-86.11726372758233,16.62588835946734,6.283370107203467
69360.0,13957.0,69360.0,25482.0,69360.0,25209.0,-70.4562814809563,21.92434248043365,15.325235463042986
69360.0,13971.0,69360.0,25505.0,69360.0,25219.0,-54.66052186234714,27.23390312075348,24.36847706025881
69360.0,14015.0,69360.0,25547.0,69360.0,25248.0,-38.759182246886326,32.539004341642666,33.39326854162101
69360.0,14059.0,69360.0,25613.0,69360.0,25289.0,-22.781068326464435,37.82456784280765,42.38070209103401
69360.0,14088.0,69360.0,25626.0,69360.0,25286.0,-6.754046980190822,43.07716389831782,51.31330778045765
69370.0,14088.0,69370.0,25596.0,69370.0,25305.0,9.295547000462363,48.286065672479936,60.17551344132585
69370.0,14087.0,69370.0,25530.0,69370.0,25289.0,25.343144462414898,53.4434728483173,68.95381491756291
69370.0,14078.0,69370.0,25544.0,69370.0,25269.0,41.36567693334655,58.54370456616199,77.63659244406333
69370.0,14102.0,69370.0,25518.0,69370.0,25266.0,57.341036565149636,63.58206821104048,86.21359585274783
69370.0,14101.0,69370.0,25498.0,69370.0,25257.0,73.2475895763393,68.55401136254088,94.6752710064026
69370.0,14142.0,69370.0,25506.0,69370.0,25273.0,89.06390783941919,73.45447005413811,103.01219493310046
69381.0,14167.0,69381.0,25541.0,69381.0,25330.0,104.76875777065976,78.2774114766955,111.21485675384397
69381.0,14186.0,69381.0,25548.0,69381.0,25321.0,120.3413249578416,83.01584854540405,119.27393041978871
69381.0,14221.0,69381.0,25602.0,69381.0,25320.0,135.76152141066575,87.66229212274447,127.18072184214739
69381.0,14242.0,69381.0,25608.0,69381.0,25356.0,151.0102809910358,92.20942458066284,134.92734144834012
69381.0,14264.0,69381.0,25662.0,69381.0,25379.0,166.06986188444796,96.6508836303602,142.50680076699916
69381.0,14295.0,69381.0,25642.0,69381.0,25392.0,180.92412839533262,100.98202915105975,149.9133692314424
69391.0,14285.0,69391.0,25607.0,69391.0,25369.0,195.55876002223806,105.20037346678194,157.14294048385648
69391.0,14282.0,69391.0,25570.0,69391.0,25364.0,209.96123858010247,109.30528261635283,164.1929975490366
69391.0,14294.0,69391.0,25564.0,69391.0,25353.0,224.1205065794569,113.29704381662711,171.06217296465655
69391.0,14300.0,69391.0,25560.0,69391.0,25352.0,238.02651381189122,117.17589614740214,177.7496933473078
69391.0,14321.0,69391.0,25560.0,69391.0,25355.0,251.66990951967102,120.94141908706592,184.2549189135126
69391.0,14323.0,69391.0,25598.0,69391.0,25367.0,265.04188857690997,124.59230520969541,190.5770488188121
69401.0,14364.0,69401.0,25597.0,69401.0,25409.0,278.13413532604955,128.12649277692088,196.71508340797027
69401.0,14376.0,69401.0,25624.0,69401.0,25389.0,290.938911902978,131.54154089034793,202.66807173554326
69401.0,14392.0,69401.0,25625.0,69401.0,25419.0,303.449279178541,134.83502465831643,208.4354096364881
69401.0,14425.0,69401.0,25690.0,69401.0,25448.0,315.65931902486363,138.00495449746126,214.0170548092397
69401.0,14461.0,69401.0,25683.0,69401.0,25448.0,327.56440265111144,141.0504037981773,219.41384713256696
69401.0,14433.0,69401.0,25643.0,69401.0,25425.0,339.1615436484851,143.97211430654667,224.62782088597396
69412.0,14429.0,69412.0,25663.0,69412.0,25409.0,350.44947364774805,146.77255105670358,229.6620919591865
69412.0,14424.0,69412.0,25606.0,69412.0,25412.0,361.428201889908,149.45543718471265,234.5203301061701
69412.0,14430.0,69412.0,25573.0,69412.0,25411.0,372.09837850533415,152.02503365715964,239.2062229164472
69412.0,14440.0,69412.0,25601.0,69412.0,25404.0,382.46081768521435,154.48522451705222,243.7231418595154
69412.0,14451.0,69412.0,25562.0,69412.0,25433.0,392.5162394213595,156.83875357748568,248.07395767291132
69412.0,14483.0,69412.0,25610.0,69412.0,25429.0,402.26520753346585,159.0868775551922,252.2610191544394
69422.0,14487.0,69422.0,25623.0,69422.0,25442.0,411.7082578923812,161.22938496848485,256.28628514816154
69422.0,14488.0,69422.0,25653.0,69422.0,25450.0,420.8460751617637,163.26500706707657,260.1514679875288
69422.0,14519.0,69422.0,25665.0,69422.0,25473.0,429.6795480487609,165.1920771114073,263.8581842832988
69422.0,14555.0,69422.0,25730.0,69422.0,25507.0,438.2098669625526,167.00925387521636,267.40826477669975
69422.0,14550.0,69422.0,25743.0,69422.0,25497.0,446.43887249371767,168.71642071753791,270.80424546203636
69422.0,14557.0,69422.0,25689.0,69422.0,25475.0,454.36940373289156,170.3155639542582,274.0497282619091
69432.0,14524.0,69432.0,25617.0,69432.0,25450.0,462.00527602764487,171.81083722718753,277.14922868781883
69432.0,14529.0,69432.0,25607.0,69432.0,25460.0,469.35084559003997,173.20748194213706,280.10759536821354
69432.0,14555.0,69432.0,25600.0,69432.0,25448.0,476.4104623720044,174.51039290340393,282.92945056999883
69432.0,14553.0,69432.0,25592.0,69432.0,25447.0,483.18820772389915,175.7231809776955,285.6188559602378
69432.0,14562.0,69432.0,25622.0,69432.0,25461.0,489.6879187251958,176.84780954498126,288.17911239777453
69432.0,14570.0,69432.0,25674.0,69432.0,25441.0,495.9132157379686,177.88472367753198,290.61264303452634
69443.0,14584.0,69443.0,25653.0,69443.0,25464.0,501.86749258609063,178.83347198167922,292.92091914804416
69443.0,14585.0,69443.0,25676.0,69443.0,25494.0,507.5539582878181,179.69340217142437,295.104483268642
69443.0,14629.0,69443.0,25704.0,69443.0,25516.0,512.975756540869,180.46409444278325,297.1632941847252
69443.0,14653.0,69443.0,25747.0,69443.0,25547.0,518.1362903491915,181.1458564557531,299.09739380372963
69443.0,14643.0,69443.0,25706.0,69443.0,25512.0,523.0397537096351,181.7404418259347,300.90756397245707
69443.0,14613.0,69443.0,25648.0,69443.0,25475.0,527.6914351451135,182.2513688037715,302.5955077935697
69453.0,14604.0,69453.0,25623.0,69453.0,25489.0,532.0974226074106,182.68328256132125,304.16337732462233
69453.0,14604.0,69453.0,25624.0,69453.0,25483.0,536.2639463579595,183.04078393711234,305.61313734883925
69453.0,14589.0,69453.0,25586.0,69453.0,25465.0,540.1967967615427,183.32748542022773,306.94621644464576
69453.0,14604.0,69453.0,25604.0,69453.0,25466.0,543.9009281057306,183.54541566234172,308.1632692341169
69453.0,14622.0,69453.0,25642.0,69453.0,25485.0,547.3802523138974,183.69472384166474,309.2639283464423
69453.0,14647.0,69453.0,25649.0,69453.0,25490.0,550.6377397708746,183.77390237792545,310.24677071048444
69463.0,14631.0,69463.0,25660.0,69463.0,25502.0,553.6757502336754,183.78038633097574,311.109536639854
69463.0,14661.0,69463.0,25684.0,69463.0,25530.0,556.4963023138267,183.7111126392849,311.84945604674624
69463.0,14686.0,69463.0,25760.0,69463.0,25550.0,559.1012774044426,183.56313033918997,312.4637000661511
69463.0,14700.0,69463.0,25730.0,69463.0,25567.0,561.4928089239442,183.33454719640216,312.9499885287748
69463.0,14668.0,69463.0,25704.0,69463.0,25527.0,563.6737252697741,183.02537368657548,313.3071084967086
69463.0,14651.0,69463.0,25648.0,69463.0,25510.0,565.6475769079116,182.63750143642457,313.5349533529064
69474.0,14649.0,69474.0,25611.0,69474.0,25495.0,567.4181645355943,182.17377565144125,313.63402379604236
69474.0,14653.0,69474.0,25626.0,69474.0,25488.0,568.9889952125164,181.6367827610256,313.60477727991633
69474.0,14653.0,69474.0,25586.0,69474.0,25478.0,570.3629962110417,181.02794615359508,313.44713551875367
69474.0,14651.0,69474.0,25624.0,69474.0,25514.0,571.5424237428628,180.3470614733581,313.16022492868865
69474.0,14650.0,69474.0,25648.0,69474.0,25534.0,572.5287944551309,179.59222894251724,312.7424936955548
69474.0,14673.0,69474.0,25656.0,69474.0,25542.0,573.3228355777939,178.76024949880608,312.1922297799655
69484.0,14676.0,69484.0,25656.0,69484.0,25538.0,573.9245831918881,177.84722779322183,311.5081338485561
69484.0,14700.0,69484.0,25715.0,69484.0,25543.0,574.3336629976973,176.84908263365983,310.6896355274986
69484.0,14726.0,69484.0,25762.0,69484.0,25548.0,574.5497050091132,175.76225842936418,309.73701170283346
69484.0,14718.0,69484.0,25709.0,69484.0,25545.0,574.5728537302699,174.584759179039,308.651480922807
69484.0,14682.0,69484.0,25704.0,69484.0,25512.0,574.4041066902598,173.316788710019,307.4352253231101
69484.0,14682.0,69484.0,25631.0,69484.0,25516.0,574.0451514630606,171.96045284651046,306.09117004420466
69494.0,14680.0,69494.0,25631.0,69494.0,25498.0,573.4978853008766,170.51881087111707,304.62259292720904
69494.0,14660.0,69494.0,25631.0,69494.0,25478.0,572.7640301704121,168.9948813139137,303.0327465332616
69494.0,14664.0,69494.0,25611.0,69494.0,25492.0,571.8448674220845,167.3910431535175,301.3245085762566
69494.0,14702.0,69494.0,25661.0,69494.0,25515.0,570.7410798993301,165.70887281607318,299.50020232840563
69494.0,14697.0,69494.0,25675.0,69494.0,25512.0,569.4529301283158,163.94938249470658,297.56179332641074
69494.0,14700.0,69494.0,25655.0,69494.0,25526.0,567.9806834971428,162.11358890497542,295.51129433232927
69505.0,14702.0,69505.0,25667.0,69505.0,25518.0,566.3249020248003,160.20296317198944,293.3510931369801
69505.0,14718.0,69505.0,25730.0,69505.0,25534.0,564.4865823990675,158.21968288463046,291.08416873238536
69505.0,14732.0,69505.0,25708.0,69505.0,25574.0,562.4673750368574,156.1671679063071,288.71437183467293
69505.0,14721.0,69505.0,25684.0,69505.0,25518.0,560.2699205584945,154.0507359431147,286.24685667576534
69505.0,14688.0,69505.0,25624.0,69505.0,25491.0,557.8980324413606,151.87761683545853,283.6882389543449
69505.0,14684.0,69505.0,25598.0,69505.0,25485.0,555.3564748258641,149.65613719612543,281.04611146274755
69515.0,14671.0,69515.0,25596.0,69515.0,25475.0,552.6504891557693,147.39460538417387,278.3283482320905
69515.0,14663.0,69515.0,25566.0,69515.0,25450.0,549.7853872282785,145.10045308126104,275.5426441994821
69515.0,14658.0,69515.0,25581.0,69515.0,25478.0,546.7662772733828,142.77973642404072,272.6962233675191
69515.0,14664.0,69515.0,25635.0,69515.0,25470.0,543.5978884924734,140.43700455472532,269.79573342482314
69515.0,14682.0,69515.0,25620.0,69515.0,25485.0,540.2845728184396,138.07571348155864,266.8474115909494
69515.0,14674.0,69515.0,25618.0,69515.0,25487.0,536.8305242186152,135.69888963442426,263.85737373720826
69526.0,14700.0,69526.0,25683.0,69526.0,25495.0,533.2401020690626,133.30960384905427,260.8319071782143
69526.0,14720.0,69526.0,25702.0,69526.0,25524.0,529.5182260802701,130.9115733955079,257.7778114526257
69526.0,14710.0,69526.0,25671.0,69526.0,25496.0,525.6708932195899,128.51007002737688,254.7028091446715
69526.0,14670.0,69526.0,25607.0,69526.0,25465.0,521.7055452868083,126.11236693294441,251.61576748536964
69526.0,14654.0,69526.0,25585.0,69526.0,25424.0,517.6309024393549,123.72715979693737,248.52636621310782
69526.0,14629.0,69526.0,25556.0,69526.0,25425.0,513.4563575431591,121.36341505606714,245.44431462042002
69536.0,14624.0,69536.0,25536.0,69536.0,25437.0,509.19132974635323,119.02932100211895,242.3786699571155
69536.0,14611.0,69536.0,25597.0,69536.0,25417.0,504.84479149490534,116.73166322790729,239.33760293936535
69536.0,14637.0,69536.0,25571.0,69536.0,25423.0,500.4250314277695,114.47581641256858,236.32840972847995
69536.0,14651.0,69536.0,25569.0,69536.0,25430.0,495.9397580975949,112.2661215242847,233.35752119883063
69536.0,14632.0,69536.0,25578.0,69536.0,25437.0,491.39649163071437,110.10609578898783,230.43059830123798
69536.0,14637.0,69536.0,25598.0,69536.0,25446.0,486.8028929699142,107.99850361274595,227.55278818877005
69546.0,14651.0,69546.0,25644.0,69546.0,25470.0,482.1668887919323,105.9457193913524,224.72908627728543
69546.0,14655.0,69546.0,25662.0,69546.0,25475.0,477.4968508836767,103.95051365211417,221.96480609159397
69546.0,14632.0,69546.0,25614.0,69546.0,25431.0,472.80187828648104,102.01690424264268,219.2659928076034
69546.0,14591.0,69546.0,25553.0,69546.0,25403.0,468.0918257609302,100.15033785841726,216.63936545225516
69546.0,14581.0,69546.0,25539.0,69546.0,25392.0,463.37685971716866,98.35688405456067,214.09170257050403
69546.0,14569.0,69546.0,25518.0,69546.0,25387.0,458.66680438014316,96.64204464168446,211.62913457953763
69557.0,14570.0,69557.0,25511.0,69557.0,25374.0,453.97067451694704,95.00986432380147,209.25670282101765
69557.0,14568.0,69557.0,25546.0,69557.0,25385.0,449.29649762444046,93.46250633414294,206.9781426218309
69557.0,14565.0,69557.0,25542.0,69557.0,25389.0,444.65131398432413,92.000294968295,204.79582949221202
69557.0,14579.0,69557.0,25557.0,69557.0,25405.0,440.0412673063279,90.62208733173337,202.71092881480024
69557.0,14586.0,69557.0,25583.0,69557.0,25402.0,435.47180799062795,89.32571322723437,200.72369430494632
69557.0,14579.0,69557.0,25624.0,69557.0,25422.0,430.9480027359469,88.10853178064376,198.83379377712376
69567.0,14608.0,69567.0,25645.0,69567.0,25463.0,426.47485317386617,86.96827485698752,197.04071279608684
69567.0,14581.0,69567.0,25649.0,69567.0,25426.0,422.0575990754244,85.90400127638047,195.34431716476394
69567.0,14554.0,69567.0,25586.0,69567.0,25416.0,417.7018764458532,84.9166761985382,193.745238321279
69567.0,14548.0,69567.0,25528.0,69567.0,25394.0,413.413499632775,84.00887786566742,192.24471939978883
69567.0,14516.0,69567.0,25509.0,69567.0,25362.0,409.19797857223347,83.18362965326793,190.84407978572662
69567.0,14532.0,69567.0,25513.0,69567.0,25360.0,405.0600624050709,82.44307577853219,189.5440713332989
69577.0,14517.0,69577.0,25510.0,69577.0,25378.0,401.00346106998154,81.78770483836257,188.34435084349212
69577.0,14530.0,69577.0,25521.0,69577.0,25372.0,397.0307851976852,81.21614742789944,187.24332174932397
69577.0,14535.0,69577.0,25560.0,69577.0,25403.0,393.14365359409135,80.72532117202724,186.2383187133456
69577.0,14539.0,69577.0,25576.0,69577.0,25403.0,389.3429176331316,80.31091309281052,185.32595709969564
69577.0,14540.0,69577.0,25574.0,69577.0,25414.0,385.62893572062353,79.96807595877898,184.50254621575385
69577.0,14561.0,69577.0,25625.0,69577.0,25437.0,382.00184113295234,79.69205947293358,183.7644875012885
69588.0,14568.0,69588.0,25631.0,69588.0,25437.0,378.46188011492256,79.47882906219799,183.10867801475345
69588.0,14545.0,69588.0,25582.0,69588.0,25400.0,375.0097898708857,79.32565824579264,182.53282218835412
69588.0,14506.0,69588.0,25532.0,69588.0,25363.0,371.6468845472551,79.23111794779909,182.03528160914897
69588.0,14494.0,69588.0,25543.0,69588.0,25380.0,368.37462657319406,79.19425440060311,181.61442040456762
69588.0,14497.0,69588.0,25543.0,69588.0,25360.0,365.19397878402566,79.21368827890845,181.2679643635446
69588.0,14487.0,69588.0,25488.0,69588.0,25355.0,362.10498655203924,79.28713294058366,180.99266931669374
69598.0,14488.0,69598.0,25555.0,69598.0,25365.0,359.1066425159735,79.41107076856646,180.7841268391919
69598.0,14520.0,69598.0,25540.0,69598.0,25388.0,356.19691855822373,79.58061602466219,180.63670738399264
69598.0,14509.0,69598.0,25584.0,69598.0,25409.0,353.37301767749705,79.78984562570085,180.54383121653325
69598.0,14513.0,69598.0,25578.0,69598.0,25403.0,350.63174463271343,80.03238550561795,180.4984762616325
69598.0,14515.0,69598.0,25610.0,69598.0,25427.0,347.96974247913687,80.3019674032818,180.49363772454586
69598.0,14562.0,69598.0,25676.0,69598.0,25457.0,345.38369830457117,80.59306555299062,180.52272351602335
69608.0,14524.0,69608.0,25611.0,69608.0,25415.0,342.87074897243144,80.90171870242101,180.5799929572617
69608.0,14498.0,69608.0,25597.0,69608.0,25395.0,340.42878139251843,81.22601348418776,180.66071720175307
69608.0,14493.0,69608.0,25535.0,69608.0,25391.0,338.0561983814702,81.56564441069615,180.76078430930818
69608.0,14466.0,69608.0,25532.0,69608.0,25377.0,335.7513566021054,81.92083185574701,180.87610935027647
69608.0,14489.0,69608.0,25509.0,69608.0,25359.0,333.5121056668183,82.29124158756329,181.00218156932976
69608.0,14453.0,69608.0,25510.0,69608.0,25384.0,331.3355377448589,82.67522156083794,181.1337183922533
69619.0,14473.0,69619.0,25550.0,69619.0,25393.0,329.217842513828,83.06944908094025,181.26453773033103
69619.0,14488.0,69619.0,25572.0,69619.0,25406.0,327.1542473140204,83.46910577384091,181.3877782717863
69619.0,14502.0,69619.0,25572.0,69619.0,25399.0,325.1392166676441,83.86848939941416,181.49625749110916
69619.0,14489.0,69619.0,25614.0,69619.0,25441.0,323.16686072074333,84.26167815017507,181.58277331632064
69619.0,14536.0,69619.0,25644.0,69619.0,25457.0,321.2313058878046,84.64317677931851,181.64050753008746
69619.0,14514.0,69619.0,25652.0,69619.0,25432.0,319.32706430953573,85.00871675358135,181.66357767574988
69629.0,14514.0,69629.0,25614.0,69629.0,25422.0,317.4493962359977,85.35593537193651,181.64732889133154
69629.0,14482.0,69629.0,25549.0,69629.0,25421.0,315.59437814013893,85.68434912655046,181.58815741512845
69629.0,14465.0,69629.0,25532.0,69629.0,25389.0,313.75857148059833,85.99444532029553,181.48314316296504
69629.0,14473.0,69629.0,25542.0,69629.0,25392.0,311.93851282888437,86.2864727735878,181.32965137167062
69629.0,14463.0,69629.0,25507.0,69629.0,25372.0,310.13033712986197,86.55963182521818,181.1248993614897
69629.0,14476.0,69629.0,25524.0,69629.0,25387.0,308.32966170615106,86.81166767917763,180.8656018364564
69639.0,14465.0,69639.0,25550.0,69639.0,25426.0,306.5316218524177,87.03867285391108,180.5478911169069
69639.0,14477.0,69639.0,25584.0,69639.0,25395.0,304.73094280888165,87.23530118011064,180.1676014540539
69639.0,14488.0,69639.0,25572.0,69639.0,25424.0,302.92205434038834,87.39539346961571,179.72063827530846
69639.0,14491.0,69639.0,25640.0,69639.0,25432.0,301.09931284748615,87.51266896459595,179.20320785736607
69639.0,14518.0,69639.0,25672.0,69639.0,25440.0,299.2573332089458,87.58151715779545,178.61208968850167
69639.0,14505.0,69639.0,25622.0,69639.0,25419.0,297.39137589196207,87.59794886121857,177.94494151900903
69650.0,14491.0,69650.0,25576.0,69650.0,25413.0,295.4976336719446,87.56001053515612,177.20035387992806
69650.0,14479.0,69650.0,25569.0,69650.0,25383.0,293.5732076444521,87.46718642920663,176.37758533815872
69650.0,14453.0,69650.0,25546.0,69650.0,25392.0,291.615784794018,87.31939774232829,175.4761323385988
69650.0,14439.0,69650.0,25543.0,69650.0,25384.0,289.62316292449236,87.11625451433974,174.49535424691467
69650.0,14440.0,69650.0,25525.0,69650.0,25364.0,287.5927485019032,86.85657038138297,173.43424872858589
69650.0,14444.0,69650.0,25560.0,69650.0,25392.0,285.5212197399337,86.5380572435748,172.29129046847657
69660.0,14468.0,69660.0,25604.0,69660.0,25394.0,283.4045067940066,86.15741642380608,171.06440409466998
69660.0,14474.0,69660.0,25588.0,69660.0,25404.0,281.2380810758531,85.71094578841378,169.75119682507966
69660.0,14485.0,69660.0,25586.0,69660.0,25405.0,279.0174081078145,85.19519949798601,168.34928900316044
69660.0,14500.0,69660.0,25649.0,69660.0,25431.0,276.7384001349749,84.60734634893888,166.85660902942914
69660.0,14500.0,69660.0,25631.0,69660.0,25425.0,274.397828159337,83.94559512506947,165.27173168461871
69660.0,14467.0,69660.0,25604.0,69660.0,25422.0,271.99360043009517,83.20972954110132,163.5942133598991
69670.0,14464.0,69670.0,25552.0,69670.0,25388.0,269.52469702367773,82.40109309972252,161.8246874607053
69670.0,14436.0,69670.0,25550.0,69670.0,25365.0,266.99078486547955,81.52184173551666,159.96456214709184
69670.0,14433.0,69670.0,25563.0,69670.0,25365.0,264.39175000451377,80.57409358552036,158.0154397926106
69670.0,14434.0,69670.0,25496.0,69670.0,25350.0,261.72731512545147,79.55942711567252,155.9785839407214
69670.0,14428.0,69670.0,25559.0,69670.0,25348.0,258.99683944432104,78.47853326652677,153.85459965814266
69670.0,14441.0,69670.0,25568.0,69670.0,25371.0,256.19930302246667,77.33106407003308,151.643298916611
69681.0,14445.0,69681.0,25536.0,69681.0,25376.0,253.33342694954294,76.11592460858179,149.34381776681
69681.0,14431.0,69681.0,25582.0,69681.0,25385.0,250.39786871413472,74.83162786618071,146.95497721285054
69681.0,14445.0,69681.0,25619.0,69681.0,25401.0,247.39136125816856,73.47659310221604,144.47570365139597
69681.0,14474.0,69681.0,25664.0,69681.0,25429.0,244.31285848978155,72.04989574021023,141.90548664506787
69681.0,14472.0,69681.0,25620.0,69681.0,25399.0,241.16191799403052,70.55234334032689,139.24490036459264
69681.0,14426.0,69681.0,25568.0,69681.0,25373.0,237.93911859740328,68.98699938029868,136.49587705636884
69691.0,14418.0,69691.0,25526.0,69691.0,25337.0,234.6460028190293,67.35863067047723,133.66140264783598
69691.0,14397.0,69691.0,25511.0,69691.0,25333.0,231.28454823675114,65.67249114748799,130.74480239925128
69691.0,14392.0,69691.0,25487.0,69691.0,25332.0,227.85661091621125,63.933184610442765,127.74908803860887
69691.0,14358.0,69691.0,25512.0,69691.0,25328.0,224.3635027427525,62.143948253192164,124.67664150514386
69691.0,14400.0,69691.0,25505.0,69691.0,25342.0,220.80565605620697,60.30639935224325,121.52918866278863
69691.0,14403.0,69691.0,25550.0,69691.0,25355.0,217.1825779203533,58.420706558734956,118.30797183912615
69701.0,14402.0,69701.0,25547.0,69701.0,25334.0,213.49320329229272,56.48607645865295,115.0140482767828
69701.0,14415.0,69701.0,25557.0,69701.0,25349.0,209.7363293790144,54.50135099329825,111.64851612815426
69701.0,14416.0,69701.0,25591.0,69701.0,25361.0,205.91093086048488,52.46553362210994,108.21264367005709
69701.0,14420.0,69701.0,25626.0,69701.0,25348.0,202.0164450544924,50.37838793910363,104.70808585650104
69701.0,14408.0,69701.0,25569.0,69701.0,25365.0,198.05301086066746,48.2411593574534,101.1371476898806
69701.0,14390.0,69701.0,25534.0,69701.0,25306.0,194.0215360268797,46.05683095987774,97.50288388646005
69712.0,14372.0,69712.0,25510.0,69712.0,25297.0,189.9235239249136,43.829520871335106,93.80884250691075
69712.0,14354.0,69712.0,25487.0,69712.0,25290.0,185.76070635247055,41.56349663669367,90.05848888275854
69712.0,14347.0,69712.0,25458.0,69712.0,25283.0,181.5346199289569,39.26231241128313,86.25470030667321
69712.0,14351.0,69712.0,25480.0,69712.0,25287.0,177.2462838831555,36.928147763833536,82.3995600600187
69712.0,14349.0,69712.0,25492.0,69712.0,25298.0,172.89609049025344,34.56149774082617,78.49437378585034
69712.0,14354.0,69712.0,25541.0,69712.0,25296.0,168.48388586468917,32.161430662284076,74.53985552229233
69722.0,14365.0,69722.0,25507.0,69722.0,25290.0,164.00916014502732,29.726257802984094,70.53637609352194
69722.0,14363.0,69722.0,25576.0,69722.0,25314.0,159.4713207630061,27.254212260847567,66.48416252639362
69722.0,14395.0,69722.0,25605.0,69722.0,25352.0,154.87004880718015,24.74415324507997,62.3836306096041
69722.0,14375.0,69722.0,25551.0,69722.0,25314.0,150.20573242181624,22.196433441128548,58.235984145923624
69722.0,14350.0,69722.0,25545.0,69722.0,25282.0,145.4797910620238,19.613372956184747,54.0436174450858
69722.0,14325.0,69722.0,25460.0,69722.0,25266.0,140.69457893526382,16.998839970822928,49.80985151148633
69732.0,14296.0,69732.0,25454.0,69732.0,25247.0,135.85286960691735,14.357182895864469,45.53828109968509
69732.0,14300.0,69732.0,25438.0,69732.0,25242.0,130.95723132691262,11.692044136073022,41.23221620455132
69732.0,14292.0,69732.0,25440.0,69732.0,25245.0,126.00958845673978,9.005547098337814,36.89435953679853
69732.0,14304.0,69732.0,25482.0,69732.0,25234.0,121.01109641236405,6.298068827730475,32.52669964378774
69732.0,14300.0,69732.0,25496.0,69732.0,25240.0,115.96226125517751,3.5685779686384933,28.130530545564312
69732.0,14315.0,69732.0,25505.0,69732.0,25246.0,110.86318246768644,0.8153478045608438,23.70653306181515
69743.0,14317.0,69743.0,25508.0,69743.0,25250.0,105.71386829934391,-1.9633623666663027,19.25496230676589
69743.0,14327.0,69743.0,25559.0,69743.0,25277.0,100.51460545913363,-4.768782947561803,14.7759757287605
69743.0,14330.0,69743.0,25567.0,69743.0,25258.0,95.26634469658728,-7.600977408911973,10.270065253010841
69743.0,14273.0,69743.0,25512.0,69743.0,25253.0,89.97094035766014,-10.45813625409967,5.7384093573028565
69743.0,14265.0,69743.0,25470.0,69743.0,25213.0,84.63095853692721,-13.336499530596058,1.1828920948758253
69743.0,14261.0,69743.0,25439.0,69743.0,25213.0,79.24912257333574,-16.231166983091214,-3.394235259593046
69753.0,14256.0,69753.0,25434.0,69753.0,25213.0,73.82788554981903,-19.13720503623358,-7.990772750317404
69753.0,14227.0,69753.0,25411.0,69753.0,25197.0,68.36927137301791,-22.050467921867266,-12.604791263239179
69753.0,14225.0,69753.0,25414.0,69753.0,25188.0,62.87469698858729,-24.96808048154756,-17.2347138114163
69753.0,14252.0,69753.0,25435.0,69753.0,25211.0,57.34478173882093,-27.888659672236457,-21.879388162315223
69753.0,14248.0,69753.0,25496.0,69753.0,25206.0,51.77946153938251,-30.812086660879217,-26.538001103986915
69753.0,14245.0,69753.0,25463.0,69753.0,25200.0,46.17837749602171,-33.73875265633099,-31.209808081934142
69764.0,14253.0,69764.0,25496.0,69764.0,25219.0,40.54120909152766,-36.66874799450265,-35.893886680002794
69764.0,14261.0,69764.0,25519.0,69764.0,25219.0,34.86791754451514,-39.601318270370484,-40.58889980864848
69764.0,14248.0,69764.0,25519.0,69764.0,25218.0,29.159026837950307,-42.534326465686846,-45.29277554515545
69764.0,14242.0,69764.0,25447.0,69764.0,25172.0,23.415841227203202,-45.463824315064485,-50.002516164282184
69764.0,14215.0,69764.0,25413.0,69764.0,25135.0,17.64044540389102,-48.3843562877924,-54.714468318095584
69764.0,14189.0,69764.0,25401.0,69764.0,25141.0,11.835452868531831,-51.28999226167146,-59.42502612700153
69774.0,14170.0,69774.0,25367.0,69774.0,25135.0,6.0035368497732975,-54.175394919097116,-64.13126743532044
69774.0,14160.0,69774.0,25341.0,69774.0,25116.0,0.14689344539380045,-57.036620509085424,-68.83120966512314
69774.0,14200.0,69774.0,25418.0,69774.0,25141.0,-5.73306965760662,-59.871659206833925,-73.52386142206367
69774.0,14187.0,69774.0,25425.0,69774.0,25156.0,-11.635578130952126,-62.680320568257116,-78.20910634453617
69774.0,14178.0,69774.0,25414.0,69774.0,25142.0,-17.560061922824104,-65.46345200486832,-82.88732209342564
69774.0,14176.0,69774.0,25431.0,69774.0,25137.0,-23.505899417578746,-68.22224716353404,-87.55900769359539
69784.0,14198.0,69784.0,25500.0,69784.0,25168.0,-29.472334861858656,-70.95780002059723,-92.2246094501219
69784.0,14187.0,69784.0,25487.0,69784.0,25141.0,-35.45825743004457,-73.67035218862895,-96.88431877240481
69784.0,14154.0,69784.0,25450.0,69784.0,25142.0,-41.461935049229965,-76.35843173607194,-101.5378317775596
69784.0,14148.0,69784.0,25370.0,69784.0,25103.0,-47.48106324498457,-79.01879216938957,-106.18435803781733
69784.0,14132.0,69784.0,25371.0,69784.0,25106.0,-53.5131007331085,-81.64738637645593,-110.82292502795107
69784.0,14126.0,69784.0,25378.0,69784.0,25102.0,-59.555582201785455,-84.24055602147007,-115.45273342650134
69795.0,14108.0,69795.0,25355.0,69795.0,25076.0,-65.60632134387532,-86.79564725940034,-120.07337104573517
69795.0,14104.0,69795.0,25372.0,69795.0,25065.0,-71.6635871894951,-89.31114799318175,-124.68500076511009
69795.0,14114.0,69795.0,25307.0,69795.0,25131.0,-77.72622345306883,-91.78682030454044,-129.28851033738079
69795.0,14110.0,69795.0,25396.0,69795.0,25094.0,-83.79358952853238,-94.22393131474132,-133.88525777050017
69795.0,14133.0,69795.0,25369.0,69795.0,25085.0,-89.86530091214036,-96.62520607099376,-138.47658225285267
69795.0,14118.0,69795.0,25416.0,69795.0,25095.0,-95.94085609878817,-98.99428385894976,-143.0636472238487
69805.0,14129.0,69805.0,25481.0,69805.0,25139.0,-102.01927544175095,-101.33486809047395,-147.64739901385303
69805.0,14118.0,69805.0,25436.0,69805.0,25107.0,-108.09884509002012,-103.64968299063159,-152.2281553288111
69805.0,14087.0,69805.0,25381.0,69805.0,25074.0,-114.17701663342967,-105.93975909693421,-156.80518782318927
69805.0,14046.0,69805.0,25338.0,69805.0,25075.0,-120.25062238702321,-108.20481650191141,-161.37685325359286
69805.0,14036.0,69805.0,25321.0,69805.0,25036.0,-126.31647722503754,-110.44447462394993,-165.94108907847607
69805.0,14033.0,69805.0,25344.0,69805.0,25005.0,-132.37204326655927,-112.65932926087413,-170.49596594743326
69815.0,14021.0,69815.0,25304.0,69815.0,25006.0,-138.41580133515356,-114.85144158864196,-175.0403234469744
69815.0,14027.0,69815.0,25335.0,69815.0,25018.0,-144.4473434363092,-117.02447382795492,-179.57428273836723
69815.0,14042.0,69815.0,25391.0,69815.0,25034.0,-150.4672915346514,-119.18358888530682,-184.09929006459288
69815.0,14046.0,69815.0,25381.0,69815.0,25027.0,-156.47700622054236,-121.3348487467994,-188.6177659998042
69815.0,14044.0,69815.0,25393.0,69815.0,25045.0,-162.47816012934896,-123.48435228863411,-193.13268824111861
69815.0,14050.0,69815.0,25460.0,69815.0,25073.0,-168.47236832974215,-125.6375393238196,-197.6471766780694
69826.0,14061.0,69826.0,25449.0,69826.0,25059.0,-174.4608877767763,-127.79842392605929,-202.16395720505773
69826.0,14035.0,69826.0,25380.0,69826.0,25056.0,-180.44432507287814,-129.96886412405064,-206.6848660817962
69826.0,14016.0,69826.0,25347.0,69826.0,25005.0,-186.4225164224403,-132.14868542449358,-211.21074081569776
69826.0,13985.0,69826.0,25333.0,69826.0,24996.0,-192.39476796839057,-134.3366985763951,-215.7418007183902
69826.0,13961.0,69826.0,25307.0,69826.0,24982.0,-198.36038366047654,-136.53177780043094,-220.27827628335132
69826.0,13953.0,69826.0,25277.0,69826.0,24993.0,-204.31926818200708,-138.73363928586414,-224.82088465136349
69836.0,13963.0,69836.0,25328.0,69836.0,24970.0,-210.2723621050465,-140.94340699846202,-229.3709892532869
69836.0,13973.0,69836.0,25321.0,69836.0,25005.0,-216.22170487772325,-143.16374724009094,-233.93056907493514
69836.0,13983.0,69836.0,25357.0,69836.0,24998.0,-222.17013573230207,-145.39845859443037,-238.502023809415
69836.0,13964.0,69836.0,25361.0,69836.0,24994.0,-228.12087529882433,-147.65183490101177,-243.08783305028908
69836.0,13971.0,69836.0,25358.0,69836.0,24999.0,-234.0772529458825,-149.92808446383998,-247.69028194311562
69836.0,13990.0,69836.0,25419.0,69836.0,25014.0,-240.04255141842845,-152.23083369723133,-252.3112795284905
69846.0,13988.0,69846.0,25403.0,69846.0,25005.0,-246.01971570593753,-154.5625248529823,-256.9520956680315
69846.0,13950.0,69846.0,25352.0,69846.0,24958.0,-252.01100698908613,-156.92385140462966,-261.61316827429164
69846.0,13928.0,69846.0,25318.0,69846.0,24942.0,-258.0180204833148,-159.31387253311118,-266.29434709774165
69846.0,13923.0,69846.0,25286.0,69846.0,24942.0,-264.04212174723966,-161.7309038278246,-270.9954890580654
69846.0,13906.0,69846.0,25257.0,69846.0,24919.0,-270.0849088004029,-164.17361758255743,-275.7169497825224
69846.0,13902.0,69846.0,25239.0,69846.0,24920.0,-276.1484814400849,-166.64200464647325,-280.4598438555409
69857.0,13905.0,69857.0,25282.0,69857.0,24927.0,-282.23556627156165,-169.1380359617025,-285.2261850683749
69857.0,13910.0,69857.0,25326.0,69857.0,24939.0,-288.34948524098854,-171.66566558203732,-290.01882973043723
69857.0,13897.0,69857.0,25302.0,69857.0,24948.0,-294.4939777031749,-174.23012654034042,-294.8411642914387
69857.0,13915.0,69857.0,25345.0,69857.0,24940.0,-300.6729973431868,-176.83711239356273,-299.6966930128145
69857.0,13930.0,69857.0,25362.0,69857.0,24951.0,-306.8904514561823,-179.49216201080606,-304.5887077194783
69857.0,13931.0,69857.0,25373.0,69857.0,24968.0,-313.1497569935526,-182.20000053874978,-309.5200111927046
69867.0,13899.0,69867.0,25358.0,69867.0,24946.0,-319.4533974143643,-184.96389101596804,-314.49258279900124
69867.0,13876.0,69867.0,25293.0,69867.0,24904.0,-325.80285867265286,-187.78544373248292,-319.5074068539932
69867.0,13858.0,69867.0,25269.0,69867.0,24887.0,-332.1990009261965,-190.66516250333441,-324.56479757185343
69867.0,13845.0,69867.0,25265.0,69867.0,24884.0,-338.6425643822431,-193.60344650073546,-329.6650384303035
69867.0,13841.0,69867.0,25246.0,69867.0,24875.0,-345.13454818779326,-196.60141824091517,-334.8088563138193
69867.0,13834.0,69867.0,25235.0,69867.0,24884.0,-351.6764016245412,-199.66138140031512,-339.9975745935727
69877.0,13833.0,69877.0,25284.0,69877.0,24877.0,-358.2700660247318,-202.78702781623417,-345.2330604698151
69877.0,13845.0,69877.0,25284.0,69877.0,24890.0,-364.9178936697764,-205.98323979279715,-350.5175616493645
69877.0,13838.0,69877.0,25328.0,69877.0,24882.0,-371.62243146913295,-209.25543497989304,-355.85348289358177
69877.0,13841.0,69877.0,25304.0,69877.0,24902.0,-378.3861361302893,-212.60878354146269,-361.2431246288992
69877.0,13867.0,69877.0,25382.0,69877.0,24924.0,-385.21107335948716,-216.0475079158528,-366.6883147410084
69877.0,13856.0,69877.0,25322.0,69877.0,24892.0,-392.09850995314457,-219.57420227750578,-372.18992134240136
69888.0,13813.0,69888.0,25308.0,69888.0,24874.0,-399.04854645119076,-223.1893962056645,-377.7475641839421
69888.0,13799.0,69888.0,25260.0,69888.0,24847.0,-406.0601910117416,-226.89179960324117,-383.3598120533846
69888.0,13771.0,69888.0,25246.0,69888.0,24834.0,-413.1318664090063,-230.67910337535838,-389.02468606088064
69888.0,13762.0,69888.0,25222.0,69888.0,24827.0,-420.2619717469579,-234.5488421129938,-394.7401410101175
69888.0,13752.0,69888.0,25209.0,69888.0,24813.0,-427.4492904904671,-238.49908206936328,-400.5043852763712
69888.0,13764.0,69888.0,25257.0,69888.0,24831.0,-434.69318414914335,-242.5288090283723,-406.3160230632603
69898.0,13775.0,69898.0,25281.0,69898.0,24823.0,-441.9934947504868,-246.6377469691115,-412.17399683359383
69898.0,13775.0,69898.0,25272.0,69898.0,24818.0,-449.35017838645274,-250.82562577556155,-418.07738864820067
69898.0,13757.0,69898.0,25279.0,69898.0,24849.0,-456.7628985239627,-255.0914565546419,-424.0251937780143
69898.0,13773.0,69898.0,25335.0,69898.0,24852.0,-464.23079157727204,-259.4330473090996,-430.01596746159254
69898.0,13776.0,69898.0,25312.0,69898.0,24838.0,-471.7522914305184,-263.84640080966676,-436.047322585976
69898.0,13762.0,69898.0,25244.0,69898.0,24819.0,-479.3248469985359,-268.32518295178727,-442.1156163045124
69908.0,13720.0,69908.0,25206.0,69908.0,24778.0,-486.9447514421719,-272.86102264743704,-448.21608066094404
69908.0,13699.0,69908.0,25210.0,69908.0,24779.0,-494.6073967984114,-277.4445685753906,-454.34330019810136
69908.0,13689.0,69908.0,25170.0,69908.0,24772.0,-502.3078387910575,-282.0664530885303,-460.49170683440207
69908.0,13673.0,69908.0,25161.0,69908.0,24770.0,-510.04128948298205,-286.7178863181285,-466.6558068336109
69908.0,13684.0,69908.0,25147.0,69908.0,24783.0,-517.8033557896562,-291.3911418265326,-472.8301380209253
69908.0,13678.0,69908.0,25195.0,69908.0,24779.0,-525.5900341244798,-296.07985111325524,-479.0090586093752
69919.0,13687.0,69919.0,25220.0,69919.0,24782.0,-533.3975098879577,-300.7787409295307,-485.1864528123915
69919.0,13679.0,69919.0,25231.0,69919.0,24775.0,-541.2218691906571,-305.48280956449327,-491.355474852397
69919.0,13679.0,69919.0,25226.0,69919.0,24781.0,-549.0588322188968,-310.1864360705816,-497.5083700180745
69919.0,13709.0,69919.0,25282.0,69919.0,24791.0,-556.9034800430969,-314.8827261599922,-503.63628192824115
69919.0,13688.0,69919.0,25255.0,69919.0,24771.0,-564.7498515666132,-319.56288652340305,-509.7289976877527
69919.0,13658.0,69919.0,25200.0,69919.0,24739.0,-572.5905767252016,-324.2157451789403,-515.7748275255617
69929.0,13632.0,69929.0,25162.0,69929.0,24726.0,-580.416934687791,-328.8280110889349,-521.760849949849
69929.0,13600.0,69929.0,25123.0,69929.0,24696.0,-588.2193534865037,-333.385287567901,-527.673419585703
69929.0,13600.0,69929.0,25098.0,69929.0,24686.0,-595.9880214871946,-337.87325504520993,-533.4987013324057
69929.0,13568.0,69929.0,25090.0,69929.0,24697.0,-603.7133641093147,-342.27863912585923,-539.223079495531
69929.0,13597.0,69929.0,25128.0,69929.0,24697.0,-611.3863092049065,-346.5897539319578,-544.8332784152276
69929.0,13587.0,69929.0,25169.0,69929.0,24691.0,-618.9982806919123,-350.79635199333325,-550.316205148032
69939.0,13598.0,69939.0,25173.0,69939.0,24710.0,-626.5409207360701,-354.8888033286045,-555.6587170047042
69939.0,13595.0,69939.0,25171.0,69939.0,24701.0,-634.0057168263096,-358.8571464141012,-560.8473669880146
69939.0,13622.0,69939.0,25200.0,69939.0,24726.0,-641.3836210399458,-362.6904606298342,-565.8680789910106
69939.0,13613.0,69939.0,25219.0,69939.0,24720.0,-648.6645808317236,-366.37637838159276,-570.7057653384858
69939.0,13577.0,69939.0,25168.0,69939.0,24693.0,-655.837125330618,-369.90057131688206,-575.3440065317952
69939.0,13560.0,69939.0,25122.0,69939.0,24657.0,-662.8883575775513,-373.24668054225947,-579.7650830800854
69950.0,13539.0,69950.0,25086.0,69950.0,24646.0,-669.8043631944267,-376.397059621021,-583.9504732761504
69950.0,13521.0,69950.0,25088.0,69950.0,24640.0,-676.5707100795141,-379.33389172487574,-587.8814876185706
69950.0,13506.0,69950.0,25017.0,69950.0,24644.0,-683.1728716044581,-382.0401330691041,-591.5396620368043
69950.0,13524.0,69950.0,25061.0,69950.0,24619.0,-689.5965211573571,-384.50026902651166,-594.9068923042364
69950.0,13519.0,69950.0,25079.0,69950.0,24634.0,-695.8275588620943,-386.70075798994105,-597.9655186759057
69950.0,13505.0,69950.0,25126.0,69950.0,24651.0,-701.8519174827456,-388.6297526662647,-600.6983532404926
69960.0,13504.0,69960.0,25118.0,69960.0,24632.0,-707.6554272438833,-390.27623888010123,-603.0885028270804
69960.0,13516.0,69960.0,25125.0,69960.0,24645.0,-713.2237845460555,-391.62922367977944,-605.1191398034251
69960.0,13528.0,69960.0,25170.0,69960.0,24669.0,-718.5423842150226,-392.6772200067223,-606.7733427379441
69960.0,13519.0,69960.0,25132.0,69960.0,24654.0,-723.595957063295,-393.4078056847297,-608.033837481377
69960.0,13502.0,69960.0,25121.0,69960.0,24608.0,-728.368270253002,-393.8073380559142,-608.8828092106128
69960.0,13464.0,69960.0,25071.0,69960.0,24626.0,-732.8421722540492,-393.86120917328424,-609.3021684763268
69970.0,13451.0,69970.0,25050.0,69970.0,24601.0,-737.0000335149342,-393.55463591596754,-609.2740694560654
69970.0,13455.0,69970.0,25036.0,69970.0,24573.0,-740.8243223365745,-392.87363538611874,-608.781349101959
69970.0,13440.0,69970.0,25037.0,69970.0,24602.0,-744.2979745046375,-391.80583392542127,-607.8079565590751
69970.0,13446.0,69970.0,25060.0,69970.0,24589.0,-747.4045187914817,-390.34088151189474,-606.3392762646217
69970.0,13438.0,69970.0,25081.0,69970.0,24584.0,-750.1281147031095,-388.4704071717772,-604.3622096536103
69970.0,13442.0,69970.0,25081.0,69970.0,24599.0,-752.4535556198667,-386.1876432350847,-601.865222359801
69981.0,13470.0,69981.0,25097.0,69981.0,24602.0,-754.3661771322866,-383.48701619576457,-598.8383978085153
69981.0,13474.0,69981.0,25119.0,69981.0,24643.0,-755.8515577382473,-380.363835942205,-595.2733053212405
69981.0,13493.0,69981.0,25140.0,69981.0,24656.0,-756.8950366651204,-376.813931765223,-591.1626021061509
69981.0,13435.0,69981.0,25106.0,69981.0,24619.0,-757.4813528467413,-372.83326160874697,-586.4995758308633
69981.0,13435.0,69981.0,25081.0,69981.0,24615.0,-757.5947677781735,-368.4178933733949,-581.2780995443364
69981.0,13421.0,69981.0,25060.0,69981.0,24588.0,-757.2196241710449,-363.56458303448346,-575.4931408243303
69991.0,13415.0,69991.0,25059.0,69991.0,24611.0,-756.3409058132181,-358.2716319702234,-569.141434764745
69991.0,13403.0,69991.0,25039.0,69991.0,24596.0,-754.94461699685,-352.5396249209702,-562.2219607346254
69991.0,13411.0,69991.0,25071.0,69991.0,24613.0,-753.0180852031399,-346.3719373181557,-554.7361926501312
69991.0,13427.0,69991.0,25095.0,69991.0,24650.0,-750.5501389224999,-339.7749127933811,-546.6881713563109
69991.0,13431.0,69991.0,25116.0,69991.0,24640.0,-747.5310517369036,-332.7576075459092,-538.0843464522444
69991.0,13430.0,69991.0,25135.0,69991.0,24685.0,-743.9523643299856,-325.3312915944897,-528.9332805204604
70001.0,13458.0,70001.0,25171.0,70001.0,24703.0,-739.8067466381773,-317.5089413770502,-519.245324835312
70001.0,13479.0,70001.0,25249.0,70001.0,24724.0,-735.0877992330534,-309.304587752586,-509.0321974711763
70001.0,13476.0,70001.0,25204.0,70001.0,24729.0,-729.7896909656597,-300.7324016199398,-498.30656466594144
70001.0,13457.0,70001.0,25205.0,70001.0,24715.0,-723.9069022376071,-291.8060509706253,-487.08187802878524
70001.0,13446.0,70001.0,25163.0,70001.0,24710.0,-717.4343897885927,-282.5389036581372,-475.3725886056242
70001.0,13438.0,70001.0,25157.0,70001.0,24715.0,-710.3681023458689,-272.94486901914513,-463.1946382002803
70011.0,13443.0,70011.0,25149.0,70011.0,24725.0,-702.7055457577592,-263.0393618548369,-450.5659522505372
70011.0,13430.0,70011.0,25176.0,70011.0,24743.0,-694.4462297648362,-252.84004022838903,-437.5067354105538
70011.0,13470.0,70011.0,25230.0,70011.0,24785.0,-685.5919742204533,-242.36703527181427,-424.03950854179544
70011.0,13467.0,70011.0,25260.0,70011.0,24800.0,-676.1469998933796,-231.64253886121287,-410.18886217187696
70011.0,13502.0,70011.0,25251.0,70011.0,24839.0,-666.1177855776717,-220.69006623563723,-395.9810268796544
70011.0,13518.0,70011.0,25310.0,70011.0,24862.0,-655.5128047015553,-209.5339068725876,-381.44341159355923
70021.0,13548.0,70021.0,25349.0,70021.0,24898.0,-644.34218575009,-198.19868596574,-366.60413526787704
70021.0,13583.0,70021.0,25380.0,70021.0,24926.0,-632.6172780180667,-186.7086491971738,-351.491534865907
70021.0,13570.0,70021.0,25348.0,70021.0,24932.0,-620.3501992716879,-175.0869169090362,-336.13371552803545
70021.0,13559.0,70021.0,25329.0,70021.0,24916.0,-607.5536502996207,-163.3553484144447,-320.5583565254763
70021.0,13565.0,70021.0,25358.0,70021.0,24937.0,-594.2412104752696,-151.53507843497033,-304.792933987384
70021.0,13580.0,70021.0,25334.0,70021.0,24942.0,-580.4278488076463,-139.64714414417895,-288.86514498725603
70032.0,13598.0,70032.0,25334.0,70032.0,24960.0,-566.1302473144867,-127.71293499277567,-272.8032143690881
70032.0,13590.0,70032.0,25343.0,70032.0,24992.0,-551.3669180128509,-115.75466092510969,-256.6360125801338
70032.0,13630.0,70032.0,25413.0,70032.0,25032.0,-536.1583052354916,-103.79566627077259,-240.39294514240095
70032.0,13675.0,70032.0,25430.0,70032.0,25045.0,-520.5267775562666,-91.86016158463494,-224.10359259114472
70032.0,13682.0,70032.0,25443.0,70032.0,25073.0,-504.4962921249534,-79.97253053143498,-207.79730432628224
70032.0,13727.0,70032.0,25506.0,70032.0,25111.0,-488.09190675319786,-68.15669875355954,-191.50288708310072
70042.0,13771.0,70042.0,25559.0,70042.0,25142.0,-471.3393231390957,-56.435470851165235,-175.24824743959752
70042.0,13779.0,70042.0,25556.0,70042.0,25156.0,-454.2643592396621,-44.82959186511647,-159.05993683918777
70042.0,13798.0,70042.0,25526.0,70042.0,25166.0,-436.89248353021446,-33.35703846419668,-142.96281476703575
70042.0,13773.0,70042.0,25526.0,70042.0,25174.0,-419.24872804193507,-22.033124025347064,-126.97998909647652
70042.0,13793.0,70042.0,25469.0,70042.0,25161.0,-401.358036016348,-10.87127333913287,-111.13301256277524
70042.0,13814.0,70042.0,25495.0,70042.0,25181.0,-383.245770158812,0.11594640459904326,-95.44226985249341
70052.0,13822.0,70052.0,25491.0,70052.0,25173.0,-364.93803462011596,10.91590711753284,-79.92742913293927
70052.0,13877.0,70052.0,25536.0,70052.0,25236.0,-346.4617269060842,21.515470394782568,-64.6077448636538
70052.0,13889.0,70052.0,25535.0,70052.0,25238.0,-327.8443613650547,31.901039974565435,-49.5020189946373
70052.0,13934.0,70052.0,25586.0,70052.0,25259.0,-309.11371195219,42.058873656993455,-34.62830896953898
70052.0,13963.0,70052.0,25626.0,70052.0,25291.0,-290.29739278213606,51.97557821757479,-20.003675364948776
70052.0,13990.0,70052.0,25674.0,70052.0,25346.0,-271.42242819189033,61.63889703357495,-5.643905848549991
70063.0,14036.0,70063.0,25704.0,70063.0,25354.0,-252.5148174959454,71.03872811052872,8.437023890598766
70063.0,14043.0,70063.0,25671.0,70063.0,25368.0,-233.5991138008292,80.16799041050189,22.22753620775154
70063.0,14030.0,70063.0,25643.0,70063.0,25323.0,-214.69817793831385,89.02282275201867,35.71861348605091
70063.0,14037.0,70063.0,25601.0,70063.0,25342.0,-195.83337790063476,97.60190909113774,48.9033603498965
70063.0,14049.0,70063.0,25600.0,70063.0,25333.0,-177.02513589446633,105.90529661109048,61.776274011956616
70063.0,14057.0,70063.0,25567.0,70063.0,25321.0,-158.2934398310975,113.9332328461623,74.33260344681685
70073.0,14074.0,70073.0,25624.0,70073.0,25364.0,-139.65818501685354,121.68532946127499,86.5678643639854
70073.0,14129.0,70073.0,25654.0,70073.0,25387.0,-121.13933122308643,129.16032387007624,98.47763561319834
70073.0,14146.0,70073.0,25663.0,70073.0,25403.0,-102.75673889895972,136.35650549131765,110.05777680796052
70073.0,14170.0,70073.0,25691.0,70073.0,25437.0,-84.52976887684477,143.27235539285567,121.3048325591314
70073.0,14191.0,70073.0,25724.0,70073.0,25438.0,-66.47696265321696,149.90706748200273,132.21639072193466
70073.0,14242.0,70073.0,25752.0,70073.0,25485.0,-48.61582690573641,156.26111520411195,142.79139881178935
70083.0,14254.0,70083.0,25761.0,70083.0,25471.0,-30.96250511136293,162.33692043108346,153.03047104282922
70083.0,14251.0,70083.0,25700.0,70083.0,25471.0,-13.531434863425943,168.13925417701654,162.9360686453045
70083.0,14244.0,70083.0,25687.0,70083.0,25456.0,3.664635246458431,173.67491574770776,172.51233892820056
70083.0,14256.0,70083.0,25659.0,70083.0,25438.0,20.61420489283853,178.9517650527007,181.76460694069618
70083.0,14268.0,70083.0,25650.0,70083.0,25449.0,37.30649378400517,183.9776583238828,190.69871995471988
70083.0,14288.0,70083.0,25651.0,70083.0,25464.0,53.73110558666315,188.7596310338427,199.32051578477672
70094.0,14318.0,70094.0,25699.0,70094.0,25466.0,69.87793090938311,193.30347145694202,207.63560499418236
70094.0,14343.0,70094.0,25695.0,70094.0,25493.0,85.73726540065627,197.613822264958,215.64938585573623
70094.0,14338.0,70094.0,25699.0,70094.0,25495.0,101.30002186673227,201.69457521977063,223.367154274911
70094.0,14386.0,70094.0,25740.0,70094.0,25528.0,116.55785256506647,205.5491823984873,230.79429028720426
70094.0,14415.0,70094.0,25812.0,70094.0,25556.0,131.5032872002363,209.18110845214665,237.93656750210664
70094.0,14446.0,70094.0,25828.0,70094.0,25562.0,146.1301216419198,212.59483661522063,244.80061162430263
70104.0,14442.0,70104.0,25786.0,70104.0,25538.0,160.43389975370604,215.79700336092327,251.39426906234144
70104.0,14423.0,70104.0,25729.0,70104.0,25540.0,174.41206962120356,218.79668611464734,257.7265494712033
70104.0,14423.0,70104.0,25724.0,70104.0,25510.0,188.06362004768562,221.60458679668756,263.8071703091419
70104.0,14432.0,70104.0,25694.0,70104.0,25532.0,201.38843822842756,224.23182730545153,269.6459844207815
70104.0,14449.0,70104.0,25677.0,70104.0,25524.0,214.38680553172549,226.68896777349443,275.2525372345235
70104.0,14458.0,70104.0,25725.0,70104.0,25521.0,227.05918520182507,228.9853545093581,280.63582409358105
70114.0,14481.0,70114.0,25725.0,70114.0,25544.0,239.40619270000605,231.12896323840056,285.80414016089776
70114.0,14478.0,70114.0,25725.0,70114.0,25579.0,251.4286232016865,233.12670294050747,290.76509546385876
70114.0,14514.0,70114.0,25773.0,70114.0,25574.0,263.1274795673414,234.9847914713601,295.52594861310354
70114.0,14529.0,70114.0,25767.0,70114.0,25580.0,274.5040655214776,236.70915821690306,300.0940120532558
70114.0,14565.0,70114.0,25815.0,70114.0,25607.0,285.5602532875581,238.30600916216298,304.4768594530467
70114.0,14566.0,70114.0,25813.0,70114.0,25601.0,296.29886897048027,239.78246513116858,308.6824766554171
70125.0,14564.0,70125.0,25758.0,70125.0,25573.0,306.7239628957749,241.1470078824795,312.71937010731676
70125.0,14542.0,70125.0,25710.0,70125.0,25562.0,316.8407280381821,242.40923599227142,316.59632895492007
70125.0,14539.0,70125.0,25723.0,70125.0,25567.0,326.65502796125645,243.57886549669837,320.3218708896334
70125.0,14553.0,70125.0,25682.0,70125.0,25557.0,336.17278504851595,244.66467317732662,323.90375395068315
70125.0,14561.0,70125.0,25675.0,70125.0,25550.0,345.3995668064538,245.673764672883,327.34866532148544
70125.0,14577.0,70125.0,25712.0,70125.0,25585.0,354.34046921756783,246.61106191321596,330.6620059269593
70135.0,14591.0,70135.0,25733.0,70135.0,25603.0,363.0001735209146,247.47921607220297,333.8479325163852
70135.0,14595.0,70135.0,25770.0,70135.0,25615.0,371.3830588812194,248.27912599196196,336.90975824278814
70135.0,14617.0,70135.0,25772.0,70135.0,25621.0,379.4933080600788,249.01074831098538,339.85043637557396
70135.0,14650.0,70135.0,25832.0,70135.0,25651.0,387.33506868223844,249.67389772279586,342.6729226385018
70135.0,14669.0,70135.0,25829.0,70135.0,25646.0,394.91281769100215,250.26906366260948,345.3805091633519
70135.0,14640.0,70135.0,25789.0,70135.0,25648.0,402.2317831475656,250.79809770874408,347.9771238882628
70145.0,14635.0,70145.0,25773.0,70145.0,25614.0,409.2979901516526,251.2642859837752,350.46737470702715
70145.0,14625.0,70145.0,25724.0,70145.0,25599.0,416.1178254825312,251.6717093572792,352.85619455975313
70145.0,14632.0,70145.0,25737.0,70145.0,25592.0,422.6974789694144,252.0243284746648,355.1482087449408
70145.0,14622.0,70145.0,25703.0,70145.0,25583.0,429.0425325713908,252.3251962124226,357.3471197654236
70145.0,14642.0,70145.0,25730.0,70145.0,25601.0,435.15769495095697,252.5759492227375,359.4553119399183
70145.0,14671.0,70145.0,25745.0,70145.0,25609.0,441.0467258877625,252.7766351411418,361.47373637904536
70156.0,14689.0,70156.0,25756.0,70156.0,25649.0,446.71267989983187,252.92592195287466,363.40211065461875
70156.0,14676.0,70156.0,25776.0,70156.0,25621.0,452.1583232415537,253.02154785430565,365.2393359916338
70156.0,14694.0,70156.0,25809.0,70156.0,25657.0,457.3863700260864,253.06084974982366,366.9838587865445
70156.0,14722.0,70156.0,25830.0,70156.0,25672.0,462.3995495225722,253.0414271129252,368.63392386643324
70156.0,14727.0,70156.0,25811.0,70156.0,25677.0,467.20081821462713,252.96185224480917,370.1879320252627
70156.0,14715.0,70156.0,25790.0,70156.0,25652.0,471.79366796082275,252.82203237507883,371.64478451459206
70166.0,14677.0,70166.0,25757.0,70166.0,25655.0,476.1821152987179,252.62297675362692,373.0038826486899
70166.0,14694.0,70166.0,25723.0,70166.0,25624.0,480.3702260742791,252.36609421075866,374.2648007740909
70166.0,14693.0,70166.0,25737.0,70166.0,25634.0,484.3615557318785,252.05233888607182,375.42684714182167
70166.0,14692.0,70166.0,25710.0,70166.0,25606.0,488.15887345769033,251.68155014818922,376.48863615018286
70166.0,14720.0,70166.0,25742.0,70166.0,25628.0,491.76412554559454,251.25213239223416,377.4477367469443
70166.0,14720.0,70166.0,25769.0,70166.0,25668.0,495.17854885490556,250.7610929392746,378.3005670335456
70176.0,14721.0,70176.0,25764.0,70176.0,25671.0,498.4028816800345,250.2044583263272,379.04274561791965
70176.0,14724.0,70176.0,25786.0,70176.0,25673.0,501.43748783286003,249.57782218574891,379.66969138572625
70176.0,14762.0,70176.0,25868.0,70176.0,25711.0,504.2824181975583,248.87692567278896,380.17708934318813
70176.0,14798.0,70176.0,25871.0,70176.0,25724.0,506.93773353882204,248.09862472313802,380.5613258821189
70176.0,14742.0,70176.0,25827.0,70176.0,25686.0,509.404074391877,247.2420074898493,380.8199765725822
70176.0,14744.0,70176.0,25748.0,70176.0,25674.0,511.6828729369138,246.30864412105223,380.95192363919216
70187.0,14717.0,70187.0,25739.0,70187.0,25657.0,513.7759194690194,245.3016086850717,380.9569291600361
70187.0,14737.0,70187.0,25726.0,70187.0,25661.0,515.6847509008498,244.22409685570545,380.83506674909864
70187.0,14718.0,70187.0,25713.0,70187.0,25632.0,517.4102781338565,243.07848518876705,380.58630720071596
70187.0,14731.0,70187.0,25715.0,70187.0,25639.0,518.9526218998822,241.86587035244747,380.210181200345
70187.0,14753.0,70187.0,25741.0,70187.0,25662.0,520.3110801465331,240.58588991941403,379.7055292274592
70187.0,14761.0,70187.0,25771.0,70187.0,25673.0,521.484313983227,239.23692182612456,379.07057342013667
70197.0,14777.0,70197.0,25792.0,70197.0,25680.0,522.4707319714969,237.81671310083945,378.3033073910775
70197.0,14769.0,70197.0,25789.0,70197.0,25699.0,523.2688643562699,236.32316267930443,377.4019389419115
70197.0,14798.0,70197.0,25821.0,70197.0,25720.0,523.8776260992541,234.75495481317552,376.3653250231996
70197.0,14794.0,70197.0,25825.0,70197.0,25710.0,524.2965638727604,233.1120653901042,375.19345363186426
70197.0,14786.0,70197.0,25795.0,70197.0,25667.0,524.5261052592635,231.39618774521927,373.887725784086
70197.0,14752.0,70197.0,25762.0,70197.0,25676.0,524.5675794659965,229.61077440279226,372.4507441231498
70208.0,14740.0,70208.0,25719.0,70208.0,25661.0,524.4228375264445,227.76046803797723,370.8858307283734
70208.0,14753.0,70208.0,25696.0,70208.0,25655.0,524.0936925362485,225.8501259504151,369.19667474247933
70208.0,14741.0,70208.0,25681.0,70208.0,25628.0,523.5815664007613,223.88381027675277,367.3870773368948
70208.0,14757.0,70208.0,25730.0,70208.0,25658.0,522.8874260138099,221.86413032871434,365.4606664069516
70208.0,14760.0,70208.0,25756.0,70208.0,25668.0,522.0118691878174,219.79229715524835,363.4208055101473
70208.0,14779.0,70208.0,25764.0,70208.0,25666.0,520.9553319714528,217.6688396510465,361.270860851935
70218.0,14767.0,70218.0,25761.0,70218.0,25672.0,519.7183869771322,215.49440945266107,359.01456717240904
70218.0,14799.0,70218.0,25810.0,70218.0,25673.0,518.3020315149167,213.27032853915918,356.65625969351856
70218.0,14802.0,70218.0,25827.0,70218.0,25692.0,516.7080059842554,210.999168896898,354.20106509293436
70218.0,14779.0,70218.0,25783.0,70218.0,25686.0,514.9391465340675,208.68545728690836,351.65517076020103
70218.0,14760.0,70218.0,25756.0,70218.0,25645.0,512.9994825401188,206.33593231223668,349.0260183636755
70218.0,14757.0,70218.0,25708.0,70218.0,25638.0,510.89394321863585,203.95900353393637,346.322117969735
70228.0,14738.0,70228.0,25685.0,70228.0,25625.0,508.6279464508653,201.5637402664089,343.5525371168314
70228.0,14722.0,70228.0,25638.0,70228.0,25602.0,506.207043704588,199.1587742998607,340.7264025357462
70228.0,14716.0,70228.0,25662.0,70228.0,25628.0,503.63655814852933,196.75132066807856,337.8525538665951
70228.0,14738.0,70228.0,25705.0,70228.0,25626.0,500.9213048291155,194.346680464681,334.93943812588736
70228.0,14749.0,70228.0,25726.0,70228.0,25646.0,498.06563356283783,191.94857153547633,331.9953255875931
70228.0,14741.0,70228.0,25714.0,70228.0,25597.0,495.07377617459866,189.55997117237354,329.02860193345606
70239.0,14755.0,70239.0,25736.0,70239.0,25628.0,491.95020247529095,187.1837907105745,326.04780451299786
70239.0,14772.0,70239.0,25780.0,70239.0,25641.0,488.69990186420426,184.82332930544212,323.06155421915486
70239.0,14774.0,70239.0,25777.0,70239.0,25618.0,485.3287543272929,182.482911528159,320.07872673396616
70239.0,14751.0,70239.0,25737.0,70239.0,25607.0,481.8439097158262,180.1685447431363,317.10864632652056
70239.0,14717.0,70239.0,25683.0,70239.0,25573.0,478.2538331032435,177.88792424694026,314.16090931435235
70239.0,14696.0,70239.0,25666.0,70239.0,25582.0,474.5678723052902,175.64961395946506,311.24492593240865
70249.0,14684.0,70249.0,25632.0,70249.0,25546.0,470.79558609343894,173.4619265705141,308.36946362495803
70249.0,14680.0,70249.0,25605.0,70249.0,25553.0,466.94618291066797,171.33194000263146,305.5422724114523
70249.0,14703.0,70249.0,25664.0,70249.0,25566.0,463.0282741833111,169.2648077856665,302.7698244279607
70249.0,14688.0,70249.0,25681.0,70249.0,25586.0,459.04996824305977,167.2637010836101,300.05735964939953
70249.0,14694.0,70249.0,25683.0,70249.0,25586.0,455.01911232700985,165.33044494247088,297.4092760327818
70249.0,14680.0,70249.0,25704.0,70249.0,25595.0,450.94343954498095,163.46626986699388,294.82959475308814
70259.0,14715.0,70259.0,25732.0,70259.0,25600.0,446.830656984312,161.67238117062334,292.32231420124606
70259.0,14714.0,70259.0,25748.0,70259.0,25603.0,442.68870944988237,159.9505828228278,289.89168701129427
70259.0,14675.0,70259.0,25743.0,70259.0,25579.0,438.52615180336306,158.3039678868234,287.54240784071726
70259.0,14672.0,70259.0,25668.0,70259.0,25571.0,434.3522066843442,156.73724442922486,285.2795741514168
70259.0,14641.0,70259.0,25646.0,70259.0,25547.0,430.17640412652116,155.25626169991244,283.1083894844703
70259.0,14640.0,70259.0,25621.0,70259.0,25549.0,426.00811240261663,153.8669124994901,281.0337588224807
70270.0,14620.0,70270.0,25624.0,70270.0,25529.0,421.8561480014205,152.57409962162893,279.05992765542237
70270.0,14616.0,70270.0,25605.0,70270.0,25517.0,417.72847455823603,151.3811324865078,277.19017471545135
70270.0,14635.0,70270.0,25636.0,70270.0,25531.0,413.63203295584003,150.28946679699197,275.4265299164158
70270.0,14632.0,70270.0,25644.0,70270.0,25549.0,409.57281364427797,149.29875271150752,273.7696792926662
70270.0,14639.0,70270.0,25666.0,70270.0,25542.0,405.5561405979116,148.40720767522163,272.21918436629574
70270.0,14643.0,70270.0,25679.0,70270.0,25584.0,401.5869805301844,147.61216213694522,270.77387021037373
70280.0,14648.0,70280.0,25741.0,70280.0,25595.0,397.6702185011385,146.9107134419926,269.4323255522754
70280.0,14643.0,70280.0,25738.0,70280.0,25582.0,393.8109199891398,146.30059928036877,268.19350078120146
70280.0,14617.0,70280.0,25695.0,70280.0,25549.0,390.01447605528233,145.7810114989707,267.05703760535334
70280.0,14612.0,70280.0,25660.0,70280.0,25546.0,386.2864998930712,145.35268858671714,266.02305111643494
70280.0,14580.0,70280.0,25630.0,70280.0,25519.0,382.6325029220768,145.017167458576,265.09160307337027
70280.0,14572.0,70280.0,25597.0,70280.0,25507.0,379.057463576078,144.77570854727804,264.2621618706636
70290.0,14566.0,70290.0,25580.0,70290.0,25522.0,375.5653918227189,144.62827057880176,263.5331463358036
70290.0,14576.0,70290.0,25621.0,70290.0,25529.0,372.15905520388606,144.5727495199393,262.90171729999963
70290.0,14595.0,70290.0,25676.0,70290.0,25547.0,368.8400140013018,144.60489252312067,262.36392425310123
70290.0,14593.0,70290.0,25675.0,70290.0,25549.0,365.6089431760523,144.7190366918196,261.91505741794435
70290.0,14599.0,70290.0,25683.0,70290.0,25568.0,362.46604067923096,144.90908187076033,261.55002525659575
70290.0,14611.0,70290.0,25721.0,70290.0,25587.0,359.4113602085573,145.1691451573467,261.2637454124688
70301.0,14630.0,70301.0,25740.0,70301.0,25597.0,356.4451493468364,145.4941017149485,261.05161400511315
70301.0,14585.0,70301.0,25711.0,70301.0,25573.0,353.56820724048924,145.88019622669614,260.909936059721
70301.0,14573.0,70301.0,25664.0,70301.0,25521.0,350.78193801133295,146.32525766999404,260.8359468753788
70301.0,14567.0,70301.0,25634.0,70301.0,25543.0,348.08797238104114,146.82812493127517,260.8272686260806
70301.0,14548.0,70301.0,25628.0,70301.0,25528.0,345.48770554537134,147.38761118022364,260.88125560205935
70301.0,14535.0,70301.0,25618.0,70301.0,25525.0,342.981949575263,148.0016161922832,260.99466529861115
70311.0,14531.0,70311.0,25623.0,70311.0,25546.0,340.5706072142416,148.66662749269102,261.16356640027186
70311.0,14571.0,70311.0,25648.0,70311.0,25543.0,338.25248442543625,149.37756182895322,261.3833866286757
70311.0,14546.0,70311.0,25678.0,70311.0,25533.0,336.02545620626347,150.12797541958986,261.6490641537152
70311.0,14558.0,70311.0,25692.0,70311.0,25538.0,333.8867975017786,150.9106370690235,261.9550983191896
70311.0,14543.0,70311.0,25688.0,70311.0,25576.0,331.8333413210006,151.71818710022856,262.2955565093938
70311.0,14585.0,70311.0,25752.0,70311.0,25571.0,329.8615430657628,152.54367388701684,262.664336842375
70321.0,14592.0,70321.0,25737.0,70321.0,25586.0,327.9677729416389,153.3811422536166,263.0556302136811
70321.0,14563.0,70321.0,25698.0,70321.0,25576.0,326.1487981100224,154.2261808665117,263.46426820625214
70321.0,14551.0,70321.0,25657.0,70321.0,25530.0,324.401987214894,155.07582573859253,263.88575670191426
70321.0,14537.0,70321.0,25662.0,70321.0,25565.0,322.72504108570126,155.92774713635862,264.31595286315434
70321.0,14521.0,70321.0,25649.0,70321.0,25539.0,321.11554516586887,156.77939389217065,264.7506750250363
70321.0,14511.0,70321.0,25627.0,70321.0,25527.0,319.57055623673597,157.6274675719014,265.18548848165676
70332.0,14520.0,70332.0,25656.0,70332.0,25531.0,318.08626804247535,158.46757683468434,265.61547910126666
70332.0,14553.0,70332.0,25670.0,70332.0,25554.0,316.65792995445554,159.29411257091124,266.03503515371045
70332.0,14524.0,70332.0,25695.0,70332.0,25557.0,315.280107841712,160.10053419035953,266.43792690213746
70332.0,14535.0,70332.0,25698.0,70332.0,25578.0,313.9469796934321,160.87991343565324,266.81764973582335
70332.0,14569.0,70332.0,25738.0,70332.0,25587.0,312.65247998310855,161.62549105552895,267.1678327168968
70332.0,14588.0,70332.0,25781.0,70332.0,25586.0,311.3906309181017,162.33133154840624,267.4826257251649
70342.0,14573.0,70342.0,25744.0,70342.0,25573.0,310.1561599262911,162.99313487144934,267.7569419547774
70342.0,14537.0,70342.0,25689.0,70342.0,25579.0,308.94488347074605,163.60865687023292,267.98646083341043
70342.0,14510.0,70342.0,25684.0,70342.0,25539.0,307.753450591664,164.17721442185623,268.16744212089725
70342.0,14512.0,70342.0,25666.0,70342.0,25565.0,306.5786567794043,164.69871046789902,268.29641608797255
70342.0,14507.0,70342.0,25628.0,70342.0,25544.0,305.4168483891079,165.17281441760747,268.36988548892083
70342.0,14505.0,70342.0,25625.0,70342.0,25559.0,304.26365853000635,165.59826353421477,268.38418919864745
70352.0,14519.0,70352.0,25658.0,70352.0,25564.0,303.1139672947927,165.97227520754302,268.33550941577573
70352.0,14514.0,70352.0,25705.0,70352.0,25568.0,301.9619913560772,166.2905174012172,268.21998814655706
70352.0,14531.0,70352.0,25734.0,70352.0,25557.0,300.80146869029676,166.54783771115717,268.0338822611209
70352.0,14538.0,70352.0,25722.0,70352.0,25575.0,299.6259062331203,166.73929785390638,267.7736378452906
70352.0,14557.0,70352.0,25750.0,70352.0,25598.0,298.428916972217,166.8609268603675,267.43600134213494
70352.0,14561.0,70352.0,25786.0,70352.0,25580.0,297.2046426337347,166.91020121698375,267.0183193735623
70363.0,14543.0,70363.0,25723.0,70363.0,25553.0,295.9481205021846,166.88650908497482,266.51875616555964
70363.0,14521.0,70363.0,25652.0,70363.0,25546.0,294.6553598068569,166.79113726699504,265.9360826054491
70363.0,14502.0,70363.0,25660.0,70363.0,25548.0,293.323028671633,166.62629929927147,265.26921710297984
70363.0,14512.0,70363.0,25670.0,70363.0,25544.0,291.94796829769973,166.39392710488656,264.5169169712067
70363.0,14493.0,70363.0,25649.0,70363.0,25530.0,290.5268441203867,166.09511253754857,263.67765679316807
70363.0,14497.0,70363.0,25645.0,70363.0,25534.0,289.05597856839637,165.72998222557754,262.749505611359
70373.0,14519.0,70373.0,25663.0,70373.0,25549.0,287.53129672908426,165.2975564200775,261.730023227666
70373.0,14526.0,70373.0,25701.0,70373.0,25547.0,285.9484922948517,164.79578814406625,260.616339597105
70373.0,14520.0,70373.0,25712.0,70373.0,25565.0,284.3033936816991,164.22205384944672,259.4053991790586
70373.0,14537.0,70373.0,25742.0,70373.0,25613.0,282.59228356050244,163.57392160094207,258.09435009700405
70373.0,14545.0,70373.0,25776.0,70373.0,25589.0,280.81214562153065,162.84996210949288,256.68116117052426
70373.0,14535.0,70373.0,25735.0,70373.0,25583.0,278.96094796738316,162.0504954237112,255.16518762996895
70383.0,14505.0,70383.0,25682.0,70383.0,25527.0,277.0377932350802,161.17785643017632,253.54719380963172
70383.0,14488.0,70383.0,25652.0,70383.0,25536.0,275.04269064138776,160.23577238294098,251.8288024835789
70383.0,14482.0,70383.0,25629.0,70383.0,25513.0,272.9760511679661,159.22819844926872,250.0118018761952
70383.0,14452.0,70383.0,25604.0,70383.0,25501.0,270.8381851640446,158.15823851728018,248.09764016883665
70383.0,14453.0,70383.0,25590.0,70383.0,25497.0,268.62886914235577,157.02732114523914,246.08706495428413
70383.0,14476.0,70383.0,25664.0,70383.0,25538.0,266.3470343802929,155.83472365506893,243.97992783393914
70394.0,14494.0,70394.0,25697.0,70394.0,25526.0,263.9908303001649,154.57785919008805,241.7753706721566
70394.0,14494.0,70394.0,25693.0,70394.0,25530.0,261.55808289781254,153.253312589028,239.4722518492262
70394.0,14486.0,70394.0,25681.0,70394.0,25532.0,259.04677388567825,151.85779947185895,237.0694381479341
70394.0,14510.0,70394.0,25752.0,70394.0,25570.0,256.4553078856994,150.38862770134628,234.566012897434
70394.0,14512.0,70394.0,25735.0,70394.0,25558.0,253.7827437938749,148.8441753393142,231.96167563053172
70394.0,14481.0,70394.0,25692.0,70394.0,25533.0,251.02907131120926,147.22447421918753,229.25716733289306
70404.0,14453.0,70404.0,25658.0,70404.0,25501.0,248.19520482564775,145.5311908810866,226.45425988161367
70404.0,14450.0,70404.0,25637.0,70404.0,25494.0,245.28254084261727,143.76684904286105,223.55525298470624
70404.0,14448.0,70404.0,25630.0,70404.0,25483.0,242.29244725429493,141.93390877079793,220.56237724074708
70404.0,14428.0,70404.0,25604.0,70404.0,25482.0,239.22598796472136,140.03410095196335,217.47740883203588
70404.0,14446.0,70404.0,25627.0,70404.0,25490.0,236.0838018813534,138.0680028326947,214.3015261398206
70404.0,14433.0,70404.0,25655.0,70404.0,25475.0,232.8660694568934,136.03493147401488,211.03533537196836
70415.0,14445.0,70415.0,25669.0,70415.0,25495.0,229.57259913902942,133.93332104995437,207.67896600199407
70415.0,14448.0,70415.0,25656.0,70415.0,25507.0,226.20299526900192,131.76135330181526,204.23225016312966
70415.0,14454.0,70415.0,25709.0,70415.0,25520.0,222.7568912413865,129.5174748978383,200.69509931658897
70415.0,14466.0,70415.0,25757.0,70415.0,25539.0,219.23425197998148,127.20101018944288,197.06804378935362
70415.0,14449.0,70415.0,25696.0,70415.0,25527.0,215.63568300049766,124.81306975026564,193.3527793492838
70415.0,14438.0,70415.0,25652.0,70415.0,25485.0,211.9625983243053,122.35703224227323,189.55246985125717
70425.0,14407.0,70425.0,25599.0,70425.0,25446.0,208.2171015127284,119.83791757643357,185.6714901956276
70425.0,14395.0,70425.0,25576.0,70425.0,25445.0,204.40159596608413,117.26106410334506,181.71467021068068
70425.0,14369.0,70425.0,25597.0,70425.0,25452.0,200.5182701307939,114.63094750504544,177.68659584696132
70425.0,14374.0,70425.0,25570.0,70425.0,25423.0,196.56861539229683,111.9505864481803,173.5913297800374
70425.0,14389.0,70425.0,25607.0,70425.0,25421.0,192.55316074618673,109.22144986691725,169.43230843225513
70425.0,14407.0,70425.0,25631.0,70425.0,25458.0,188.47159824041577,106.44369173999124,165.2122432675097
70435.0,14401.0,70435.0,25633.0,70435.0,25442.0,184.32323036193367,103.6167153334505,160.93328528233897
70435.0,14392.0,70435.0,25645.0,70435.0,25442.0,180.1073993866934,100.73984428677123,156.59741415118853
70435.0,14412.0,70435.0,25688.0,70435.0,25444.0,175.8237064552432,97.81289615584181,152.20668970587099
70435.0,14394.0,70435.0,25716.0,70435.0,25461.0,171.47216609663917,94.83689519805829,147.7633960353013
70435.0,14397.0,70435.0,25645.0,70435.0,25421.0,167.05337715760848,91.81487784767344,143.27024003161006
70435.0,14366.0,70435.0,25593.0,70435.0,25412.0,162.56856442541513,88.75202587462994,138.730383720482
70446.0,14349.0,70446.0,25580.0,70446.0,25398.0,158.01938164274887,85.65477297738983,134.14715243748336
70446.0,14351.0,70446.0,25562.0,70446.0,25375.0,153.40754872980426,82.52961723621459,129.52363124030296
70446.0,14321.0,70446.0,25503.0,70446.0,25400.0,148.7345174397025,79.38223825306848,124.86236194338062
70446.0,14325.0,70446.0,25530.0,70446.0,25396.0,144.00122408272782,76.2167508137835,120.16528436153808
70446.0,14337.0,70446.0,25554.0,70446.0,25384.0,139.20792927463913,73.03519001387725,115.43392775118201
70446.0,14336.0,70446.0,25557.0,70446.0,25369.0,134.35429038630483,69.8376324628597,110.66955085003258
70456.0,14347.0,70456.0,25612.0,70456.0,25389.0,129.43966263591287,66.6228300523928,105.87309487421587
70456.0,14360.0,70456.0,25614.0,70456.0,25416.0,124.46347907422665,63.389052719178636,101.04527524762895
70456.0,14378.0,70456.0,25661.0,70456.0,25412.0,119.42571554700265,60.13504916179309,96.18705285108427
70456.0,14334.0,70456.0,25632.0,70456.0,25387.0,114.32736779033968,56.860953536298084,91.30017513249254
70456.0,14312.0,70456.0,25560.0,70456.0,25363.0,109.17057436000755,53.568713177828855,86.38730134807284
70456.0,14281.0,70456.0,25551.0,70456.0,25337.0,103.95819310694458,50.26163057161669,81.45164104508893
70466.0,14291.0,70466.0,25541.0,70466.0,25345.0,98.69316504585805,46.943367593949105,76.49642544967313
70466.0,14262.0,70466.0,25495.0,70466.0,25303.0,93.37807634466387,43.61713236958026,71.52449498153231
70466.0,14257.0,70466.0,25519.0,70466.0,25307.0,88.01492441602537,40.28512756385193,66.5379744642969
70466.0,14276.0,70466.0,25530.0,70466.0,25343.0,82.60496863073627,36.94822156322799,61.53805010954346
70466.0,14271.0,70466.0,25537.0,70466.0,25346.0,77.14878701114799,33.60606306093075,56.52516188187661
70466.0,14263.0,70466.0,25521.0,70466.0,25329.0,71.64654088485014,30.257452836213872,51.499548467446886
70477.0,14276.0,70477.0,25551.0,70477.0,25329.0,66.09821070055662,26.90061048868091,46.46161663489795
70477.0,14290.0,70477.0,25590.0,70477.0,25337.0,60.50382323238301,23.533494010210433,41.41201962267371
70477.0,14275.0,70477.0,25588.0,70477.0,25322.0,54.86381182696431,20.15447377776411,36.35173190265314
70477.0,14272.0,70477.0,25552.0,70477.0,25304.0,49.1793437411788,16.763041276263067,31.282126367666393
70477.0,14229.0,70477.0,25521.0,70477.0,25279.0,43.45236361022677,13.359921196458743,26.20483332489823
70477.0,14230.0,70477.0,25470.0,70477.0,25284.0,37.68531657902315,9.946457404527706,21.12139744144602
70487.0,14205.0,70487.0,25488.0,70487.0,25266.0,31.880729122597245,6.523679533308069,16.03297543772058
70487.0,14192.0,70487.0,25448.0,70487.0,25236.0,26.04083973303949,3.091539901969014,10.940125074855303
70487.0,14201.0,70487.0,25476.0,70487.0,25252.0,20.16733201172042,-0.3514951006591218,5.84253969408212
70487.0,14198.0,70487.0,25492.0,70487.0,25270.0,14.261246997494538,-3.8085133279381864,0.738888165463635
70487.0,14203.0,70487.0,25519.0,70487.0,25266.0,8.3231272922838,-7.283803884379807,-4.372958448023098
70487.0,14197.0,70487.0,25523.0,70487.0,25270.0,2.3532614054842043,-10.782173805095823,-9.495489535207867
70497.0,14206.0,70497.0,25563.0,70497.0,25298.0,-3.648085033538564,-14.308203431335158,-14.631161816369428
70497.0,14215.0,70497.0,25614.0,70497.0,25290.0,-9.680408711981215,-17.86540188909774,-19.781961341967815
70497.0,14198.0,70497.0,25554.0,70497.0,25267.0,-15.742650401950584,-21.45522408674546,-24.948975179375054
70497.0,14161.0,70497.0,25506.0,70497.0,25257.0,-21.833027525328532,-25.07658255396416,-30.13228438183097
70497.0,14153.0,70497.0,25449.0,70497.0,25211.0,-27.949254327250117,-28.72646524223063,-35.331249037233306
70497.0,14115.0,70497.0,25432.0,70497.0,25203.0,-34.08904043420631,-32.401274809205034,-40.54504373155868
70508.0,14119.0,70508.0,25403.0,70508.0,25187.0,-40.250608830466376,-36.09810426705644,-45.773263330773034
70508.0,14113.0,70508.0,25419.0,70508.0,25198.0,-46.43306332934458,-39.815580777377846,-51.016342089224565
70508.0,14104.0,70508.0,25438.0,70508.0,25219.0,-52.63651654979401,-43.55417851269934,-56.275595863942044
70508.0,14134.0,70508.0,25453.0,70508.0,25195.0,-58.86200473514833,-47.31598443523231,-61.55293396683811
70508.0,14129.0,70508.0,25472.0,70508.0,25210.0,-65.11118941362878,-51.10411125772649,-66.85053203131312
70508.0,14132.0,70508.0,25493.0,70508.0,25204.0,-71.38589646620255,-54.92200644482082,-72.17064190039443
70518.0,14147.0,70518.0,25533.0,70518.0,25230.0,-77.6876807617241,-58.772683474361855,-77.51537657399862
70518.0,14128.0,70518.0,25532.0,70518.0,25216.0,-84.0174689253127,-62.65783276253592,-82.88634670146939
70518.0,14097.0,70518.0,25482.0,70518.0,25196.0,-90.3753611453514,-66.57710763138047,-88.28433473872548
70518.0,14070.0,70518.0,25392.0,70518.0,25179.0,-96.76082067257016,-70.52822679022754,-93.70927992457337
70518.0,14073.0,70518.0,25397.0,70518.0,25156.0,-103.1731660111356,-74.50809571197775,-99.16058214716531
70518.0,14070.0,70518.0,25398.0,70518.0,25139.0,-109.61194893007621,-78.51413140830212,-104.63753447080691
70528.0,14031.0,70528.0,25378.0,70528.0,25123.0,-116.07708070092093,-82.5449306096059,-110.1397649385026
70528.0,14046.0,70528.0,25405.0,70528.0,25120.0,-122.56896156241248,-86.60037249006191,-115.6676127901807
70528.0,14055.0,70528.0,25413.0,70528.0,25149.0,-129.08860936744009,-90.68147370380257,-121.2222853023959
70528.0,14046.0,70528.0,25426.0,70528.0,25119.0,-135.6375202700596,-94.78999371576762,-126.80569607590223
70528.0,14040.0,70528.0,25416.0,70528.0,25143.0,-142.217376774745,-98.92793813185628,-132.4201749639729
70528.0,14056.0,70528.0,25442.0,70528.0,25178.0,-148.82984392659853,-103.09717246913803,-138.06814874698057
70539.0,14056.0,70539.0,25488.0,70539.0,25163.0,-155.47634026567835,-107.29898036477715,-143.75159011390997
70539.0,14053.0,70539.0,25445.0,70539.0,25150.0,-162.1576883829282,-111.53337796671607,-149.471414992056
70539.0,14021.0,70539.0,25396.0,70539.0,25104.0,-168.8738575280019,-115.79867218912719,-155.2273381452227
70539.0,13976.0,70539.0,25356.0,70539.0,25099.0,-175.62408763779968,-120.09189423549876,-161.018269986304
70539.0,13981.0,70539.0,25341.0,70539.0,25070.0,-182.40742514198894,-124.4098615462417,-166.8429146260496
70539.0,13964.0,70539.0,25363.0,70539.0,25059.0,-189.22329617799528,-128.75008103000758,-172.70028991394747
70549.0,13961.0,70549.0,25312.0,70549.0,25061.0,-196.07178535145874,-133.11113547249124,-178.59010069994844
70549.0,13960.0,70549.0,25360.0,70549.0,25073.0,-202.95368481639287,-137.49278997131344,-184.51287832491442
70549.0,13972.0,70549.0,25373.0,70549.0,25073.0,-209.8704067635179,-141.8959034376003,-190.4698074238139
70549.0,13958.0,70549.0,25370.0,70549.0,25065.0,-216.8237491757464,-146.32196911177942,-196.46240192479536
70549.0,13974.0,70549.0,25388.0,70549.0,25079.0,-223.8156079008234,-150.77251275266735,-202.49223865361506
70549.0,13977.0,70549.0,25417.0,70549.0,25100.0,-230.84767748702757,-155.2485751167426,-208.56067159927363
70559.0,13972.0,70559.0,25394.0,70559.0,25092.0,-237.92109215814963,-159.7501552414576,-214.6683689466713
70559.0,13956.0,70559.0,25388.0,70559.0,25061.0,-245.0361202076374,-164.27576831022867,-220.81488330632612
70559.0,13919.0,70559.0,25342.0,70559.0,25033.0,-252.1921303417871,-168.82244594697903,-226.99865177347937
70559.0,13890.0,70559.0,25294.0,70559.0,25019.0,-259.3879351979435,-173.38625588973696,-233.21744202182373
70559.0,13897.0,70559.0,25275.0,70559.0,25018.0,-266.62235622905774,-177.96323185196923,-239.46886604397588
70559.0,13869.0,70559.0,25264.0,70559.0,24994.0,-273.89466190849714,-182.5503656075278,-245.75068637999385
70570.0,13881.0,70570.0,25271.0,70570.0,24982.0,-281.2047477470564,-187.14624250589458,-252.06100597423784
70570.0,13887.0,70570.0,25282.0,70570.0,24977.0,-288.55312087924153,-191.75119503588587,-258.398491485012
70570.0,13873.0,70570.0,25321.0,70570.0,24993.0,-295.9406973188772,-196.36702507452264,-264.7625107074455
70570.0,13868.0,70570.0,25321.0,70570.0,24991.0,-303.3685616264101,-200.99636766882253,-271.15299999468795
70570.0,13902.0,70570.0,25369.0,70570.0,24998.0,-310.8377840777579,-205.64186427056,-277.57012241211413
70570.0,13885.0,70570.0,25386.0,70570.0,25018.0,-318.34908888623954,-210.30524856164465,-284.0138603162452
70580.0,13894.0,70580.0,25346.0,70580.0,24985.0,-325.9023754735553,-214.98647431706883,-290.4836030718097
70580.0,13842.0,70580.0,25282.0,70580.0,24973.0,-333.49643680509286,-219.68341952181407,-296.9779262144045
70580.0,13813.0,70580.0,25253.0,70580.0,24934.0,-341.12914192769176,-224.39255934710093,-303.4947745720811
70580.0,13795.0,70580.0,25237.0,70580.0,24935.0,-348.79804227334625,-229.1101446164032,-310.03192999143096
70580.0,13769.0,70580.0,25209.0,70580.0,24918.0,-356.50106585471735,-233.83318363189727,-316.5874561252911
70580.0,13772.0,70580.0,25238.0,70580.0,24918.0,-364.23702015083165,-238.56001295497725,-323.1599442854997
70590.0,13796.0,70590.0,25261.0,70590.0,24906.0,-372.0057782737116,-243.29038842312946,-329.7485948232886
70590.0,13794.0,70590.0,25268.0,70590.0,24905.0,-379.80803714918386,-248.0250357451705,-336.3532312203694
70590.0,13794.0,70590.0,25229.0,70590.0,24923.0,-387.6448075938796,-252.76505936008215,-342.9742307276828
70590.0,13792.0,70590.0,25293.0,70590.0,24920.0,-395.516978281182,-257.5116426187567,-349.6122723980435
70590.0,13797.0,70590.0,25332.0,70590.0,24958.0,-403.4250244015127,-262.26566487308406,-356.2678761974248
70590.0,13786.0,70590.0,25310.0,70590.0,24948.0,-411.3687517140994,-267.0267983210045,-362.94078579738704
70601.0,13779.0,70601.0,25237.0,70601.0,24923.0,-419.3470881225312,-271.7927645585714,-369.62940348421006
70601.0,13760.0,70601.0,25206.0,70601.0,24883.0,-427.3580077805598,-276.55965343380234,-376.33066980142524
70601.0,13720.0,70601.0,25192.0,70601.0,24865.0,-435.3986606185915,-281.3230310716239,-383.0405073788037
70601.0,13711.0,70601.0,25198.0,70601.0,24865.0,-443.46575390083285,-286.0788961569863,-389.754450607877
70601.0,13689.0,70601.0,25164.0,70601.0,24819.0,-451.5560523358905,-290.8241122434449,-396.46810713871633
70601.0,13689.0,70601.0,25201.0,70601.0,24847.0,-459.66675601990005,-295.5565550071353,-403.1774756200812
70611.0,13700.0,70611.0,25199.0,70611.0,24851.0,-467.795626794892,-300.2750534703047,-409.87908137064215
70611.0,13690.0,70611.0,25229.0,70611.0,24854.0,-475.9408428751832,-304.9790038423943,-416.5697459522
70611.0,13692.0,70611.0,25204.0,70611.0,24840.0,-484.1007133583332,-309.66781589586157,-423.2461850375229
70611.0,13714.0,70611.0,25250.0,70611.0,24851.0,-492.27337613136683,-314.3404448685697,-429.90475038053245
70611.0,13708.0,70611.0,25297.0,70611.0,24891.0,-500.4563922136251,-318.9948348814323,-436.54117434088596
70611.0,13684.0,70611.0,25236.0,70611.0,24845.0,-508.6463054101273,-323.62709178121577,-443.15009043106204
70621.0,13668.0,70621.0,25183.0,70621.0,24827.0,-516.8384850839233,-328.231039145027,-449.7246740621302
70621.0,13630.0,70621.0,25163.0,70621.0,24796.0,-525.0273533480706,-332.79880314153866,-456.2568428119883
70621.0,13606.0,70621.0,25151.0,70621.0,24791.0,-533.2068673074297,-337.32189015840675,-462.73780799300226
70621.0,13598.0,70621.0,25116.0,70621.0,24770.0,-541.371094627755,-341.792000568747,-469.1585548183375
70621.0,13597.0,70621.0,25107.0,70621.0,24741.0,-549.51463775125,-346.2015971121618,-475.51020287556526
70621.0,13602.0,70621.0,25182.0,70621.0,24780.0,-557.6327268351004,-350.54424231609096,-481.784305881415
70632.0,13609.0,70632.0,25172.0,70632.0,24769.0,-565.7210180137226,-354.8142842660899,-487.9728785120996
70632.0,13610.0,70632.0,25156.0,70632.0,24767.0,-573.7752266603521,-359.0060609299445,-494.06808380053644
70632.0,13593.0,70632.0,25161.0,70632.0,24782.0,-581.7907597152665,-363.11341247606697,-500.06188896741315
70632.0,13614.0,70632.0,25210.0,70632.0,24797.0,-589.7624625772285,-367.12952808574016,-505.9457445858869
70632.0,13620.0,70632.0,25207.0,70632.0,24798.0,-597.6843532183932,-371.0465102319364,-511.7101173545229
70632.0,13593.0,70632.0,25155.0,70632.0,24757.0,-605.5492425094402,-374.85476997985546,-517.3440690150862
70642.0,13554.0,70642.0,25113.0,70642.0,24735.0,-613.3485586768777,-378.54303472436914,-522.8352763531325
70642.0,13556.0,70642.0,25107.0,70642.0,24723.0,-621.0726331391116,-382.0991325948639,-528.1705047779534
70642.0,13518.0,70642.0,25095.0,70642.0,24714.0,-628.7111808660366,-385.51088201048316,-533.3361372037959
70642.0,13502.0,70642.0,25073.0,70642.0,24710.0,-636.2537286761831,-388.76663547975784,-538.3184834291465
70642.0,13516.0,70642.0,25094.0,70642.0,24717.0,-643.6899857270032,-391.85558326299093,-543.1038765212252
70642.0,13515.0,70642.0,25101.0,70642.0,24728.0,-651.0099784460577,-394.76783953040984,-547.6785728373663
70653.0,13510.0,70653.0,25107.0,70653.0,24708.0,-658.2038571442891,-397.49422029819067,-552.0285087438676
70653.0,13523.0,70653.0,25122.0,70653.0,24699.0,-665.2615972452957,-400.0258591727175,-556.1391451836714
70653.0,13530.0,70653.0,25152.0,70653.0,24729.0,-672.1726804503523,-402.3537644156497,-559.9954734041944
70653.0,13531.0,70653.0,25168.0,70653.0,24749.0,-678.92568533971,-404.46821643877615,-563.5818423340268
70653.0,13520.0,70653.0,25147.0,70653.0,24713.0,-685.5078909666623,-406.3581072148949,-566.8814886987983
70653.0,13497.0,70653.0,25122.0,70653.0,24691.0,-691.9050921438601,-408.0106246469746,-569.8762844113314
70663.0,13465.0,70663.0,25057.0,70663.0,24649.0,-698.101742188175,-409.4115898632575,-572.5471024763461
70663.0,13437.0,70663.0,25057.0,70663.0,24639.0,-704.0814215583426,-410.5463709469136,-574.8745935491993
70663.0,13421.0,70663.0,25011.0,70663.0,24622.0,-709.8274871747801,-411.40096475649534,-576.8399710385861
70663.0,13414.0,70663.0,25062.0,70663.0,24639.0,-715.3236621222762,-411.9628061258805,-578.4255402617822
70663.0,13428.0,70663.0,25060.0,70663.0,24633.0,-720.5543578236213,-412.2210215656208,-579.6148771380181
70663.0,13441.0,70663.0,25050.0,70663.0,24640.0,-725.5046219498762,-412.1662007215196,-580.39275817519
70673.0,13427.0,70673.0,25070.0,70673.0,24642.0,-730.1598056633242,-411.79013318448347,-580.7450264396459
70673.0,13439.0,70673.0,25116.0,70673.0,24652.0,-734.5052299537807,-411.085589884941,-580.6584547151353
70673.0,13449.0,70673.0,25137.0,70673.0,24676.0,-738.5259486857753,-410.04576281358885,-580.120531434291
70673.0,13452.0,70673.0,25141.0,70673.0,24681.0,-742.2064570579943,-408.66340985663317,-579.1191030320016
70673.0,13431.0,70673.0,25108.0,70673.0,24658.0,-745.5303844139561,-406.9302554268303,-577.6420168142681
70673.0,13408.0,70673.0,25077.0,70673.0,24635.0,-748.4804451108396,-404.83705389864224,-575.6771067474338
70684.0,13382.0,70684.0,25027.0,70684.0,24623.0,-751.0387754704877,-402.37432420893754,-573.2126379122922
70684.0,13376.0,70684.0,25026.0,70684.0,24605.0,-753.1874995178782,-399.53346044975234,-570.2379550228384
70684.0,13367.0,70684.0,25011.0,70684.0,24603.0,-754.9092528998439,-396.3077755507694,-566.744086463337
70684.0,13379.0,70684.0,25026.0,70684.0,24607.0,-756.1874874682711,-392.693164638926,-562.724207040688
70684.0,13372.0,70684.0,25090.0,70684.0,24662.0,-757.0065388715514,-388.6882506687083,-558.1737978385197
70684.0,13360.0,70684.0,25076.0,70684.0,24656.0,-757.3516013715672,-384.29395376588735,-553.0903435182323
70694.0,13373.0,70694.0,25105.0,70694.0,24652.0,-757.2087743135264,-379.512808128453,-547.4728363704655
70694.0,13373.0,70694.0,25133.0,70694.0,24672.0,-756.5651200157738,-374.34843525355103,-541.3215486101419
70694.0,13407.0,70694.0,25159.0,70694.0,24704.0,-755.4085493713388,-368.8050519942865,-534.6379697420685
70694.0,13405.0,70694.0,25150.0,70694.0,24689.0,-753.7274870126473,-362.8869000091959,-527.4245750776274
70694.0,13371.0,70694.0,25151.0,70694.0,24669.0,-751.510551185336,-356.5978959847056,-519.6846580833658
70694.0,13343.0,70694.0,25084.0,70694.0,24664.0,-748.7466858305664,-349.9417939116372,-511.42261503446997
70704.0,13348.0,70704.0,25077.0,70704.0,24668.0,-745.4258059527182,-342.9229543998247,-502.6445240122859
70704.0,13350.0,70704.0,25084.0,70704.0,24651.0,-741.5394587884122,-335.54742745933095,-493.35866394546684
70704.0,13350.0,70704.0,25103.0,70704.0,24687.0,-737.08114694396,-327.82371112234216,-483.5758925406471
70704.0,13376.0,70704.0,25114.0,70704.0,24704.0,-732.0463906697403,-319.7629226156261,-473.309801879547
70704.0,13371.0,70704.0,25149.0,70704.0,24740.0,-726.4326428075365,-311.3786165545549,-462.5765137158793
70704.0,13397.0,70704.0,25185.0,70704.0,24770.0,-720.2391172675893,-302.68638943653116,-451.39419295887234
70715.0,13406.0,70715.0,25195.0,70715.0,24766.0,-713.4665898072037,-293.7032882140458,-439.7825095305188
70715.0,13428.0,70715.0,25252.0,70715.0,24832.0,-706.1171509016905,-284.4471539919433,-427.7622058653015
70715.0,13453.0,70715.0,25266.0,70715.0,24836.0,-698.1938843775431,-274.9359407809163,-415.35466014137074
70715.0,13431.0,70715.0,25259.0,70715.0,24817.0,-689.7005526924895,-265.18707147472315,-402.5814486253142
70715.0,13420.0,70715.0,25206.0,70715.0,24817.0,-680.6415518482074,-255.21725950453265,-389.4643233272466
70715.0,13427.0,70715.0,25203.0,70715.0,24833.0,-671.022279496482,-245.04311737725806,-376.02565485958104
70725.0,13429.0,70725.0,25246.0,70725.0,24829.0,-660.849626699941,-234.68209014171214,-362.288878382712
70725.0,13429.0,70725.0,25238.0,70725.0,24852.0,-650.1323199635797,-224.15293410309292,-348.27875572424756
70725.0,13452.0,70725.0,25248.0,70725.0,24891.0,-638.8811436628696,-213.47570783310766,-334.0214711211536
70725.0,13465.0,70725.0,25280.0,70725.0,24898.0,-627.1090425811267,-202.6717241298936,-319.54447276109096
70725.0,13500.0,70725.0,25308.0,70725.0,24929.0,-614.831025279711,-191.76343799384358,-304.87616046186355
70725.0,13516.0,70725.0,25341.0,70725.0,24958.0,-602.0638840718307,-180.77405137020878,-290.0455946663672
70735.0,13547.0,70735.0,25377.0,70735.0,24989.0,-588.8258221839769,-169.72690881404682,-275.0821590548381
70735.0,13593.0,70735.0,25433.0,70735.0,25034.0,-575.1360179215092,-158.64475821215706,-260.01507870004923
70735.0,13583.0,70735.0,25400.0,70735.0,25033.0,-561.0141232310352,-147.54896283649987,-244.8728656740194
70735.0,13577.0,70735.0,25387.0,70735.0,25033.0,-546.4799571031106,-136.4591173140248,-229.6829562729474
70735.0,13586.0,70735.0,25358.0,70735.0,25042.0,-531.553678524677,-125.39344728264649,-214.47176559652613
70735.0,13589.0,70735.0,25361.0,70735.0,25052.0,-516.2562379886316,-114.36971079690453,-199.26500074252527
70746.0,13597.0,70746.0,25358.0,70746.0,25062.0,-500.6097790592017,-103.40606459624183,-184.0879423653569
70746.0,13629.0,70746.0,25383.0,70746.0,25070.0,-484.63790633484547,-92.5216214460972,-168.9656431679934
70746.0,13667.0,70746.0,25432.0,70746.0,25121.0,-468.36571587706845,-81.73657653177291,-153.92302833830104
70746.0,13695.0,70746.0,25453.0,70746.0,25130.0,-451.8194881773072,-71.07183752476841,-138.98475343283917
70746.0,13706.0,70746.0,25489.0,70746.0,25155.0,-435.0262290334391,-60.54834182975969,-124.17486139988875
70746.0,13767.0,70746.0,25512.0,70746.0,25184.0,-418.013280098201,-50.18636390089381,-109.51646460247542
70756.0,13790.0,70756.0,25575.0,70756.0,25219.0,-400.8078849023601,-40.00483826784813,-95.03143690088035
70756.0,13805.0,70756.0,25555.0,70756.0,25225.0,-383.43663661946096,-30.02061465347657,-80.74001791227616
70756.0,13810.0,70756.0,25546.0,70756.0,25216.0,-365.9251082290583,-20.2479461127931,-66.6605392094938
70756.0,13802.0,70756.0,25530.0,70756.0,25207.0,-348.2978989713067,-10.698606301001064,-52.80956119636423
70756.0,13826.0,70756.0,25506.0,70756.0,25221.0,-330.57898900612184,-1.3825301735963365,-39.20236137517986
70756.0,13820.0,70756.0,25508.0,70756.0,25244.0,-312.7921545811708,7.691376421963412,-25.85339098099945
70766.0,13851.0,70766.0,25505.0,70766.0,25236.0,-294.96129114603576,16.51450346691496,-12.776464729832838
70766.0,13877.0,70766.0,25544.0,70766.0,25271.0,-277.11058090091706,25.078092594099957,0.015189298155121378
70766.0,13901.0,70766.0,25579.0,70766.0,25284.0,-259.264435195756,33.373266457052836,12.508935094343485
70766.0,13930.0,70766.0,25570.0,70766.0,25318.0,-241.4472656359286,41.39146717084162,24.69289716196596
70766.0,13954.0,70766.0,25613.0,70766.0,25320.0,-223.68321464674585,49.12493376809044,36.55626201317608
70766.0,13977.0,70766.0,25651.0,70766.0,25349.0,-205.99589327771562,56.56711775540498,48.08954918379209
70777.0,14024.0,70777.0,25683.0,70777.0,25388.0,-188.40810118287598,63.71332235784348,59.28486830240189
70777.0,14036.0,70777.0,25650.0,70777.0,25371.0,-170.94146325688655,70.56144220801428,70.13626572668682
70777.0,14037.0,70777.0,25626.0,70777.0,25385.0,-153.61609552003742,77.11219650994931,80.6399667225574
70777.0,14040.0,70777.0,25587.0,70777.0,25341.0,-136.45058489775099,83.36856635334718,90.7942179156556
70777.0,14061.0,70777.0,25584.0,70777.0,25347.0,-119.46228021797313,89.33476400492506,100.59871597511847
70777.0,14055.0,70777.0,25562.0,70777.0,25382.0,-102.66762264180232,95.01522383408457,110.05394436585397
70787.0,14081.0,70787.0,25593.0,70787.0,25384.0,-86.08241174956794,100.41388997731542,119.16088971381924
70787.0,14106.0,70787.0,25628.0,70787.0,25370.0,-69.72198650672567,105.53398071985285,127.9211094428166
70787.0,14149.0,70787.0,25611.0,70787.0,25407.0,-53.601164768087756,110.37825173216365,136.3367196019695
70787.0,14157.0,70787.0,25660.0,70787.0,25401.0,-37.73390844352548,114.94942009532889,144.4103170009045
70787.0,14182.0,70787.0,25673.0,70787.0,25435.0,-22.13295466962512,119.25056688673928,152.14506831243045
70787.0,14199.0,70787.0,25709.0,70787.0,25454.0,-6.809598719949463,123.28569227088678,159.54496201098942
70797.0,14229.0,70797.0,25733.0,70797.0,25441.0,8.2264527049702,127.06043310599892,166.61512590362923
70797.0,14229.0,70797.0,25681.0,70797.0,25442.0,22.967251263533342,130.58265960757478,173.3619794182938
70797.0,14219.0,70797.0,25643.0,70797.0,25431.0,37.40665039425352,133.86246114145115,179.79305656212398
70797.0,14229.0,70797.0,25632.0,70797.0,25413.0,51.540042521162434,136.9113347117708,185.91660862582643
70797.0,14219.0,70797.0,25608.0,70797.0,25428.0,65.36388941007004,139.74110401777392,191.74113008078007
70797.0,14245.0,70797.0,25574.0,70797.0,25433.0,78.87527451280914,142.36300786900614,197.27498752007654
70808.0,14251.0,70808.0,25601.0,70808.0,25422.0,92.07161503499884,144.78692723615433,202.5262647029694
70808.0,14275.0,70808.0,25655.0,70808.0,25450.0,104.95057430233663,147.02099545494173,207.50269796584234
70808.0,14289.0,70808.0,25654.0,70808.0,25472.0,117.51011784867535,149.07195553690622,212.21171590604098
70808.0,14311.0,70808.0,25658.0,70808.0,25471.0,129.74864449656275,150.9458899335749,216.66071665298603
70808.0,14327.0,70808.0,25718.0,70808.0,25488.0,141.66516416400862,152.64878421951397,220.85741451515014
70808.0,14372.0,70808.0,25733.0,70808.0,25499.0,153.25954875645277,154.1871288830642,224.81007969676807
70818.0,14352.0,70818.0,25718.0,70818.0,25477.0,164.53286831599615,155.5687107996759,228.5276910686307
70818.0,14348.0,70818.0,25657.0,70818.0,25476.0,175.48756351291922,156.8029911020834,232.01989851488509
70818.0,14348.0,70818.0,25635.0,70818.0,25456.0,186.12719945727054,157.9005794535018,235.29671159501902
70818.0,14347.0,70818.0,25631.0,70818.0,25456.0,196.4559869379989,158.87217274088584,238.36805789749343
70818.0,14343.0,70818.0,25619.0,70818.0,25436.0,206.47834620741162,159.7276681823824,241.24334230984067
70818.0,14354.0,70818.0,25589.0,70818.0,25455.0,216.19853949163178,160.4756205088209,243.931061531917
70828.0,14376.0,70828.0,25645.0,70828.0,25463.0,225.62042066050896,161.1228587512361,246.43859900461308
70828.0,14398.0,70828.0,25649.0,70828.0,25490.0,234.7474395366819,161.67445056875744,248.77232747655182
70828.0,14396.0,70828.0,25666.0,70828.0,25514.0,243.58285619920434,162.1341575799766,250.93800682677278
70828.0,14428.0,70828.0,25708.0,70828.0,25502.0,252.12995875059562,162.50507797147685,252.94131098791001
70828.0,14438.0,70828.0,25739.0,70828.0,25528.0,260.392252060725,162.79038316170352,254.78824093140253
70828.0,14465.0,70828.0,25724.0,70828.0,25514.0,268.37373070712306,162.9941787641048,256.48534662454534
70839.0,14462.0,70839.0,25674.0,70839.0,25488.0,276.0791975451908,163.122020234491,258.03976990464463
70839.0,14424.0,70839.0,25640.0,70839.0,25483.0,283.51437481259825,163.18058320719143,259.45898663618766
70839.0,14433.0,70839.0,25608.0,70839.0,25479.0,290.6855647678583,163.1766502424386,260.750332920399
70839.0,14428.0,70839.0,25649.0,70839.0,25463.0,297.5990377708546,163.11608160790502,261.9205964184721
70839.0,14440.0,70839.0,25621.0,70839.0,25452.0,304.2605766379578,163.00332236313324,262.9756826769159
70839.0,14433.0,70839.0,25636.0,70839.0,25492.0,310.67526814435007,162.84137473603977,263.9203339807622
70849.0,14478.0,70849.0,25634.0,70849.0,25513.0,316.84744232988885,162.63184305025635,264.758191962106
70849.0,14495.0,70849.0,25664.0,70849.0,25511.0,322.78086265528134,162.3750187266483,265.4922989243405
70849.0,14489.0,70849.0,25687.0,70849.0,25498.0,328.47916281945686,162.070213747802,266.1255864709703
70849.0,14475.0,70849.0,25684.0,70849.0,25523.0,333.9461314413095,161.7163243578763,266.6610255172555
70849.0,14546.0,70849.0,25766.0,70849.0,25537.0,339.1857109206451,161.31249751825484,267.1017067406259
70849.0,14525.0,70849.0,25717.0,70849.0,25506.0,344.20216569052604,160.858914310503,267.4510699330944
70860.0,14509.0,70860.0,25660.0,70860.0,25507.0,349.0004440166116,160.35730579843286,267.71298871574925
70860.0,14493.0,70860.0,25669.0,70860.0,25467.0,353.5861422797333,159.81058410617482,267.89147575366906
70860.0,14488.0,70860.0,25626.0,70860.0,25475.0,357.964986587991,159.22191852637062,267.99015810549696
70860.0,14489.0,70860.0,25615.0,70860.0,25466.0,362.1422767618427,158.59392844919353,268.0117795971746
70860.0,14497.0,70860.0,25607.0,70860.0,25466.0,366.1225434564143,157.92802944979036,267.9579021260874
70860.0,14521.0,70860.0,25668.0,70860.0,25514.0,369.9094627779216,157.22404578795212,267.8288786655174
70870.0,14510.0,70870.0,25636.0,70870.0,25490.0,373.50599182369194,156.48038474151653,267.6241404178336
70870.0,14525.0,70870.0,25701.0,70870.0,25501.0,376.9145428926396,155.69458254886436,267.34259573061814
70870.0,14543.0,70870.0,25686.0,70870.0,25501.0,380.1370991313322,154.8639103534609,266.982825090698
70870.0,14559.0,70870.0,25732.0,70870.0,25536.0,383.17542129105686,153.98602200748977,266.5431997222256
70870.0,14575.0,70870.0,25729.0,70870.0,25545.0,386.03142040672515,153.0596235760301,266.02223750749374
70870.0,14551.0,70870.0,25666.0,70870.0,25509.0,388.7075081315444,152.08491569178668,265.4190667611245
70880.0,14526.0,70880.0,25673.0,70880.0,25486.0,391.2066170582925,151.0634303631501,264.7335000676623
70880.0,14526.0,70880.0,25620.0,70880.0,25467.0,393.5317796464358,149.99731282472317,263.9655381006528
70880.0,14530.0,70880.0,25629.0,70880.0,25496.0,395.6855874370859,148.8885097971785,263.1147466289336
70880.0,14536.0,70880.0,25590.0,70880.0,25469.0,397.6699068764,147.73808063687318,262.1799741962091
70880.0,14525.0,70880.0,25613.0,70880.0,25495.0,399.48583143238886,146.54565560813242,261.1593679953538
70880.0,14546.0,70880.0,25656.0,70880.0,25507.0,401.13367364743885,145.30923552871258,260.0505098891353
70891.0,14567.0,70891.0,25654.0,70891.0,25518.0,402.61303959029897,144.02555338771282,258.8507272756958
70891.0,14554.0,70891.0,25671.0,70891.0,25503.0,403.92309497735073,142.69075919827137,257.5574918532731
70891.0,14576.0,70891.0,25698.0,70891.0,25525.0,405.06285702912794,141.30102141576003,256.16866756788835
70891.0,14605.0,70891.0,25772.0,70891.0,25537.0,406.0314412559263,139.8532130042455,254.68268877032426
70891.0,14590.0,70891.0,25725.0,70891.0,25529.0,406.82843116881656,138.34591903784872,253.0988568537453
70891.0,14585.0,70891.0,25697.0,70891.0,25508.0,407.4542171384062,136.78019523796462,251.41757733229184
70901.0,14558.0,70901.0,25631.0,70901.0,25495.0,407.90997049938767,135.15933680492014,249.64026215633106
70901.0,14551.0,70901.0,25626.0,70901.0,25486.0,408.1972650319376,133.48781131545954,247.76896808282447
70901.0,14550.0,70901.0,25614.0,70901.0,25469.0,408.31760279956995,131.77012055676946,245.8060058110005
70901.0,14550.0,70901.0,25596.0,70901.0,25467.0,408.2720810744519,130.01006674156378,243.7536048190102
70901.0,14554.0,70901.0,25606.0,70901.0,25473.0,408.06127113758964,128.2103602358679,241.61367025921965
70901.0,14571.0,70901.0,25671.0,70901.0,25482.0,407.6852623761084,126.37256058817556,239.3877391005666
70911.0,14581.0,70911.0,25650.0,70911.0,25473.0,407.1438716593982,124.49756730994864,237.07712938632704
70911.0,14572.0,70911.0,25647.0,70911.0,25502.0,406.43695525401154,122.58633453296511,234.6831550620272
70911.0,14591.0,70911.0,25724.0,70911.0,25516.0,405.56465733542007,120.6403521462914,232.20744275456534
70911.0,14633.0,70911.0,25740.0,70911.0,25528.0,404.52767604631975,118.66228597292863,229.65244759279352
70911.0,14591.0,70911.0,25684.0,70911.0,25506.0,403.3277231555831,116.65692263451129,227.02197575715684
70911.0,14584.0,70911.0,25629.0,70911.0,25475.0,401.9678474250452,114.63147798068096,224.32134738041583
70922.0,14555.0,70922.0,25589.0,70922.0,25469.0,400.4522249784613,112.59473871322916,221.55708027541084
70922.0,14543.0,70922.0,25600.0,70922.0,25456.0,398.78560275883393,110.55573516319095,218.7363756177365
70922.0,14545.0,70922.0,25519.0,70922.0,25449.0,396.97275921528893,108.52268563351186,215.86672310238936
70922.0,14547.0,70922.0,25571.0,70922.0,25446.0,395.01818242198493,106.50220798494846,212.95566379813772
70922.0,14555.0,70922.0,25609.0,70922.0,25437.0,392.92602821503687,104.49890546831756,210.01064165535027
70922.0,14572.0,70922.0,25607.0,70922.0,25426.0,390.7002974925215,102.51573133651954,207.03888676207674
70932.0,14554.0,70932.0,25624.0,70932.0,25439.0,388.345121237117,100.55478805208986,204.04730380129072
70932.0,14562.0,70932.0,25657.0,70932.0,25469.0,385.8649770657663,98.61798220275882,201.04252534976655
70932.0,14593.0,70932.0,25699.0,70932.0,25486.0,383.2648270512459,96.70770503777369,198.031340259584
70932.0,14572.0,70932.0,25658.0,70932.0,25442.0,380.5503911816448,94.8276842590631,195.02129048296234
70932.0,14579.0,70932.0,25603.0,70932.0,25431.0,377.728479392577,92.98341200753246,192.02086947426545
70932.0,14537.0,70932.0,25586.0,70932.0,25407.0,374.80706223703294,91.18163287275884,189.0391499070875
70942.0,14523.0,70942.0,25590.0,70942.0,25407.0,371.7949706918587,89.42935720853133,186.08523505984093
70942.0,14512.0,70942.0,25538.0,70942.0,25403.0,368.70135841262345,87.73310987193125,183.16788166202227
70942.0,14487.0,70942.0,25550.0,70942.0,25380.0,365.53516293349327,86.09838786317488,180.29530403117982
70942.0,14510.0,70942.0,25565.0,70942.0,25404.0,362.3047173027341,84.52920726550495,177.47503779819812
70942.0,14506.0,70942.0,25598.0,70942.0,25401.0,359.01760900902184,83.02807524941403,174.7139135498134
70942.0,14517.0,70942.0,25579.0,70942.0,25392.0,355.6808284293011,81.59644165180674,172.01820692708458
70953.0,14521.0,70953.0,25607.0,70953.0,25396.0,352.3010588202321,80.23519494564748,169.3937787757334
70953.0,14539.0,70953.0,25658.0,70953.0,25444.0,348.885000366418,78.94510338382136,166.84621121398507
70953.0,14530.0,70953.0,25638.0,70953.0,25431.0,345.439736158997,77.72748257633964,164.38122881568154
70953.0,14512.0,70953.0,25619.0,70953.0,25410.0,341.9730063177703,76.58484257350638,162.0052347301171
70953.0,14482.0,70953.0,25581.0,70953.0,25365.0,338.49315729758,75.52092145721635,159.72537264691087
70953.0,14471.0,70953.0,25562.0,70953.0,25371.0,335.00873375030943,74.5400851216139,157.54899297555272
70963.0,14466.0,70963.0,25522.0,70963.0,25355.0,331.52796361845077,73.64646954085892,155.48300465828984
70963.0,14458.0,70963.0,25532.0,70963.0,25332.0,328.0584012973852,72.84313050181743,153.5334402289984
70963.0,14463.0,70963.0,25531.0,70963.0,25337.0,324.60677515125326,72.13143340764296,151.70511450274148
70963.0,14455.0,70963.0,25565.0,70963.0,25342.0,321.1789642636005,71.51089757580358,150.0013463508517
70963.0,14473.0,70963.0,25590.0,70963.0,25360.0,317.7800677789589,70.97953141576393,148.42394173301386
70963.0,14483.0,70963.0,25618.0,70963.0,25356.0,314.41460914194636,70.53453505077199,146.97344597406175
70973.0,14479.0,70973.0,25638.0,70973.0,25388.0,311.08688316056123,70.17315997176902,145.64950130290742
70973.0,14485.0,70973.0,25676.0,70973.0,25405.0,307.80129598781394,69.8935719990241,144.45129951172783
70973.0,14487.0,70973.0,25627.0,70973.0,25388.0,304.56259466851475,69.69559013327552,143.37812569227552
70973.0,14479.0,70973.0,25602.0,70973.0,25367.0,301.3760346739302,69.580926958908,142.42967939257636
70973.0,14426.0,70973.0,25552.0,70973.0,25368.0,298.24737801186086,69.5526432353543,141.60594250989774
70973.0,14428.0,70973.0,25542.0,70973.0,25328.0,295.1825031822021,69.61410197255721,140.90678415990465
70984.0,14416.0,70984.0,25490.0,70984.0,25317.0,292.18679476535533,69.76787319409843,140.33145430666772
70984.0,14421.0,70984.0,25500.0,70984.0,25334.0,289.2647354171238,70.01475321716345,139.87803699567186
70984.0,14414.0,70984.0,25594.0,70984.0,25327.0,286.4197931929075,70.35321610335663,139.54314249385092
70984.0,14428.0,70984.0,25591.0,70984.0,25359.0,283.6544563276655,70.77983961625387,139.3219719681808
70984.0,14432.0,70984.0,25568.0,70984.0,25398.0,280.97037893223853,71.29033943793091,139.20870219506747
70984.0,14435.0,70984.0,25600.0,70984.0,25386.0,278.36863347585836,71.88017762634861,139.19715604685965
70994.0,14460.0,70994.0,25643.0,70994.0,25411.0,275.85002142835594,72.54477782182212,139.28148370931012
70994.0,14451.0,70994.0,25664.0,70994.0,25400.0,273.4154399987766,73.28009206896047,139.45658364276164
70994.0,14440.0,70994.0,25626.0,70994.0,25415.0,271.0662057770587,74.08340606587993,139.71833227548854
70994.0,14431.0,70994.0,25603.0,70994.0,25366.0,268.8041268031409,74.9536281174445,140.06365092243527
70994.0,14405.0,70994.0,25560.0,70994.0,25340.0,266.6312987353118,75.89078462852763,140.4901975727945
70994.0,14403.0,70994.0,25556.0,70994.0,25357.0,264.5497485084777,76.89509049496333,140.9956897222138
71003.0,14377.0,71003.0,25536.0,71003.0,25346.0,262.56102660543684,77.96605985820385,141.57732985914325
71003.0,14380.0,71003.0,25557.0,71003.0,25349.0,260.6658187117946,79.10191019415477,142.231608912072
71003.0,14402.0,71003.0,25576.0,71003.0,25358.0,258.8636961090242,80.29937308904155,142.9542874047004
71003.0,14430.0,71003.0,25583.0,71003.0,25357.0,257.1532354897432,81.5539097395278,143.74043301063463
71003.0,14418.0,71003.0,25624.0,71003.0,25377.0,255.53252034927246,82.86017140686197,144.5845470234355
71003.0,14417.0,71003.0,25625.0,71003.0,25385.0,253.9996232981824,84.21257342407016,145.48079001797518
71014.0,14440.0,71014.0,25690.0,71014.0,25427.0,252.55282448191272,85.60598494372952,146.4233635411598
71014.0,14422.0,71014.0,25643.0,71014.0,25399.0,251.19076044177794,87.03647388516511,147.40702777767447
71014.0,14413.0,71014.0,25621.0,71014.0,25371.0,249.91255608683844,88.50171666026091,148.42740931668442
71014.0,14390.0,71014.0,25565.0,71014.0,25365.0,248.71771721119813,90.00061746559533,149.48075313080756
71014.0,14381.0,71014.0,25574.0,71014.0,25349.0,247.60576132596867,91.53230923705803,150.56333342529976
71014.0,14362.0,71014.0,25551.0,71014.0,25352.0,246.57575884250656,93.0951778325907,151.6709464424393
71024.0,14367.0,71024.0,25560.0,71024.0,25339.0,245.6259141468699,94.6862555403291,152.79858046380417
71024.0,14372.0,71024.0,25570.0,71024.0,25352.0,244.7533019533413,96.30094350017299,153.94020244061937
71024.0,14390.0,71024.0,25588.0,71024.0,25392.0,243.9538662554957,97.93301861792959,155.08874843693854
71024.0,14397.0,71024.0,25627.0,71024.0,25400.0,243.2226738746116,99.57495345277928,156.23649211947233
71024.0,14398.0,71024.0,25643.0,71024.0,25404.0,242.55427095469614,101.21852903735217,157.3756518810285
71024.0,14428.0,71024.0,25719.0,71024.0,25419.0,241.94301911200753,102.85570443761542,158.49887054745093
71034.0,14424.0,71034.0,25694.0,71034.0,25422.0,241.38345997890445,104.47967449880204,159.59950720090515
71034.0,14413.0,71034.0,25654.0,71034.0,25408.0,240.87066986808662,106.08566473469433,160.67183444310078
71034.0,14394.0,71034.0,25623.0,71034.0,25383.0,240.40034974141386,107.67083621990342,161.71101179307834
71034.0,14376.0,71034.0,25593.0,71034.0,25395.0,239.9685494558515,109.23338766039129,162.71276457553284
71034.0,14362.0,71034.0,25595.0,71034.0,25365.0,239.5711842787917,110.77151447606431,163.67298297393734
71034.0,14356.0,71034.0,25554.0,71034.0,25349.0,239.20353201267883,112.28259530832494,164.58733650710315
71045.0,14368.0,71045.0,25582.0,71045.0,25365.0,238.8598707415594,113.76258578711916,165.45083526230758
71045.0,14391.0,71045.0,25632.0,71045.0,25375.0,238.5334152069513,115.20575524032317,166.25754444985165
71045.0,14406.0,71045.0,25644.0,71045.0,25406.0,238.2166167574939,116.60508015467396,167.0007114788131
71045.0,14393.0,71045.0,25651.0,71045.0,25405.0,237.90163685885153,117.95305981779073,167.67321467729016
71045.0,14420.0,71045.0,25677.0,71045.0,25425.0,237.58070298697885,119.24238771867667,168.26806876300486
71045.0,14441.0,71045.0,25695.0,71045.0,25455.0,237.2463936976634,120.46643846446027,168.7788921723402
71055.0,14429.0,71055.0,25722.0,71055.0,25435.0,236.89205144200542,121.61982340509417,169.20039515345348
71055.0,14416.0,71055.0,25655.0,71055.0,25419.0,236.51212099069676,122.69887755958389,169.52870061750713
71055.0,14388.0,71055.0,25641.0,71055.0,25403.0,236.10208178955213,123.70157815563473,169.7612166189188
71055.0,14386.0,71055.0,25612.0,71055.0,25376.0,235.65802097197843,124.62677955159323,169.8961536823358
71055.0,14371.0,71055.0,25588.0,71055.0,25376.0,235.17613454721194,125.47324018869502,169.93194205423856
71055.0,14355.0,71055.0,25575.0,71055.0,25361.0,234.65231474751405,126.23877149015777,169.8667148899073
71065.0,14374.0,71065.0,25654.0,71065.0,25384.0,234.08182366372523,126.91971113122088,169.69798897522008
71065.0,14377.0,71065.0,25645.0,71065.0,25390.0,233.45915449225572,127.51110931063805,169.4226361389218
71065.0,14403.0,71065.0,25667.0,71065.0,25393.0,232.7782019708967,128.00748445604262,169.03710900909618
71065.0,14410.0,71065.0,25701.0,71065.0,25426.0,232.0326693251987,128.403555566146,168.5377775282272
71065.0,14425.0,71065.0,25706.0,71065.0,25446.0,231.21656013837122,128.6948663597367,167.92138847800322
71065.0,14452.0,71065.0,25716.0,71065.0,25447.0,230.32468451044704,128.87840662483626,167.18569062131473
71076.0,14415.0,71076.0,25695.0,71076.0,25415.0,229.35312505227427,128.9530224607782,166.3299220007488
71076.0,14405.0,71076.0,25674.0,71076.0,25395.0,228.29941395875488,128.9194293230659,165.35478304935907
71076.0,14379.0,71076.0,25626.0,71076.0,25373.0,227.16223510416893,128.77977933933906,164.261925893781
71076.0,14355.0,71076.0,25612.0,71076.0,25389.0,225.94083742440472,128.53684156736017,163.05334838607374
71076.0,14369.0,71076.0,25589.0,71076.0,25352.0,224.6344389087705,128.19305214899146,161.7309983991304
71076.0,14358.0,71076.0,25622.0,71076.0,25362.0,223.2418397947692,127.74980259953136,160.29651749736763
71086.0,14374.0,71086.0,25651.0,71086.0,25370.0,221.76133606344914,127.20728793391376,158.75102476183224
71086.0,14374.0,71086.0,25653.0,71086.0,25389.0,220.19083006618442,126.56494696607373,157.0951289239163
71086.0,14384.0,71086.0,25655.0,71086.0,25387.0,218.52803715048566,125.82207383779853,155.32923960044485
71086.0,14392.0,71086.0,25656.0,71086.0,25397.0,216.7707458510643,124.97818390205711,153.45394892632592
71086.0,14401.0,71086.0,25727.0,71086.0,25412.0,214.91711350197318,124.03328980291599,151.47035404783009
71086.0,14402.0,71086.0,25686.0,71086.0,25398.0,212.96598114637106,122.98845405323496,149.38036294934145
71097.0,14381.0,71097.0,25671.0,71097.0,25370.0,210.91709851791222,121.84633275853446,147.1868560792462
71097.0,14356.0,71097.0,25630.0,71097.0,25361.0,208.77107294623985,120.61108511923203,144.89348919749042
71097.0,14348.0,71097.0,25584.0,71097.0,25364.0,206.52899362604728,119.28761624730222,142.50428306075614
71097.0,14330.0,71097.0,25585.0,71097.0,25332.0,204.19193360571282,117.88054577315289,140.02330136484565
71097.0,14318.0,71097.0,25566.0,71097.0,25320.0,201.76051564837204,116.39330076992118,137.4543601549509
71097.0,14347.0,71097.0,25580.0,71097.0,25344.0,199.2346208614722,114.82759391779194,134.8006856045801
71107.0,14360.0,71107.0,25613.0,71107.0,25341.0,196.6134262592879,113.18333739817973,132.06479526814144
71107.0,14357.0,71107.0,25693.0,71107.0,25355.0,193.89580971139745,111.45914221753867,129.24872614998972
71107.0,14375.0,71107.0,25671.0,71107.0,25364.0,191.08082076458544,109.65345152413843,126.35439701524632
71107.0,14371.0,71107.0,25712.0,71107.0,25385.0,188.16803928038127,107.76576963921745,123.38401785075558
71107.0,14370.0,71107.0,25706.0,71107.0,25367.0,185.15785833901717,105.7974890016477,120.3405423593746
71107.0,14367.0,71107.0,25641.0,71107.0,25346.0,182.05166106261706,103.75225431747951,117.22794080076814
71117.0,14329.0,71117.0,25626.0,71117.0,25334.0,178.8518144404658,101.63568577725505,114.05108261284376
71117.0,14319.0,71117.0,25566.0,71117.0,25302.0,175.56139511543958,99.45444908497075,110.815325824311
71117.0,14306.0,71117.0,25574.0,71117.0,25297.0,172.1837037222426,97.21513555967864,107.52600738223973
71117.0,14293.0,71117.0,25556.0,71117.0,25284.0,168.7218105293288,94.92338113671912,104.18796172202602
71117.0,14309.0,71117.0,25559.0,71117.0,25288.0,165.1782820382513,92.5833819180586,100.80519490737497
71117.0,14302.0,71117.0,25579.0,71117.0,25329.0,161.5551309423684,90.19775955160198,97.38085382403477
71128.0,14307.0,71128.0,25599.0,71128.0,25290.0,157.85395293518434,87.767747973643,93.91753077126842
71128.0,14292.0,71128.0,25609.0,71128.0,25309.0,154.07607828531175,85.29368523662814,90.41760990680476
71128.0,14314.0,71128.0,25609.0,71128.0,25305.0,150.2226571749581,82.77558574290813,86.88340046827955
71128.0,14353.0,71128.0,25676.0,71128.0,25342.0,146.29488922180101,80.21368156035207,83.31729953563355
71128.0,14318.0,71128.0,25656.0,71128.0,25287.0,142.2945549913332,77.60912910942255,79.722129962949
71128.0,14290.0,71128.0,25613.0,71128.0,25273.0,138.22443054470017,74.96467883213681,76.10124663164467
71138.0,14271.0,71138.0,25592.0,71138.0,25268.0,134.08809319699458,72.28467032782008,72.45816201567833
71138.0,14264.0,71138.0,25544.0,71138.0,25268.0,129.8893470768224,69.57430429738007,68.79609164875812
71138.0,14239.0,71138.0,25542.0,71138.0,25236.0,125.63172776036174,66.83869506921124,65.11773103682482
71138.0,14237.0,71138.0,25503.0,71138.0,25236.0,121.31814252759935,64.08202532218799,61.42505547310145
71138.0,14256.0,71138.0,25545.0,71138.0,25237.0,116.95063803634712,61.306950583747636,57.71905160438094
71138.0,14252.0,71138.0,25552.0,71138.0,25259.0,112.53045114796222,58.51445777108451,53.999639722235074
71148.0,14250.0,71148.0,25559.0,71148.0,25255.0,108.05828414933251,55.70421816532591,50.26592031214264
71148.0,14253.0,71148.0,25588.0,71148.0,25258.0,103.53454529169724,52.87514134388253,46.51655260662483
71148.0,14271.0,71148.0,25611.0,71148.0,25280.0,98.9595424765621,50.02597627066061,42.75008505510263
71148.0,14255.0,71148.0,25642.0,71148.0,25276.0,94.3337616121093,47.15607694430761,38.96530452995498
71148.0,14256.0,71148.0,25594.0,71148.0,25270.0,89.65813248697557,44.26617883067429,35.16160633321881
71148.0,14233.0,71148.0,25516.0,71148.0,25247.0,84.93410405449823,41.35856885812448,31.339166476425973
71159.0,14216.0,71159.0,25539.0,71159.0,25219.0,80.16350076337145,38.43631099011084,27.498770543141163
71159.0,14209.0,71159.0,25520.0,71159.0,25215.0,75.34822667132701,35.50221739619616,23.64137603112505
71159.0,14186.0,71159.0,25476.0,71159.0,25179.0,70.48993263776066,32.55825319753088,19.76760243071179
71159.0,14177.0,71159.0,25484.0,71159.0,25194.0,65.58970522541901,29.605091386678076,15.877282580219529
71159.0,14214.0,71159.0,25518.0,71159.0,25194.0,60.647862257375735,26.641702513811957,11.96919265972467
71159.0,14203.0,71159.0,25532.0,71159.0,25226.0,55.66408569858511,23.66545874147908,8.041134870715908
71169.0,14190.0,71169.0,25535.0,71169.0,25215.0,50.6378028057143,20.672740157039854,4.090358673286772
71169.0,14205.0,71169.0,25573.0,71169.0,25210.0,45.56842699733397,17.65959617914349,0.11401708895004958
71169.0,14221.0,71169.0,25613.0,71169.0,25235.0,40.45550905077312,14.622452045987188,-3.890560409901042
71169.0,14199.0,71169.0,25583.0,71169.0,25235.0,35.29904755668221,11.558985970971833,-7.925612393210741
71169.0,14181.0,71169.0,25562.0,71169.0,25195.0,30.09973603251757,8.468743994487525,-11.992646556471243
71169.0,14167.0,71169.0,25499.0,71169.0,25165.0,24.858855276721812,5.352980599706726,-16.092491949059593
71179.0,14149.0,71179.0,25488.0,71179.0,25178.0,19.577934387814764,2.2138121285050545,-20.225809555185464
71179.0,14138.0,71179.0,25469.0,71179.0,25142.0,14.258398971396275,-0.9468030090369695,-24.393605859707634
71179.0,14126.0,71179.0,25449.0,71179.0,25142.0,8.901267201349583,-4.12784050119663,-28.597546999560905
71179.0,14113.0,71179.0,25493.0,71179.0,25157.0,3.506897740437921,-7.329625353568787,-32.84017667272202
71179.0,14130.0,71179.0,25487.0,71179.0,25189.0,-1.925172059220472,-10.553801191799153,-37.1248495435176
71179.0,14132.0,71179.0,25479.0,71179.0,25181.0,-7.396180310985898,-13.802954823516956,-41.455232333410606
71190.0,14127.0,71190.0,25534.0,71190.0,25185.0,-12.907874948348677,-17.080219805298213,-45.83470236109065
71190.0,14146.0,71190.0,25554.0,71190.0,25185.0,-18.462196211987617,-20.388739539156475,-50.265973287159625
71190.0,14163.0,71190.0,25566.0,71190.0,25191.0,-24.06091328985923,-23.730781364751536,-54.750883202459335
71190.0,14153.0,71190.0,25530.0,71190.0,25164.0,-29.705126011421072,-27.106930585355713,-59.290231648831266
71190.0,14115.0,71190.0,25488.0,71190.0,25135.0,-35.394884510646136,-30.51593707556934,-63.883821341344856
71190.0,14094.0,71190.0,25447.0,71190.0,25138.0,-41.12929514338842,-33.95532575844891,-68.53080979873988
71200.0,14057.0,71200.0,25445.0,71200.0,25117.0,-46.90708230116573,-37.42239659783206,-73.23012803902111
71200.0,14059.0,71200.0,25431.0,71200.0,25088.0,-52.72727425484368,-40.91506574665716,-77.98080244155565
71200.0,14067.0,71200.0,25420.0,71200.0,25112.0,-58.589673077252,-44.432327341733455,-82.78226884864725
71200.0,14087.0,71200.0,25452.0,71200.0,25095.0,-64.4948718962755,-47.97443111945107,-87.63456560637317
71200.0,14067.0,71200.0,25484.0,71200.0,25122.0,-70.44389840995387,-51.54269291060534,-92.53823759316248
71200.0,14069.0,71200.0,25472.0,71200.0,25114.0,-76.43786308361973,-55.1388712274948,-97.49403825638794
71210.0,14059.0,71210.0,25487.0,71210.0,25112.0,-82.4778285387697,-58.764490367363166,-102.50259154103182
71210.0,14095.0,71210.0,25540.0,71210.0,25133.0,-88.56471392001924,-62.42031438061716,-107.56410880632609
71210.0,14071.0,71210.0,25484.0,71210.0,25128.0,-94.69899541130755,-66.10576139812147,-112.67809190950098
71210.0,14041.0,71210.0,25452.0,71210.0,25083.0,-100.88039715288608,-69.81855983456396,-117.8430690004291
71210.0,14021.0,71210.0,25413.0,71210.0,25058.0,-107.1079894325014,-73.55518479764638,-123.0567293385661
71210.0,14012.0,71210.0,25400.0,71210.0,25063.0,-113.38064761390214,-77.31181168853485,-128.31648348650853
71221.0,13999.0,71221.0,25387.0,71221.0,25031.0,-119.69747720416544,-81.08516986314615,-133.61998754214724
71221.0,13982.0,71221.0,25370.0,71221.0,25011.0,-126.0580755732284,-84.87309611794734,-138.96549589740312
71221.0,13983.0,71221.0,25380.0,71221.0,25048.0,-132.46272748915692,-88.67486904569321,-144.35216604022136
71221.0,14005.0,71221.0,25388.0,71221.0,25061.0,-138.91246972132194,-92.49132432612927,-149.78004225216122
71221.0,13998.0,71221.0,25424.0,71221.0,25044.0,-145.4088648296834,-96.32463359861345,-155.24957859418126
71221.0,14002.0,71221.0,25433.0,71221.0,25033.0,-151.95359339108649,-100.17772463282412,-160.7611969949058
71231.0,14011.0,71231.0,25442.0,71231.0,25060.0,-158.54809127431395,-104.05354105982647,-166.3151617291425
71231.0,14020.0,71231.0,25489.0,71231.0,25079.0,-165.19320358435488,-107.95432978543838,-171.9113797009732
71231.0,13986.0,71231.0,25460.0,71231.0,25045.0,-171.88883297517498,-111.88093576538571,-177.54892213261854
71231.0,13952.0,71231.0,25391.0,71231.0,25002.0,-178.63387169981468,-115.83238537592291,-183.22576954883743
71231.0,13942.0,71231.0,25361.0,71231.0,24975.0,-185.42659548873945,-119.80632904405314,-188.93922733017763
71231.0,13926.0,71231.0,25364.0,71231.0,24971.0,-192.2652218025454,-123.80012460191506,-194.68671845723105
71241.0,13913.0,71241.0,25311.0,71241.0,24958.0,-199.14830466661414,-127.81177015629842,-200.46639295512364
71241.0,13916.0,71241.0,25317.0,71241.0,24964.0,-206.07494995037865,-131.84053476616288,-206.2773800739298
71241.0,13927.0,71241.0,25375.0,71241.0,24990.0,-213.04484708788925,-135.88733959941158,-212.11973587763543
71241.0,13907.0,71241.0,25413.0,71241.0,25006.0,-220.05809096087404,-139.9544281823395,-217.9940437734262
71241.0,13907.0,71241.0,25362.0,71241.0,24987.0,-227.1149801386896,-144.04438238115904,-223.90078738511323
71241.0,13915.0,71241.0,25403.0,71241.0,24986.0,-234.21591492217112,-148.15937448868308,-229.83989038445992
71252.0,13940.0,71252.0,25440.0,71252.0,25001.0,-241.3611867426003,-152.30081926482902,-235.81054267136307
71252.0,13918.0,71252.0,25432.0,71252.0,24987.0,-248.55052736643182,-156.4687924473824,-241.8110397086396
71252.0,13889.0,71252.0,25364.0,71252.0,24939.0,-255.78273967317233,-160.66141806718048,-247.83865527777965
71252.0,13864.0,71252.0,25346.0,71252.0,24937.0,-263.05579250178874,-164.87503203302055,-253.88988162449954
71252.0,13860.0,71252.0,25305.0,71252.0,24937.0,-270.36727032366105,-169.1050876416979,-259.9609075618953
71252.0,13844.0,71252.0,25251.0,71252.0,24904.0,-277.7147791317503,-173.3472425515132,-266.0479218020143
71262.0,13826.0,71262.0,25300.0,71262.0,24889.0,-285.0961791013386,-177.5983379595593,-272.14731853556367
71262.0,13829.0,71262.0,25310.0,71262.0,24910.0,-292.5097574242108,-181.85686536697673,-278.2559753712779
71262.0,13834.0,71262.0,25347.0,71262.0,24899.0,-299.95430495679756,-186.12259521102783,-284.3713487610774
71262.0,13835.0,71262.0,25316.0,71262.0,24912.0,-307.42896924390493,-190.39579037285756,-290.49126356501154
71262.0,13824.0,71262.0,25340.0,71262.0,24932.0,-314.9329730031537,-194.67663800054868,-296.6135546910848
71262.0,13849.0,71262.0,25376.0,71262.0,24944.0,-322.46534583330117,-198.96489762449912,-302.73556291018923
71272.0,13862.0,71272.0,25410.0,71272.0,24932.0,-330.02456192036146,-203.2592839236171,-308.85352944630154
71272.0,13827.0,71272.0,25342.0,71272.0,24881.0,-337.6080392578772,-207.5566185631893,-314.9622557285091
71272.0,13786.0,71272.0,25275.0,71272.0,24865.0,-345.21191732248934,-211.8516213522836,-321.05535020120175
71272.0,13764.0,71272.0,25278.0,71272.0,24875.0,-352.8314512509185,-216.13778199453319,-327.125823560153
71272.0,13747.0,71272.0,25265.0,71272.0,24848.0,-360.4617271769842,-220.40851525002043,-333.1664882358347
71272.0,13745.0,71272.0,25213.0,71272.0,24821.0,-368.0982212772544,-224.65787319118368,-339.1701380598043
71283.0,13731.0,71283.0,25263.0,71283.0,24824.0,-375.7370589930223,-228.88099284020979,-345.1298361840408
71283.0,13742.0,71283.0,25271.0,71283.0,24833.0,-383.37505956693866,-233.07426520766845,-351.03919613120246
71283.0,13764.0,71283.0,25292.0,71283.0,24843.0,-391.0095700669914,-237.23492840254488,-356.89232430867435
71283.0,13744.0,71283.0,25296.0,71283.0,24858.0,-398.6380586484384,-241.3603540899467,-362.68343026556767
71283.0,13751.0,71283.0,25313.0,71283.0,24858.0,-406.2576816591961,-245.4474220195056,-368.4063072602224
71283.0,13774.0,71283.0,25339.0,71283.0,24843.0,-413.8649703847945,-249.49195843540153,-374.0538857047562
71293.0,13749.0,71293.0,25338.0,71293.0,24847.0,-421.4554756341751,-253.48811098478498,-379.6180114727485
71293.0,13727.0,71293.0,25277.0,71293.0,24825.0,-429.02346742263563,-257.4278849010208,-385.08941894708806
71293.0,13696.0,71293.0,25236.0,71293.0,24780.0,-436.5620278596432,-261.301354679317,-390.4578849067879
71293.0,13674.0,71293.0,25214.0,71293.0,24782.0,-444.0635192126297,-265.09760614024367,-395.71266878289384
71293.0,13669.0,71293.0,25193.0,71293.0,24769.0,-451.5201278554386,-268.80582231328265,-400.84305747422115
71293.0,13655.0,71293.0,25193.0,71293.0,24756.0,-458.92424756699506,-272.4160500480853,-405.83870341165414
71304.0,13654.0,71304.0,25234.0,71304.0,24777.0,-466.2686498109964,-275.91951007948325,-410.689746093977
71304.0,13658.0,71304.0,25234.0,71304.0,24768.0,-473.54649385677016,-279.30835979680495,-415.38674980756736
71304.0,13662.0,71304.0,25230.0,71304.0,24777.0,-480.75117899913397,-282.5751295891141,-419.9204699925252
71304.0,13687.0,71304.0,25262.0,71304.0,24765.0,-487.8760087458462,-285.7122458649684,-424.28161046084125
71304.0,13688.0,71304.0,25301.0,71304.0,24810.0,-494.91366921578276,-288.7115499293827,-428.46059605417315
71304.0,13685.0,71304.0,25288.0,71304.0,24808.0,-501.85564744285625,-291.5635478659315,-432.4471546283342
71314.0,13665.0,71314.0,25254.0,71314.0,24791.0,-508.69184077135975,-294.2567600140215,-436.2297572498812
71314.0,13619.0,71314.0,25209.0,71314.0,24756.0,-515.4105599951336,-296.77776937548515,-439.7953743035629
71314.0,13604.0,71314.0,25177.0,71314.0,24740.0,-521.9989710892833,-299.1119996766775,-443.1297927557412
71314.0,13605.0,71314.0,25176.0,71314.0,24726.0,-528.4437188955205,-301.24473984274204,-446.2182177430967
71314.0,13591.0,71314.0,25123.0,71314.0,24708.0,-534.7313243786422,-303.1620025037658,-449.0458189548462
71314.0,13572.0,71314.0,25168.0,71314.0,24711.0,-540.8483255246417,-304.8511522365415,-451.5981332354926
71324.0,13589.0,71324.0,25201.0,71324.0,24712.0,-546.7813808746097,-306.3011258986348,-453.8613036446189
