c_ts,c_val,d_ts,d_val,e_ts,e_val,c_val_filtered,d_val_filtered,e_val_filtered
276231,22262,276231.0,59210.0,276231.0,87229.0,304.52007585776886,344.8311443751697,374.4705704146592
276231,22239,276231.0,59185.0,276231.0,87189.0,295.3226981785127,332.4524117776989,362.48105128150235
276242,22211,276242.0,59164.0,276242.0,87177.0,285.82646886579903,319.7085457020744,350.08622610241076
276242,22186,276242.0,59090.0,276242.0,87115.0,276.04801515465954,306.6254456974292,337.30398153689373
276242,22168,276242.0,59046.0,276242.0,87090.0,266.00345118979124,293.22831082471214,324.1513744823765
276242,22151,276242.0,58999.0,276242.0,87089.0,255.7079803958163,279.5405430514845,310.64395641348176
276242,22124,276242.0,58953.0,276242.0,87096.0,245.17559335142803,265.58258174757293,296.79542114144806
276242,22119,276242.0,59044.0,276242.0,87092.0,234.4188121080811,251.37113196692667,282.61779607547425
276252,22123,276252.0,59074.0,276252.0,87075.0,223.44853918886818,236.91943547198585,268.1218952409123
276252,22132,276252.0,59031.0,276252.0,87062.0,212.27418489994776,222.2385738328693,253.31766533914816
276252,22109,276252.0,59023.0,276252.0,87062.0,200.904044264668,207.3386294002854,238.21436984985536
276252,22124,276252.0,59039.0,276252.0,87070.0,189.3456763746944,192.2290824939413,222.82082535869114
276252,22132,276252.0,59104.0,276252.0,87069.0,177.60625350115876,176.91921954856429,207.14585777015526
276252,22129,276252.0,59021.0,276252.0,87024.0,165.69304970346693,161.4190719918792,191.19881621261925
276262,22067,276262.0,58962.0,276262.0,87000.0,153.61388453546894,145.74007200658605,174.9897638806454
276262,22045,276262.0,58947.0,276262.0,86962.0,141.3770622227226,129.89464571135903,158.52922813034002
276262,22036,276262.0,58920.0,276262.0,86956.0,128.9908465294995,113.89533633884508,141.82779079652727
276262,22014,276262.0,58826.0,276262.0,86924.0,116.46300530980835,97.75412888838827,124.89580373533522
276262,22011,276262.0,58893.0,276262.0,86924.0,103.80065518128225,81.48182205319739,107.74328389038033
276262,22006,276262.0,58871.0,276262.0,86899.0,91.01028869509202,65.08770607441716,90.37993897559852
276273,21988,276273.0,58881.0,276273.0,86885.0,78.09791496194362,48.57997722286319,72.81526273541397
276273,21980,276273.0,58849.0,276273.0,86882.0,65.06922245194625,31.96641707444553,55.05865089252433
276273,21978,276273.0,58899.0,276273.0,86894.0,51.929703056879646,15.254895131796843,37.11963865581231
276273,21988,276273.0,58896.0,276273.0,86895.0,38.684864718932715,-1.5459998922226532,19.00841530077531
276273,21966,276273.0,58866.0,276273.0,86858.0,25.340607318449372,-18.426089094379336,0.7364718186161667
276273,21934,276273.0,58816.0,276273.0,86819.0,11.903537002202597,-35.37305356575098,-17.683047735847367
276283,21905,276283.0,58741.0,276283.0,86761.0,-1.6190706367991083,-52.37268570107119,-36.23556477906982
276283,21877,276283.0,58710.0,276283.0,86733.0,-15.219634459808674,-69.40982060916605,-54.9057275497928
276283,21872,276283.0,58602.0,276283.0,86664.0,-28.8906837724262,-86.46958582994694,-73.67823242285891
276283,21827,276283.0,58595.0,276283.0,86680.0,-42.62515058387834,-103.53877758082507,-92.53859520867184
276283,21828,276283.0,58670.0,276283.0,86668.0,-56.416597063226504,-120.60688235395907,-111.4735815124431
276283,21828,276283.0,58639.0,276283.0,86629.0,-70.25936830228085,-137.66595705830758,-130.47115495998708
276293,21829,276293.0,58646.0,276293.0,86654.0,-84.1484682239788,-154.70963315786207,-149.52024727899902
276293,21820,276293.0,58649.0,276293.0,86654.0,-98.07916691931541,-171.73224074480623,-168.610441700382
276293,21789,276293.0,58680.0,276293.0,86646.0,-112.04663504471142,-188.72813979089335,-187.73137172406558
276293,21807,276293.0,58687.0,276293.0,86615.0,-126.04577138572739,-205.69082975004386,-206.8720703500689
276293,21776,276293.0,58631.0,276293.0,86572.0,-140.07107804272215,-222.61199758534332,-226.02069915040687
276293,21737,276293.0,58538.0,276293.0,86531.0,-154.1165510295108,-239.4812248881645,-245.16476480154392
276304,21709,276304.0,58465.0,276304.0,86492.0,-168.17585562048703,-256.2868582692447,-264.29166358887596
276304,21699,276304.0,58449.0,276304.0,86464.0,-182.2427704511976,-273.017612299628,-283.38930739127784
276304,21674,276304.0,58398.0,276304.0,86451.0,-196.31154642537064,-289.6639683817732,-302.44661501118935
276304,21659,276304.0,58420.0,276304.0,86397.0,-210.3770753944463,-306.21893277734785,-321.45381257469364
276304,21673,276304.0,58471.0,276304.0,86457.0,-224.43493355472873,-322.6780711191974,-340.4025615720893
276304,21656,276304.0,58434.0,276304.0,86410.0,-238.481216757962,-339.0387710680708,-359.285736772473
276314,21624,276314.0,58416.0,276314.0,86371.0,-252.51225490366267,-355.2993100287148,-378.0969736875654
276314,21622,276314.0,58392.0,276314.0,86371.0,-266.524509102647,-371.4584707274621,-396.8305342509108
276314,21635,276314.0,58488.0,276314.0,86392.0,-280.5145707872716,-387.51538901902643,-415.48135533656375
276314,21601,276314.0,58427.0,276314.0,86378.0,-294.4789552830034,-403.46884877113064,-434.04467926606094
276314,21579,276314.0,58361.0,276314.0,86301.0,-308.4138579254968,-419.31641444444324,-452.5155113460788
276314,21556,276314.0,58323.0,276314.0,86270.0,-322.31520473020544,-435.05449827180973,-470.8886736102763
276325,21516,276325.0,58220.0,276325.0,86225.0,-336.17895119479624,-450.6794248527956,-489.15952373659604
276325,21514,276325.0,58207.0,276325.0,86224.0,-350.0014533021397,-466.1888618704636,-507.32472409364755
276325,21482,276325.0,58236.0,276325.0,86196.0,-363.77978335848843,-481.5830139659223,-525.3826381040541
276325,21495,276325.0,58276.0,276325.0,86206.0,-377.5118774552832,-496.8648351073972,-543.3333580778976
276325,21464,276325.0,58250.0,276325.0,86188.0,-391.1965004839943,-512.039182546362,-561.1784859943243
276325,21471,276325.0,58214.0,276325.0,86181.0,-404.8331117460556,-527.1118735410622,-578.9207906820823
276335,21465,276335.0,58217.0,276335.0,86170.0,-418.4216817956237,-542.0893752656381,-596.5638749205453
276335,21458,276335.0,58305.0,276335.0,86170.0,-431.96242208802335,-556.9786440596337,-614.111872617712
276335,21454,276335.0,58314.0,276335.0,86188.0,-445.4554577976593,-571.7861808870421,-631.5690403691124
276335,21432,276335.0,58235.0,276335.0,86132.0,-458.90055511029755,-586.5165800454974,-648.9392331554222
276335,21396,276335.0,58167.0,276335.0,86110.0,-472.2970223914051,-601.1719632495862,-666.2256141540488
276335,21375,276335.0,58117.0,276335.0,86066.0,-485.64389249874193,-615.752827138446,-683.4308677001525
276345,21373,276345.0,58076.0,276345.0,86028.0,-498.9402567443875,-630.2594683387191,-700.5577311384751
276345,21336,276345.0,58031.0,276345.0,86001.0,-512.1854854296934,-644.6932170397455,-717.6096006052866
276345,21321,276345.0,58039.0,276345.0,86003.0,-525.3793653372885,-659.057321205293,-734.5910285126113
276345,21313,276345.0,58038.0,276345.0,86006.0,-538.5222877653976,-673.3573619692967,-751.507849538697
276345,21316,276345.0,58097.0,276345.0,85994.0,-551.6153373568891,-687.600993688597,-768.3668783148886
276345,21309,276345.0,58044.0,276345.0,85976.0,-564.6601218390821,-701.7971157357115,-785.1754740889788
276356,21284,276356.0,58078.0,276356.0,85972.0,-577.65848632744,-715.9550141049103,-801.9412433312618
276356,21315,276356.0,58158.0,276356.0,86000.0,-590.6122801156536,-730.0836000536624,-818.6717586307429
276356,21279,276356.0,58036.0,276356.0,85989.0,-603.5230848320374,-744.1904156302963,-835.374008300719
276356,21244,276356.0,58119.0,276356.0,85955.0,-616.3919706915283,-758.2808247247372,-852.0537201440509
276356,21240,276356.0,57964.0,276356.0,85895.0,-629.2195803065629,-772.3579317664647,-868.7151116366197
276356,21215,276356.0,57948.0,276356.0,85858.0,-642.0064226484793,-786.4231995683035,-885.3613355035625
276366,21198,276366.0,57908.0,276366.0,85825.0,-654.7530735808004,-800.4776306199849,-901.9953129443716
276366,21170,276366.0,57898.0,276366.0,85810.0,-667.4603375870834,-814.5229066804039,-918.6204768007669
276366,21176,276366.0,57863.0,276366.0,85810.0,-680.1294415040421,-828.5619847418343,-935.2411574345986
276366,21146,276366.0,57939.0,276366.0,85827.0,-692.762138810862,-842.5992201341948,-951.8625160876879
276366,21148,276366.0,57893.0,276366.0,85811.0,-705.360702174898,-856.6399478683428,-968.4900721321351
276366,21138,276366.0,57932.0,276366.0,85784.0,-717.9278669341141,-870.6896738641793,-985.1291559422532
276376,21130,276376.0,57943.0,276376.0,85819.0,-730.4667031851098,-884.7532685050596,-1001.7845583971807
276376,21162,276376.0,57953.0,276376.0,85804.0,-742.980351633954,-898.834119857652,-1018.4601461479886
276376,21102,276376.0,57878.0,276376.0,85771.0,-755.4716312115687,-912.9333658144096,-1035.1583210807569
276376,21102,276376.0,57843.0,276376.0,85721.0,-767.9427935841987,-927.0498000321936,-1051.8797872901694
276376,21068,276376.0,57778.0,276376.0,85679.0,-780.3956511284451,-941.1806115067839,-1068.6239371424613
276376,21049,276376.0,57741.0,276376.0,85643.0,-792.8318860461361,-955.3225146214228,-1085.3896135569107
276387,21036,276387.0,57721.0,276387.0,85641.0,-805.253340210728,-969.472830600809,-1102.17583163287
276387,21018,276387.0,57693.0,276387.0,85634.0,-817.6622391428982,-983.6302695222251,-1118.9821318107083
276387,21013,276387.0,57730.0,276387.0,85593.0,-830.0613055324472,-997.7952733246235,-1135.8085645953338
276387,21010,276387.0,57714.0,276387.0,85584.0,-842.4537460449476,-1011.9698429530742,-1152.6556589840723
276387,20994,276387.0,57740.0,276387.0,85578.0,-854.8431194218502,-1026.1569508141454,-1169.5245101883984
276387,20977,276387.0,57723.0,276387.0,85592.0,-867.2331930303336,-1040.3598339498672,-1186.4166992672283
276397,20998,276397.0,57763.0,276397.0,85608.0,-879.6278464393215,-1054.5813074825714,-1203.3338200089236
276397,20981,276397.0,57791.0,276397.0,85561.0,-892.0308579828214,-1068.8229302715786,-1220.2767850353764
276397,20960,276397.0,57714.0,276397.0,85561.0,-904.4455802613605,-1083.084051037663,-1237.2453542807873
276397,20926,276397.0,57602.0,276397.0,85471.0,-916.8748302821741,-1097.3615464269933,-1254.2381731913558
276397,20907,276397.0,57578.0,276397.0,85447.0,-929.3211337685481,-1111.6509208874922,-1271.2533408919307
276397,20890,276397.0,57559.0,276397.0,85437.0,-941.7871110558868,-1125.9479832454876,-1288.2892553933075
276407,20878,276407.0,57500.0,276407.0,85399.0,-954.2757677145953,-1140.2499911134848,-1305.345234011617
276407,20877,276407.0,57554.0,276407.0,85409.0,-966.7906027924865,-1154.5561883705345,-1322.4217410758924
276407,20863,276407.0,57567.0,276407.0,85418.0,-979.3355467213007,-1168.8677782947038,-1339.520322105396
276407,20850,276407.0,57548.0,276407.0,85396.0,-991.9148238904138,-1183.1872352361247,-1356.643224207666
276407,20859,276407.0,57547.0,276407.0,85391.0,-1004.5328207121316,-1197.517503227771,-1373.7929131198478
276407,20845,276407.0,57559.0,276407.0,85426.0,-1017.1938922630148,-1211.8615145406386,-1390.9716588447993
276418,20859,276418.0,57626.0,276418.0,85388.0,-1029.902048676102,-1226.2216152615395,-1408.180991487349
276418,20831,276418.0,57593.0,276418.0,85343.0,-1042.6605980500472,-1240.598509258014,-1425.4212012659852
276418,20790,276418.0,57483.0,276418.0,85338.0,-1055.4719562172863,-1254.9903579391562,-1442.6913420404585
276418,20757,276418.0,57439.0,276418.0,85305.0,-1068.3378742075138,-1269.393112415325,-1459.9895622848287
276418,20750,276418.0,57376.0,276418.0,85249.0,-1081.2599882115119,-1283.8019829978582,-1477.313427597927
276418,20738,276418.0,57311.0,276418.0,85240.0,-1094.2402609318538,-1298.213090959075,-1494.6603643236465
276428,20729,276428.0,57369.0,276428.0,85206.0,-1107.2811017724932,-1312.6247400922816,-1512.0281980463133
276428,20716,276428.0,57409.0,276428.0,85193.0,-1120.3853034143024,-1327.0377739198668,-1529.41552395451
276428,20708,276428.0,57383.0,276428.0,85203.0,-1133.5559505256347,-1341.4547737312912,-1546.8218302149112
276428,20702,276428.0,57369.0,276428.0,85173.0,-1146.7963167092516,-1355.8789939380035,-1564.2473683288677
276428,20694,276428.0,57408.0,276428.0,85159.0,-1160.1097131614497,-1370.3137915443012,-1581.692916198038
276428,20708,276428.0,57423.0,276428.0,85208.0,-1173.4992504901188,-1384.7621003767067,-1599.1595411516928
276438,20688,276438.0,57423.0,276438.0,85162.0,-1186.9674872807814,-1399.2255229705377,-1616.6481281652816
276438,20653,276438.0,57316.0,276438.0,85159.0,-1200.5161272123719,-1413.7035985759762,-1634.1587764526416
276438,20637,276438.0,57279.0,276438.0,85088.0,-1214.146035821505,-1428.1940648200498,-1651.6905966476895
276438,20602,276438.0,57266.0,276438.0,85070.0,-1227.8575525757467,-1442.6939733999534,-1669.2420704718904
276438,20595,276438.0,57185.0,276438.0,85037.0,-1241.6508574024592,-1457.200795741766,-1686.811681497718
276438,20577,276438.0,57185.0,276438.0,85003.0,-1255.5262378551336,-1471.7132738342111,-1704.3984892072729
276449,20576,276449.0,57224.0,276449.0,85009.0,-1269.4841840539261,-1486.2320264239975,-1722.0025209163302
276449,20556,276449.0,57228.0,276449.0,85008.0,-1283.5253275793577,-1500.7594289624922,-1739.6248804027657
276449,20549,276449.0,57198.0,276449.0,85011.0,-1297.6503315606396,-1515.2988543045053,-1757.2674578856763
276449,20549,276449.0,57232.0,276449.0,84989.0,-1311.8597744377967,-1529.8540046514781,-1774.9324214335004
276449,20541,276449.0,57250.0,276449.0,84995.0,-1326.15395250084,-1544.428375114401,-1792.6217811611302
276449,20553,276449.0,57238.0,276449.0,85013.0,-1340.5325526216225,-1559.0244764236152,-1810.3369877024143
276459,20520,276459.0,57221.0,276459.0,84974.0,-1354.9942660033757,-1573.6430554813994,-1828.0784030026164
276459,20497,276459.0,57166.0,276459.0,84943.0,-1369.536551405671,-1588.2827973534133,-1845.8448943311168
276459,20475,276459.0,57097.0,276459.0,84905.0,-1384.1557138342719,-1602.940698907046,-1863.6339157752834
276459,20451,276459.0,57152.0,276459.0,84874.0,-1398.8471793781043,-1617.6128672409156,-1881.4419720176709
276459,20433,276459.0,57070.0,276459.0,84839.0,-1413.6057700088713,-1632.295079214294,-1899.2651690098744
276459,20415,276459.0,57044.0,276459.0,84880.0,-1428.425923846426,-1646.9830212446652,-1917.0995986835778
276469,20423,276469.0,57103.0,276469.0,84836.0,-1443.301802366121,-1661.6725919852295,-1934.9412866416035
276469,20424,276469.0,57099.0,276469.0,84878.0,-1458.2271552087957,-1676.3598228015467,-1952.7857495001613
276469,20406,276469.0,57112.0,276469.0,84882.0,-1473.1949508786934,-1691.0400660796447,-1970.6273583166221
276469,20390,276469.0,57105.0,276469.0,84854.0,-1488.197030547334,-1705.7070505222928,-1988.4585649203084
276469,20408,276469.0,57150.0,276469.0,84873.0,-1503.2239106652469,-1720.35212536691,-2006.2692301371442
276469,20385,276469.0,57162.0,276469.0,84856.0,-1518.2645363251618,-1734.963384112422,-2024.0461674890712
276480,20371,276480.0,57082.0,276480.0,84827.0,-1533.3059573548828,-1749.5247388778366,-2041.7727691382622
276480,20351,276480.0,56998.0,276480.0,84809.0,-1548.333162251514,-1764.0157694385011,-2059.428829858284
276480,20317,276480.0,56992.0,276480.0,84768.0,-1563.3291432312794,-1778.4127279184966,-2076.990672780329
276480,20314,276480.0,56972.0,276480.0,84727.0,-1578.2750957409228,-1792.6898032815834,-2094.431500663767
276480,20286,276480.0,56957.0,276480.0,84726.0,-1593.1506194124518,-1806.8197640331007,-2111.7218844076006
276480,20293,276480.0,57001.0,276480.0,84716.0,-1607.933801667049,-1820.7739920984213,-2128.8301144363613
276490,20292,276490.0,56925.0,276490.0,84714.0,-1622.601117843622,-1834.5221819573803,-2145.7221750852714
276490,20282,276490.0,56973.0,276490.0,84721.0,-1637.127132372042,-1848.032037851465,-2162.361428005022
276490,20261,276490.0,56988.0,276490.0,84722.0,-1651.4841636522365,-1861.2690105220436,-2178.708137230942
276490,20249,276490.0,57033.0,276490.0,84722.0,-1665.6421279790727,-1874.1955949098046,-2194.7188978194567
276490,20266,276490.0,57063.0,276490.0,84749.0,-1679.5684804382577,-1886.7700644735485,-2210.3460118429152
276490,20229,276490.0,56985.0,276490.0,84693.0,-1693.2280351865002,-1898.945207974278,-2225.5368677953225
276500,20201,276500.0,56917.0,276500.0,84662.0,-1706.5828098536836,-1910.6679382623406,-2240.233646730239
276500,20179,276500.0,56885.0,276500.0,84634.0,-1719.5921967386228,-1921.880132795575,-2254.3736259880425
276500,20169,276500.0,56825.0,276500.0,84608.0,-1732.2133406012667,-1932.5200377456686,-2267.8897848931174
276500,20156,276500.0,56769.0,276500.0,84557.0,-1744.4014005653141,-1942.5236081772887,-2280.7113926696743
276500,20140,276500.0,56809.0,276500.0,84534.0,-1756.1096428724695,-1951.825668900482,-2292.7646637058324
276500,20135,276500.0,56828.0,276500.0,84555.0,-1767.2894772400948,-1960.36046699959,-2303.973401493957
276511,20128,276511.0,56852.0,276511.0,84540.0,-1777.8904605931884,-1968.0612660127656,-2314.2592430479062
276511,20111,276511.0,56805.0,276511.0,84506.0,-1787.8602515281436,-1974.85953838935,-2323.541550778413
276511,20103,276511.0,56838.0,276511.0,84566.0,-1797.144587969412,-1980.6845132372866,-2331.737322676105
276511,20117,276511.0,56889.0,276511.0,84531.0,-1805.6872836403586,-1985.462933853244,-2338.7609999649285
276511,20107,276511.0,56848.0,276511.0,84555.0,-1813.4300933249554,-1989.1184809275967,-2344.5240453960005
276511,20074,276511.0,56815.0,276511.0,84489.0,-1820.3125236158057,-1991.5712361636738,-2348.9346956479985
276521,20038,276521.0,56737.0,276521.0,84436.0,-1826.2719573250151,-1992.7380185059583,-2351.898319726458
276521,20037,276521.0,56678.0,276521.0,84404.0,-1831.244188625601,-1992.5336967409826,-2353.318481436577
276521,20021,276521.0,56703.0,276521.0,84406.0,-1835.1640066725975,-1990.8728881943625,-2353.0982617346053
276521,19998,276521.0,56600.0,276521.0,84351.0,-1837.9655929968853,-1987.6713986640602,-2351.1412936064153
276521,19968,276521.0,56643.0,276521.0,84363.0,-1839.5829290490015,-1982.8473678768914,-2347.352567230642
276521,20011,276521.0,56701.0,276521.0,84396.0,-1839.950284820068,-1976.3220887689213,-2341.6390813821395
276531,19983,276531.0,56662.0,276531.0,84305.0,-1839.002470920947,-1968.0200478898723,-2333.910214619985
276531,19974,276531.0,56670.0,276531.0,84340.0,-1836.674852192888,-1957.8686063577936,-2324.0782260246024
276531,19985,276531.0,56719.0,276531.0,84330.0,-1832.903495294287,-1945.7980361537361,-2312.059092799378
276531,19989,276531.0,56717.0,276531.0,84391.0,-1827.6254098524892,-1931.7415720973547,-2297.7730683057757
276531,19954,276531.0,56684.0,276531.0,84348.0,-1820.7787192993433,-1915.6353198597574,-2281.1447244412843
276531,19920,276531.0,56592.0,276531.0,84327.0,-1812.3030791211231,-1897.4187911792728,-2262.103112331718
276542,19929,276542.0,56609.0,276542.0,84303.0,-1802.1405408147457,-1877.0364690291972,-2240.582606361776
276542,19927,276542.0,56597.0,276542.0,84303.0,-1790.236460769121,-1854.4396882746555,-2216.524233474943
276542,19924,276542.0,56611.0,276542.0,84315.0,-1776.540103804727,-1829.5879856492493,-2189.8769333223345
276542,19924,276542.0,56606.0,276542.0,84328.0,-1761.005088833173,-1802.4499388136192,-2160.5984900855105
276542,19933,276542.0,56686.0,276542.0,84365.0,-1743.589864448722,-1773.0037588689095,-2128.656157843112
276542,19959,276542.0,56757.0,276542.0,84420.0,-1724.2581309457487,-1741.2373661513016,-2094.0269828553146
276552,19960,276552.0,56734.0,276552.0,84445.0,-1702.979104863511,-1707.1478731059437,-2056.6978035779753
276552,19990,276552.0,56842.0,276552.0,84512.0,-1679.727704125412,-1670.741097934922,-2016.6650809212101
276552,20033,276552.0,56936.0,276552.0,84557.0,-1654.4846830935132,-1632.0311637550142,-1973.934690715429
276552,20042,276552.0,56952.0,276552.0,84600.0,-1627.23661108706,-1591.0396326303871,-1928.5216825436696
276552,20066,276552.0,56958.0,276552.0,84645.0,-1597.9758184295083,-1547.7946657911384,-1880.4501261692767
276552,20067,276552.0,56956.0,276552.0,84677.0,-1566.7005816309108,-1502.331150369232,-1829.7531725607919
276563,20099,276563.0,56989.0,276563.0,84725.0,-1533.4155641354719,-1454.6916743572071,-1776.4733105131395
276563,20138,276563.0,57082.0,276563.0,84806.0,-1498.1322839992572,-1404.9275047539686,-1720.662657908224
276563,20178,276563.0,57101.0,276563.0,84840.0,-1460.869367513339,-1353.0989603856358,-1662.3830717144826
276563,20212,276563.0,57202.0,276563.0,84935.0,-1421.6525823188992,-1299.2752910567222,-1601.706093242461
276563,20273,276563.0,57306.0,276563.0,85027.0,-1380.514797135359,-1243.5342958236959,-1538.7127570021544
276563,20325,276563.0,57350.0,276563.0,85101.0,-1337.4958551200375,-1185.9615850580642,-1473.4931110877585
276573,20377,276573.0,57455.0,276573.0,85200.0,-1292.6423011040938,-1126.6497165113778,-1406.1455456271144
276573,20448,276573.0,57585.0,276573.0,85303.0,-1246.0070342665013,-1065.6973847507957,-1336.7761024459508
276573,20509,276573.0,57691.0,276573.0,85419.0,-1197.6489049758777,-1003.2082521867136,-1265.49764336579
276573,20571,276573.0,57767.0,276573.0,85489.0,-1147.6322358744862,-939.2894124378975,-1192.4288575182145
276573,20608,276573.0,57803.0,276573.0,85549.0,-1096.0264089836314,-874.0501930155824,-1117.693482461437
276573,20661,276573.0,57807.0,276573.0,85645.0,-1042.905706976392,-807.6019009825693,-1041.4200367927533
276583,20707,276583.0,57858.0,276583.0,85712.0,-988.3494063675759,-740.0585525659461,-963.741841686623
276583,20793,276583.0,57977.0,276583.0,85794.0,-932.4419016480251,-671.5378970653385,-884.7970337514259
276583,20860,276583.0,58074.0,276583.0,85973.0,-875.272596730292,-602.1617397267446,-804.728386793949
276583,20941,276583.0,58184.0,276583.0,86062.0,-816.9355043048058,-532.0553067940642,-723.6825514858924
276583,21018,276583.0,58279.0,276583.0,86156.0,-757.5287019895139,-461.34618507909215,-641.8088094988844
276583,21095,276583.0,58371.0,276583.0,86273.0,-697.153761629811,-390.1632954333146,-559.2580497147471
276594,21175,276594.0,58462.0,276594.0,86397.0,-635.9151809550305,-318.63603361151786,-476.18204263373354
276594,21274,276594.0,58652.0,276594.0,86509.0,-573.9197879971844,-246.89336591838105,-392.73256693106214
276594,21356,276594.0,58705.0,276594.0,86596.0,-511.2760258485405,-175.06247880977412,-309.0604196797217
276594,21419,276594.0,58709.0,276594.0,86694.0,-448.09318310981405,-103.26745588150288,-225.31466150458664
276594,21476,276594.0,58771.0,276594.0,86777.0,-384.48085793679127,-31.629101297047328,-141.64219702118567
276594,21547,276594.0,58831.0,276594.0,86874.0,-320.5487897604746,39.73419960065303,-58.1875440716442
276604,21630,276604.0,58947.0,276604.0,86945.0,-256.40682847330504,110.70575207891034,24.907316212314527
276604,21698,276604.0,58977.0,276604.0,87045.0,-192.16476432191507,181.17045789003873,107.50301522889276
276604,21790,276604.0,59103.0,276604.0,87170.0,-127.93199066120133,251.01501296494303,189.4629367770442
276604,21874,276604.0,59217.0,276604.0,87283.0,-63.817048629661485,320.1282792342008,270.65372095831117
276604,21956,276604.0,59285.0,276604.0,87373.0,0.07295384284088868,388.4020689962017,350.9461304624574
276604,22020,276604.0,59410.0,276604.0,87472.0,63.63294090314298,455.7321531734797,430.2158889275988
276614,22125,276614.0,59480.0,276614.0,87579.0,126.76037160901183,522.0191853010394,508.3443113971341
276614,22214,276614.0,59612.0,276614.0,87685.0,189.35580190827613,587.1696316327336,585.2189292188937
276614,22272,276614.0,59633.0,276614.0,87745.0,251.32361633703454,651.0967125984262,660.7341739387598
276614,22318,276614.0,59667.0,276614.0,87818.0,312.57260278815556,713.7209316309577,734.7918263437175
276614,22373,276614.0,59679.0,276614.0,87862.0,373.0160456035958,774.9697469327411,807.3010053947767
276614,22433,276614.0,59702.0,276614.0,87943.0,432.571495774288,834.7765142380179,878.1778277325714
276625,22503,276625.0,59760.0,276625.0,87982.0,491.16057723768745,893.0792473200572,947.3449916505567
276625,22556,276625.0,59915.0,276625.0,88082.0,548.7089776590992,949.819886487114,1014.7314380216226
276625,22627,276625.0,59945.0,276625.0,88167.0,605.1465493406383,1004.9446174219161,1080.2722606857383
276625,22698,276625.0,60001.0,276625.0,88222.0,660.4074741002255,1058.4047646521813,1143.9089677704355
276625,22752,276625.0,60047.0,276625.0,88294.0,714.4305308224768,1110.1572657250908,1205.5898208260573
276625,22813,276625.0,60133.0,276625.0,88338.0,767.1593888906252,1160.1646993288005,1265.2699541642723
276635,22882,276635.0,60215.0,276635.0,88463.0,818.5428444878737,1208.3955203942492,1322.911427858951
276635,22939,276635.0,60237.0,276635.0,88494.0,868.5350865905148,1254.8246551693555,1378.4835477563934
276635,22950,276635.0,60311.0,276635.0,88529.0,917.0959356254561,1299.4340282587955,1431.963289806276
276635,22993,276635.0,60288.0,276635.0,88541.0,964.190752722579,1342.2126925757602,1483.3352347391738
276635,23035,276635.0,60300.0,276635.0,88569.0,1009.7900127759644,1383.1564413727388,1532.5908681383667
276635,23075,276635.0,60292.0,276635.0,88620.0,1053.868904691677,1422.266844031401,1579.7276875916682
276645,23086,276645.0,60278.0,276645.0,88630.0,1096.4070589523876,1459.549912187067,1624.7484976767446
276645,23157,276645.0,60336.0,276645.0,88670.0,1137.3882434401821,1495.0147665026348,1667.6608645485016
276645,23173,276645.0,60440.0,276645.0,88743.0,1176.800113183811,1528.6728746093004,1708.4766693424772
276645,23231,276645.0,60439.0,276645.0,88777.0,1214.6341400357364,1560.538293009538,1747.2119969372743
276645,23263,276645.0,60489.0,276645.0,88810.0,1250.885639713943,1590.6283499837718,1783.8873354157886
276645,23321,276645.0,60584.0,276645.0,88844.0,1285.5538782769804,1618.9641335973402,1818.5276910862317
276656,23351,276656.0,60572.0,276656.0,88898.0,1318.6422966384253,1645.5710473260951,1851.1625576935817
276656,23382,276656.0,60631.0,276656.0,88936.0,1350.1587519615468,1670.479446780575,1881.8260061480341
276656,23365,276656.0,60564.0,276656.0,88859.0,1380.1155390513832,1693.7248204198895,1910.556725853617
276656,23383,276656.0,60549.0,276656.0,88876.0,1408.528983053744,1715.347197577671,1937.3973588359972
276656,23383,276656.0,60510.0,276656.0,88897.0,1435.4186981893008,1735.3898109974784,1962.3931800743649
276656,23413,276656.0,60512.0,276656.0,88918.0,1460.806849970198,1753.8974557999063,1985.5910495407093
276666,23419,276666.0,60551.0,276666.0,88920.0,1484.7176287229772,1770.9151809797554,2007.0389623436654
276666,23447,276666.0,60557.0,276666.0,88983.0,1507.1769114533004,1786.487672228368,2026.7858494201027
276666,23474,276666.0,60579.0,276666.0,88963.0,1528.2120627111026,1800.6591809547508,2044.8815381870563
276666,23489,276666.0,60590.0,276666.0,88971.0,1547.8518837453707,1813.4735892765225,2061.376740035439
276666,23506,276666.0,60607.0,276666.0,88987.0,1566.1266321677372,1824.9744456318863,2076.3227817638285
276666,23525,276666.0,60684.0,276666.0,89046.0,1583.0679978697144,1835.2051436343522,2089.77133228347
276676,23544,276676.0,60687.0,276676.0,89045.0,1598.7090645748417,1844.209495725031,2101.7745620863084
276676,23557,276676.0,60641.0,276676.0,89012.0,1613.0843187400283,1852.032404751992,2112.38544441693
276676,23544,276676.0,60606.0,276676.0,89005.0,1626.2296197440337,1858.7198003097633,2121.657532684816
276676,23546,276676.0,60589.0,276676.0,88970.0,1638.1819622842995,1864.317666375695,2129.6441496763387
276676,23554,276676.0,60609.0,276676.0,88986.0,1648.9790480429579,1868.870913617593,2136.3974320654347
276676,23523,276676.0,60557.0,276676.0,89001.0,1658.6588253082487,1872.422649400673,2141.9676332580443
276687,23553,276687.0,60597.0,276687.0,88963.0,1667.2590155795947,1875.0137023966981,2146.4027962259397
276687,23543,276687.0,60597.0,276687.0,89008.0,1674.8166947456584,1876.682305297018,2149.748547821376
276687,23565,276687.0,60607.0,276687.0,89029.0,1681.3680874976612,1877.4641144263883,2152.0480049303787
276687,23571,276687.0,60646.0,276687.0,89030.0,1686.9485515244037,1877.3925124068255,2153.3420581227224
276687,23586,276687.0,60690.0,276687.0,89064.0,1691.5926713959811,1876.4991684314427,2153.669867482437
276687,23597,276687.0,60719.0,276687.0,89078.0,1695.334432662235,1874.8149886265337,2153.0693487081385
276697,23610,276697.0,60694.0,276697.0,89042.0,1698.2074426679778,1872.3711782172259,2151.57761785603
276697,23583,276697.0,60609.0,276697.0,89018.0,1700.2451079420198,1869.1996879728727,2149.2310697027997
276697,23569,276697.0,60565.0,276697.0,88985.0,1701.480552560257,1865.3325157315094,2146.064861875025
276697,23580,276697.0,60529.0,276697.0,88986.0,1701.9462420033142,1860.8001837522434,2142.112123324021
276697,23550,276697.0,60581.0,276697.0,88971.0,1701.6735907170341,1855.6303845257376,2137.4033190975224
276697,23549,276697.0,60499.0,276697.0,89006.0,1700.6926494723152,1849.8473971431386,2131.965976767478
276707,23549,276707.0,60571.0,276707.0,88996.0,1699.0317844964911,1843.4719677601647,2125.824814009828
276707,23590,276707.0,60559.0,276707.0,88994.0,1696.7175416873588,1836.5213882699995,2119.0020883608977
276707,23553,276707.0,60552.0,276707.0,88994.0,1693.7748710591648,1829.00988786583,2111.5178647926023
276707,23560,276707.0,60623.0,276707.0,88982.0,1690.227394862888,1820.9491972942324,2103.390131579195
276707,23574,276707.0,60646.0,276707.0,89025.0,1686.0974534667205,1812.349358185435,2094.634949988087
276707,23565,276707.0,60628.0,276707.0,89016.0,1681.4061670312276,1803.2198964687495,2085.2668517258994
276718,23546,276718.0,60597.0,276718.0,89002.0,1676.1735932059262,1793.5707139700605,2075.299400644738
276718,23543,276718.0,60546.0,276718.0,88972.0,1670.4187211298936,1783.4121231394247,2064.7454912308735
276718,23547,276718.0,60504.0,276718.0,88958.0,1664.1593334690633,1772.7541682726453,2053.6171992777854
276718,23514,276718.0,60494.0,276718.0,88969.0,1657.4119342033664,1761.6056700262695,2041.9254919345094
276718,23511,276718.0,60486.0,276718.0,88937.0,1650.1916485013764,1749.9734705122853,2029.680126609388
276718,23513,276718.0,60473.0,276718.0,88923.0,1642.5120314175665,1737.8621215456724,2016.8896574304713
276728,23528,276728.0,60563.0,276728.0,88968.0,1634.3850378909117,1725.2740583280683,2003.5614376455246
276728,23523,276728.0,60528.0,276728.0,88945.0,1625.8213013392644,1712.2103899599092,1989.7019010055933
276728,23516,276728.0,60533.0,276728.0,88928.0,1616.8305201135947,1698.6719889699336,1975.3170976076058
276728,23530,276728.0,60575.0,276728.0,88982.0,1607.421757188375,1684.6603010309555,1960.413127809506
276728,23542,276728.0,60626.0,276728.0,88977.0,1597.6037600276002,1670.1781702829935,1944.9966905536835
276728,23510,276728.0,60590.0,276728.0,88946.0,1587.3853873493092,1655.231097087965,1929.075891600934
276738,23518,276738.0,60510.0,276738.0,88921.0,1576.7759158456233,1639.8282076665564,1912.6607407628605
276738,23479,276738.0,60457.0,276738.0,88885.0,1565.7850808619166,1623.9820288059143,1895.7630424033396
276738,23468,276738.0,60384.0,276738.0,88867.0,1554.4229316840224,1607.7072353148324,1878.3959925627598
276738,23478,276738.0,60391.0,276738.0,88830.0,1542.6996326631474,1591.0192076555932,1860.5737616020622
276738,23463,276738.0,60362.0,276738.0,88843.0,1530.6254365128332,1573.9330651000364,1842.311181346166
276738,23432,276738.0,60412.0,276738.0,88815.0,1518.2108213560707,1556.4634451049683,1823.6236617445204
276749,23434,276749.0,60371.0,276749.0,88799.0,1505.4664997766906,1538.6249211654783,1804.5273041916332
276749,23447,276749.0,60382.0,276749.0,88788.0,1492.4033744141218,1520.4326316649253,1785.0390045909053
276749,23430,276749.0,60381.0,276749.0,88777.0,1479.0327534307148,1501.9027792582974,1765.1765254026066
276749,23437,276749.0,60415.0,276749.0,88786.0,1465.3667506195866,1483.0531702823648,1744.9586960019308
276749,23421,276749.0,60400.0,276749.0,88785.0,1451.418635031831,1463.9040405518301,1724.4058318359712
276749,23385,276749.0,60332.0,276749.0,88755.0,1437.203034612528,1444.478820898651,1703.5402786744155
276759,23366,276759.0,60234.0,276759.0,88665.0,1422.7358760387208,1424.8040869463466,1682.3866522626809
276759,23341,276759.0,60241.0,276759.0,88642.0,1408.034078501202,1404.9085183230893,1660.9713456497127
276759,23328,276759.0,60172.0,276759.0,88630.0,1393.1152295987185,1384.8216698806268,1639.3216271947467
276759,23308,276759.0,60158.0,276759.0,88621.0,1377.9973763673236,1364.5731712400031,1617.4651115866548
276759,23277,276759.0,60137.0,276759.0,88575.0,1362.698876239584,1344.1922302743528,1595.4297426377357
276759,23281,276759.0,60177.0,276759.0,88576.0,1347.2382365228782,1323.7074739805535,1573.2438397202986
276770,23266,276770.0,60128.0,276770.0,88550.0,1331.6340389433099,1303.147314000849,1550.9360733759888
276770,23244,276770.0,60119.0,276770.0,88522.0,1315.9050235349061,1282.5404715951927,1528.5355007228825
276770,23238,276770.0,60126.0,276770.0,88518.0,1300.070183541216,1261.9162604423868,1506.0716152100042
276770,23243,276770.0,60120.0,276770.0,88522.0,1284.1488484606741,1241.3048631085637,1483.5744623936844
276770,23228,276770.0,60098.0,276770.0,88470.0,1268.1609185398345,1220.7378086706635,1461.0749300596467
276770,23181,276770.0,60009.0,276770.0,88425.0,1252.1271246154483,1200.2482376740695,1438.60488792024
276780,23148,276780.0,59915.0,276780.0,88401.0,1236.068938271944,1179.870346287895,1416.1968601866681
276780,23128,276780.0,59916.0,276780.0,88342.0,1220.0080952181615,1159.6380106170607,1393.8834445023824
276780,23087,276780.0,59869.0,276780.0,88313.0,1203.9660529645892,1139.583444088567,1371.6967048716551
276780,23066,276780.0,59806.0,276780.0,88300.0,1187.9635257892805,1119.7364069279706,1349.6675962252161
276780,23086,276780.0,59866.0,276780.0,88289.0,1172.0201428502123,1100.1237056374825,1327.8256422007123
276780,23070,276780.0,59853.0,276780.0,88258.0,1156.154463528544,1080.7691434157807,1306.1989501362864
276790,23065,276790.0,59853.0,276790.0,88266.0,1140.3843392482163,1061.6941655197595,1284.8143518552051
276790,23031,276790.0,59826.0,276790.0,88242.0,1124.72723868508,1042.9186240545016,1263.6975944517353
276790,23036,276790.0,59882.0,276790.0,88243.0,1109.2003394827293,1024.4612992410198,1242.8736307980994
276790,23025,276790.0,59899.0,276790.0,88223.0,1093.8205639935418,1006.3406338665756,1222.3669482226837
276790,22996,276790.0,59813.0,276790.0,88171.0,1078.604706218211,988.5757491026211,1202.2017766962736
276790,22961,276790.0,59722.0,276790.0,88149.0,1063.5694591651295,971.1867494611218,1182.401971335451
276801,22939,276801.0,59656.0,276801.0,88127.0,1048.7311457858264,954.1936282050548,1162.9906190318238
276801,22913,276801.0,59730.0,276801.0,88099.0,1034.1052905615602,937.6146731266678,1143.9896841383083
276801,22910,276801.0,59633.0,276801.0,88056.0,1019.7062720395824,921.4657016440156,1125.4197410382526
276801,22877,276801.0,59650.0,276801.0,88056.0,1005.5471387932951,905.7600214258243,1107.299647182675
276801,22886,276801.0,59636.0,276801.0,88055.0,991.6395337029525,890.5083450010394,1089.6463178302083
276801,22881,276801.0,59655.0,276801.0,88007.0,977.9937362534955,875.7187894629684,1072.4747718725248
276811,22868,276811.0,59638.0,276811.0,88013.0,964.6188811584313,861.3972563806508,1055.7981972563425
276811,22854,276811.0,59650.0,276811.0,88031.0,951.5232113133403,847.5479447550789,1039.6279707548952
276811,22870,276811.0,59707.0,276811.0,88017.0,938.7142494271034,834.1739421798093,1023.9739675949243
276811,22835,276811.0,59708.0,276811.0,87978.0,926.1989953166348,821.278179400837,1008.8450330711005
276811,22827,276811.0,59597.0,276811.0,87925.0,913.9840960009666,808.8643980584234,994.2490248977499
276811,22814,276811.0,59585.0,276811.0,87949.0,902.0758365866393,796.9371398840333,980.1923430373029
276821,22768,276821.0,59518.0,276821.0,87897.0,890.4799901785018,785.5006884239494,966.6794749438691
276821,22751,276821.0,59488.0,276821.0,87899.0,879.2015043530827,774.5578070423624,953.7127887461404
276821,22733,276821.0,59467.0,276821.0,87897.0,868.2440240114659,764.108685919412,941.2924103063136
276821,22738,276821.0,59509.0,276821.0,87889.0,857.6095175868649,754.15027807978,929.4162346710503
276821,22753,276821.0,59527.0,276821.0,87876.0,847.2982554091732,744.6763786026754,918.0800961930152
276821,22732,276821.0,59502.0,276821.0,87864.0,837.3091158773871,735.6783196155795,907.2778869213189
276832,22715,276832.0,59514.0,276832.0,87869.0,827.6399037271465,727.1456134375594,897.0015829182977
276832,22747,276832.0,59579.0,276832.0,87897.0,818.2874800765462,719.0663984338141,887.2413972575573
276832,22739,276832.0,59587.0,276832.0,87888.0,809.2479754940666,711.4282363357503,877.986231974018
276832,22725,276832.0,59493.0,276832.0,87884.0,800.5172116549127,704.2190833098148,869.2242430924323
276832,22697,276832.0,59483.0,276832.0,87837.0,792.0909552939344,697.4274030715355,860.9431143421762
276832,22675,276832.0,59455.0,276832.0,87803.0,783.9647637640985,691.0413171983826,853.1298011384007
276842,22662,276842.0,59436.0,276842.0,87815.0,776.1335882821943,685.0476935747392,845.769901055233
276842,22645,276842.0,59407.0,276842.0,87805.0,768.5913798784558,679.4315295380093,838.8471571476166
276842,22660,276842.0,59503.0,276842.0,87817.0,761.3308479724607,674.1756281353928,832.3433900545441
276842,22653,276842.0,59496.0,276842.0,87803.0,754.3434608162192,669.2609808156712,826.2386732283811
276842,22649,276842.0,59461.0,276842.0,87824.0,747.619639469999,664.6677033030223,820.5115373609501
276842,22664,276842.0,59469.0,276842.0,87829.0,741.1489897570029,660.3755619682814,815.1392309546634
276852,22648,276852.0,59475.0,276852.0,87870.0,734.9205401223098,656.3639132449711,810.0981712912371
276852,22664,276852.0,59562.0,276852.0,87855.0,728.9229958454184,652.6118682488183,805.3645986674827
276852,22649,276852.0,59520.0,276852.0,87884.0,723.144965434192,649.0991102658425,800.9152343021037
276852,22627,276852.0,59482.0,276852.0,87818.0,717.5750907544372,645.8067222321085,796.7276714934001
276852,22625,276852.0,59438.0,276852.0,87809.0,712.201974003645,642.7171121570509,792.7802579285742
276852,22610,276852.0,59409.0,276852.0,87808.0,707.013962606932,639.8130816233312,789.0515366515367
276863,22601,276863.0,59352.0,276863.0,87774.0,701.9989583493712,637.0766511274472,785.5196895878584
276863,22589,276863.0,59391.0,276863.0,87752.0,697.1442531467726,634.4879888879352,782.1620976555937
276863,22592,276863.0,59444.0,276863.0,87798.0,692.4363736338438,632.0249091699826,778.9549088926511
276863,22620,276863.0,59465.0,276863.0,87817.0,687.8610786645855,629.6633839651199,775.8729917464335
276863,22605,276863.0,59470.0,276863.0,87811.0,683.403637652311,627.378649827127,772.8904705950968
276863,22602,276863.0,59505.0,276863.0,87831.0,679.04919997562,625.1461618513093,769.9813545667446
276873,22612,276873.0,59546.0,276873.0,87836.0,674.7829948613347,622.9423753439933,767.1199589494862
276873,22617,276873.0,59573.0,276873.0,87857.0,670.5904714998087,620.745716180952,764.2812940629228
276873,22590,276873.0,59474.0,276873.0,87833.0,666.4574992646627,618.537465374973,761.4414689581985
276873,22580,276873.0,59452.0,276873.0,87812.0,662.3704099426749,616.3017186973618,758.5778618316001
276873,22568,276873.0,59386.0,276873.0,87779.0,658.3157691009051,614.0242499426241,755.6688434063101
276873,22537,276873.0,59311.0,276873.0,87763.0,654.2800288125993,611.6908875015724,752.6931430595064
276883,22547,276883.0,59386.0,276883.0,87796.0,650.2491572941918,609.2859571980714,749.6292408823886
276883,22561,276883.0,59403.0,276883.0,87801.0,646.2083956496281,606.791514332775,746.4552174171203
276883,22569,276883.0,59413.0,276883.0,87818.0,642.1423749036378,604.1877540018803,743.1491123596845
276883,22570,276883.0,59453.0,276883.0,87815.0,638.0355128492804,601.4539202982096,739.6894347337703
276883,22571,276883.0,59449.0,276883.0,87816.0,633.8723977614599,598.5691220731596,736.0555419169276
276883,22589,276883.0,59505.0,276883.0,87831.0,629.63808257139,595.5131085317852,732.2278821342003
276894,22577,276894.0,59554.0,276894.0,87875.0,625.3183891551026,592.2672157869384,728.1883257117804
276894,22581,276894.0,59484.0,276894.0,87838.0,620.9001969042101,588.8154546544587,723.9207354687505
276894,22549,276894.0,59474.0,276894.0,87811.0,616.3715642529378,585.1450744746326,719.4113821997073
276894,22533,276894.0,59402.0,276894.0,87805.0,611.7215803726695,581.2461137292556,714.6487706639218
276894,22525,276894.0,59381.0,276894.0,87778.0,606.9399980128632,577.110310232759,709.6231254408555
276894,22502,276894.0,59378.0,276894.0,87752.0,602.0168400965819,572.7299601321089,704.3258891532482
276904,22512,276904.0,59358.0,276904.0,87724.0,596.9421099230622,568.097134786424,698.7491686205838
276904,22526,276904.0,59401.0,276904.0,87765.0,591.705696368751,563.2034014918484,692.8851980311897
276904,22520,276904.0,59372.0,276904.0,87758.0,586.2975715469636,558.0399592666936,686.726214015853
276904,22504,276904.0,59396.0,276904.0,87752.0,580.7080970903719,552.5979714046794,680.2647772757241
276904,22507,276904.0,59413.0,276904.0,87735.0,574.9281499836511,546.8689230575968,673.4940613896329
276904,22526,276904.0,59459.0,276904.0,87786.0,568.949165390949,540.8451781629996,666.4079633260963
276914,22526,276914.0,59447.0,276914.0,87777.0,562.7633861595643,534.520861449958,659.0014304982417
276914,22511,276914.0,59446.0,276914.0,87746.0,556.3642626063389,527.8927055331167,651.2710065736594
276914,22482,276914.0,59326.0,276914.0,87694.0,549.7466466565998,520.9602723470093,643.2149668184601
276914,22450,276914.0,59302.0,276914.0,87697.0,542.906570076321,513.7251382074693,634.8327901182867
276914,22444,276914.0,59304.0,276914.0,87682.0,535.8407283869201,506.18944524121673,626.1244959240483
276914,22459,276914.0,59257.0,276914.0,87680.0,528.5460449813858,498.3547986246966,617.0903257628111
276925,22436,276925.0,59319.0,276925.0,87669.0,521.0195988711214,490.22184955959847,607.7307065804514
276925,22423,276925.0,59315.0,276925.0,87651.0,513.2587320040789,481.79044656124836,598.0462611547694
276925,22428,276925.0,59323.0,276925.0,87660.0,505.2610428067211,473.0602659900188,588.0377866369538
276925,22429,276925.0,59306.0,276925.0,87658.0,497.02438138390994,464.0314806494296,577.7063084536517
276925,22428,276925.0,59295.0,276925.0,87665.0,488.5470387029814,454.7050799196222,567.053326913828
276925,22436,276925.0,59342.0,276925.0,87694.0,479.82806304305643,445.08302556903766,556.0812625499112
276935,22420,276935.0,59346.0,276935.0,87622.0,470.8675884053414,435.1686944915401,544.7939604983195
276935,22388,276935.0,59255.0,276935.0,87616.0,461.6670291999226,424.9674929439249,533.1968389689594
276935,22357,276935.0,59197.0,276935.0,87574.0,452.2289327566934,414.48673756507947,521.2964793026267
276935,22355,276935.0,59177.0,276935.0,87572.0,442.5565361587654,403.73450551582306,509.1000439704391
276935,22329,276935.0,59184.0,276935.0,87552.0,432.6533511121265,392.7184006103578,496.6148845503662
276935,22321,276935.0,59144.0,276935.0,87525.0,422.52292650397123,381.44498801167435,483.8483273088605
276945,22320,276945.0,59175.0,276945.0,87523.0,412.16872377793493,369.9197029746258,470.8074944891416
276945,22311,276945.0,59168.0,276945.0,87507.0,401.59412322300074,358.1469905771256,457.4991590443026
276945,22311,276945.0,59168.0,276945.0,87516.0,390.80257320267276,346.1306964946816,443.92975602813135
276945,22289,276945.0,59159.0,276945.0,87501.0,379.79777090526943,333.87452248324644,430.10557470428233
276945,22289,276945.0,59186.0,276945.0,87502.0,368.5837753356804,321.3824108466454,416.0330380678205
276945,22300,276945.0,59274.0,276945.0,87508.0,357.165117181958,308.6592220250188,401.71901290245927
276956,22279,276956.0,59152.0,276956.0,87465.0,345.5470470791208,295.7118670582135,387.1711198009844
276956,22236,276956.0,59068.0,276956.0,87411.0,333.7357541484522,282.54983837120824,372.39777376403293
276956,22221,276956.0,59077.0,276956.0,87409.0,321.738214652857,269.18426035806874,357.40772644721596
276956,22191,276956.0,59031.0,276956.0,87384.0,309.56173937261156,255.62647334392403,342.20947000593753
276956,22180,276956.0,58976.0,276956.0,87358.0,297.2135412480269,241.88717255362178,326.81090295313436
276956,22171,276956.0,58966.0,276956.0,87351.0,284.7004667385113,227.97573341616487,311.21915252303114
276966,22157,276966.0,59043.0,276966.0,87335.0,272.02890483108024,213.89971679409365,295.4404460275386
276966,22161,276966.0,59025.0,276966.0,87332.0,259.20484514236097,199.66525403982865,279.4801179908392
276966,22143,276966.0,58997.0,276966.0,87350.0,246.23403633375904,185.2780505659896,263.3428135672559
276966,22129,276966.0,59035.0,276966.0,87335.0,233.12216166760766,170.74408894964222,247.032924488312
276966,22149,276966.0,59091.0,276966.0,87365.0,219.8749890137073,156.0701932666293,230.5551966655653
276966,22119,276966.0,59017.0,276966.0,87294.0,206.4986064197966,141.26500894359833,213.91529882798
276977,22085,276977.0,58947.0,276977.0,87275.0,192.999649961032,126.33967542503342,197.1200059723751
276977,22064,276977.0,58794.0,276977.0,87224.0,179.38520594257238,111.30706820466628,180.17681530289838
276977,22039,276977.0,58850.0,276977.0,87194.0,165.6624297357829,96.17982842906804,163.09325549936284
276977,22014,276977.0,58766.0,276977.0,87184.0,151.83816029204206,80.96856592092456,145.87623917859707
276977,22006,276977.0,58808.0,276977.0,87154.0,137.9186211714333,65.6810609085885,128.53164246820597
276977,21995,276977.0,58843.0,276977.0,87148.0,123.90925036364479,50.32229818360008,111.06412361290131
276987,22008,276987.0,58816.0,276987.0,87137.0,109.81475583620647,34.895141177639175,93.47709137865183
276987,21973,276987.0,58811.0,276987.0,87145.0,95.63937234467608,19.40120259161597,75.77284536021477
276987,21960,276987.0,58828.0,276987.0,87156.0,81.38707852368464,3.841385303007087,57.9529730701978
276987,21958,276987.0,58824.0,276987.0,87150.0,67.06162233648774,-11.783687953625304,40.01897943983067
276987,21964,276987.0,58825.0,276987.0,87154.0,52.66658140464881,-27.47308297346433,21.972982721079347
276987,21936,276987.0,58817.0,276987.0,87104.0,38.20563617753612,-43.224970560231554,3.818241975987007
276997,21905,276997.0,58748.0,276997.0,87036.0,23.682794759696208,-59.03630208035622,-14.44079557883299
276997,21882,276997.0,58678.0,276997.0,87039.0,9.102285950905411,-74.90309021407859,-32.79905497702828
276997,21869,276997.0,58667.0,276997.0,86995.0,-5.531756187160909,-90.82137999741656,-51.25154646316139
276997,21857,276997.0,58670.0,276997.0,86967.0,-20.215518889009445,-106.78823637941343,-69.79381630740897
276997,21823,276997.0,58679.0,276997.0,86966.0,-34.94559183855756,-122.80201987739622,-88.4222428895855
276997,21822,276997.0,58683.0,276997.0,86958.0,-49.71904875025655,-138.86197673341871,-107.13416807822625
277007,21810,277007.0,58671.0,277007.0,86968.0,-64.53352139632739,-154.96759492118065,-125.92768391499692
277007,21815,277007.0,58623.0,277007.0,86945.0,-79.38710225757825,-171.11814494919486,-144.8011718363016
277007,21798,277007.0,58620.0,277007.0,86939.0,-94.27806373776434,-187.3126422615096,-163.75285556411643
277007,21814,277007.0,58709.0,277007.0,86955.0,-109.20450329179334,-203.5498346184994,-182.78043855957162
277007,21779,277007.0,58646.0,277007.0,86908.0,-124.1639752443267,-219.827528458262,-201.88071278045902
277007,21770,277007.0,58603.0,277007.0,86925.0,-139.15322472145715,-236.1416954618427,-221.04920763360906
277017,21709,277017.0,58520.0,277017.0,86808.0,-154.16821198725734,-252.48650685118866,-240.28014231813404
277017,21697,277017.0,58487.0,277017.0,86806.0,-169.2044880051361,-268.8553906680961,-259.5669164592143
277017,21670,277017.0,58478.0,277017.0,86768.0,-184.25772707719875,-285.24226630177975,-278.90297731989176
277017,21650,277017.0,58403.0,277017.0,86746.0,-199.3241394534939,-301.642393872287,-298.2825032297586
277017,21645,277017.0,58438.0,277017.0,86738.0,-214.4006871477593,-318.0529196051647,-317.7007051132306
277017,21644,277017.0,58480.0,277017.0,86747.0,-229.4851071301315,-334.4730222318624,-337.15384344342704
277027,21627,277027.0,58453.0,277027.0,86717.0,-244.57572580905764,-350.9032921959963,-356.63895875729827
277027,21632,277027.0,58447.0,277027.0,86735.0,-259.671174162513,-367.34478487329,-376.1534676400138
277027,21640,277027.0,58461.0,277027.0,86709.0,-274.77005012636585,-383.798421698682,-395.69476594471087
277027,21615,277027.0,58426.0,277027.0,86719.0,-289.8704777008951,-400.2646177576901,-415.25981303405524
277027,21582,277027.0,58446.0,277027.0,86666.0,-304.96976722588556,-416.74292130985634,-434.84477606372775
277027,21546,277027.0,58378.0,277027.0,86632.0,-320.0644784261219,-433.2317765438803,-454.44496714256877
277038,21530,277038.0,58318.0,277038.0,86607.0,-335.1508256060332,-449.72867064489196,-474.0551706366206
277038,21501,277038.0,58318.0,277038.0,86590.0,-350.22511547555905,-466.2308170031796,-493.6700875681805
277038,21486,277038.0,58216.0,277038.0,86535.0,-365.2840598775167,-482.7360629883749,-513.2846564555246
277038,21491,277038.0,58307.0,277038.0,86519.0,-380.32493722672143,-499.2436176277166,-532.8943944467285
277038,21460,277038.0,58263.0,277038.0,86561.0,-395.3455602705793,-515.7542268886841,-552.4956840337532
277038,21464,277038.0,58314.0,277038.0,86527.0,-410.3441352591235,-532.2696104119267,-572.0855623003631
277048,21458,277048.0,58287.0,277048.0,86496.0,-425.3191056915905,-548.7915704948368,-591.6611767490126
277048,21446,277048.0,58283.0,277048.0,86500.0,-440.2689159453031,-565.3212346927312,-611.2195209978781
277048,21445,277048.0,58347.0,277048.0,86510.0,-455.1917130581521,-581.8584259239692,-630.7573371214958
277048,21416,277048.0,58286.0,277048.0,86497.0,-470.08510005077426,-598.4008949513875,-650.2707213103638
277048,21404,277048.0,58221.0,277048.0,86430.0,-484.9460177568476,-614.9437188172158,-669.754663667544
277048,21355,277048.0,58150.0,277048.0,86398.0,-499.77082809792216,-631.4796646805592,-689.203115225898
277058,21342,277058.0,58136.0,277058.0,86350.0,-514.555623188425,-648.0004099344633,-708.6096349670981
277058,21324,277058.0,58055.0,277058.0,86325.0,-529.2966227754599,-664.4977951734479,-727.96817991233
277058,21291,277058.0,58081.0,277058.0,86329.0,-543.9904719325573,-680.9647682583038,-747.2736721944266
277058,21291,277058.0,58065.0,277058.0,86308.0,-558.6344391284422,-697.39591247422,-766.5221631919821
277058,21291,277058.0,58052.0,277058.0,86304.0,-573.2264985901256,-713.7874375834485,-785.7106616741366
277058,21271,277058.0,58033.0,277058.0,86286.0,-587.7651857471626,-730.1369395305621,-804.8368770293118
277069,21260,277069.0,58071.0,277069.0,86300.0,-602.2493614165285,-746.4431818932842,-823.8989505365385
277069,21261,277069.0,58137.0,277069.0,86301.0,-616.6780567975691,-762.7054944229035,-842.8950391737415
277069,21257,277069.0,58118.0,277069.0,86279.0,-631.0502859923265,-778.9224689823295,-861.8227439389777
277069,21238,277069.0,58105.0,277069.0,86263.0,-645.3647532357475,-795.0905438491677,-880.6786417913074
277069,21195,277069.0,57993.0,277069.0,86204.0,-659.6196774829557,-811.2034316435534,-899.4581783110079
277069,21177,277069.0,57940.0,277069.0,86168.0,-673.8129610565386,-827.2527896781812,-918.1560041670969
277079,21150,277079.0,57908.0,277079.0,86140.0,-687.9425992030833,-843.2296978300512,-936.7666320921512
277079,21127,277079.0,57838.0,277079.0,86131.0,-702.007077660578,-859.1261185124367,-955.2850502639383
277079,21133,277079.0,57928.0,277079.0,86114.0,-716.0056368760827,-874.9358108288429,-973.7070048998542
277079,21124,277079.0,57858.0,277079.0,86129.0,-729.9383078075487,-890.6544482180984,-992.0289441301227
277079,21128,277079.0,57885.0,277079.0,86099.0,-743.8056788627739,-906.2791603775781,-1010.2477244774066
277079,21104,277079.0,57915.0,277079.0,86065.0,-757.6085558776301,-921.8080116118012,-1028.3603310054052
277089,21085,277089.0,57885.0,277089.0,86070.0,-771.3477458252262,-937.2393732131281,-1046.3638581378987
277089,21097,277089.0,57925.0,277089.0,86088.0,-785.0240047103991,-952.5711454285715,-1064.2555003103369
277089,21088,277089.0,57857.0,277089.0,86061.0,-798.6379189250886,-967.8001427550946,-1082.0321822141227
277089,21053,277089.0,57825.0,277089.0,86001.0,-812.1896512390285,-982.9219138202257,-1099.6901585969556
277089,21025,277089.0,57766.0,277089.0,85983.0,-825.6788792536031,-997.9311942797294,-1117.2251625082824
277089,20999,277089.0,57732.0,277089.0,85911.0,-839.1050983323432,-1012.822826928217,-1134.6330656846012
277100,20980,277100.0,57714.0,277100.0,85928.0,-852.4680643852232,-1027.5927059897226,-1151.910648488963
277100,20975,277100.0,57762.0,277100.0,85910.0,-865.768125579471,-1042.2383045754098,-1169.0561071670465
277100,20967,277100.0,57717.0,277100.0,85916.0,-879.0063337022184,-1056.758518306341,-1186.0690718643568
277100,20948,277100.0,57684.0,277100.0,85902.0,-892.1843736149083,-1071.153260284403,-1202.9502892672608
277100,20953,277100.0,57722.0,277100.0,85901.0,-905.3044443335602,-1085.42338218792,-1219.7012572533024
277100,20937,277100.0,57708.0,277100.0,85879.0,-918.3691200167359,-1099.570603776971,-1236.3239208158407
277110,20953,277110.0,57762.0,277110.0,85912.0,-931.3811219888266,-1113.596959024323,-1252.82038672427
277110,20944,277110.0,57770.0,277110.0,85880.0,-944.3429673186056,-1127.503821562505,-1269.1925192524593
277110,20912,277110.0,57690.0,277110.0,85856.0,-957.2566011292201,-1141.2909364002828,-1285.4415261961358
277110,20883,277110.0,57631.0,277110.0,85807.0,-970.1232979087879,-1154.9562390316876,-1301.5679216560177
277110,20865,277110.0,57556.0,277110.0,85773.0,-982.9439349712982,-1168.4968444304739,-1317.5719829251436
277110,20857,277110.0,57563.0,277110.0,85751.0,-995.7193587534086,-1181.9105543507642,-1333.4544363536
277120,20812,277120.0,57512.0,277120.0,85736.0,-1008.4506354736832,-1195.1970249543544,-1349.2170402862598
277120,20820,277120.0,57555.0,277120.0,85731.0,-1021.1392792152553,-1208.358309476924,-1364.862878861604
277120,20805,277120.0,57546.0,277120.0,85738.0,-1033.7874452537178,-1221.3988224825619,-1380.3963423280745
277120,20806,277120.0,57525.0,277120.0,85720.0,-1046.3979145416538,-1234.3249158703752,-1395.8228625865847
277120,20801,277120.0,57531.0,277120.0,85697.0,-1058.9738874957015,-1247.1444894532256,-1411.148624407036
277120,20788,277120.0,57577.0,277120.0,85724.0,-1071.5187286606283,-1259.866682455667,-1426.3804059512156
277131,20790,277131.0,57592.0,277131.0,85712.0,-1084.0357370299325,-1272.5011822541794,-1441.5253359175706
277131,20759,277131.0,57601.0,277131.0,85722.0,-1096.5279763225922,-1285.057119720782,-1456.5904092454334
277131,20746,277131.0,57531.0,277131.0,85678.0,-1108.9982318958926,-1297.5421741763873,-1471.5820161441325
277131,20720,277131.0,57468.0,277131.0,85627.0,-1121.4491447902824,-1309.96254942517,-1486.5058727809815
277131,20693,277131.0,57442.0,277131.0,85592.0,-1133.883472222992,-1322.323891452658,-1501.3675355575158
277131,20668,277131.0,57435.0,277131.0,85585.0,-1146.3044319446108,-1334.6324372532586,-1516.1732093924345
277141,20649,277141.0,57382.0,277141.0,85575.0,-1158.7161000098158,-1346.8957591440692,-1530.9303094911797
277141,20685,277141.0,57410.0,277141.0,85565.0,-1171.123659482886,-1359.1231751819964,-1545.6475942604122
277141,20664,277141.0,57425.0,277141.0,85581.0,-1183.5332328146822,-1371.3258618599646,-1560.3350249515383
277141,20655,277141.0,57411.0,277141.0,85565.0,-1195.9514312918236,-1383.5164825989166,-1575.003448891229
277141,20644,277141.0,57426.0,277141.0,85539.0,-1208.3850463461297,-1395.7085886912623,-1589.6642537130576
277141,20663,277141.0,57468.0,277141.0,85582.0,-1220.8409007300868,-1407.9160250219043,-1604.3291420000387
277151,20646,277151.0,57530.0,277151.0,85571.0,-1233.3255719760577,-1420.1519859907532,-1619.0097851529924
277151,20613,277151.0,57440.0,277151.0,85526.0,-1245.8450668485145,-1432.42771310929,-1633.717291354557
277151,20594,277151.0,57349.0,277151.0,85473.0,-1258.4047946597486,-1444.7519044051228,-1648.4620822286515
277151,20577,277151.0,57356.0,277151.0,85451.0,-1271.0098473508017,-1457.1315617899286,-1663.2544813946329
277151,20547,277151.0,57275.0,277151.0,85493.0,-1283.6653210538796,-1469.5734241170262,-1678.1054034109534
277151,20544,277151.0,57275.0,277151.0,85468.0,-1296.3765818293662,-1482.0850729889075,-1693.026416254921
277162,20526,277162.0,57298.0,277162.0,85449.0,-1309.149455171973,-1494.6756119175109,-1708.0293206668678
277162,20538,277162.0,57298.0,277162.0,85435.0,-1321.990248043414,-1507.355734424145,-1723.125901671994
277162,20537,277162.0,57322.0,277162.0,85436.0,-1334.9055425322497,-1520.137170664864,-1738.327947015985
277162,20519,277162.0,57301.0,277162.0,85423.0,-1347.9018297467294,-1533.0319574589817,-1753.6471961984037
277162,20507,277162.0,57338.0,277162.0,85404.0,-1360.9852124124245,-1546.0518005052427,-1769.0951772251403
277162,20510,277162.0,57354.0,277162.0,85461.0,-1374.161277155134,-1559.2074049605135,-1784.6829732009048
277172,20505,277172.0,57344.0,277172.0,85439.0,-1387.4349500932237,-1572.507636400751,-1800.420685666025
277172,20481,277172.0,57284.0,277172.0,85383.0,-1400.8102566369741,-1585.9588659792305,-1816.3167562239641
277172,20454,277172.0,57246.0,277172.0,85371.0,-1414.290201875813,-1599.5650398342123,-1832.3778261076932
277172,20440,277172.0,57211.0,277172.0,85363.0,-1427.8769110609487,-1613.3284199218972,-1848.6091253186553
277172,20394,277172.0,57163.0,277172.0,85318.0,-1441.5719329462402,-1627.2505124696168,-1865.014800195687
277172,20398,277172.0,57163.0,277172.0,85287.0,-1455.37660270496,-1641.332886476049,-1881.5981711438837
277182,20407,277182.0,57190.0,277182.0,85314.0,-1469.2922761619627,-1655.5776332804453,-1898.3620822810037
277182,20390,277182.0,57211.0,277182.0,85287.0,-1483.3201985211108,-1669.9871312073342,-1915.3090069526431
277182,20384,277182.0,57193.0,277182.0,85300.0,-1497.4611573000816,-1684.5632427152948,-1932.440761291997
277182,20369,277182.0,57211.0,277182.0,85298.0,-1511.7152351355135,-1699.306506574634,-1949.7580766866165
277182,20386,277182.0,57228.0,277182.0,85324.0,-1526.0816341048437,-1714.2155031118166,-1967.260065502973
277182,20377,277182.0,57249.0,277182.0,85309.0,-1540.5583631234456,-1729.2861051465563,-1984.9435051755472
277193,20346,277193.0,57172.0,277193.0,85291.0,-1555.141839040022,-1744.5106895558015,-2002.8021552126393
277193,20322,277193.0,57139.0,277193.0,85237.0,-1569.8267232697565,-1759.8779349340841,-2020.8264674519617
277193,20311,277193.0,57083.0,277193.0,85207.0,-1584.6060851498676,-1775.3734646334935,-2039.0038455972076
277193,20294,277193.0,57089.0,277193.0,85175.0,-1599.4716149400124,-1790.9807972326191,-2057.319253992504
277193,20258,277193.0,57096.0,277193.0,85183.0,-1614.4137510995986,-1806.6819107535196,-2075.7557631957256
277193,20277,277193.0,57037.0,277193.0,85173.0,-1629.421801032843,-1822.4572734190795,-2094.2947070112996
277203,20268,277203.0,57100.0,277203.0,85175.0,-1644.4839240675487,-1838.285691633206,-2112.9154393840026
277203,20253,277203.0,57093.0,277203.0,85173.0,-1659.5868495200439,-1854.1439778407084,-2131.5948981785195
277203,20245,277203.0,57069.0,277203.0,85159.0,-1674.715560935337,-1870.006268965722,-2150.307142461792
277203,20242,277203.0,57048.0,277203.0,85178.0,-1689.8531007378235,-1885.8434717590949,-2169.0229065387794
277203,20261,277203.0,57129.0,277203.0,85164.0,-1704.9803095999516,-1901.6230038665603,-2187.709106827958
277203,20244,277203.0,57065.0,277203.0,85148.0,-1720.0753553744848,-1917.3082467116528,-2206.3283247908084
277214,20186,277214.0,57001.0,277214.0,85145.0,-1735.113315298295,-1932.8579460049439,-2224.838439007893
277214,20180,277214.0,56942.0,277214.0,85065.0,-1750.0662351341566,-1948.226534473945,-2243.1925351095033
277214,20143,277214.0,56941.0,277214.0,85033.0,-1764.9035770120722,-1963.3652688621214,-2261.3392709865275
277214,20145,277214.0,56922.0,277214.0,85050.0,-1779.592615699197,-1978.2231728237493,-2279.2235935592253
277214,20133,277214.0,56865.0,277214.0,85013.0,-1794.098590003639,-1992.7474655064907,-2296.787189499251
277214,20120,277214.0,56903.0,277214.0,85024.0,-1808.3846467941792,-2006.883853871472,-2313.9684571645876
277224,20122,277224.0,56918.0,277224.0,85010.0,-1822.4116860169474,-2020.5766034333699,-2330.702313283885
277224,20097,277224.0,56904.0,277224.0,84980.0,-1836.1381928984638,-2033.768057287437,-2346.920002328457
277224,20094,277224.0,56933.0,277224.0,84996.0,-1849.5201071706913,-2046.39790474089,-2362.548981508981
277224,20098,277224.0,56957.0,277224.0,84973.0,-1862.5107185202446,-2058.4024746247405,-2377.5128289819186
277224,20084,277224.0,56989.0,277224.0,84995.0,-1875.060474336779,-2069.713830616068,-2391.7310177402446
277224,20062,277224.0,56891.0,277224.0,84977.0,-1887.1167538902337,-2080.2588568247434,-2405.118561710624
277234,20036,277234.0,56838.0,277234.0,84889.0,-1898.6238473160479,-2089.9591837875987,-2417.5858280800294
277234,20007,277234.0,56773.0,277234.0,84866.0,-1909.523218010792,-2098.732323525679,-2429.039012386459
277234,19983,277234.0,56744.0,277234.0,84827.0,-1919.753947026481,-2106.4933463346206,-2439.3812327197743
277234,19952,277234.0,56723.0,277234.0,84790.0,-1929.2532561165904,-2113.1563248462826,-2448.5136409607576
277234,19954,277234.0,56723.0,277234.0,84782.0,-1937.95701425741,-2118.635272861107,-2456.3363052581935
277234,19964,277234.0,56733.0,277234.0,84786.0,-1945.8000353909197,-2122.844565524886,-2462.7488466891964
277245,19940,277245.0,56740.0,277245.0,84790.0,-1952.7160520832356,-2125.6989306427113,-2467.650685593513
277245,19936,277245.0,56750.0,277245.0,84767.0,-1958.6376019564136,-2127.1131919849176,-2470.9410040327707
277245,19933,277245.0,56721.0,277245.0,84758.0,-1963.4960617638908,-2127.002024356253,-2472.51879189403
277245,19921,277245.0,56785.0,277245.0,84797.0,-1967.2217402236702,-2125.279850679664,-2472.2830385841835
277245,19914,277245.0,56712.0,277245.0,84762.0,-1969.7439630204674,-2121.8607685035763,-2470.1327902596836
277245,19868,277245.0,56703.0,277245.0,84739.0,-1970.9912938880293,-2116.6586888103566,-2465.967199302198
277255,19869,277255.0,56666.0,277255.0,84684.0,-1970.8920255935045,-2109.588058214378,-2459.6860853479425
277255,19843,277255.0,56640.0,277255.0,84629.0,-1969.3748378930597,-2100.564987211675,-2451.19117706534
277255,19842,277255.0,56563.0,277255.0,84637.0,-1966.3694021587598,-2089.508552478724,-2440.3877363677984
277255,19805,277255.0,56531.0,277255.0,84622.0,-1961.8069289015007,-2076.3424479255327,-2427.1860258595234
277255,19821,277255.0,56602.0,277255.0,84633.0,-1955.620767710628,-2060.996715915489,-2411.5022845942694
277255,19820,277255.0,56602.0,277255.0,84673.0,-1947.7469525440877,-2043.4087010158514,-2393.259281813441
277265,19820,277265.0,56634.0,277265.0,84635.0,-1938.124532617978,-2023.5230726982263,-2372.3866173045526
277265,19812,277265.0,56645.0,277265.0,84674.0,-1926.6958164267962,-2001.29164147439,-2348.8210643076427
277265,19838,277265.0,56752.0,277265.0,84723.0,-1913.406686684922,-1976.6732029825862,-2322.507013900304
277265,19848,277265.0,56779.0,277265.0,84767.0,-1898.2068544834392,-1949.632982556414,-2293.3965736341497
277265,19836,277265.0,56770.0,277265.0,84740.0,-1881.0499977422785,-1920.1418172023202,-2261.4493525703724
277265,19819,277265.0,56718.0,277265.0,84740.0,-1861.894085087358,-1888.1760313069985,-2226.632681009034
277276,19838,277276.0,56701.0,277276.0,84766.0,-1840.70205865746,-1853.718559486348,-2188.9225333387653
277276,19847,277276.0,56769.0,277276.0,84784.0,-1817.4425817252397,-1816.760669733419,-2148.304606619313
277276,19843,277276.0,56784.0,277276.0,84848.0,-1792.0906074472337,-1777.3031824420025,-2104.7750740096026
277276,19893,277276.0,56834.0,277276.0,84894.0,-1764.6278506915064,-1735.3569002206734,-2058.340928489464
277276,19925,277276.0,56929.0,277276.0,84963.0,-1735.0430929115803,-1690.9426289137382,-2009.0199736504746
277276,19949,277276.0,56981.0,277276.0,85035.0,-1703.3321870841664,-1644.090833994195,-1956.8405786969147
277286,19981,277286.0,57062.0,277286.0,85082.0,-1669.4979876997058,-1594.8409437962337,-1901.841326594627
277286,20019,277286.0,57128.0,277286.0,85161.0,-1633.5504062823386,-1543.2406143036205,-1844.0707062246513
277286,20097,277286.0,57249.0,277286.0,85275.0,-1595.5064102072229,-1489.3449866014603,-1783.586798721546
277286,20132,277286.0,57366.0,277286.0,85345.0,-1555.3897317628882,-1433.2156177324864,-1720.4566670339314
277286,20158,277286.0,57324.0,277286.0,85381.0,-1513.2304609466555,-1374.9192349605648,-1654.7556249149036
277286,20200,277286.0,57332.0,277286.0,85463.0,-1469.0649320374205,-1314.5273820006075,-1586.566959930263
277296,20240,277296.0,57378.0,277296.0,85518.0,-1422.9359272518873,-1252.117505500337,-1515.9821201847303
277296,20304,277296.0,57443.0,277296.0,85601.0,-1374.8928785770509,-1187.7744513914527,-1443.1009492229732
277296,20350,277296.0,57536.0,277296.0,85684.0,-1324.9918882986487,-1121.5912717240933,-1368.031796141152
277296,20417,277296.0,57691.0,277296.0,85797.0,-1273.2956070924834,-1053.6691024435709,-1290.891424813354
277296,20485,277296.0,57731.0,277296.0,85896.0,-1219.8730285690433,-984.1162608691457,-1211.8046074135505
277296,20562,277296.0,57867.0,277296.0,86012.0,-1164.7991577658047,-913.0471181492469,-1130.9034429724252
277307,20631,277307.0,57954.0,277307.0,86128.0,-1108.1545331389468,-840.5811843641897,-1048.3265284722777
277307,20707,277307.0,58102.0,277307.0,86245.0,-1050.024692717541,-766.8421556886914,-964.2180328475769
277307,20785,277307.0,58243.0,277307.0,86397.0,-990.4996526442075,-691.956577746429,-878.7266370304712
277307,20863,277307.0,58279.0,277307.0,86459.0,-929.6733791448899,-616.0522810381591,-792.0043758562086
277307,20927,277307.0,58302.0,277307.0,86538.0,-867.64326922828,-539.2574201531509,-704.2057858117251
277307,20974,277307.0,58375.0,277307.0,86644.0,-804.5097908755433,-461.70075819394606,-615.4877078582841
277317,21051,277317.0,58432.0,277317.0,86747.0,-740.3764050354795,-383.51262966321144,-526.0093639097273
277317,21115,277317.0,58541.0,277317.0,86853.0,-675.3496265308432,-304.82566290599925,-435.9321979756071
277317,21197,277317.0,58610.0,277317.0,87003.0,-609.5389877922768,-225.77499883404926,-345.4194120490804
277317,21300,277317.0,58771.0,277317.0,87109.0,-543.0567926846297,-146.49806031356047,-254.63518746317095
277317,21392,277317.0,58879.0,277317.0,87244.0,-476.01757390438274,-67.13379295961522,-163.74366535901777
277317,21488,277317.0,58985.0,277317.0,87378.0,-408.5372786454499,12.178552230929427,-72.90787523342487
277327,21570,277327.0,59093.0,277327.0,87465.0,-340.73239536743336,91.30064153820922,17.711314816827553
277327,21646,277327.0,59265.0,277327.0,87646.0,-272.71921826566756,170.09616144968004,107.95619297395865
277327,21760,277327.0,59365.0,277327.0,87728.0,-204.613253771029,248.43220095348784,197.67324604093938
277327,21819,277327.0,59376.0,277327.0,87791.0,-136.52861556243374,326.18067070196616,286.7141329227288
277327,21886,277327.0,59392.0,277327.0,87850.0,-68.57746708951368,403.21867458165866,374.93597698135613
277327,21960,277327.0,59483.0,277327.0,87955.0,-0.8697568280610994,479.4275585678354,462.20089910037746
277338,22023,277338.0,59542.0,277338.0,88036.0,66.48681403012733,554.691719500019,548.3754983265162
277338,22103,277338.0,59635.0,277338.0,88160.0,133.38681560323334,628.8980215317208,633.3307439511182
277338,22206,277338.0,59778.0,277338.0,88268.0,199.72724819071118,701.9358482992288,716.9422914561537
277338,22268,277338.0,59869.0,277338.0,88381.0,265.4079507120498,773.6977944796722,799.0911394874315
277338,22346,277338.0,59961.0,277338.0,88464.0,330.3321224126753,844.0807938986445,879.6644153428274
277338,22435,277338.0,60070.0,277338.0,88568.0,394.4067404954651,912.9871736340476,958.5560256965564
277348,22491,277348.0,60172.0,277348.0,88671.0,457.5429334759433,980.3255686379102,1035.6671701408427
277348,22587,277348.0,60245.0,277348.0,88739.0,519.6563760091046,1046.0118781174574,1110.9068525215648
277348,22650,277348.0,60376.0,277348.0,88795.0,580.6676918764374,1109.9702099621477,1184.192239465971
277348,22700,277348.0,60305.0,277348.0,88853.0,640.5028375084366,1172.1335649927214,1255.4485958516284
277348,22737,277348.0,60344.0,277348.0,88911.0,699.0932460061879,1232.443619948348,1324.6088687142196
277348,22800,277348.0,60364.0,277348.0,88987.0,756.3756126418368,1290.849378666132,1391.6132296321894
277358,22860,277358.0,60414.0,277358.0,89030.0,812.2915952448004,1347.3056080845986,1456.4087558611345
277358,22910,277358.0,60501.0,277358.0,89098.0,866.7876966401898,1401.7719046390748,1518.9491874100127
277358,22968,277358.0,60558.0,277358.0,89159.0,919.8152743736591,1454.2124957447213,1579.1946889318801
277358,23045,277358.0,60613.0,277358.0,89236.0,971.3306066081175,1504.5965125806429,1637.1117332897816
277358,23068,277358.0,60668.0,277358.0,89293.0,1021.2950602944002,1552.898308334486,1692.6731991647098
277358,23126,277358.0,60720.0,277358.0,89346.0,1069.6752173289567,1599.0976448229412,1745.8585623750523
277369,23204,277369.0,60839.0,277369.0,89420.0,1116.442889124392,1643.1799810483035,1796.6540462027674
277369,23238,277369.0,60898.0,277369.0,89477.0,1161.5752817389107,1685.1372104016268,1845.0528062728226
277369,23258,277369.0,60864.0,277369.0,89497.0,1205.0552456990936,1724.9685818729458,1891.0551625795547
277369,23279,277369.0,60836.0,277369.0,89493.0,1246.871166041612,1762.6807572444814,1934.668516641786
277369,23301,277369.0,60825.0,277369.0,89527.0,1287.0164304026266,1798.2865408683788,1975.9066846335122
277369,23327,277369.0,60888.0,277369.0,89533.0,1325.4887770775617,1831.8031641752054,2014.7889336338753
277379,23352,277379.0,60848.0,277379.0,89553.0,1362.2897195814298,1863.2510959099773,2051.3390888864333
277379,23381,277379.0,60948.0,277379.0,89607.0,1397.4240842250315,1892.6534180374802,2085.584818721717
277379,23441,277379.0,60968.0,277379.0,89659.0,1430.8997193590508,1920.0356229871632,2117.557286618362
277379,23471,277379.0,61034.0,277379.0,89685.0,1462.7274975626697,1945.425938756085,2147.291278799683
277379,23473,277379.0,61014.0,277379.0,89692.0,1492.9214789877378,1968.855871418224,2174.8254360235574
277379,23530,277379.0,61161.0,277379.0,89770.0,1521.4989076698416,1990.3606484256024,2200.2022848871047
277389,23544,277389.0,61164.0,277389.0,89740.0,1548.4800990441468,2009.979952254333,2223.4682515578984
277389,23563,277389.0,61137.0,277389.0,89759.0,1573.8884225093361,2027.7589149167234,2244.6736262057425
277389,23565,277389.0,61031.0,277389.0,89765.0,1597.7502083966106,2043.7482003198634,2263.8721912963483
277389,23569,277389.0,61051.0,277389.0,89741.0,1620.0943964608946,2058.002569949667,2281.1206153401226
277389,23577,277389.0,61031.0,277389.0,89717.0,1640.9520060009363,2070.57895223865,2296.4776892947275
277389,23603,277389.0,60949.0,277389.0,89712.0,1660.3556209607468,2081.5349488316538,2310.003294525325
277400,23606,277400.0,61014.0,277400.0,89760.0,1678.3390529416447,2090.927565470264,2321.757424233796
277400,23634,277400.0,61045.0,277400.0,89766.0,1694.9371709619536,2098.8122951733685,2331.7997785555494
277400,23645,277400.0,61085.0,277400.0,89783.0,1710.1858199768203,2105.2431974489955,2340.18989699031
277400,23640,277400.0,61067.0,277400.0,89790.0,1724.1217683479836,2110.2736337858846,2346.9873729281885
277400,23674,277400.0,61089.0,277400.0,89816.0,1736.7825981132091,2113.9567935454043,2352.2519803774658
277400,23677,277400.0,61196.0,277400.0,89810.0,1748.2066097248235,2116.346061138622,2356.0438242956147
277410,23681,277410.0,61141.0,277410.0,89813.0,1758.4328290897251,2117.4958217808835,2358.4234721165003
277410,23678,277410.0,61077.0,277410.0,89791.0,1767.5009558027427,2117.4622183977735,2359.451900611064
277410,23662,277410.0,60993.0,277410.0,89770.0,1775.4511076323265,2116.3026376203466,2359.190177201416
277410,23659,277410.0,61003.0,277410.0,89733.0,1782.3233842660652,2114.074014130979,2357.69886566965
277410,23660,277410.0,60987.0,277410.0,89726.0,1788.1573684272043,2110.831236584631,2355.0372332225515
277410,23646,277410.0,60907.0,277410.0,89715.0,1792.9917027115966,2106.6262098101456,2351.2624957658
277420,23677,277420.0,60990.0,277420.0,89708.0,1796.8637975382776,2101.5071667926595,2346.4293139982037
277420,23686,277420.0,61003.0,277420.0,89755.0,1799.8097681328522,2095.518392691271,2340.5896295521
277420,23685,277420.0,61005.0,277420.0,89738.0,1801.8646377876776,2088.700798481806,2333.7929203658837
277420,23675,277420.0,60992.0,277420.0,89732.0,1803.0625391015487,2081.0927437689597,2326.086673259477
277420,23689,277420.0,61040.0,277420.0,89747.0,1803.436711718657,2072.7305185352916,2317.5166876042217
277420,23701,277420.0,61077.0,277420.0,89755.0,1803.0194836700484,2063.6489095821485,2308.1272894963113
277431,23705,277431.0,61051.0,277431.0,89750.0,1801.842445710376,2053.8821722501516,2297.96170589072
277431,23680,277431.0,60994.0,277431.0,89682.0,1799.9366799922527,2043.4647829795667,2287.0623402475635
277431,23653,277431.0,60915.0,277431.0,89671.0,1797.3327101677269,2032.431188419151,2275.470507123351
277431,23644,277431.0,60917.0,277431.0,89608.0,1794.0600747770948,2020.8146531828588,2263.2256627919974
277431,23653,277431.0,60827.0,277431.0,89581.0,1790.1468305497394,2008.645951906974,2250.364466508744
277431,23627,277431.0,60839.0,277431.0,89601.0,1785.6192963223402,1995.9522850105873,2236.919952452467
277441,23661,277441.0,60905.0,277441.0,89601.0,1780.5020164361347,1982.756641814451,2222.921193656252
277441,23631,277441.0,60880.0,277441.0,89608.0,1774.8178577693693,1969.0780917911136,2208.3935944764653
277441,23620,277441.0,60861.0,277441.0,89595.0,1768.588128307817,1954.9326632180296,2193.3594281776477
277441,23636,277441.0,60889.0,277441.0,89607.0,1761.8325606889148,1940.3339201980461,2177.8382990595487
277441,23637,277441.0,60976.0,277441.0,89650.0,1754.5693360948067,1925.2935006027699,2161.84765994119
277441,23639,277441.0,60970.0,277441.0,89642.0,1746.8153583228973,1909.8223936187633,2145.4036494664488
277452,23628,277452.0,60858.0,277452.0,89584.0,1738.5866013812458,1893.9323736743747,2128.5219693841645
277452,23598,277452.0,60808.0,277452.0,89537.0,1729.8982750718062,1877.636159611977,2111.21807678241
277452,23573,277452.0,60726.0,277452.0,89538.0,1720.7646825745135,1860.946104447947,2093.50661993856
277452,23607,277452.0,60772.0,277452.0,89496.0,1711.1989192984295,1843.8726052690663,2075.40081547296
277452,23577,277452.0,60732.0,277452.0,89458.0,1701.212815261019,1826.4232872421014,2056.9120699004625
277452,23581,277452.0,60733.0,277452.0,89459.0,1690.8171610487714,1808.603007959872,2038.0496144571016
277462,23560,277462.0,60803.0,277462.0,89491.0,1680.0218830634842,1790.414273090123,2018.8203289029555
277462,23565,277462.0,60793.0,277462.0,89491.0,1668.836096874555,1771.858121851946,1999.2291830320107
277462,23575,277462.0,60755.0,277462.0,89475.0,1657.26823667976,1752.9353162818506,1979.2800993614524
277462,23573,277462.0,60840.0,277462.0,89477.0,1645.3263961674102,1733.647235221549,1958.9766762615386
277462,23540,277462.0,60838.0,277462.0,89508.0,1633.0187428911863,1713.9967522604393,1938.322736985668
277462,23564,277462.0,60812.0,277462.0,89439.0,1620.3537569750752,1693.9894780310706,1917.3229473211475
277472,23516,277472.0,60707.0,277472.0,89414.0,1607.3403343558816,1673.6345430982649,1895.9831900778945
277472,23512,277472.0,60649.0,277472.0,89376.0,1593.9878251181146,1652.9441016481521,1874.310338063489
277472,23482,277472.0,60632.0,277472.0,89378.0,1580.3059115201231,1631.9319806682008,1852.3117977205288
277472,23461,277472.0,60576.0,277472.0,89355.0,1566.3043719571717,1610.6124759802833,1829.9953331851777
277472,23459,277472.0,60586.0,277472.0,89334.0,1551.9928620938902,1588.9996953921964,1807.369172554705
277472,23450,277472.0,60577.0,277472.0,89357.0,1537.380834276345,1567.107361496697,1784.4422240966805
277483,23461,277483.0,60590.0,277483.0,89331.0,1522.477702169935,1544.9490837832975,1761.2244628421627
277483,23449,277483.0,60602.0,277483.0,89311.0,1507.2932179361221,1522.5390409269012,1737.727442746897
277483,23431,277483.0,60563.0,277483.0,89301.0,1491.8378855759106,1499.892807696728,1713.9646527952323
277483,23458,277483.0,60622.0,277483.0,89328.0,1476.1232947674546,1477.0281034057566,1689.9518036865265
277483,23417,277483.0,60551.0,277483.0,89272.0,1460.1624719908646,1453.9654957872192,1665.7073259579174
277483,23383,277483.0,60514.0,277483.0,89232.0,1443.9701554696437,1430.7289038879105,1641.2527795183798
277493,23361,277493.0,60395.0,277493.0,89184.0,1427.5626859003653,1407.3453286195895,1616.6126963976355
277493,23334,277493.0,60391.0,277493.0,89139.0,1410.9576177282174,1383.8437171079408,1591.813969340867
277493,23311,277493.0,60363.0,277493.0,89115.0,1394.173370191375,1360.2537310138791,1566.885178064211
277493,23282,277493.0,60308.0,277493.0,89065.0,1377.2289560221386,1336.6050715655724,1541.8560425383655
277493,23270,277493.0,60310.0,277493.0,89082.0,1360.1437345970905,1312.9271782180406,1516.757069166511
277493,23269,277493.0,60353.0,277493.0,89053.0,1342.9372799914092,1289.2491846317985,1491.6195103213004
277503,23231,277503.0,60310.0,277503.0,89035.0,1325.6294341426606,1265.6004588576761,1466.4756220878235
277503,23224,277503.0,60280.0,277503.0,89002.0,1308.240386640611,1242.0113786977388,1441.3589136168966
277503,23213,277503.0,60314.0,277503.0,88993.0,1290.7906752668966,1218.5137442860223,1416.3042210958288
277503,23215,277503.0,60307.0,277503.0,88980.0,1273.3012826929526,1195.141168903649,1391.3477813122204
277503,23184,277503.0,60253.0,277503.0,88941.0,1255.793901523014,1171.9297485233783,1366.5274109372249
277503,23166,277503.0,60170.0,277503.0,88891.0,1238.2911484383762,1148.9183350903581,1341.882565720232
277514,23106,277514.0,60068.0,277514.0,88832.0,1220.8164960347212,1126.1477587085574,1317.4539889791893
277514,23081,277514.0,60011.0,277514.0,88808.0,1203.3938528151627,1103.659165453989,1293.2830007300333
277514,23057,277514.0,60011.0,277514.0,88742.0,1186.0469565291269,1081.492266857545,1269.4107276785608
277514,23039,277514.0,59987.0,277514.0,88695.0,1168.7988978138483,1059.6843274469966,1245.8773536961407
277514,23031,277514.0,59963.0,277514.0,88686.0,1151.6719211074883,1038.2699659782443,1222.721346961162
277514,23019,277514.0,59939.0,277514.0,88663.0,1134.6874474489025,1017.2812065617118,1199.9789174627776
277524,22989,277524.0,59923.0,277524.0,88626.0,1117.866197020798,996.7474547681516,1177.6838513596426
277524,22986,277524.0,59940.0,277524.0,88616.0,1101.2282609859712,976.6955433828405,1155.8674498460857
277524,22977,277524.0,59981.0,277524.0,88644.0,1084.7931442046688,957.1501767172379,1134.5585430997337
277524,22979,277524.0,59893.0,277524.0,88572.0,1068.5799501958925,938.1347584350274,1113.7837806656253
277524,22909,277524.0,59914.0,277524.0,88586.0,1052.6076125932923,919.6719544923769,1093.567922113824
277524,22891,277524.0,59804.0,277524.0,88502.0,1036.8947818977736,901.7835512805675,1073.9337567633604
277534,22855,277534.0,59718.0,277534.0,88441.0,1021.4592920376826,884.4896122850893,1054.9015707227838
277534,22857,277534.0,59720.0,277534.0,88457.0,1006.3176209995769,867.8070195870041,1036.4882414643143
277534,22826,277534.0,59665.0,277534.0,88453.0,991.4846404205672,851.7480451403558,1018.7065562804985
277534,22814,277534.0,59774.0,277534.0,88433.0,976.9735483790896,836.3197709000492,1001.5652397746007
277534,22802,277534.0,59738.0,277534.0,88443.0,962.7958169352758,821.524592160237,985.0693196313991
277534,22775,277534.0,59726.0,277534.0,88410.0,948.9611398272814,807.3612837721057,969.2204276605817
277545,22784,277545.0,59748.0,277545.0,88434.0,935.4774082837292,793.8257609756746,954.0170420148228
277545,22795,277545.0,59772.0,277545.0,88458.0,922.3508279648643,780.9115490371112,939.454858728012
277545,22782,277545.0,59837.0,277545.0,88457.0,909.5863083144941,768.6106458259064,925.5274970092685
277545,22752,277545.0,59813.0,277545.0,88444.0,897.1878974593435,756.914864544985,912.2273320006425
277545,22738,277545.0,59720.0,277545.0,88401.0,885.1588982219852,745.8168797469787,899.5459614063163
277545,22706,277545.0,59650.0,277545.0,88398.0,873.5016691601741,735.3099974105357,887.4741423104556
277555,22698,277555.0,59660.0,277555.0,88380.0,862.2173250402058,725.3867788323508,876.0014898679549
277555,22693,277555.0,59617.0,277555.0,88384.0,851.305502614767,716.0377267227851,865.1162983893486
277555,22690,277555.0,59567.0,277555.0,88366.0,840.7643211885379,707.2505275487554,854.8055580100673
277555,22666,277555.0,59676.0,277555.0,88360.0,830.5904995319905,699.0095914073689,845.0550256613743
277555,22676,277555.0,59677.0,277555.0,88367.0,820.779457185958,691.296290527554,835.8492819549059
277555,22666,277555.0,59695.0,277555.0,88337.0,811.3254063310633,684.0901073635476,827.1718128890852
277565,22663,277565.0,59673.0,277565.0,88343.0,802.2215315048376,677.369784219711,819.0050581856102
277565,22678,277565.0,59723.0,277565.0,88398.0,793.4602411596984,671.1139326976628,811.3305138067443
277565,22662,277565.0,59736.0,277565.0,88378.0,785.0334831817861,665.3015690935393,804.1292271764522
277565,22660,277565.0,59675.0,277565.0,88352.0,776.9330618746985,659.9127707024732,797.3824691574865
277565,22630,277565.0,59683.0,277565.0,88339.0,769.1507846471499,654.9289113441879,791.0719277053786
277565,22610,277565.0,59588.0,277565.0,88294.0,761.6783475988843,650.332181287795,785.1793468987047
277576,22593,277576.0,59625.0,277576.0,88335.0,754.5070088390095,646.1046916924305,779.6860247775297
277576,22589,277576.0,59578.0,277576.0,88287.0,747.6272258710479,642.2276235328834,774.5725186639443
277576,22592,277576.0,59607.0,277576.0,88304.0,741.0284637494144,638.6807474170504,769.8185605952465
277576,22582,277576.0,59609.0,277576.0,88311.0,734.6992269335412,635.4423331229477,765.4030175551986
277576,22613,277576.0,59614.0,277576.0,88336.0,728.6272564908743,632.4893463004178,761.3040388158535
277576,22578,277576.0,59661.0,277576.0,88345.0,722.7998424229464,629.7978622057218,757.4995307052816
277586,22594,277586.0,59682.0,277586.0,88336.0,717.2041037739824,627.3437295845696,753.9677247481259
277586,22599,277586.0,59746.0,277586.0,88373.0,711.8271559786346,625.1035826027529,750.6876152514691
277586,22580,277586.0,59715.0,277586.0,88337.0,706.6563014491722,623.0560315961511,747.6393014337743
277586,22569,277586.0,59641.0,277586.0,88309.0,701.6791810790687,621.1823878131761,744.8041275120452
277586,22544,277586.0,59569.0,277586.0,88254.0,696.883678628013,619.4661801287917,742.1642753334798
277586,22544,277586.0,59526.0,277586.0,88271.0,692.2576370750382,617.8915371933833,739.7018769410025
277596,22528,277596.0,59529.0,277596.0,88247.0,687.7885856572799,616.4413765952313,737.3982102507542
277596,22517,277596.0,59571.0,277596.0,88255.0,683.4635488195362,615.0963223619831,735.2332941274987
277596,22543,277596.0,59530.0,277596.0,88260.0,679.268945573962,613.8345638575207,733.1857620454984
277596,22526,277596.0,59599.0,277596.0,88283.0,675.1906788506012,612.6321669649947,731.2329461747624
277596,22519,277596.0,59636.0,277596.0,88263.0,671.2143505160009,611.4636095754007,729.3511563901567
277596,22519,277596.0,59633.0,277596.0,88329.0,667.3253556185542,610.302718207572,727.5160416024321
277607,22511,277607.0,59713.0,277607.0,88331.0,663.5088623937571,609.1237819363819,725.7031333302778
277607,22545,277607.0,59718.0,277607.0,88345.0,659.7498889651055,607.9026643460481,723.8886269300356
277607,22530,277607.0,59699.0,277607.0,88336.0,656.0335986392139,606.6178799171377,722.0500450871934
277607,22499,277607.0,59646.0,277607.0,88309.0,652.3456240445967,605.2510892080494,720.1664807711719
277607,22486,277607.0,59616.0,277607.0,88300.0,648.6720259645249,603.7866371069396,718.2184203735221
277607,22482,277607.0,59588.0,277607.0,88293.0,644.9989095876447,602.2105253267064,716.1873379342885
277617,22474,277617.0,59558.0,277617.0,88253.0,641.312095277134,600.5093559448624,714.0552675087597
277617,22489,277617.0,59578.0,277617.0,88283.0,637.5970264439426,598.6695054893328,711.8043866574527
277617,22502,277617.0,59596.0,277617.0,88294.0,633.8389210531366,596.676742502944,709.4167836589127
277617,22478,277617.0,59591.0,277617.0,88293.0,630.0230984233278,594.5163821208785,706.8746377008305
277617,22478,277617.0,59591.0,277617.0,88292.0,626.1352106133793,592.1736462288559,704.1605758497162
277617,22495,277617.0,59675.0,277617.0,88313.0,622.1612857747018,589.6340455110144,701.2579220246404
277627,22504,277627.0,59687.0,277627.0,88357.0,618.0878834381466,586.8841724077598,698.1510408996392
277627,22497,277627.0,59661.0,277627.0,88311.0,613.9024815807413,583.9128548436169,694.8259351151733
277627,22466,277627.0,59606.0,277627.0,88270.0,609.5937781769098,580.7117665418165,691.2705883407524
277627,22443,277627.0,59563.0,277627.0,88256.0,605.151593957451,577.2749600162024,687.4745487076602
277627,22448,277627.0,59546.0,277627.0,88274.0,600.5664637600744,573.597751539179,683.4281820282171
277627,22434,277627.0,59499.0,277627.0,88218.0,595.8292911896042,569.6755977831474,679.1222285677468
277638,22436,277638.0,59517.0,277638.0,88246.0,590.9312429589293,565.5032233354077,674.5475564277715
277638,22426,277638.0,59540.0,277638.0,88232.0,585.8637658289526,561.074163164333,669.6949337545268
277638,22420,277638.0,59538.0,277638.0,88237.0,580.618617150046,556.380902344544,664.5549941067122
277638,22417,277638.0,59563.0,277638.0,88227.0,575.1878849937709,551.4154027793827,659.1183548036277
277638,22426,277638.0,59547.0,277638.0,88274.0,569.5640467069767,546.1696427664897,653.3757995082543
277638,22423,277638.0,59678.0,277638.0,88283.0,563.7401511357294,540.6362667923429,647.3187418779164
277648,22429,277648.0,59595.0,277648.0,88276.0,557.7101065430423,534.8096716169825,640.9399685459647
277648,22405,277648.0,59574.0,277648.0,88248.0,551.4689449202933,528.6870027033513,634.2341901730584
277648,22373,277648.0,59512.0,277648.0,88180.0,545.0128706302501,522.2680877509474,627.1979656923908
277648,22365,277648.0,59476.0,277648.0,88191.0,538.3389842581468,515.5544187273758,619.8290120593988
277648,22346,277648.0,59451.0,277648.0,88193.0,531.4448639281479,508.547947375812,612.1254581661733
277648,22332,277648.0,59445.0,277648.0,88126.0,524.328240955512,501.2501272379724,604.0854902407091
277659,22331,277659.0,59434.0,277659.0,88170.0,516.9867941991249,493.66137010846734,595.7071236879387
277659,22327,277659.0,59416.0,277659.0,88161.0,509.4180712823964,485.7808298590415,586.9880265533579
277659,22333,277659.0,59453.0,277659.0,88163.0,501.61958937157584,477.606365888472,577.9257184646161
277659,22320,277659.0,59442.0,277659.0,88148.0,493.5890649931944,469.134777288711,568.5179508433189
277659,22320,277659.0,59479.0,277659.0,88153.0,485.3246474939209,460.36235635771965,558.7629304982086
277659,22340,277659.0,59544.0,277659.0,88177.0,476.82515013827987,451.285745359864,548.6595303473604
277669,22307,277669.0,59487.0,277669.0,88156.0,468.09036793964293,441.90308854122856,538.2077018321208
277669,22280,277669.0,59459.0,277669.0,88105.0,459.1212960733263,432.214896659194,527.4088320375351
277669,22257,277669.0,59372.0,277669.0,88078.0,449.9199574579001,422.2238793453527,516.2655658927674
277669,22222,277669.0,59333.0,277669.0,88049.0,440.4889305380907,411.9338282558292,504.7811399503974
277669,22228,277669.0,59287.0,277669.0,88007.0,430.83086052618097,401.34815602203264,492.9586425235595
277669,22209,277669.0,59303.0,277669.0,88018.0,420.94815841639996,390.4686777729121,480.80039638326946
277679,22211,277679.0,59341.0,277679.0,88012.0,410.8429564937387,379.29513296437824,468.30762176976884
277679,22190,277679.0,59339.0,277679.0,88022.0,400.5171988336453,367.8256073333245,455.4805395157822
277679,22187,277679.0,59369.0,277679.0,88029.0,389.9727250590696,356.0574603514113,442.3188049562634
277679,22195,277679.0,59322.0,277679.0,88018.0,379.21136954730235,343.9881834894444,428.82205606882883
277679,22187,277679.0,59390.0,277679.0,88032.0,368.23519946745307,331.6159869894551,414.99043620725365
277679,22174,277679.0,59383.0,277679.0,88015.0,357.0468531309764,318.9404187672508,400.8250570232432
277690,22166,277690.0,59298.0,277690.0,88000.0,345.64978632705566,305.9630660816281,386.3283772751331
277690,22140,277690.0,59261.0,277690.0,87941.0,334.04836179090603,292.6875972700997,371.50430927208106
277690,22102,277690.0,59263.0,277690.0,87907.0,322.2477634743342,279.11895933753635,356.35785454460574
277690,22073,277690.0,59188.0,277690.0,87914.0,310.2536504791233,265.262544816474,340.8944547963998
277690,22056,277690.0,59154.0,277690.0,87877.0,298.0716334586957,251.12353214168775,325.11954771731246
277690,22064,277690.0,59180.0,277690.0,87866.0,285.70688091225907,236.70616664516638,309.03844081084014
277700,22059,277700.0,59155.0,277700.0,87869.0,273.16410208370974,222.01338675125783,292.6562824734676
277700,22038,277700.0,59176.0,277700.0,87838.0,260.4478172512937,207.04704415192737,275.9781301493906
277700,22015,277700.0,59189.0,277700.0,87834.0,247.56256919372015,191.80843858774733,259.0090991983526
277700,22025,277700.0,59217.0,277700.0,87832.0,234.51294211439267,176.29909430817656,241.75449719122923
277700,22020,277700.0,59239.0,277700.0,87849.0,221.3036428588722,160.52182672092374,224.22010333289495
277700,22001,277700.0,59204.0,277700.0,87805.0,207.93978997825877,144.4818644096074,206.4126616372007
277710,21969,277710.0,59128.0,277710.0,87773.0,194.42714941956422,128.18746786380223,188.34021529203153
277710,21935,277710.0,59016.0,277710.0,87732.0,180.77204144560187,111.6494416739888,170.01194605135072
277710,21899,277710.0,59000.0,277710.0,87696.0,166.9809307373912,94.87958647250616,151.437649931313
277710,21903,277710.0,58980.0,277710.0,87667.0,153.05992815513434,77.88904345538276,132.6271403304337
277710,21877,277710.0,58965.0,277710.0,87674.0,139.01449334200174,60.68741548359833,113.58980086821919
277710,21878,277710.0,58998.0,277710.0,87681.0,124.84941892160236,43.28268869700901,94.33454463684393
277721,21872,277721.0,59029.0,277721.0,87639.0,110.56897873345542,25.681768146147306,74.87018562899948
277721,21861,277721.0,59011.0,277721.0,87637.0,96.17717923370287,7.891519913630759,55.205807182543595
277721,21841,277721.0,58990.0,277721.0,87619.0,81.67802891870542,-10.080208706271378,35.35090656206478
277721,21846,277721.0,59023.0,277721.0,87612.0,67.0757264717729,-28.223991906695574,15.315527864565752
277721,21841,277721.0,58965.0,277721.0,87595.0,52.37487070483667,-46.52840634607196,-4.889499690886623
277721,21807,277721.0,58922.0,277721.0,87563.0,37.580754886181126,-64.97978060281525,-25.25234389334878
277731,21763,277731.0,58841.0,277731.0,87514.0,22.699472096392924,-83.5625688188087,-45.760166724925625
277731,21755,277731.0,58839.0,277731.0,87477.0,7.737633112251501,-102.26031254591942,-66.39947055305015
277731,21714,277731.0,58802.0,277731.0,87479.0,-7.298064581482436,-121.05655382167743,-87.15661161220885
277731,21709,277731.0,58767.0,277731.0,87443.0,-22.401161877099298,-139.93534180114887,-108.01809265801762
277731,21703,277731.0,58771.0,277731.0,87407.0,-37.565600777970076,-158.88150346545865,-128.97062309359262
277731,21695,277731.0,58732.0,277731.0,87413.0,-52.78565416272784,-177.88078213250412,-150.001212114463
277741,21670,277741.0,58746.0,277741.0,87391.0,-68.05569158712706,-196.91979569454475,-171.09720423958686
277741,21642,277741.0,58708.0,277741.0,87363.0,-83.37004642217869,-215.98587171328802,-192.24611801806486
277741,21647,277741.0,58769.0,277741.0,87400.0,-98.7230634417325,-235.0667274336647,-213.43539963266198
277741,21635,277741.0,58785.0,277741.0,87403.0,-114.10909027321725,-254.14972800758903,-234.65193194114784
277741,21617,277741.0,58770.0,277741.0,87368.0,-129.52227528720914,-273.2206828678503,-255.8812103316634
277741,21594,277741.0,58646.0,277741.0,87281.0,-144.95636841565738,-292.2629638584067,-277.106829373458
277752,21566,277752.0,58576.0,277752.0,87208.0,-160.40471532370088,-311.25793721400885,-298.3109667810684
277752,21537,277752.0,58529.0,277752.0,87198.0,-175.86043704719282,-330.1865783843566,-319.4756345183673
277752,21507,277752.0,58458.0,277752.0,87166.0,-191.31673257771706,-349.0312402194628,-340.58379300927083
277752,21489,277752.0,58527.0,277752.0,87166.0,-206.76722771658206,-367.7768384801499,-361.61980690865687
277752,21480,277752.0,58503.0,277752.0,87142.0,-222.20623887583554,-386.4110909636181,-382.56942106941574
277752,21472,277752.0,58482.0,277752.0,87105.0,-237.62882656302963,-404.9239544161885,-403.41962148322295
277762,21463,277762.0,58485.0,277762.0,87100.0,-253.0306387371329,-423.3070367463838,-424.1586164141721
277762,21455,277762.0,58498.0,277762.0,87123.0,-268.40765145850946,-441.5532317692381,-444.7757924447178
277762,21445,277762.0,58537.0,277762.0,87103.0,-283.7558919778281,-459.6560971463168,-465.26129976880145
277762,21437,277762.0,58542.0,277762.0,87097.0,-299.0711686872861,-477.6087733954396,-485.60538850908813
277762,21404,277762.0,58477.0,277762.0,87058.0,-314.34885461651845,-495.4028792969558,-505.7979335132063
277762,21374,277762.0,58380.0,277762.0,87013.0,-329.58385818091244,-513.0282258012317,-525.8283644936132
277772,21341,277772.0,58358.0,277772.0,86975.0,-344.7708683561001,-530.4737150081116,-545.6860099394646
277772,21318,277772.0,58299.0,277772.0,86960.0,-359.9047671872987,-547.7287364787987,-565.3606547956344
277772,21306,277772.0,58266.0,277772.0,86907.0,-374.98100338516247,-564.7843063797472,-584.8430248844652
277772,21297,277772.0,58291.0,277772.0,86904.0,-389.9957693230482,-581.6337919391212,-604.1251599474103
277772,21302,277772.0,58282.0,277772.0,86884.0,-404.9459188495051,-598.273073768775,-623.2006837005983
277772,21275,277772.0,58304.0,277772.0,86881.0,-419.8286928268095,-614.7000875807112,-642.0648375979379
277783,21256,277783.0,58269.0,277783.0,86848.0,-434.64147308955864,-630.9141279227213,-660.7143230339018
277783,21255,277783.0,58305.0,277783.0,86879.0,-449.38170657995533,-646.9152580451832,-679.1470938065747
277783,21251,277783.0,58335.0,277783.0,86878.0,-464.04682571117405,-662.7036741575494,-697.3619633678854
277783,21225,277783.0,58266.0,277783.0,86862.0,-478.6340213639345,-678.2788621906343,-715.3579399183905
277783,21199,277783.0,58287.0,277783.0,86806.0,-493.14007097725755,-693.6389943143374,-733.1337022367611
277783,21168,277783.0,58177.0,277783.0,86759.0,-507.561434319985,-708.7809760530874,-750.6876999534563
277793,21144,277793.0,58120.0,277793.0,86715.0,-521.8945624097519,-723.7011744167344,-768.0188540302534
277793,21120,277793.0,58115.0,277793.0,86716.0,-536.1362577966247,-738.3966814326989,-785.1273940608828
277793,21110,277793.0,58095.0,277793.0,86716.0,-550.2839649022064,-752.8664291686632,-802.0153123266643
277793,21104,277793.0,58084.0,277793.0,86702.0,-564.3358954027292,-767.1116200442746,-818.6862727007474
277793,21089,277793.0,58101.0,277793.0,86707.0,-578.290958385187,-781.1356889997121,-835.1452434945816
277793,21068,277793.0,58086.0,277793.0,86691.0,-592.1486167614378,-794.9440180699712,-851.3981131726664
277803,21072,277803.0,58131.0,277803.0,86681.0,-605.9087934276349,-808.5434133806441,-867.4513555669835
277803,21079,277803.0,58165.0,277803.0,86704.0,-619.5717098167665,-821.9412695260123,-883.3117160785359
277803,21061,277803.0,58204.0,277803.0,86704.0,-633.137517217599,-835.1442936328906,-898.9857426035189
277803,21039,277803.0,58070.0,277803.0,86649.0,-646.6059151379884,-848.1572583941761,-914.4792135935606
277803,20986,277803.0,58024.0,277803.0,86612.0,-659.9760966996078,-860.982890844436,-929.79698111949
277803,20995,277803.0,57975.0,277803.0,86577.0,-673.2470676235027,-873.6231436200808,-944.9434574368183
277814,20960,277814.0,57970.0,277814.0,86575.0,-686.4180150384357,-886.0807294907436,-959.9232976532221
277814,20915,277814.0,57947.0,277814.0,86533.0,-699.4885622218112,-898.3600165055714,-974.741843252235
277814,20934,277814.0,57954.0,277814.0,86524.0,-712.4590732188717,-910.4673261532705,-989.4053748876593
277814,20940,277814.0,57894.0,277814.0,86510.0,-725.3308211701233,-922.4109986595186,-1003.9213280774352
277814,20907,277814.0,57958.0,277814.0,86530.0,-738.1057370175283,-934.2014478267081,-1018.2983420766197
277814,20904,277814.0,57949.0,277814.0,86538.0,-750.7860765140597,-945.8509724223613,-1032.5459372976543
277824,20880,277824.0,57980.0,277824.0,86539.0,-763.374339393956,-957.3730586802076,-1046.6738695763856
277824,20904,277824.0,58040.0,277824.0,86532.0,-775.8732423122922,-968.7813232841631,-1060.691442284097
277824,20900,277824.0,57994.0,277824.0,86511.0,-788.285454063375,-980.0882947415644,-1074.60702894741
277824,20845,277824.0,57934.0,277824.0,86452.0,-800.6131901353085,-991.304556866879,-1088.4279679827252
277824,20831,277824.0,57919.0,277824.0,86448.0,-812.8581339994832,-1002.4388894297163,-1102.1609061794695
277824,20810,277824.0,57847.0,277824.0,86410.0,-825.0217923240818,-1013.4991324252803,-1115.8123599908554
277834,20795,277834.0,57762.0,277834.0,86411.0,-837.1058691951207,-1024.4933223861583,-1129.3891443101925
277834,20764,277834.0,57833.0,277834.0,86390.0,-849.1124832312341,-1035.4309770197904,-1142.8985774516325
277834,20766,277834.0,57855.0,277834.0,86393.0,-861.0443509823597,-1046.3237467443967,-1156.348508660139
277834,20754,277834.0,57866.0,277834.0,86366.0,-872.9048940459909,-1057.1848135537987,-1169.7472346981551
277834,20741,277834.0,57835.0,277834.0,86369.0,-884.698180771386,-1068.027824067077,-1183.1034084688315
277834,20746,277834.0,57821.0,277834.0,86369.0,-896.428777321724,-1078.8663439233994,-1196.4259272691957
277845,20747,277845.0,57888.0,277845.0,86389.0,-908.1015221337457,-1089.7137096455583,-1209.7236364782548
277845,20737,277845.0,57867.0,277845.0,86337.0,-919.7211750646136,-1100.5825591233374,-1223.0048726839536
277845,20719,277845.0,57890.0,277845.0,86299.0,-931.2920786895761,-1111.4839492282345,-1236.2772830930548
277845,20687,277845.0,57799.0,277845.0,86310.0,-942.8180440934348,-1122.4267259654291,-1249.5481516619925
277845,20649,277845.0,57757.0,277845.0,86255.0,-954.3025581574348,-1133.4177316678952,-1262.8248350525769
277845,20651,277845.0,57699.0,277845.0,86240.0,-965.7492171034903,-1144.4628529925399,-1276.1150896128536
277855,20625,277855.0,57672.0,277855.0,86240.0,-977.1620967887454,-1155.5683732006853,-1289.4274206827536
277855,20604,277855.0,57689.0,277855.0,86225.0,-988.5459321373685,-1166.7420112832751,-1302.7712900504143
277855,20619,277855.0,57680.0,277855.0,86202.0,-999.9062128334112,-1177.993309754015,-1316.1570881929658
277855,20614,277855.0,57714.0,277855.0,86229.0,-1011.249114174205,-1189.3333910935544,-1329.5960490839025
277855,20604,277855.0,57703.0,277855.0,86213.0,-1022.5811799382261,-1200.7743516940493,-1343.1000343814248
277855,20591,277855.0,57733.0,277855.0,86187.0,-1033.9089938482737,-1212.3285337767309,-1356.6811724735896
277866,20592,277866.0,57786.0,277866.0,86239.0,-1045.238997274482,-1224.0076668093177,-1370.3515523516442
277866,20585,277866.0,57751.0,277866.0,86196.0,-1056.5773274996563,-1235.8217768545962,-1384.122844431896
277866,20550,277866.0,57669.0,277866.0,86174.0,-1067.9296419401728,-1247.7783795339064,-1398.00586615708
277866,20524,277866.0,57597.0,277866.0,86128.0,-1079.3011406176165,-1259.8828285119532,-1412.0105655546477
277866,20500,277866.0,57588.0,277866.0,86107.0,-1090.6968878847692,-1272.13968771485,-1426.1465013285892
277866,20485,277866.0,57553.0,277866.0,86067.0,-1102.1222328878378,-1284.5540788091819,-1440.4234690562396
277876,20479,277876.0,57557.0,277876.0,86073.0,-1113.5830978940185,-1297.1324047577832,-1454.8520323516711
277876,20472,277876.0,57517.0,277876.0,86082.0,-1125.0860513363916,-1309.8826273622328,-1469.4437482065316
277876,20477,277876.0,57541.0,277876.0,86078.0,-1136.6381775276168,-1322.8143758287845,-1484.210934386562
277876,20448,277876.0,57547.0,277876.0,86074.0,-1148.2468379474044,-1335.938839554582,-1499.166166719766
277876,20459,277876.0,57578.0,277876.0,86061.0,-1159.9194695869041,-1349.2682505497182,-1514.321829679452
277876,20443,277876.0,57654.0,277876.0,86071.0,-1171.663430234955,-1362.814855981084,-1529.6897866458137
277886,20436,277886.0,57623.0,277886.0,86062.0,-1183.4858074978167,-1376.5894492655373,-1545.281031840506
277886,20414,277886.0,57550.0,277886.0,86044.0,-1195.393256077279,-1390.6001332340252,-1561.1053012960379
277886,20396,277886.0,57502.0,277886.0,86006.0,-1207.3919743854858,-1404.852249988976,-1577.1708529768562
277886,20371,277886.0,57466.0,277886.0,85979.0,-1219.4878243303258,-1419.349361843869,-1593.4845958511062
277886,20353,277886.0,57433.0,277886.0,85958.0,-1231.6865455011973,-1434.0943745138636,-1610.052464436374
277886,20335,277886.0,57399.0,277886.0,85897.0,-1243.993992733672,-1449.0903673289133,-1626.8798645515906
277897,20331,277897.0,57371.0,277897.0,85920.0,-1256.416305797984,-1464.3412275001701,-1643.9721435321912
277897,20341,277897.0,57484.0,277897.0,85913.0,-1268.959891621754,-1479.8519061970574,-1661.3348479530014
277897,20323,277897.0,57436.0,277897.0,85899.0,-1281.6311621859277,-1495.6277802613574,-1678.9735217910556
277897,20311,277897.0,57427.0,277897.0,85918.0,-1294.436199906573,-1511.6734715332193,-1696.8932512701945
277897,20307,277897.0,57423.0,277897.0,85915.0,-1307.3805526717404,-1527.9921334624407,-1715.098136325565
277897,20317,277897.0,57518.0,277897.0,85873.0,-1320.4690571555784,-1544.5850328525885,-1733.5907269833035
277907,20297,277907.0,57444.0,277907.0,85890.0,-1333.7055161952746,-1561.4506131142405,-1752.3716613049621
277907,20268,277907.0,57347.0,277907.0,85847.0,-1347.0923859055797,-1578.5836420651447,-1771.4395230342795
277907,20245,277907.0,57334.0,277907.0,85842.0,-1360.63075370828,-1595.9756079713277,-1790.7907428658377
277907,20215,277907.0,57330.0,277907.0,85800.0,-1374.3206011270624,-1613.6158560424005,-1810.4195879046906
277907,20199,277907.0,57244.0,277907.0,85764.0,-1388.1611509624179,-1631.492318198813,-1830.3183345473376
277907,20189,277907.0,57215.0,277907.0,85747.0,-1402.1511389694788,-1649.5920408379866,-1850.4776087770686
277917,20170,277917.0,57241.0,277917.0,85728.0,-1416.288925064629,-1667.9018853665852,-1870.886718055957
277917,20182,277917.0,57258.0,277917.0,85735.0,-1430.5724380293004,-1686.4087482506698,-1891.533734291295
277917,20168,277917.0,57245.0,277917.0,85735.0,-1444.9989497179847,-1705.0989448334412,-1912.405231083058
277917,20160,277917.0,57264.0,277917.0,85694.0,-1459.5647274102942,-1723.957313872897,-1933.4858152783409
277917,20164,277917.0,57289.0,277917.0,85699.0,-1474.264691894692,-1742.9663710964232,-1954.7577689722987
277917,20153,277917.0,57292.0,277917.0,85726.0,-1489.092079386643,-1762.1053260957603,-1976.200770080299
277928,20111,277928.0,57188.0,277928.0,85700.0,-1504.0381418542977,-1781.3492181303043,-1997.79132374483
277928,20099,277928.0,57163.0,277928.0,85630.0,-1519.092106559133,-1800.6689081531588,-2019.5021501118083
277928,20073,277928.0,57146.0,277928.0,85588.0,-1534.2413910481098,-1820.0318772750911,-2041.3022395663434
277928,20062,277928.0,57092.0,277928.0,85573.0,-1549.4718149084888,-1839.4029846641286,-2063.157541906276
277928,20029,277928.0,57022.0,277928.0,85565.0,-1564.7677216698664,-1858.7450361667252,-2085.031543699308
277928,20032,277928.0,57044.0,277928.0,85529.0,-1580.1120740451772,-1878.0195209496671,-2106.885378743593
277938,20017,277938.0,57051.0,277938.0,85560.0,-1595.4864663520011,-1897.187112613367,-2128.6776691111363
277938,20017,277938.0,57080.0,277938.0,85521.0,-1610.8709615748496,-1916.2073369980567,-2150.364195170722
277938,20004,277938.0,57036.0,277938.0,85498.0,-1626.2438042592166,-1935.0376831837489,-2171.897501167612
277938,19989,277938.0,57030.0,277938.0,85494.0,-1641.5811333328013,-1953.6329017068888,-2193.2267008775034
277938,20000,277938.0,57113.0,277938.0,85501.0,-1656.8567319890594,-1971.9445601855755,-2214.297349285438
277938,19978,277938.0,57054.0,277938.0,85482.0,-1672.0417344609075,-1989.9202588081819,-2235.05106623947
277948,19954,277948.0,56979.0,277948.0,85410.0,-1687.104333035102,-2007.5027966541338,-2255.4251668097922
277948,19915,277948.0,56876.0,277948.0,85370.0,-1702.00972909027,-2024.630462279247,-2275.3528547422684
277948,19891,277948.0,56872.0,277948.0,85341.0,-1716.7204182312303,-2041.2385273121224,-2294.7639790071553
277948,19884,277948.0,56823.0,277948.0,85288.0,-1731.1965900571004,-2057.260801641123,-2313.5858577609247
277948,19867,277948.0,56850.0,277948.0,85302.0,-1745.3963604514638,-2072.6304731347955,-2331.7438927056173
277948,19853,277948.0,56840.0,277948.0,85314.0,-1759.275789109768,-2087.280227952101,-2349.1618021487784
277959,19856,277959.0,56864.0,277959.0,85289.0,-1772.7888010333922,-2101.141864066587,-2365.761325419061
277959,19831,277959.0,56839.0,277959.0,85275.0,-1785.8870478159865,-2114.1456774354347,-2381.4617593053213
277959,19822,277959.0,56822.0,277959.0,85246.0,-1798.519764854713,-2126.219987295738,-2396.1797924859925
277959,19816,277959.0,56871.0,277959.0,85273.0,-1810.6337029534009,-2137.2908858218743,-2409.8295474718216
277959,19796,277959.0,56885.0,277959.0,85245.0,-1822.1730772734384,-2147.2817854412933,-2422.322480631302
277959,19761,277959.0,56808.0,277959.0,85245.0,-1833.079567734867,-2156.112699424074,-2433.567124864884
277969,19746,277969.0,56764.0,277969.0,85169.0,-1843.2925325447995,-2163.70010211909,-2443.469042062922
277969,19725,277969.0,56688.0,277969.0,85122.0,-1852.7493820960995,-2169.957879375698,-2451.931364714933
277969,19690,277969.0,56664.0,277969.0,85107.0,-1861.3859593667632,-2174.7988800768458,-2458.855889242222
277969,19692,277969.0,56634.0,277969.0,85066.0,-1869.1369247909247,-2178.136407768976,-2464.1442162196154
277969,19673,277969.0,56626.0,277969.0,85065.0,-1875.9360889830607,-2179.885323295912,-2467.6986006619327
277969,19679,277969.0,56619.0,277969.0,85101.0,-1881.7165699538343,-2179.962732890672,-2469.4224548327293
277979,19642,277979.0,56659.0,277979.0,85058.0,-1886.4108498091614,-2178.2883008939793,-2469.220427803829
277979,19642,277979.0,56648.0,277979.0,85044.0,-1889.950929393947,-2174.784161442931,-2466.9984048702945
277979,19638,277979.0,56640.0,277979.0,85042.0,-1892.2685891327872,-2169.3746705257413,-2462.663889284403
277979,19644,277979.0,56728.0,277979.0,85083.0,-1893.2955477973605,-2161.9862356736057,-2456.1264779329476
277979,19621,277979.0,56691.0,277979.0,85036.0,-1892.9634748589997,-2152.54696467982,-2447.298015033708
277979,19598,277979.0,56672.0,277979.0,85030.0,-1891.2041156446403,-2140.986267271521,-2436.0927687775766
277990,19570,277990.0,56585.0,277990.0,84975.0,-1887.9497500636098,-2127.23524987718,-2422.4281457603147
277990,19551,277990.0,56599.0,277990.0,84957.0,-1883.133934488682,-2111.2281243248485,-2406.225931797261
277990,19537,277990.0,56534.0,277990.0,84953.0,-1876.69232862227,-2092.9039628287137,-2387.4137258363417
277990,19534,277990.0,56554.0,277990.0,84935.0,-1868.5634415153024,-2072.208281269579,-2365.926235562235
277990,19533,277990.0,56597.0,277990.0,84998.0,-1858.6892138111045,-2049.0942422465077,-2341.7062366633054
277990,19534,277990.0,56655.0,277990.0,85020.0,-1847.0154422399007,-2023.523121444167,-2314.705027864161
278000,19544,278000.0,56647.0,278000.0,85045.0,-1833.492102873546,-1995.4640570332094,-2284.8824017764073
278000,19557,278000.0,56698.0,278000.0,85078.0,-1818.0735910762687,-1964.8937532024665,-2252.2065358575164
278000,19573,278000.0,56790.0,278000.0,85125.0,-1800.7188615502837,-1931.796337144846,-2216.654013216514
278000,19583,278000.0,56808.0,278000.0,85167.0,-1781.3915043498537,-1896.1629027728163,-2178.2097941817065
278000,19592,278000.0,56846.0,278000.0,85198.0,-1760.0598553254108,-1857.9908529831591,-2136.8671029563934
278000,19586,278000.0,56785.0,278000.0,85196.0,-1736.697251450883,-1817.283809771831,-2092.6274949505505
278009,19585,278009.0,56854.0,278009.0,85257.0,-1711.2825170467913,-1774.05241809514,-2045.501303323728
278009,19614,278009.0,56860.0,278009.0,85303.0,-1683.8006169919029,-1728.3154969413335,-1995.5081995701548
278009,19617,278009.0,56815.0,278009.0,85304.0,-1654.2432489157381,-1680.1010677444244,-1942.6775844774809
278009,19664,278009.0,56924.0,278009.0,85398.0,-1622.6092493752003,-1629.4474780683367,-1887.0489868954446
278009,19699,278009.0,57074.0,278009.0,85477.0,-1588.9047980834814,-1576.4041420357744,-1828.6723722117931
278009,19737,278009.0,57147.0,278009.0,85554.0,-1553.1433959365354,-1521.0308540350336,-1767.6079322420533
278020,19776,278020.0,57257.0,278020.0,85616.0,-1515.3457259128095,-1463.3960869450784,-1703.925530974666
278020,19837,278020.0,57326.0,278020.0,85732.0,-1475.5394996153234,-1403.5754406408537,-1637.7042069408171
278020,19888,278020.0,57439.0,278020.0,85835.0,-1433.7591997411391,-1341.6504976145238,-1569.031578170895
278020,19953,278020.0,57517.0,278020.0,85909.0,-1390.0456588928052,-1277.7078181717352,-1498.0029630231436
278020,19971,278020.0,57499.0,278020.0,85972.0,-1344.4456253947094,-1211.8382041115956,-1424.7205884402247
278020,20011,278020.0,57542.0,278020.0,86053.0,-1297.0115940652552,-1144.1368331804497,-1349.2932751507017
278030,20049,278030.0,57592.0,278030.0,86121.0,-1247.8020016138623,-1074.704307895467,-1271.8364710340275
278030,20108,278030.0,57728.0,278030.0,86196.0,-1196.8815400865083,-1003.6476402074692,-1192.4723741305452
278030,20177,278030.0,57768.0,278030.0,86325.0,-1144.3212788543851,-931.0804057868306,-1111.3299897709803
278030,20264,278030.0,57925.0,278030.0,86437.0,-1090.1984412658185,-857.1222668282784,-1028.5448304946813
278030,20335,278030.0,57987.0,278030.0,86533.0,-1034.5958336583415,-781.8982442013963,-944.2581574383496
278030,20388,278030.0,58131.0,278030.0,86628.0,-977.6011488653386,-705.5378200727458,-858.6161615293443
278040,20470,278040.0,58233.0,278040.0,86748.0,-919.3064329549073,-628.173903385482,-771.7693733517548
278040,20548,278040.0,58372.0,278040.0,86910.0,-859.8076820088729,-549.9416337765273,-683.8720055400652
278040,20627,278040.0,58460.0,278040.0,87016.0,-799.2043372839371,-470.97706011409934,-595.0808443966569
278040,20701,278040.0,58570.0,278040.0,87099.0,-737.5986716015866,-391.4159402331885,-505.55396502046153
278040,20767,278040.0,58594.0,278040.0,87203.0,-675.0952296946933,-311.3929650789373,-415.44990842087157
278040,20840,278040.0,58624.0,278040.0,87284.0,-611.8004122927903,-231.04175701553424,-324.9274065703678
278051,20894,278051.0,58780.0,278051.0,87388.0,-547.8222066328067,-150.4955488892674,-234.1453102762764
278051,20960,278051.0,58786.0,278051.0,87517.0,-483.27006197218907,-69.88773609049485,-143.2624496202443
278051,21057,278051.0,58930.0,278051.0,87627.0,-418.25481756090244,10.648034603010728,-52.43720325589811
278051,21147,278051.0,59055.0,278051.0,87732.0,-352.88840632355675,90.97806361972721,38.17320834229781
278051,21226,278051.0,59135.0,278051.0,87868.0,-287.2832173341134,170.96927108999466,128.41347200687005
278051,21310,278051.0,59231.0,278051.0,87973.0,-221.55135833110478,250.49012698541765,218.13096227917526
278061,21382,278061.0,59374.0,278061.0,88102.0,-155.80403724758696,329.4113959649003,307.176628939221
278061,21476,278061.0,59535.0,278061.0,88234.0,-90.15104293993716,407.60710592220175,395.4059662436414
278061,21549,278061.0,59621.0,278061.0,88330.0,-24.700218308112653,484.95613903341655,482.6800585722408
278061,21598,278061.0,59649.0,278061.0,88369.0,40.44303119993049,561.3437532106948,568.8664137159722
278061,21687,278061.0,59682.0,278061.0,88458.0,105.17602112775955,636.6620017306391,653.8391026104023
278061,21749,278061.0,59724.0,278061.0,88548.0,169.39893379043076,710.8089677338507,737.4783636123093
278071,21806,278071.0,59771.0,278071.0,88617.0,233.0149975911703,783.6875557621945,819.6702845453397
278071,21878,278071.0,59841.0,278071.0,88690.0,295.9306201380772,855.2044406529506,900.3066675917794
278071,21948,278071.0,59964.0,278071.0,88813.0,358.0554600850163,925.2694946793838,979.2849289505025
278071,22026,278071.0,60075.0,278071.0,88884.0,419.302608699442,993.7960015551157,1056.5082290264768
278071,22092,278071.0,60122.0,278071.0,88980.0,479.58892455965656,1060.7015307071888,1131.8858830240079
278071,22154,278071.0,60207.0,278071.0,89070.0,538.8354027740659,1125.9087501326403,1205.3338000941822
278082,22235,278082.0,60332.0,278082.0,89140.0,596.9674964189319,1189.3459133726424,1276.7748770725866
278082,22312,278082.0,60437.0,278082.0,89237.0,653.91548786784,1250.9476039101069,1346.1393717923238
278082,22337,278082.0,60487.0,278082.0,89283.0,709.6149326636094,1310.6559275128652,1413.3652159728363
278082,22375,278082.0,60442.0,278082.0,89310.0,764.0068442777504,1368.4212844358917,1478.3980979300782
278082,22427,278082.0,60470.0,278082.0,89357.0,817.0374275717752,1424.2018329216253,1541.1910601142754
278082,22486,278082.0,60516.0,278082.0,89412.0,868.6577109573175,1477.9620038154094,1601.7037569302324
278092,22526,278092.0,60573.0,278092.0,89480.0,918.8234108962013,1529.6712535714641,1659.9018620925917
278092,22569,278092.0,60603.0,278092.0,89547.0,967.4949190303887,1579.3035344218124,1715.7568737314232
278092,22627,278092.0,60671.0,278092.0,89598.0,1014.6372454143345,1626.8371164217351,1769.2462171842885
278092,22665,278092.0,60734.0,278092.0,89627.0,1060.219987944829,1672.2545719964237,1820.3533590377233
278092,22711,278092.0,60754.0,278092.0,89667.0,1104.2173736487944,1715.5429661965227,1869.067666024936
278092,22745,278092.0,60823.0,278092.0,89751.0,1146.6082756807946,1756.6940589543774,1915.3841206284296
278103,22799,278103.0,60937.0,278103.0,89828.0,1187.37619068028,1795.704578450171,1959.3033794316016
278103,22853,278103.0,60957.0,278103.0,89803.0,1226.5093087193395,1832.5769746442124,2000.8322249806133
278103,22850,278103.0,60942.0,278103.0,89861.0,1264.0006824506634,1867.320266547716,2039.9837311696847
278103,22862,278103.0,60886.0,278103.0,89836.0,1299.8481558586177,1899.9499146294393,2076.776803976141
278103,22882,278103.0,60898.0,278103.0,89846.0,1334.0538322612229,1930.4864732058222,2111.235366287973
278103,22912,278103.0,60904.0,278103.0,89871.0,1366.6234013917096,1958.9538783678431,2143.387390625341
278113,22933,278113.0,60897.0,278113.0,89921.0,1397.5656857269405,1985.3781519618328,2173.2641007719676
278113,22952,278113.0,60989.0,278113.0,89936.0,1426.8923795826613,2009.7866625347233,2200.89967736468
278113,23000,278113.0,61006.0,278113.0,89947.0,1454.6178714192133,2032.208033485012,2226.331241809511
278113,22998,278113.0,61031.0,278113.0,89977.0,1480.759175295053,2052.672610520853,2249.5987268490912
278113,23038,278113.0,61075.0,278113.0,89990.0,1505.3359123207401,2071.212961332859,2270.7446568717514
278113,23054,278113.0,61136.0,278113.0,90033.0,1528.3702585957903,2087.864317453172,2289.8140491670647
278123,23069,278123.0,61165.0,278123.0,90042.0,1549.8869116148844,2102.66529520234,2306.854497493143
278123,23090,278123.0,61121.0,278123.0,90058.0,1569.913058241014,2115.6586476845605,2321.916327221807
278123,23068,278123.0,61060.0,278123.0,90013.0,1588.4782321472244,2126.8912391157205,2335.0525453000464
278123,23087,278123.0,61040.0,278123.0,90023.0,1605.6139708105043,2136.4129122648965,2346.3183425832226
278123,23086,278123.0,61008.0,278123.0,89975.0,1621.353335870042,2144.274858673145,2355.77023385605
278123,23093,278123.0,61034.0,278123.0,89999.0,1635.730496187397,2150.528277286894,2363.4651231629755
278134,23084,278134.0,61054.0,278134.0,90026.0,1648.7803907623638,2155.2236962831344,2369.459634643412
278134,23121,278134.0,61042.0,278134.0,90051.0,1660.5384177915148,2158.41092406447,2373.8100369087815
278134,23116,278134.0,61068.0,278134.0,90045.0,1671.0402843353122,2160.1392412654254,2376.5726458062663
278134,23121,278134.0,61090.0,278134.0,90038.0,1680.3220235489562,2160.457621692724,2377.8041735348966
278134,23137,278134.0,61099.0,278134.0,90034.0,1688.419986072453,2159.415132382059,2377.5617409941706
278134,23164,278134.0,61156.0,278134.0,90072.0,1695.370857033582,2157.0615658224565,2375.9027822356943
278144,23152,278144.0,61091.0,278144.0,90023.0,1701.2118512915636,2153.4481449043305,2372.8851265391786
278144,23137,278144.0,61112.0,278144.0,89986.0,1705.9808671741484,2148.627926609158,2368.5669790086663
278144,23128,278144.0,60986.0,278144.0,89988.0,1709.7163020435669,2142.6555263705973,2363.0064112933956
278144,23109,278144.0,60958.0,278144.0,89968.0,1712.4566013239255,2135.5860440216984,2356.260692447567
278144,23112,278144.0,60978.0,278144.0,89945.0,1714.2397745071323,2127.473582178883,2348.385870899301
278144,23111,278144.0,60918.0,278144.0,89928.0,1715.1030347524454,2118.370201213498,2339.4364559298147
278154,23105,278154.0,60959.0,278154.0,89923.0,1715.0826256165485,2108.3255438285464,2329.4650734112356
278154,23101,278154.0,60933.0,278154.0,89957.0,1714.2137507432606,2097.38678960541,2318.5223368910733
278154,23111,278154.0,60962.0,278154.0,89921.0,1712.530528442856,2085.5988853001195,2306.6571144578043
278154,23113,278154.0,60978.0,278154.0,89898.0,1710.0660469255067,2073.0050655501873,2293.9168700024884
278154,23125,278154.0,60976.0,278154.0,89959.0,1706.8525777735563,2059.6475896772586,2280.3478000436908
278154,23119,278154.0,61011.0,278154.0,89915.0,1702.9218797982935,2045.568585919928,2265.995136941532
278165,23110,278165.0,60928.0,278165.0,89884.0,1698.3054606934895,2030.8107689910503,2250.9036392629305
278165,23074,278165.0,60847.0,278165.0,89820.0,1693.034629511995,2015.4175074705881,2235.1175777453777
278165,23065,278165.0,60822.0,278165.0,89806.0,1687.140245856552,1999.4318733615858,2218.6800575641196
278165,23041,278165.0,60791.0,278165.0,89775.0,1680.652290247237,1982.895297746683,2201.632225929305
278165,23014,278165.0,60745.0,278165.0,89768.0,1673.5994307377614,1965.8466244658844,2184.012778492177
278165,23022,278165.0,60753.0,278165.0,89752.0,1666.0086374354912,1948.321554419903,2165.8577935932844
278175,23026,278175.0,60780.0,278175.0,89742.0,1657.9049876883398,1930.3524650862919,2147.200779777046
278175,23011,278175.0,60737.0,278175.0,89776.0,1649.3117885638062,1911.9687801588734,2128.0729293348563
278175,23018,278175.0,60751.0,278175.0,89697.0,1640.2508356986555,1893.1975401807397,2108.503564646624
278175,23004,278175.0,60730.0,278175.0,89714.0,1630.7426317001268,1874.0637907301855,2088.520444418389
278175,23023,278175.0,60783.0,278175.0,89727.0,1620.8066220787346,1854.5910139339708,2068.1498499384784
278175,23008,278175.0,60777.0,278175.0,89717.0,1610.46152899481,1834.801946520512,2047.4169462607233
278185,22999,278185.0,60707.0,278185.0,89671.0,1599.7257113559665,1814.7195327014824,2026.3463972225238
278185,22964,278185.0,60619.0,278185.0,89601.0,1588.6173462609304,1794.3671449860299,2004.962535296323
278185,22937,278185.0,60579.0,278185.0,89608.0,1577.1542935821656,1773.7676613704023,1983.2888729854747
278185,22936,278185.0,60536.0,278185.0,89559.0,1565.3537544059977,1752.9420781260849,1961.347505433048
278185,22912,278185.0,60519.0,278185.0,89516.0,1553.2320040537263,1731.9084669504025,1939.1587495460392
278185,22922,278185.0,60583.0,278185.0,89533.0,1540.8043468626072,1710.6816299650657,1916.740857029975
278196,22904,278196.0,60571.0,278196.0,89546.0,1528.0852476803468,1689.2736523305452,1894.1099888857584
278196,22897,278196.0,60545.0,278196.0,89508.0,1515.0885485098295,1667.6950059350393,1871.2807260027969
278196,22892,278196.0,60555.0,278196.0,89486.0,1501.8276767430332,1645.9554043865414,1848.2666559365623
278196,22886,278196.0,60549.0,278196.0,89522.0,1488.3158526282702,1624.0643016991035,1825.0806832648734
278196,22895,278196.0,60621.0,278196.0,89506.0,1474.5663845766248,1602.0315949167039,1801.735484009029
278196,22859,278196.0,60538.0,278196.0,89448.0,1460.593029614728,1579.868718561709,1778.2441907137827
278206,22837,278206.0,60446.0,278206.0,89424.0,1446.4102040354392,1557.5893615627342,1754.6206824405385
278206,22792,278206.0,60399.0,278206.0,89365.0,1432.03284142787,1535.2089239451122,1730.8792708025105
278206,22778,278206.0,60379.0,278206.0,89364.0,1417.4759704762453,1512.7431904436687,1707.034192409488
278206,22776,278206.0,60299.0,278206.0,89317.0,1402.7543176306333,1490.2072647910213,1683.0992472486764
278206,22735,278206.0,60359.0,278206.0,89299.0,1387.8821527297978,1467.6149787001748,1659.0876169497822
278206,22739,278206.0,60349.0,278206.0,89325.0,1372.8732657985247,1444.978876246402,1635.011850347546
278216,22727,278216.0,60317.0,278216.0,89301.0,1357.7409673018274,1422.3108581961862,1610.884204119363
278216,22703,278216.0,60260.0,278216.0,89249.0,1342.4981943816683,1399.6227613801202,1586.7172004739975
278216,22706,278216.0,60286.0,278216.0,89258.0,1327.1576700272597,1376.9263546465495,1562.5238915115988
278216,22704,278216.0,60337.0,278216.0,89257.0,1311.7320904733106,1354.2334350238048,1538.3179431719668
278216,22684,278216.0,60316.0,278216.0,89218.0,1296.2344375489333,1331.5567421222445,1514.1139754667106
278216,22655,278216.0,60230.0,278216.0,89148.0,1280.678263783304,1308.9110832676997,1489.92784891952
