c_ts,c_val,d_ts,d_val,e_ts,e_val,c_val_filtered,d_val_filtered,e_val_filtered
310582.0,14094.0,310582.0,29918.0,310582.0,30378.0,490.6172315474704,413.1586262020351,575.7012517584161
310582.0,14107.0,310582.0,29943.0,310582.0,30407.0,490.2542385002333,414.43442211069487,575.309588867802
310582.0,14118.0,310582.0,29934.0,310582.0,30400.0,489.7105651074311,415.52925144437296,574.6638308611913
310582.0,14116.0,310582.0,29955.0,310582.0,30422.0,488.97527852484825,416.42276512291994,573.7482449345608
310582.0,14111.0,310582.0,29962.0,310582.0,30405.0,488.038152920346,417.0954609309427,572.54826657839
310582.0,14133.0,310582.0,30059.0,310582.0,30438.0,486.8898708141142,417.5292090846267,571.0508289550631
310592.0,14146.0,310592.0,30070.0,310592.0,30453.0,485.5222856314418,417.7083435213019,569.2447582226272
310592.0,14108.0,310592.0,29992.0,310592.0,30397.0,483.9287923077875,417.6209248570254,567.1212392657076
310592.0,14088.0,310592.0,29941.0,310592.0,30370.0,482.10443181609105,417.2590017485241,564.6738826857327
310592.0,14060.0,310592.0,29922.0,310592.0,30348.0,480.04549507601297,416.61756950804556,561.898140368541
310592.0,14058.0,310592.0,29890.0,310592.0,30326.0,477.7489097277578,415.6932036917153,558.7905130337045
310592.0,14049.0,310592.0,29865.0,310592.0,30315.0,475.2117761878854,414.4830386890711,555.3479425207795
310603.0,14041.0,310603.0,29855.0,310603.0,30307.0,472.431144157859,412.98399834853774,551.5674091693902
310603.0,14045.0,310603.0,29886.0,310603.0,30356.0,469.4039386132364,411.1922848127698,547.4458234384451
310603.0,14064.0,310603.0,29908.0,310603.0,30323.0,466.1270292961936,409.10340291675357,542.9803494723767
310603.0,14047.0,310603.0,29908.0,310603.0,30309.0,462.59749642311317,406.7127101503391,538.1688531030914
310603.0,14028.0,310603.0,29940.0,310603.0,30321.0,458.81289033095453,404.0161159105625,533.010039272488
310603.0,14059.0,310603.0,29973.0,310603.0,30364.0,454.77129289790906,401.01079459222217,527.5035561864945
310613.0,14060.0,310613.0,29995.0,310613.0,30334.0,450.4714459187422,397.6960866736521,521.6505175231664
310613.0,14019.0,310613.0,29908.0,310613.0,30275.0,445.9130780324968,394.0743268143265,515.4540116456163
310613.0,13993.0,310613.0,29843.0,310613.0,30260.0,441.096966806831,390.15078341737575,508.9188935231249
310613.0,13985.0,310613.0,29808.0,310613.0,30227.0,436.02451540001954,385.9324363798207,502.05102722776144
310613.0,13976.0,310613.0,29802.0,310613.0,30210.0,430.6972626856902,381.42642866674146,494.85657787413476
310613.0,13955.0,310613.0,29783.0,310613.0,30203.0,425.1166242840359,376.6390576507568,487.3415430484554
310623.0,13976.0,310623.0,29787.0,310623.0,30196.0,419.283793621062,371.57535659197583,479.51151341266024
310623.0,13952.0,310623.0,29820.0,310623.0,30205.0,413.19978273136144,366.2390677356118,471.3716906216838
310623.0,13958.0,310623.0,29809.0,310623.0,30187.0,406.86557847745394,360.6330028148046,462.92710368123375
310623.0,13947.0,310623.0,29860.0,310623.0,30182.0,400.2822846301029,354.75969369111834,454.1828576271073
310623.0,13964.0,310623.0,29868.0,310623.0,30208.0,393.45127608026553,348.6222136300471,445.14436173895655
310623.0,13970.0,310623.0,29900.0,310623.0,30207.0,386.3745108477109,342.2251630424124,435.81773543886794
310634.0,13959.0,310634.0,29829.0,310634.0,30172.0,379.0549897149607,335.5755403024424,426.21036335733646
310634.0,13906.0,310634.0,29755.0,310634.0,30129.0,371.4970598568091,328.68284989164806,416.33111771440315
310634.0,13872.0,310634.0,29708.0,310634.0,30081.0,363.7061859512411,321.5581056316073,406.189946237686
310634.0,13874.0,310634.0,29717.0,310634.0,30057.0,355.6882857689931,314.21235201177745,395.79704996384925
310634.0,13839.0,310634.0,29687.0,310634.0,30041.0,347.4491461165621,306.6556625123675,385.1620857071876
310634.0,13839.0,310634.0,29673.0,310634.0,30041.0,338.9941233410809,298.8967542134894,374.29370857176855
310644.0,13840.0,310644.0,29675.0,310644.0,30032.0,330.32801690743634,290.9428055323981,363.1995149090225
310644.0,13825.0,310644.0,29718.0,310644.0,30047.0,321.4551239675604,282.7994849015403,351.8862761576052
310644.0,13824.0,310644.0,29703.0,310644.0,30014.0,312.37942012218815,274.4714451381691,340.3603135578737
310644.0,13827.0,310644.0,29710.0,310644.0,30008.0,303.104752902083,265.96305868016555,328.6277969753587
310644.0,13837.0,310644.0,29736.0,310644.0,30042.0,293.6351308052384,257.27903532710434,316.6949433354182
310644.0,13833.0,310644.0,29754.0,310644.0,30023.0,283.9751765631699,248.42506399129954,304.568426112366
310654.0,13791.0,310654.0,29718.0,310654.0,29964.0,274.1305421252666,239.40857745454522,292.2558884049086
310654.0,13745.0,310654.0,29587.0,310654.0,29936.0,264.1079087924704,230.23899436965704,279.7659360688288
310654.0,13720.0,310654.0,29585.0,310654.0,29890.0,253.91444279666007,220.92677650836254,267.1075175652462
310654.0,13723.0,310654.0,29549.0,310654.0,29881.0,243.55709871308903,211.48185950490728,254.28918403534493
310654.0,13701.0,310654.0,29523.0,310654.0,29846.0,233.04225009916297,201.91252124711633,241.31855311229742
310654.0,13688.0,310654.0,29570.0,310654.0,29860.0,222.37564308937,192.22492235807294,228.202032861855
310665.0,13689.0,310665.0,29569.0,310665.0,29869.0,211.56242179787614,182.42325172265396,214.94488452963196
310665.0,13681.0,310665.0,29561.0,310665.0,29838.0,200.6072172438557,172.51037162147907,201.5516279301134
310665.0,13673.0,310665.0,29559.0,310665.0,29843.0,189.5143603390331,162.4884503263753,188.026483716908
310665.0,13694.0,310665.0,29612.0,310665.0,29850.0,178.28818032998896,152.35943229724217,174.3736884568624
310665.0,13674.0,310665.0,29657.0,310665.0,29858.0,166.93341485464435,142.12585992022633,160.5979353249465
310665.0,13648.0,310665.0,29594.0,310665.0,29810.0,155.4556140876153,131.79211753749917,146.70494836634248
310675.0,13609.0,310675.0,29529.0,310675.0,29771.0,143.86121097090302,121.36516068852063,132.70172673221964
310675.0,13575.0,310675.0,29442.0,310675.0,29704.0,132.15715413644932,110.85392294834725,118.59614097438111
310675.0,13558.0,310675.0,29424.0,310675.0,29697.0,120.35032996928533,100.26777250574924,104.39608556849328
310675.0,13534.0,310675.0,29400.0,310675.0,29679.0,108.44705488670422,89.61501589951274,90.10871763093598
310675.0,13523.0,310675.0,29392.0,310675.0,29653.0,96.45276106081576,78.9020435995098,75.74011346913653
310675.0,13539.0,310675.0,29439.0,310675.0,29680.0,84.37190776063056,68.13315967219734,61.29526583420511
310685.0,13517.0,310685.0,29446.0,310685.0,29666.0,72.20817277541909,57.31106294386689,46.77836501141246
310685.0,13499.0,310685.0,29381.0,310685.0,29636.0,59.964765919283195,46.43764560060862,32.193274535101295
310685.0,13506.0,310685.0,29436.0,310685.0,29627.0,47.64461152609567,35.514445346703724,17.54383711383764
310685.0,13522.0,310685.0,29485.0,310685.0,29629.0,35.250549578268306,24.54297163356199,2.833955991596099
310685.0,13482.0,310685.0,29448.0,310685.0,29636.0,22.785757737897143,13.52560407863541,-11.932180070950267
310685.0,13450.0,310685.0,29400.0,310685.0,29607.0,10.254058243071427,2.4665267264785484,-26.749631191548588
310696.0,13420.0,310696.0,29327.0,310696.0,29551.0,-2.340260780029894,-8.628325937255056,-41.61239288364618
310696.0,13393.0,310696.0,29297.0,310696.0,29507.0,-14.992937699082859,-19.752278977273136,-56.513649724300194
310696.0,13379.0,310696.0,29284.0,310696.0,29478.0,-27.700201580393127,-30.899110129793257,-71.44650934794049
310696.0,13369.0,310696.0,29252.0,310696.0,29452.0,-40.459052525579864,-42.06384545044432,-86.4047535509568
310696.0,13370.0,310696.0,29285.0,310696.0,29471.0,-53.26729957411135,-53.24307268510398,-101.3832485268315
310696.0,13359.0,310696.0,29252.0,310696.0,29465.0,-66.12337246155937,-64.43486763674247,-116.37785860558608
310706.0,13341.0,310706.0,29244.0,310706.0,29427.0,-79.02605099432355,-75.63853398970247,-131.38502556555386
310706.0,13321.0,310706.0,29284.0,310706.0,29438.0,-91.97430232786957,-86.8543570076385,-146.40144066386245
310706.0,13333.0,310706.0,29307.0,310706.0,29437.0,-104.96722821808294,-98.08310198218356,-161.42384391323833
310706.0,13342.0,310706.0,29351.0,310706.0,29434.0,-118.00386324979104,-109.32495590248192,-176.44863906941407
310706.0,13310.0,310706.0,29286.0,310706.0,29388.0,-131.08272086964683,-120.57828672621787,-191.47142563025466
310706.0,13283.0,310706.0,29193.0,310706.0,29339.0,-144.20144141385862,-131.83912688817918,-206.48690735539378
310716.0,13238.0,310716.0,29178.0,310716.0,29314.0,-157.35689228891357,-143.10191334473888,-221.48933935086768
310716.0,13213.0,310716.0,29130.0,310716.0,29280.0,-170.54564955430334,-154.36084275973877,-236.4731880707924
310716.0,13194.0,310716.0,29111.0,310716.0,29274.0,-183.76456554384276,-165.61093537401786,-251.43362800677676
310716.0,13201.0,310716.0,29104.0,310716.0,29245.0,-197.01112717033703,-176.8486660730685,-266.36678012638083
310716.0,13184.0,310716.0,29114.0,310716.0,29259.0,-210.28345323567282,-188.0722214942515,-281.26973471469955
310716.0,13172.0,310716.0,29141.0,310716.0,29257.0,-223.58007046696315,-199.28127198295118,-296.1403304166972
310727.0,13173.0,310727.0,29145.0,310727.0,29218.0,-236.89969095435907,-210.47629084229527,-310.9767462458386
310727.0,13159.0,310727.0,29120.0,310727.0,29220.0,-250.24099509291602,-221.65775076483737,-325.77720412402084
310727.0,13172.0,310727.0,29178.0,310727.0,29256.0,-263.60233103444455,-232.82549493127118,-340.5397638073904
310727.0,13151.0,310727.0,29143.0,310727.0,29226.0,-276.9813307006226,-243.9781289725575,-355.26181159332145
310727.0,13119.0,310727.0,29111.0,310727.0,29158.0,-290.3745901510281,-255.11243381337897,-369.9394917993046
310727.0,13068.0,310727.0,29027.0,310727.0,29118.0,-303.7777017574763,-266.22337621003237,-384.5678339291611
310737.0,13037.0,310737.0,29011.0,310737.0,29095.0,-317.18575364905905,-277.3049518392992,-399.1415473215002
310737.0,13041.0,310737.0,28978.0,310737.0,29082.0,-330.5939849158177,-288.35130861962705,-413.6557609704946
310737.0,13001.0,310737.0,28949.0,310737.0,29067.0,-343.9981798402134,-299.3575898779434,-428.10633227330266
310737.0,12994.0,310737.0,28964.0,310737.0,29059.0,-357.39480333143194,-310.3204186164496,-442.4898442594283
310737.0,13009.0,310737.0,28964.0,310737.0,29038.0,-370.78103554926906,-321.23800886578204,-456.80348369189187
310737.0,12981.0,310737.0,28945.0,310737.0,29042.0,-384.15460060247085,-332.1099062587143,-471.04488717589936
310747.0,12975.0,310747.0,28984.0,310747.0,29025.0,-397.5134541776521,-342.93658454405966,-485.2119351355685
310747.0,12980.0,310747.0,29000.0,310747.0,29026.0,-410.85554874099023,-353.71888389892024,-499.30246945786314
310747.0,12988.0,310747.0,29027.0,310747.0,29028.0,-424.17854079807955,-364.45709473676857,-513.3139449993674
310747.0,12950.0,310747.0,28981.0,310747.0,28984.0,-437.4793431486854,-375.1499500830914,-527.24306967513
310747.0,12919.0,310747.0,28903.0,310747.0,28944.0,-450.7538662525309,-385.79421054015563,-541.0856963031611
310747.0,12876.0,310747.0,28882.0,310747.0,28907.0,-463.99724022701423,-396.38523853725906,-554.8371929713066
310758.0,12853.0,310758.0,28833.0,310758.0,28878.0,-477.2043759498175,-406.9181268686003,-568.4930977831376
310758.0,12832.0,310758.0,28796.0,310758.0,28859.0,-490.3705436495744,-417.3887462105399,-582.0497161199709
310758.0,12815.0,310758.0,28817.0,310758.0,28851.0,-503.49176879680124,-427.79452355864044,-595.504488542789
310758.0,12818.0,310758.0,28860.0,310758.0,28873.0,-516.5649948525237,-438.1346744608628,-608.8560201714351
310758.0,12806.0,310758.0,28832.0,310758.0,28835.0,-529.5880109803422,-448.409658426991,-622.1037615084521
310758.0,12790.0,310758.0,28827.0,310758.0,28847.0,-542.5592318445258,-458.620403951106,-635.2476038430867
310768.0,12784.0,310768.0,28856.0,310768.0,28834.0,-555.477503611149,-468.7678475236196,-648.2875875861729
310768.0,12819.0,310768.0,28879.0,310768.0,28847.0,-568.341877522478,-478.85246282036167,-661.2235818884463
310768.0,12793.0,310768.0,28863.0,310768.0,28844.0,-581.1511183630454,-488.87346435086204,-674.054810080125
310768.0,12757.0,310768.0,28816.0,310768.0,28762.0,-593.9031583243728,-498.8281429229877,-686.779453672943
310768.0,12703.0,310768.0,28716.0,310768.0,28741.0,-606.5950589098884,-508.71201495067976,-699.3948105299255
310768.0,12695.0,310768.0,28706.0,310768.0,28708.0,-619.2235598751488,-518.5199253281296,-711.8980234523026
310778.0,12686.0,310778.0,28688.0,310778.0,28700.0,-631.7856830587641,-528.2474139174624,-724.2867903649035
310778.0,12656.0,310778.0,28668.0,310778.0,28656.0,-644.2789965807444,-537.8915525054342,-736.5597607237328
310778.0,12664.0,310778.0,28680.0,310778.0,28675.0,-656.7016508071314,-547.4512118885542,-748.7167699948352
310778.0,12624.0,310778.0,28667.0,310778.0,28654.0,-669.0523763902386,-556.9270303555982,-760.7589082003833
310778.0,12636.0,310778.0,28688.0,310778.0,28665.0,-681.3304788502824,-566.3211625316652,-772.6883274251827
310778.0,12613.0,310778.0,28672.0,310778.0,28655.0,-693.535803434461,-575.6368793989423,-784.5078853924931
310789.0,12636.0,310789.0,28735.0,310789.0,28660.0,-705.6685731416617,-584.8780356230315,-796.2207403994362
310789.0,12643.0,310789.0,28758.0,310789.0,28676.0,-717.7289906433055,-594.0482057668829,-807.8298833631957
310789.0,12597.0,310789.0,28724.0,310789.0,28613.0,-729.7166992164957,-603.1495338052264,-819.3376675974937
310789.0,12571.0,310789.0,28640.0,310789.0,28591.0,-741.6305276720929,-612.1820688994414,-830.7456863338318
310789.0,12540.0,310789.0,28611.0,310789.0,28569.0,-753.4687661879908,-621.1442531746699,-842.055161836166
310789.0,12507.0,310789.0,28552.0,310789.0,28528.0,-765.2297079786434,-630.0341769883624,-853.2674959535261
310799.0,12491.0,310799.0,28555.0,310799.0,28500.0,-776.9121816265073,-638.850806407136,-864.3847796944881
310799.0,12479.0,310799.0,28563.0,310799.0,28514.0,-788.5159648446875,-647.5947215316642,-875.410263796633
310799.0,12481.0,310799.0,28557.0,310799.0,28517.0,-800.0419603061963,-656.2682240340794,-886.3485109472331
310799.0,12493.0,310799.0,28550.0,310799.0,28519.0,-811.4920586696801,-664.8750607811761,-897.2050656303884
310799.0,12479.0,310799.0,28574.0,310799.0,28504.0,-822.868739369789,-673.4200994102029,-907.9859369215833
310799.0,12460.0,310799.0,28587.0,310799.0,28483.0,-834.1746519642738,-681.9088930083699,-918.6972502329677
310809.0,12484.0,310809.0,28636.0,310809.0,28538.0,-845.4123601001279,-690.346923282344,-929.3450334201434
310809.0,12452.0,310809.0,28609.0,310809.0,28500.0,-856.5841043365326,-698.7385928817552,-939.9347910048727
310809.0,12444.0,310809.0,28546.0,310809.0,28462.0,-867.6915432738292,-707.0864969276937,-950.4709938213346
310809.0,12402.0,310809.0,28464.0,310809.0,28427.0,-878.7357137431223,-715.3916798897627,-960.9570910293671
310809.0,12357.0,310809.0,28463.0,310809.0,28404.0,-889.7173496413413,-723.6548635594489,-971.39607470785
310809.0,12354.0,310809.0,28454.0,310809.0,28402.0,-900.6374743796614,-731.8777131406823,-981.791058604641
310820.0,12329.0,310820.0,28486.0,310820.0,28357.0,-911.4979633587217,-740.06332991046,-992.1456058341214
310820.0,12339.0,310820.0,28449.0,310820.0,28373.0,-922.3017991831598,-748.2160331241666,-1002.4639248169694
310820.0,12341.0,310820.0,28450.0,310820.0,28364.0,-933.0529952682678,-756.3410280629641,-1012.7509515592503
310820.0,12327.0,310820.0,28450.0,310820.0,28372.0,-943.7562869070223,-764.4442919776328,-1023.012166357686
310820.0,12305.0,310820.0,28446.0,310820.0,28359.0,-954.416828471507,-772.5324915832404,-1033.2532135823133
310820.0,12329.0,310820.0,28486.0,310820.0,28369.0,-965.0400524274319,-780.6126890694909,-1043.479518642879
310830.0,12345.0,310830.0,28567.0,310830.0,28362.0,-975.6314167991549,-788.69158952549,-1053.6959222014948
310830.0,12307.0,310830.0,28509.0,310830.0,28323.0,-986.1958668767443,-796.7742384972279,-1063.9063739615892
310830.0,12278.0,310830.0,28427.0,310830.0,28297.0,-996.7374582373709,-804.8630477705436,-1074.1139226566331
310830.0,12253.0,310830.0,28374.0,310830.0,28276.0,-1007.2595274560935,-812.9582238197339,-1084.321070918675
310830.0,12230.0,310830.0,28352.0,310830.0,28248.0,-1017.7651715767222,-821.0592325480342,-1094.530239937576
310830.0,12194.0,310830.0,28318.0,310830.0,28237.0,-1028.2577266020235,-829.16616094582,-1104.7441556196545
310841.0,12181.0,310841.0,28303.0,310841.0,28204.0,-1038.7412307309778,-837.2805749699403,-1114.9661602103179
310841.0,12199.0,310841.0,28346.0,310841.0,28230.0,-1049.2207730676685,-845.4059424346191,-1125.2004229809045
310841.0,12208.0,310841.0,28366.0,310841.0,28197.0,-1059.7024322062693,-853.5474367006168,-1135.4519365423805
310841.0,12193.0,310841.0,28346.0,310841.0,28213.0,-1070.1928004824044,-861.7111736710121,-1145.726318889537
310841.0,12186.0,310841.0,28383.0,310841.0,28225.0,-1080.6984984438704,-869.9034283395076,-1156.029510061687
310841.0,12197.0,310841.0,28440.0,310841.0,28247.0,-1091.225889801604,-878.129903560283,-1166.367243845886
310851.0,12195.0,310851.0,28428.0,310851.0,28236.0,-1101.7807922584789,-886.3946542033206,-1176.7442761269397
310851.0,12166.0,310851.0,28349.0,310851.0,28191.0,-1112.3681131861554,-894.6990813881202,-1187.1637602871313
310851.0,12141.0,310851.0,28285.0,310851.0,28148.0,-1122.9916912635167,-903.0419984149503,-1197.6272207988861
310851.0,12099.0,310851.0,28264.0,310851.0,28113.0,-1133.6545361733117,-911.420818940594,-1208.1351532418616
310851.0,12095.0,310851.0,28247.0,310851.0,28116.0,-1144.3593245707189,-919.832887946468,-1218.687799400621
310851.0,12083.0,310851.0,28244.0,310851.0,28118.0,-1155.108832474239,-928.2762432183557,-1229.285571252642
310861.0,12064.0,310861.0,28207.0,310861.0,28102.0,-1165.906113758173,-936.7499045501892,-1239.9289882448634
310861.0,12064.0,310861.0,28255.0,310861.0,28088.0,-1176.754519768887,-945.253976073444,-1250.6184435451698
310861.0,12063.0,310861.0,28278.0,310861.0,28074.0,-1187.657638890937,-953.7894018705688,-1261.3541028122027
310861.0,12075.0,310861.0,28245.0,310861.0,28085.0,-1198.6190588186282,-962.3572514275795,-1272.135874762202
310861.0,12079.0,310861.0,28285.0,310861.0,28109.0,-1209.6419109473245,-970.9579942883005,-1282.9631722340418
310861.0,12069.0,310861.0,28342.0,310861.0,28088.0,-1220.7283181986202,-979.5908590018119,-1293.834350432616
310872.0,12040.0,310872.0,28286.0,310872.0,28072.0,-1231.8789870082846,-988.2528999500646,-1304.7461380771422
310872.0,12020.0,310872.0,28203.0,310872.0,28020.0,-1243.0931417383008,-996.938348851647,-1315.69349054253
310872.0,11984.0,310872.0,28179.0,310872.0,28008.0,-1254.3687772073192,-1005.6391515959757,-1326.6699298611868
310872.0,11955.0,310872.0,28146.0,310872.0,27980.0,-1265.7030978202556,-1014.3462534664172,-1337.668080330347
310872.0,11960.0,310872.0,28116.0,310872.0,27961.0,-1277.0929895538577,-1023.0506818521651,-1348.680110536859
310872.0,11938.0,310872.0,28120.0,310872.0,27951.0,-1288.5352962029142,-1031.7442223306998,-1359.6980273914473
310882.0,11942.0,310882.0,28162.0,310882.0,27988.0,-1300.0268230830725,-1040.4196600688638,-1370.7137414734852
310882.0,11927.0,310882.0,28130.0,310882.0,27967.0,-1311.5642059044178,-1049.0704451455226,-1381.7187197872336
310882.0,11920.0,310882.0,28135.0,310882.0,27937.0,-1323.1437501540977,-1057.6901402304788,-1392.7034649942507
310882.0,11919.0,310882.0,28164.0,310882.0,27972.0,-1334.761267407759,-1066.272043439164,-1403.6572423371133
310882.0,11935.0,310882.0,28215.0,310882.0,27965.0,-1346.411831791382,-1074.808646595524,-1414.5678501724
310882.0,11941.0,310882.0,28213.0,310882.0,27962.0,-1358.0893191211667,-1083.290583075558,-1425.4211248375263
310892.0,11889.0,310892.0,28147.0,310892.0,27891.0,-1369.7858725712938,-1091.7055997492653,-1436.2005546396333
310892.0,11853.0,310892.0,28066.0,310892.0,27884.0,-1381.4917767176767,-1100.0384963865324,-1446.8874769777167
310892.0,11832.0,310892.0,28041.0,310892.0,27848.0,-1393.1959223472443,-1108.2722373185036,-1457.4616972329777
310892.0,11835.0,310892.0,28037.0,310892.0,27844.0,-1404.8863968876985,-1116.3893777782287,-1467.9020463562501
310892.0,11807.0,310892.0,28012.0,310892.0,27827.0,-1416.550749521708,-1124.3729372800203,-1478.1866814977693
310892.0,11809.0,310892.0,28051.0,310892.0,27839.0,-1428.1760021961318,-1132.2066396398718,-1488.2931546438444
310903.0,11811.0,310903.0,28049.0,310903.0,27827.0,-1439.7485708486902,-1139.8746942207692,-1498.198258060891
310903.0,11805.0,310903.0,28062.0,310903.0,27833.0,-1451.2540426330293,-1147.3612342842798,-1507.877722152568
310903.0,11795.0,310903.0,28063.0,310903.0,27811.0,-1462.676848035303,-1154.6496861680946,-1517.3059142160355
310903.0,11799.0,310903.0,28076.0,310903.0,27850.0,-1473.9999760839153,-1161.7222377803255,-1526.4555651955297
310903.0,11803.0,310903.0,28159.0,310903.0,27839.0,-1485.204692686279,-1168.5591823241782,-1535.2973552756353
310903.0,11781.0,310903.0,28091.0,310903.0,27807.0,-1496.270193841165,-1175.1379293981304,-1543.799405748282
310913.0,11765.0,310913.0,28024.0,310913.0,27749.0,-1507.173356234221,-1181.4323215916443,-1551.9271739173887
310913.0,11723.0,310913.0,27986.0,310913.0,27739.0,-1517.888784216176,-1187.4131356052803,-1559.644009084333
310913.0,11696.0,310913.0,27967.0,310913.0,27701.0,-1528.3891802188205,-1193.0493882770186,-1566.911976100466
310913.0,11691.0,310913.0,27942.0,310913.0,27701.0,-1538.6458755038595,-1198.309456824408,-1573.6925125626808
310913.0,11674.0,310913.0,27919.0,310913.0,27699.0,-1548.6292307054737,-1203.1617876317985,-1579.9468014699482
310913.0,11683.0,310913.0,27930.0,310913.0,27703.0,-1558.3087532856293,-1207.5753929170787,-1585.6358322502053
310923.0,11675.0,310923.0,27961.0,310923.0,27696.0,-1567.6529854748087,-1211.5200310578757,-1590.7202262891387
310923.0,11668.0,310923.0,27968.0,310923.0,27704.0,-1576.6292749895524,-1214.9658712299133,-1595.1600063111528
310923.0,11674.0,310923.0,27949.0,310923.0,27707.0,-1585.2035428749844,-1217.882898327568,-1598.914363506059
310923.0,11660.0,310923.0,28011.0,310923.0,27731.0,-1593.340071792427,-1220.2404416208124,-1601.9413387025136
310923.0,11664.0,310923.0,27999.0,310923.0,27710.0,-1601.0013016914033,-1222.006684443807,-1604.1974087944502
310923.0,11633.0,310923.0,27991.0,310923.0,27695.0,-1608.1477008063039,-1223.148058777031,-1605.6372044150526
310934.0,11604.0,310934.0,27888.0,310934.0,27646.0,-1614.7378487822248,-1223.6291146591473,-1606.2136597783538
310934.0,11585.0,310934.0,27878.0,310934.0,27633.0,-1620.7288202259929,-1223.413377513083,-1605.8786406744975
310934.0,11557.0,310934.0,27878.0,310934.0,27623.0,-1626.076746569426,-1222.464725019592,-1604.5837586935027
310934.0,11561.0,310934.0,27874.0,310934.0,27595.0,-1630.7373390636094,-1220.7483456969694,-1602.281053475555
310934.0,11559.0,310934.0,27869.0,310934.0,27601.0,-1634.6662103940278,-1218.231073921736,-1598.923524304414
310934.0,11573.0,310934.0,27901.0,310934.0,27617.0,-1637.8188992053833,-1214.8814627293477,-1594.465520680741
310944.0,11561.0,310944.0,27862.0,310944.0,27603.0,-1640.1506738476755,-1210.6697512910773,-1588.86287399001
310944.0,11531.0,310944.0,27879.0,310944.0,27593.0,-1641.6163980786616,-1205.5678879564337,-1582.0729397059513
310944.0,11546.0,310944.0,27951.0,310944.0,27618.0,-1642.1706767070873,-1199.5495814906662,-1574.054788329658
310944.0,11573.0,310944.0,27981.0,310944.0,27630.0,-1641.7680377650872,-1192.5898410839616,-1564.7693521640858
310944.0,11544.0,310944.0,27969.0,310944.0,27645.0,-1640.3628126919298,-1184.6639938468227,-1554.1793147314454
310944.0,11523.0,310944.0,27891.0,310944.0,27601.0,-1637.909011461304,-1175.7471580633173,-1542.2490031315328
310954.0,11508.0,310954.0,27828.0,310954.0,27587.0,-1634.3606454159512,-1165.8149905834816,-1528.9447378577474
310954.0,11490.0,310954.0,27840.0,310954.0,27572.0,-1629.6723738210358,-1154.845419756673,-1514.2357039520687
310954.0,11469.0,310954.0,27830.0,310954.0,27587.0,-1623.8001922934234,-1142.8202860298716,-1498.0949216182505
310954.0,11476.0,310954.0,27853.0,310954.0,27576.0,-1616.7020977785717,-1129.726229145564,-1480.49996110059
310954.0,11484.0,310954.0,27929.0,310954.0,27617.0,-1608.338612087434,-1115.554865008347,-1461.433392568379
310954.0,11497.0,310954.0,27928.0,310954.0,27645.0,-1598.673017611406,-1100.302349785038,-1440.8829636271014
310965.0,11502.0,310965.0,27933.0,310965.0,27644.0,-1587.6713773160443,-1083.9687241128825,-1418.8415070380804
310965.0,11530.0,310965.0,27979.0,310965.0,27690.0,-1575.3024899527927,-1066.5576001376871,-1395.3068259332283
310965.0,11548.0,310965.0,28024.0,310965.0,27728.0,-1561.537777537375,-1048.075997107466,-1370.2816154426678
310965.0,11560.0,310965.0,28067.0,310965.0,27755.0,-1546.351085866394,-1028.533833644691,-1343.773210338908
310965.0,11544.0,310965.0,28046.0,310965.0,27760.0,-1529.7185872014495,-1007.9432687269639,-1315.7932901513877
310965.0,11536.0,310965.0,27991.0,310965.0,27779.0,-1511.6190470231552,-986.3186135249571,-1286.3578855445344
310975.0,11541.0,310975.0,28015.0,310975.0,27784.0,-1492.0344556185046,-963.6771880874859,-1255.4877199800892
310975.0,11553.0,310975.0,28035.0,310975.0,27840.0,-1470.9507297143086,-940.0405152824266,-1223.208639243492
310975.0,11575.0,310975.0,28061.0,310975.0,27855.0,-1448.3582196193518,-915.4350135972054,-1189.5518589997696
310975.0,11604.0,310975.0,28134.0,310975.0,27918.0,-1424.2519636316579,-889.8920565469173,-1154.55395870441
310975.0,11634.0,310975.0,28158.0,310975.0,27965.0,-1398.6317284653617,-863.4475819875175,-1118.2566775180987
310975.0,11662.0,310975.0,28199.0,310975.0,27998.0,-1371.5019147774162,-836.141483047255,-1080.7065575853144
310985.0,11685.0,310985.0,28256.0,310985.0,28043.0,-1342.8714492211216,-808.0170608140618,-1041.9546073650909
310985.0,11735.0,310985.0,28362.0,310985.0,28145.0,-1312.7537134739239,-779.120371549066,-1002.0559956505048
310985.0,11790.0,310985.0,28401.0,310985.0,28202.0,-1281.1663682878666,-749.4991068121597,-961.0694144064578
310985.0,11819.0,310985.0,28425.0,310985.0,28213.0,-1248.1309547529765,-719.201312626085,-919.0561754276333
310985.0,11821.0,310985.0,28417.0,310985.0,28256.0,-1213.6725393324002,-688.2747030169761,-876.0797107957497
310985.0,11842.0,310985.0,28423.0,310985.0,28291.0,-1177.8198067135172,-656.7668517256097,-832.2056714536558
310996.0,11873.0,310996.0,28423.0,310996.0,28344.0,-1140.6055531119785,-624.7259488873606,-787.5021604318222
310996.0,11915.0,310996.0,28461.0,310996.0,28363.0,-1102.0671622041846,-592.201667815212,-742.0398496775317
310996.0,11950.0,310996.0,28516.0,310996.0,28453.0,-1062.2468298878018,-559.2457315196344,-695.8920369624211
310996.0,12036.0,310996.0,28579.0,310996.0,28528.0,-1021.191532603884,-525.9119000968907,-649.1344665359347
310996.0,12076.0,310996.0,28630.0,310996.0,28570.0,-978.9526933282924,-492.2554299237811,-601.8447371109467
310996.0,12138.0,310996.0,28660.0,310996.0,28639.0,-935.5856307309929,-458.33237326089574,-554.1016185262529
311005.0,12187.0,311005.0,28744.0,311005.0,28726.0,-891.1490549470169,-424.1989957538663,-505.9845093291858
311005.0,12248.0,311005.0,28832.0,311005.0,28797.0,-845.7046830479471,-389.91109348710137,-457.5727656027535
311005.0,12307.0,311005.0,28888.0,311005.0,28835.0,-799.3168691050056,-355.522888030299,-408.94486811693434
311005.0,12354.0,311005.0,28871.0,311005.0,28856.0,-752.0522225616703,-321.08589028366544,-360.1778947421601
311005.0,12391.0,311005.0,28864.0,311005.0,28894.0,-703.9793281839335,-286.64858538352564,-311.34759711930485
311005.0,12440.0,311005.0,28860.0,311005.0,28961.0,-655.1686888765153,-252.257169727519,-262.52879171822144
311015.0,12496.0,311015.0,28931.0,311015.0,29011.0,-605.692806167928,-217.95664642727365,-213.79555082380136
311015.0,12539.0,311015.0,28913.0,311015.0,29064.0,-555.6262139414806,-183.7915228297013,-165.22106959663563
311015.0,12602.0,311015.0,29007.0,311015.0,29140.0,-505.0454367504526,-149.80604387611083,-116.87739703513648
311015.0,12684.0,311015.0,29060.0,311015.0,29175.0,-454.02884399105164,-116.04406508294414,-68.8351013216269
311015.0,12753.0,311015.0,29091.0,311015.0,29236.0,-402.65624162696747,-82.54850502220154,-21.162938049510444
311015.0,12809.0,311015.0,29140.0,311015.0,29273.0,-351.0082434504194,-49.36070372653285,26.072347388796743
311026.0,12884.0,311026.0,29215.0,311026.0,29364.0,-299.1656844053032,-16.519946693434576,72.80617452421052
311026.0,12970.0,311026.0,29297.0,311026.0,29446.0,-247.20909157936,15.937203017962588,118.97655143405791
311026.0,13022.0,311026.0,29289.0,311026.0,29473.0,-195.21804228351027,47.97787514266611,164.52484423212002
311026.0,13055.0,311026.0,29262.0,311026.0,29496.0,-143.2705786303586,79.57343968071416,209.3963905235364
311026.0,13098.0,311026.0,29251.0,311026.0,29501.0,-91.44304232929949,110.69896269685012,253.54043255526847
311026.0,13157.0,311026.0,29257.0,311026.0,29544.0,-39.81027859929554,141.3318951811333,296.90949123675364
311036.0,13194.0,311036.0,29286.0,311036.0,29579.0,11.554147429652176,171.4508194503146,339.45869266270745
311036.0,13256.0,311036.0,29323.0,311036.0,29622.0,62.57784972867148,201.03471120116853,381.14537855495644
311036.0,13333.0,311036.0,29375.0,311036.0,29718.0,113.18964425628815,230.06276244657363,421.92908910687834
311036.0,13404.0,311036.0,29408.0,311036.0,29745.0,163.31984984573955,258.5146223389436,461.7719722332937
311036.0,13460.0,311036.0,29449.0,311036.0,29767.0,212.90086332801275,286.3708116866087,500.6393453105238
311036.0,13525.0,311036.0,29493.0,311036.0,29828.0,261.86774603809886,313.6131337333544,538.4999330342191
311046.0,13578.0,311046.0,29571.0,311046.0,29905.0,310.15867615934917,340.2251708719558,575.3259727470643
311046.0,13637.0,311046.0,29632.0,311046.0,29922.0,357.71531150474016,366.1931046500101,611.0936537040536
311046.0,13688.0,311046.0,29565.0,311046.0,29921.0,404.48310318701465,391.50661269840884,645.7835673794989
311046.0,13694.0,311046.0,29565.0,311046.0,29926.0,450.4114710007093,416.15896068442976,679.3805381888913
311046.0,13741.0,311046.0,29541.0,311046.0,29934.0,495.4536500334041,440.14598607057985,711.8728716882204
311046.0,13767.0,311046.0,29569.0,311046.0,29953.0,539.5662546734682,463.464757090532,743.2514902582705
311057.0,13799.0,311057.0,29598.0,311057.0,29991.0,582.7088306938099,486.1126680148419,773.5092804638227
311057.0,13861.0,311057.0,29605.0,311057.0,30032.0,624.8435324173126,508.08709224197014,802.640806198368
311057.0,13916.0,311057.0,29662.0,311057.0,30066.0,665.9350456832155,529.3853646296914,830.6423939251249
311057.0,13967.0,311057.0,29719.0,311057.0,30095.0,705.9508489131838,550.0050364923457,857.5123999654522
311057.0,14007.0,311057.0,29684.0,311057.0,30116.0,744.8616231937754,569.9443972784375,883.2514353228642
311057.0,14047.0,311057.0,29768.0,311057.0,30158.0,782.641563511555,589.2028744521576,907.8624934566699
311067.0,14120.0,311067.0,29839.0,311067.0,30215.0,819.2686123276703,607.7813763896881,931.3511631212709
311067.0,14128.0,311067.0,29818.0,311067.0,30187.0,854.7247681067379,625.6830660194323,953.7260071232536
311067.0,14138.0,311067.0,29770.0,311067.0,30195.0,888.9962873813286,642.9139762700265,974.9986980255865
311067.0,14138.0,311067.0,29740.0,311067.0,30182.0,922.0733984570272,659.4824836974212,995.183570541557
311067.0,14160.0,311067.0,29756.0,311067.0,30181.0,953.9495818528878,675.3979436631942,1014.2968432150203
311067.0,14180.0,311067.0,29755.0,311067.0,30190.0,984.6208265986959,690.6694986700049,1032.3558570166174
311078.0,14203.0,311078.0,29753.0,311078.0,30218.0,1014.0851054616239,705.3054177694614,1049.3785165280426
311078.0,14262.0,311078.0,29792.0,311078.0,30222.0,1042.3421198383958,719.3127340344954,1065.3830464933603
311078.0,14272.0,311078.0,29865.0,311078.0,30261.0,1069.3933406958843,732.6972466198918,1080.3879943598918
311078.0,14325.0,311078.0,29884.0,311078.0,30280.0,1095.2422362941845,745.4641644338963,1094.412391203178
311078.0,14340.0,311078.0,29890.0,311078.0,30310.0,1119.8945126072877,757.6190492200562,1107.4760744843666
311078.0,14381.0,311078.0,29970.0,311078.0,30341.0,1143.3583359745066,769.168525634587,1119.6001254772073
311088.0,14414.0,311088.0,29994.0,311088.0,30325.0,1165.644576249485,780.1209706197637,1130.807293225938
311088.0,14399.0,311088.0,29944.0,311088.0,30324.0,1186.7670216143201,790.4873032729517,1141.1221594801991
311088.0,14390.0,311088.0,29895.0,311088.0,30298.0,1206.7422915081227,800.2810897334955,1150.57086376195
311088.0,14407.0,311088.0,29865.0,311088.0,30287.0,1225.5892934281737,809.5175114494143,1159.1804889617363
311088.0,14391.0,311088.0,29871.0,311088.0,30287.0,1243.3285286581227,818.2118783923631,1166.9783413810494
311088.0,14428.0,311088.0,29866.0,311088.0,30276.0,1259.9815417874468,826.3785184984154,1173.9913348242997
311098.0,14428.0,311098.0,29918.0,311098.0,30287.0,1275.5705821776887,834.0303039175308,1180.24556084152
311098.0,14448.0,311098.0,29918.0,311098.0,30315.0,1290.118470616559,841.1787468362174,1185.7660827111781
311098.0,14470.0,311098.0,29913.0,311098.0,30306.0,1303.6485793793897,847.834356854823,1190.577017083417
311098.0,14473.0,311098.0,29946.0,311098.0,30333.0,1316.1848743709975,854.0068588506788,1194.701774981054
311098.0,14488.0,311098.0,30022.0,311098.0,30348.0,1327.7519720494997,859.7054551428605,1198.1633257885856
311098.0,14508.0,311098.0,30032.0,311098.0,30371.0,1338.37516179048,864.9396335206948,1200.9845745368216
311109.0,14519.0,311109.0,30011.0,311109.0,30351.0,1348.0804778936072,869.7202132246596,1203.1888092387646
311109.0,14498.0,311109.0,29972.0,311109.0,30327.0,1356.894783989079,874.0597421762532,1204.799885643477
311109.0,14475.0,311109.0,29944.0,311109.0,30296.0,1364.8455796139133,877.9719617840381,1205.841903786003
311109.0,14478.0,311109.0,29918.0,311109.0,30269.0,1371.960420838934,881.4707760508672,1206.3384747304126
311109.0,14463.0,311109.0,29903.0,311109.0,30276.0,1378.2662414351269,884.5691981030145,1206.311902556841
311109.0,14477.0,311109.0,29919.0,311109.0,30287.0,1383.788848925488,887.2785388156628,1205.7826511817038
311119.0,14502.0,311119.0,29941.0,311119.0,30296.0,1388.5526917997975,889.6080435467782,1204.7692875521552
311119.0,14514.0,311119.0,29975.0,311119.0,30287.0,1392.5809739648184,891.5650838775061,1203.2887204463777
311119.0,14505.0,311119.0,29960.0,311119.0,30286.0,1395.8959780281093,893.1557057362029,1201.356402389802
311119.0,14516.0,311119.0,29997.0,311119.0,30314.0,1398.5192728698485,894.3851552281458,1198.98644354673
311119.0,14549.0,311119.0,30039.0,311119.0,30335.0,1400.4718128759876,895.2583617320188,1196.1919082638601
311119.0,14569.0,311119.0,30066.0,311119.0,30344.0,1401.7742579997093,895.7807018801116,1192.9854253473572
311129.0,14530.0,311129.0,30021.0,311129.0,30309.0,1402.4474775441035,895.9588904509999,1189.3797918978228
311129.0,14501.0,311129.0,29975.0,311129.0,30272.0,1402.5126784500148,895.801261360293,1185.388086621851
311129.0,14485.0,311129.0,29935.0,311129.0,30257.0,1401.9908842144182,895.3170783103806,1181.0231788788767
311129.0,14483.0,311129.0,29927.0,311129.0,30243.0,1400.9021846944115,894.5153443416211,1176.2970256485523
311129.0,14473.0,311129.0,29896.0,311129.0,30238.0,1399.2652215829696,893.4037535439834,1171.2201688509397
311129.0,14490.0,311129.0,29924.0,311129.0,30255.0,1397.096977723104,891.9880214297898,1165.8015479938556
311140.0,14499.0,311140.0,29943.0,311140.0,30239.0,1394.4128291889883,890.2716767029665,1160.0485974554915
311140.0,14505.0,311140.0,29963.0,311140.0,30253.0,1391.2268353016577,888.2563870983104,1153.9674905016018
311140.0,14483.0,311140.0,29941.0,311140.0,30244.0,1387.552069780152,885.9425399019754,1147.5633861115773
311140.0,14491.0,311140.0,30015.0,311140.0,30269.0,1383.400755796883,883.3297452041561,1140.8407107907049
311140.0,14534.0,311140.0,30060.0,311140.0,30277.0,1378.784350220878,880.4175472071918,1133.8035885262852
311140.0,14518.0,311140.0,30032.0,311140.0,30263.0,1373.713938897164,877.2065904837057,1126.4563863598767
311150.0,14489.0,311150.0,29993.0,311150.0,30240.0,1368.2007543829338,873.6995227675504,1118.804096163994
311150.0,14468.0,311150.0,29925.0,311150.0,30198.0,1362.2562471148422,869.9008328571708,1110.852279277428
311150.0,14446.0,311150.0,29894.0,311150.0,30202.0,1355.8916691708248,865.815755090521,1102.6066385985866
311150.0,14440.0,311150.0,29889.0,311150.0,30173.0,1349.1175689341726,861.448946537877,1094.0725579475065
311150.0,14434.0,311150.0,29889.0,311150.0,30168.0,1341.9434553398594,856.8035863746609,1085.2548189859226
311150.0,14447.0,311150.0,29918.0,311150.0,30183.0,1334.3777163646332,851.8811401438792,1076.157495527175
311160.0,14449.0,311160.0,29953.0,311160.0,30185.0,1326.4278096696155,846.681726075614,1066.7841100798296
311160.0,14446.0,311160.0,29979.0,311160.0,30165.0,1318.1006300086142,841.2049660366276,1057.138020112562
311160.0,14443.0,311160.0,29951.0,311160.0,30186.0,1309.4028689996157,835.4509811117656,1047.2227708399944
311160.0,14464.0,311160.0,30018.0,311160.0,30197.0,1300.3413245343809,829.4211493343707,1037.0424366770085
311160.0,14463.0,311160.0,30003.0,311160.0,30187.0,1290.9233093602886,823.1187591153159,1026.6021414704758
311160.0,14432.0,311160.0,29982.0,311160.0,30153.0,1281.1571140878757,816.5496939045815,1015.9085347619196
311171.0,14396.0,311171.0,29890.0,311171.0,30127.0,1271.0521560674074,809.7225975217322,1004.9698454760082
311171.0,14375.0,311171.0,29859.0,311171.0,30087.0,1260.6186357792485,802.648052487615,993.7954986538332
311171.0,14361.0,311171.0,29845.0,311171.0,30091.0,1249.8669918534663,795.3372183301927,982.3955762664712
311171.0,14329.0,311171.0,29861.0,311171.0,30066.0,1238.8074680725615,787.8008300927887,970.7804294162199
311171.0,14349.0,311171.0,29883.0,311171.0,30087.0,1227.4498466677264,780.0490160812595,958.9605933839426
311171.0,14360.0,311171.0,29857.0,311171.0,30056.0,1215.8034629335868,772.0916997567014,946.9469525733324
311181.0,14345.0,311181.0,29837.0,311181.0,30050.0,1203.8776040545617,763.9389823765035,934.7509546623596
311181.0,14329.0,311181.0,29857.0,311181.0,30052.0,1191.681980184925,755.601188335652,922.3847319476041
311181.0,14322.0,311181.0,29869.0,311181.0,30068.0,1179.226931540616,747.0889209581215,909.8612974768077
311181.0,14341.0,311181.0,29928.0,311181.0,30071.0,1166.5235290348717,738.4135918320987,897.1950280631745
311181.0,14327.0,311181.0,29878.0,311181.0,30044.0,1153.5838757251622,729.5883545317106,884.4022718564962
311181.0,14293.0,311181.0,29831.0,311181.0,30011.0,1140.421495381558,720.6287542823462,871.5016772794179
311191.0,14256.0,311191.0,29756.0,311191.0,29932.0,1127.0513888726684,711.5523909085979,858.5139432864808
311191.0,14222.0,311191.0,29753.0,311191.0,29918.0,1113.4896223429205,702.3777544400731,845.4609903466488
311191.0,14198.0,311191.0,29706.0,311191.0,29885.0,1099.7527016895674,693.1230220689218,832.3649542098739
311191.0,14185.0,311191.0,29741.0,311191.0,29866.0,1085.8570282906128,683.8053218061439,819.2474611451671
311191.0,14198.0,311191.0,29763.0,311191.0,29872.0,1071.8186418764126,674.4406282041376,806.1292709647666
311191.0,14180.0,311191.0,29733.0,311191.0,29880.0,1057.653337037808,665.0442349530863,793.0302749979178
311202.0,14175.0,311202.0,29735.0,311202.0,29875.0,1043.3769848826928,655.6312898058912,779.9698625083147
311202.0,14181.0,311202.0,29717.0,311202.0,29831.0,1029.0058427885529,646.2169784928652,766.9673574209219
311202.0,14152.0,311202.0,29761.0,311202.0,29870.0,1014.5568456613846,636.8166141431793,754.0422150968798
311202.0,14159.0,311202.0,29781.0,311202.0,29875.0,1000.0478660279335,627.4460911009834,741.2142456564959
311202.0,14124.0,311202.0,29721.0,311202.0,29818.0,985.4978736031292,618.1226378747108,728.5040999901596
311202.0,14085.0,311202.0,29659.0,311202.0,29775.0,970.9269249456843,608.86508754343,715.9334592657119
311212.0,14044.0,311212.0,29633.0,311212.0,29730.0,956.3558287865945,599.6931631799067,703.524469903587
311212.0,14019.0,311212.0,29611.0,311212.0,29716.0,941.8055126947115,590.6263402816659,691.2988199726998
311212.0,14009.0,311212.0,29568.0,311212.0,29698.0,927.2964081374585,581.6829554358617,679.2770168705678
311212.0,14001.0,311212.0,29580.0,311212.0,29688.0,912.8481305163298,572.8795889336916,667.4780315407216
311212.0,14007.0,311212.0,29592.0,311212.0,29687.0,898.479510184494,564.2307389639558,655.9192175023007
311212.0,13986.0,311212.0,29608.0,311212.0,29692.0,884.2088584596908,555.749005414281,644.6164352727981
311222.0,13956.0,311222.0,29609.0,311222.0,29685.0,870.0542110079872,547.4456735275123,633.5843593590268
311222.0,13957.0,311222.0,29580.0,311222.0,29681.0,856.0333476547229,539.3312699944601,622.8368478990736
311222.0,13960.0,311222.0,29645.0,311222.0,29679.0,842.1637641003393,531.415910998971,612.3872530515671
311222.0,13939.0,311222.0,29646.0,311222.0,29664.0,828.4628560233245,523.7097980405536,602.2486635834308
311222.0,13890.0,311222.0,29573.0,311222.0,29630.0,814.9481045353517,516.2239077439419,592.4340185083202
311222.0,13864.0,311222.0,29506.0,311222.0,29598.0,801.6368637524581,508.9700111928425,582.9559254061545
311233.0,13848.0,311233.0,29484.0,311233.0,29563.0,788.545818725208,501.9595994778857,573.8261465805366
311233.0,13826.0,311233.0,29437.0,311233.0,29543.0,775.6905098201402,495.202459817623,565.0549246685366
311233.0,13805.0,311233.0,29469.0,311233.0,29562.0,763.0850545601736,488.70564662626936,556.6504387457353
311233.0,13818.0,311233.0,29489.0,311233.0,29567.0,750.7419935714888,482.47313256980584,548.6186982059903
311233.0,13811.0,311233.0,29526.0,311233.0,29551.0,738.6723472009616,476.5062365252125,540.9638579627459
311233.0,13803.0,311233.0,29506.0,311233.0,29534.0,726.885908704749,470.8045085618228,533.688525746497
311243.0,13778.0,311243.0,29526.0,311243.0,29557.0,715.3915206828913,465.3664951320967,526.7938407746218
311243.0,13801.0,311243.0,29561.0,311243.0,29577.0,704.1971968259406,460.19027114624305,520.2796474999145
311243.0,13794.0,311243.0,29582.0,311243.0,29573.0,693.3103072445344,455.27411537759554,514.1450193839487
311243.0,13773.0,311243.0,29560.0,311243.0,29538.0,682.7379262802253,450.6173677002279,508.38879878023556
311243.0,13754.0,311243.0,29430.0,311243.0,29519.0,672.4870511392377,446.2207437143834,503.00967130633006
311243.0,13714.0,311243.0,29454.0,311243.0,29497.0,662.564468508421,442.0854733565247,498.0057747404551
311253.0,13697.0,311253.0,29419.0,311253.0,29489.0,652.9763377340563,438.2118705952889,493.3741946151475
311253.0,13685.0,311253.0,29426.0,311253.0,29478.0,643.7276927199966,434.5984108064418,489.1105853726935
311253.0,13678.0,311253.0,29425.0,311253.0,29471.0,634.8220971024666,431.24143522951533,485.20894146643917
311253.0,13690.0,311253.0,29438.0,311253.0,29477.0,626.2615719416676,428.13515471996004,481.6614861723522
311253.0,13678.0,311253.0,29441.0,311253.0,29486.0,618.0467654595017,425.2718618479446,478.45871270923806
311253.0,13662.0,311253.0,29478.0,311253.0,29480.0,610.1771907156983,422.6423130769847,475.5895920838066
311264.0,13681.0,311264.0,29470.0,311264.0,29518.0,602.6513632291603,420.23626305186633,473.0418872530692
311264.0,13697.0,311264.0,29561.0,311264.0,29550.0,595.4670004532875,418.04318771258136,470.80266906925044
311264.0,13677.0,311264.0,29516.0,311264.0,29519.0,588.6214571874898,416.0532350040746,468.85906474974934
311264.0,13649.0,311264.0,29524.0,311264.0,29462.0,582.1120812929871,414.2580817377669,467.19868680666013
311264.0,13616.0,311264.0,29441.0,311264.0,29489.0,575.9360931457213,412.6510877745822,465.8092875115941
311264.0,13615.0,311264.0,29395.0,311264.0,29471.0,570.0900840271767,411.226525188482,464.6781553458106
311274.0,13597.0,311274.0,29381.0,311274.0,29442.0,564.5695301958415,409.9782145246809,463.79179821715445
311274.0,13579.0,311274.0,29398.0,311274.0,29460.0,559.3684907237176,408.8982968925188,463.1357054180893
311274.0,13608.0,311274.0,29430.0,311274.0,29483.0,554.4794325842978,407.9767856499012,462.6941644800176
311274.0,13606.0,311274.0,29460.0,311274.0,29478.0,549.8932904422061,407.2019404380394,462.4504450459315
311274.0,13605.0,311274.0,29446.0,311274.0,29480.0,545.5998038839218,406.56102878683686,462.3871822987056
311274.0,13616.0,311274.0,29463.0,311274.0,29498.0,541.5878814371019,406.04094949509226,462.48663871062047
311284.0,13630.0,311284.0,29490.0,311284.0,29522.0,537.8459148027765,405.6286028357902,462.73097014052007
311284.0,13633.0,311284.0,29538.0,311284.0,29553.0,534.3621772174739,405.3113965548863,463.1027437393805
311284.0,13611.0,311284.0,29503.0,311284.0,29499.0,531.1252091755457,405.07803378540825,463.5855524071925
311284.0,13577.0,311284.0,29440.0,311284.0,29477.0,528.123884280814,404.91896806512216,464.1641678124813
311284.0,13569.0,311284.0,29411.0,311284.0,29487.0,525.3470361975603,404.82588025395705,464.82405036860507
311284.0,13559.0,311284.0,29412.0,311284.0,29451.0,522.7829141945056,404.7905196737173,465.5507367583855
311295.0,13548.0,311295.0,29349.0,311295.0,29463.0,520.4187813246494,404.803674717121,466.3294252315791
311295.0,13564.0,311295.0,29413.0,311295.0,29469.0,518.240714313841,404.8544634371509,467.1447004614972
311295.0,13578.0,311295.0,29466.0,311295.0,29483.0,516.2336359276561,404.93016298544626,467.9804996283574
311295.0,13590.0,311295.0,29468.0,311295.0,29471.0,514.3816369290244,405.016930378241,468.82031213285813
311295.0,13581.0,311295.0,29449.0,311295.0,29499.0,512.6684262117159,405.10083216254907,469.64739489551107
311295.0,13585.0,311295.0,29471.0,311295.0,29509.0,511.07764653440387,405.1683354814826,470.4450118662583
311305.0,13626.0,311305.0,29573.0,311305.0,29540.0,509.59309077903623,405.206602986715,471.1968622011794
311305.0,13621.0,311305.0,29501.0,311305.0,29535.0,508.19910460006486,405.2043084213203,471.88765918940396
311305.0,13573.0,311305.0,29469.0,311305.0,29512.0,506.88103836931134,405.1523864005418,472.5035730813855
311305.0,13550.0,311305.0,29429.0,311305.0,29464.0,505.6251660876664,405.0437089396031,473.03217606186
311305.0,13556.0,311305.0,29410.0,311305.0,29477.0,504.4180434056984,404.87198043952947,473.46184326955245
311305.0,13538.0,311305.0,29388.0,311305.0,29462.0,503.24591231719387,404.6306730020485,473.7810716785225
311316.0,13539.0,311316.0,29376.0,311316.0,29472.0,502.0944160501605,404.31223097194504,473.9781280387335
311316.0,13582.0,311316.0,29434.0,311316.0,29458.0,500.94854567916593,403.90761778321223,474.0409574465039
311316.0,13580.0,311316.0,29440.0,311316.0,29500.0,499.7929302264601,403.4064664175439,473.957215312822
311316.0,13563.0,311316.0,29408.0,311316.0,29498.0,498.61234728544065,402.7976597255391,473.71452227910623
311316.0,13586.0,311316.0,29487.0,311316.0,29502.0,497.39202562881655,402.06978644097444,473.30091616621644
311316.0,13581.0,311316.0,29540.0,311316.0,29535.0,496.1177544534554,401.211705965352,472.7052868359375
311326.0,13597.0,311326.0,29553.0,311326.0,29544.0,494.7760830549217,400.21376058682137,471.91783279389654
311326.0,13580.0,311326.0,29449.0,311326.0,29497.0,493.3545790073408,399.06893729561307,470.9305277423185
311326.0,13573.0,311326.0,29440.0,311326.0,29484.0,491.8419510023805,397.77280776434895,469.73716431806935
311326.0,13558.0,311326.0,29401.0,311326.0,29436.0,490.22795175034224,396.3223843317299,468.3327931401973
311326.0,13543.0,311326.0,29399.0,311326.0,29453.0,488.5031159484344,394.7149384047222,466.71292771274886
311326.0,13524.0,311326.0,29365.0,311326.0,29430.0,486.65841055088015,392.9472266084726,464.87293830830987
311336.0,13531.0,311336.0,29360.0,311336.0,29437.0,484.68486443308984,391.01492038929894,462.8077645024036
311336.0,13546.0,311336.0,29422.0,311336.0,29454.0,482.5733639269253,388.912261444345,460.51186758693933
311336.0,13540.0,311336.0,29452.0,311336.0,29467.0,480.31475820157317,386.63236809986927,457.97943516773074
311336.0,13544.0,311336.0,29443.0,311336.0,29461.0,477.90011895607114,384.1681928181292,455.20480574085974
311336.0,13555.0,311336.0,29454.0,311336.0,29467.0,475.3209624615404,381.5134227425566,452.1828645117133
311336.0,13578.0,311336.0,29524.0,311336.0,29488.0,472.5695253029745,378.6630705303639,448.90933170725754
311347.0,13563.0,311347.0,29521.0,311347.0,29476.0,469.63918920265246,375.61426361550014,445.3810973418466
311347.0,13531.0,311347.0,29420.0,311347.0,29466.0,466.5247920858553,372.36704991565045,441.59654185663794
311347.0,13519.0,311347.0,29373.0,311347.0,29413.0,463.22249775595316,368.92415761761094,437.5555391705848
311347.0,13496.0,311347.0,29336.0,311347.0,29383.0,459.7293214834646,365.2895572638072,433.25895398879277
311347.0,13489.0,311347.0,29334.0,311347.0,29380.0,456.0426334074496,361.46689661252196,428.7078155117978
311347.0,13472.0,311347.0,29309.0,311347.0,29366.0,452.1597713921971,357.45853872370867,423.9026309569292
311357.0,13477.0,311357.0,29372.0,311357.0,29402.0,448.0777694993411,353.2652132847476,418.8431464703852
311357.0,13488.0,311357.0,29377.0,311357.0,29403.0,443.79326894572165,348.88629324580427,413.52858172336926
311357.0,13481.0,311357.0,29373.0,311357.0,29374.0,439.3026662819934,344.3205429335247,407.95810142129613
311357.0,13497.0,311357.0,29377.0,311357.0,29385.0,434.6023997343723,339.56677708372587,402.1310906688501
311357.0,13508.0,311357.0,29434.0,311357.0,29428.0,429.6892928708805,334.6242972562722,396.04728075655095
311357.0,13509.0,311357.0,29469.0,311357.0,29425.0,424.5609901023081,329.4936257534413,389.7072211916735
311367.0,13475.0,311367.0,29408.0,311367.0,29385.0,419.21633638073877,324.17756335883786,383.1129644078758
311367.0,13456.0,311367.0,29322.0,311367.0,29343.0,413.6553955839942,318.6816035309512,376.2682366128921
311367.0,13415.0,311367.0,29271.0,311367.0,29303.0,407.8790367908705,313.0129845373452,369.17784781093053
311367.0,13416.0,311367.0,29258.0,311367.0,29304.0,401.8883130802029,307.17898242882364,361.84679217213994
311367.0,13401.0,311367.0,29228.0,311367.0,29295.0,395.6839384122339,301.18551113653757,354.27960119514296
311367.0,13405.0,311367.0,29283.0,311367.0,29279.0,389.2660426735686,295.03645647871343,346.4801195000652
311378.0,13412.0,311378.0,29263.0,311378.0,29310.0,382.63419474532253,288.7337236573075,338.4515412103058
311378.0,13419.0,311378.0,29305.0,311378.0,29292.0,375.78764299461693,282.27777955620286,330.1966521555835
311378.0,13401.0,311378.0,29281.0,311378.0,29280.0,368.72566998782645,275.66831133605245,321.71818874345445
311378.0,13426.0,311378.0,29317.0,311378.0,29299.0,361.44790156891196,268.9047948802554,313.01908674611263
311378.0,13432.0,311378.0,29340.0,311378.0,29311.0,353.9546350767418,261.987076300043,304.10274537698814
311378.0,13416.0,311378.0,29323.0,311378.0,29303.0,346.2472959853959,254.91609197380757,294.9735271389049
311388.0,13371.0,311388.0,29286.0,311388.0,29244.0,338.3287315343473,247.69442355656565,285.6371776254951
311388.0,13349.0,311388.0,29242.0,311388.0,29215.0,330.2029891703909,240.32621234800837,276.10066324679417
311388.0,13323.0,311388.0,29187.0,311388.0,29196.0,321.8747112505637,232.81640662678316,266.37148335683736
311388.0,13308.0,311388.0,29202.0,311388.0,29161.0,313.34852633815524,225.16973847295696,256.4569483261065
311388.0,13283.0,311388.0,29158.0,311388.0,29158.0,304.62859479729985,217.38992169282227,246.3636600983983
311388.0,13299.0,311388.0,29210.0,311388.0,29163.0,295.7183105644509,209.47931759575454,236.09722130942058
311398.0,13294.0,311398.0,29184.0,311398.0,29158.0,286.6202581253707,201.4390523163615,225.66227394058507
311398.0,13302.0,311398.0,29205.0,311398.0,29151.0,277.33647113064535,193.26943180028144,215.06278232784373
311398.0,13317.0,311398.0,29183.0,311398.0,29133.0,267.86887316048814,184.97036501870332,204.30229121542857
311398.0,13290.0,311398.0,29256.0,311398.0,29188.0,258.2197669983464,176.54176908468796,193.3841587194653
311398.0,13317.0,311398.0,29290.0,311398.0,29175.0,248.3922468706096,167.98436910098812,182.31207775412025
311398.0,13279.0,311398.0,29236.0,311398.0,29132.0,238.3904951177555,159.30090891679208,171.09078461541952
311409.0,13215.0,311409.0,29144.0,311409.0,29103.0,228.2198356956668,150.49678518078386,159.72630093275941
311409.0,13207.0,311409.0,29087.0,311409.0,29053.0,217.88625902558556,141.57925665786408,148.22548419710313
311409.0,13183.0,311409.0,29068.0,311409.0,29042.0,207.39564063238026,132.55576492661734,136.59528129771712
311409.0,13164.0,311409.0,29053.0,311409.0,29005.0,196.75318359699946,123.4325136874318,124.84204709750009
311409.0,13174.0,311409.0,29093.0,311409.0,29031.0,185.96317165805795,114.21386297960376,112.97111603490032
311409.0,13158.0,311409.0,29106.0,311409.0,29037.0,175.02895387058976,104.90254418525026,100.98680463660503
311419.0,13164.0,311419.0,29091.0,311419.0,29002.0,163.95312830115995,95.50037997557419,88.89280631526049
311419.0,13165.0,311419.0,29050.0,311419.0,29024.0,152.73782750708364,86.00885341730446,76.69258772853635
311419.0,13152.0,311419.0,29105.0,311419.0,29017.0,141.38505511529934,76.42921654237028,64.38965907752203
311419.0,13181.0,311419.0,29191.0,311419.0,29012.0,129.89706330478094,66.76284460124606,51.98793678505052
311419.0,13152.0,311419.0,29125.0,311419.0,29006.0,118.27679135542564,57.012434967760555,39.49214986275143
311419.0,13117.0,311419.0,29065.0,311419.0,28954.0,106.52821340247925,47.18309139388941,26.908053057521727
311429.0,13074.0,311429.0,29005.0,311429.0,28906.0,94.6562330497091,37.28205904837421,14.242224010610471
311429.0,13047.0,311429.0,28974.0,311429.0,28890.0,82.66609233193759,27.31742587381558,1.5013976984034798
311429.0,13042.0,311429.0,28935.0,311429.0,28885.0,70.56269556781848,17.296785708438733,-11.308241119770287
311429.0,13023.0,311429.0,28913.0,311429.0,28861.0,58.35020411272865,7.226237315256526,-24.1813847022093
311429.0,13046.0,311429.0,28969.0,311429.0,28867.0,46.031986851883914,-2.8901817518234907,-37.113619401122946
311429.0,13027.0,311429.0,29014.0,311429.0,28851.0,33.6108696328954,-13.050250226610444,-50.10131936967241
311440.0,13029.0,311440.0,28970.0,311440.0,28846.0,21.089531743723683,-23.252517409369602,-63.14146156861574
311440.0,12996.0,311440.0,28972.0,311440.0,28847.0,8.470806490568293,-33.495351213636354,-76.23140064608322
311440.0,13020.0,311440.0,28970.0,311440.0,28859.0,-4.242183025050792,-43.77663251662358,-89.36855522588274
311440.0,13016.0,311440.0,29007.0,311440.0,28850.0,-17.045820301217873,-54.09358590000733,-102.5499287970589
311440.0,12968.0,311440.0,28990.0,311440.0,28806.0,-29.935653280539157,-64.4422591421527,-115.7716656454927
311440.0,12942.0,311440.0,28913.0,311440.0,28772.0,-42.906310416736744,-74.81702594737595,-129.02902239060086
311450.0,12905.0,311450.0,28877.0,311450.0,28760.0,-55.95190379004259,-85.21083855989707,-142.31678561082788
311450.0,12876.0,311450.0,28835.0,311450.0,28712.0,-69.06664826577526,-95.61624663240173,-155.62978763049557
311450.0,12863.0,311450.0,28806.0,311450.0,28709.0,-82.24542570362007,-106.02653497812531,-168.96334456895238
311450.0,12875.0,311450.0,28800.0,311450.0,28707.0,-95.48411428939437,-116.43657164324634,-182.31356622244448
311450.0,12875.0,311450.0,28816.0,311450.0,28679.0,-108.77950101953991,-126.8432329411919,-195.67741043480214
311450.0,12851.0,311450.0,28840.0,311450.0,28696.0,-122.1288887801071,-137.24526192728945,-209.05255291419093
311460.0,12831.0,311460.0,28802.0,311460.0,28682.0,-135.52979882699287,-147.64270814975384,-222.43717176087512
311460.0,12842.0,311460.0,28844.0,311460.0,28679.0,-148.9799144694187,-158.03638584882816,-235.82962250285323
311460.0,12861.0,311460.0,28926.0,311460.0,28696.0,-162.47692605878575,-168.42724740451604,-249.22804822782462
311460.0,12826.0,311460.0,28861.0,311460.0,28687.0,-176.0180588036161,-178.81524501745696,-262.62990666035193
311460.0,12794.0,311460.0,28797.0,311460.0,28599.0,-189.59967407089954,-189.1983727191615,-276.0315984117051
311460.0,12746.0,311460.0,28763.0,311460.0,28606.0,-203.21740567760554,-199.5729390328575,-289.42867408723737
311471.0,12741.0,311471.0,28739.0,311471.0,28583.0,-216.866722011148,-209.9346737016699,-302.8164625184064
311471.0,12723.0,311471.0,28708.0,311471.0,28553.0,-230.54344461497982,-220.27969316295798,-316.1904949314546
311471.0,12687.0,311471.0,28653.0,311471.0,28534.0,-244.2440088682397,-230.60520549500848,-329.5467191288252
311471.0,12708.0,311471.0,28704.0,311471.0,28539.0,-257.96559641061845,-240.9101391094964,-342.88171226838654
311471.0,12692.0,311471.0,28712.0,311471.0,28530.0,-271.70611716806513,-251.1953289817426,-356.19271226132105
311471.0,12701.0,311471.0,28708.0,311471.0,28526.0,-285.4639196517488,-261.4629973710924,-369.4773869533864
311481.0,12673.0,311481.0,28735.0,311481.0,28500.0,-299.23739757308044,-271.71598232437407,-382.7335617689016
311481.0,12677.0,311481.0,28786.0,311481.0,28513.0,-313.0247113976459,-281.9569466308553,-395.95905160659447
311481.0,12679.0,311481.0,28784.0,311481.0,28513.0,-326.8235763286798,-292.18730811771263,-409.1514594510337
311481.0,12662.0,311481.0,28714.0,311481.0,28485.0,-340.63096500838185,-302.4062190589053,-422.30783249626995
311481.0,12610.0,311481.0,28635.0,311481.0,28438.0,-354.44287477289924,-312.61050128933493,-435.4244713279345
311481.0,12582.0,311481.0,28604.0,311481.0,28432.0,-368.2545116901332,-322.7957637093647,-448.49717760709825
311491.0,12547.0,311491.0,28584.0,311491.0,28395.0,-382.06087734401444,-332.9578765957049,-461.52171776683394
311491.0,12535.0,311491.0,28574.0,311491.0,28369.0,-395.85739627107023,-343.09396502566574,-474.4942296522081
311491.0,12523.0,311491.0,28616.0,311491.0,28361.0,-409.64031909875405,-353.202713092943,-487.4115884264039
311491.0,12519.0,311491.0,28573.0,311491.0,28399.0,-423.4068387952723,-363.28411256949926,-500.2715699679907
311491.0,12512.0,311491.0,28645.0,311491.0,28327.0,-437.15497681703084,-373.3389333093754,-513.0726216322798
311491.0,12510.0,311491.0,28585.0,311491.0,28332.0,-450.88334043446844,-383.3681218230213,-525.813643171663
311502.0,12506.0,311502.0,28612.0,311502.0,28359.0,-464.5908160656163,-393.3722797865029,-538.4940288102414
311502.0,12526.0,311502.0,28638.0,311502.0,28355.0,-478.27617843327437,-403.35128520005435,-551.1134585131022
311502.0,12493.0,311502.0,28620.0,311502.0,28352.0,-491.93760344874215,-413.3037910793488,-563.6712725317018
311502.0,12451.0,311502.0,28562.0,311502.0,28277.0,-505.572343906499,-423.2267372814398,-576.1660282642658
311502.0,12425.0,311502.0,28511.0,311502.0,28282.0,-519.1768999442411,-433.11553929349486,-588.5956745581481
311502.0,12404.0,311502.0,28476.0,311502.0,28241.0,-532.7475406742842,-442.9650330063721,-600.9581026794763
311512.0,12372.0,311512.0,28435.0,311512.0,28201.0,-546.2807946139867,-452.7706312319766,-613.2516793875416
311512.0,12344.0,311512.0,28423.0,311512.0,28210.0,-559.7738503433616,-462.52930153969385,-625.4757318201833
311512.0,12364.0,311512.0,28464.0,311512.0,28205.0,-573.2248897592068,-472.24013282059957,-637.6308648387134
311512.0,12334.0,311512.0,28485.0,311512.0,28210.0,-586.6331658095936,-481.90417901970704,-649.7188639592747
311512.0,12361.0,311512.0,28458.0,311512.0,28188.0,-599.9987782237888,-491.5236974448761,-661.7423457509002
311512.0,12347.0,311512.0,28467.0,311512.0,28187.0,-613.3222828560994,-501.1014595726931,-673.7044794426334
311522.0,12334.0,311522.0,28524.0,311522.0,28226.0,-626.6042479766852,-510.6403123770709,-685.6087351398718
311522.0,12347.0,311522.0,28540.0,311522.0,28215.0,-639.8448890417661,-520.1424275098367,-697.458354997916
311522.0,12302.0,311522.0,28453.0,311522.0,28146.0,-653.0438163361529,-529.6083151557158,-709.2557475973241
311522.0,12271.0,311522.0,28372.0,311522.0,28133.0,-666.1999845306644,-539.0366973323,-721.0024813446561
311522.0,12234.0,311522.0,28382.0,311522.0,28109.0,-679.3120343983362,-548.4256352442412,-732.6998768225812
311522.0,12219.0,311522.0,28351.0,311522.0,28073.0,-692.3788870846607,-557.7738482720223,-744.3496050856021
311533.0,12184.0,311533.0,28332.0,311533.0,28072.0,-705.4002793182711,-567.0813969435992,-755.9541117411175
311533.0,12200.0,311533.0,28348.0,311533.0,28082.0,-718.3771120973732,-576.3499484806706,-767.5168586617267
311533.0,12200.0,311533.0,28347.0,311533.0,28073.0,-731.3114975059812,-585.582796929555,-779.0422112325358
311533.0,12197.0,311533.0,28357.0,311533.0,28075.0,-744.2064408975327,-594.7845609229479,-790.5350661389245
311533.0,12176.0,311533.0,28336.0,311533.0,28063.0,-757.0654073002994,-603.9607552714813,-802.000490737127
311533.0,12173.0,311533.0,28361.0,311533.0,28053.0,-769.8920613461156,-613.1174548036475,-813.443470994435
311543.0,12204.0,311543.0,28434.0,311543.0,28085.0,-782.6900693128666,-622.2608114852993,-824.868678797366
311543.0,12162.0,311543.0,28410.0,311543.0,28047.0,-795.4627081807919,-631.3960502460196,-836.2801087176504
311543.0,12128.0,311543.0,28358.0,311543.0,28016.0,-808.2125284840696,-640.5264148534546,-847.6807702727309
311543.0,12113.0,311543.0,28264.0,311543.0,28002.0,-820.9414897656903,-649.6531220816355,-859.0727957770004
311543.0,12087.0,311543.0,28284.0,311543.0,27952.0,-833.6513904668933,-658.7764535870208,-870.4578807140774
311543.0,12073.0,311543.0,28222.0,311543.0,27944.0,-846.3442157739321,-667.8970241774339,-881.8378096634252
311554.0,12046.0,311554.0,28219.0,311554.0,27929.0,-859.0223790757565,-677.0166071919869,-893.2149422495692
311554.0,12041.0,311554.0,28270.0,311554.0,27939.0,-871.6889298196191,-686.1385311258325,-904.5924526317272
311554.0,12044.0,311554.0,28270.0,311554.0,27925.0,-884.3476507841979,-695.2674592324483,-915.9742334118115
311554.0,12046.0,311554.0,28255.0,311554.0,27924.0,-897.0029070598741,-704.4086450906722,-927.3646358754286
311554.0,12029.0,311554.0,28251.0,311554.0,27920.0,-909.6592931630518,-713.5673500339035,-938.7682144125706
311554.0,12044.0,311554.0,28316.0,311554.0,27937.0,-922.3212724261075,-722.7485173958166,-950.1894385555463
311564.0,12040.0,311564.0,28320.0,311564.0,27939.0,-934.9928186401728,-731.956102368465,-961.6322449990582
311564.0,12008.0,311564.0,28274.0,311564.0,27908.0,-947.6770355292645,-741.1920998222442,-973.0995205324815
311564.0,11987.0,311564.0,28200.0,311564.0,27853.0,-960.3759907080146,-750.456192784945,-984.5929184832155
311564.0,11949.0,311564.0,28154.0,311564.0,27840.0,-973.0909238993521,-759.7465314949246,-996.1132635679315
311564.0,11926.0,311564.0,28124.0,311564.0,27808.0,-985.8226937550912,-769.0611209114786,-1007.6612435607028
311564.0,11915.0,311564.0,28110.0,311564.0,27796.0,-998.5722527683829,-778.3990335473104,-1019.2379647868802
311574.0,11894.0,311574.0,28121.0,311574.0,27792.0,-1011.340978229096,-787.7610773310519,-1030.8452682032184
311574.0,11900.0,311574.0,28144.0,311574.0,27811.0,-1024.1307964524742,-797.1498557849666,-1042.485759478845
311574.0,11889.0,311574.0,28175.0,311574.0,27789.0,-1036.9441164253294,-806.5692488230452,-1054.162514567205
311574.0,11892.0,311574.0,28172.0,311574.0,27792.0,-1049.7836011415857,-816.0235164646294,-1065.8786812735038
311574.0,11878.0,311574.0,28173.0,311574.0,27794.0,-1062.651867620666,-825.516424022362,-1077.637175048027
311574.0,11879.0,311574.0,28238.0,311574.0,27803.0,-1075.551206595122,-835.0505282768719,-1089.440349510197
311585.0,11871.0,311585.0,28191.0,311585.0,27819.0,-1088.483325835783,-844.6263816837509,-1101.2894878132593
311585.0,11840.0,311585.0,28138.0,311585.0,27756.0,-1101.4491393061608,-854.2419135774085,-1113.1842685834372
311585.0,11810.0,311585.0,28085.0,311585.0,27732.0,-1114.448761967775,-863.8926926130416,-1125.122651615599
311585.0,11781.0,311585.0,28042.0,311585.0,27701.0,-1127.4818154402997,-873.5730178935653,-1137.1013492816242
311585.0,11776.0,311585.0,28041.0,311585.0,27673.0,-1140.5478684466134,-883.2771184692083,-1149.1164992064832
311585.0,11744.0,311585.0,28028.0,311585.0,27671.0,-1153.6467631331075,-892.9999271175402,-1161.1641882069528
311595.0,11776.0,311595.0,28028.0,311595.0,27683.0,-1166.7787281132285,-902.7373334644147,-1173.2406778556071
311595.0,11756.0,311595.0,28046.0,311595.0,27673.0,-1179.944209432317,-912.4860805259071,-1185.3422346554005
311595.0,11744.0,311595.0,28050.0,311595.0,27669.0,-1193.143498374152,-922.2433978964874,-1197.464738987022
311595.0,11732.0,311595.0,28058.0,311595.0,27669.0,-1206.376461680492,-932.0064405008437,-1209.603338061354
311595.0,11737.0,311595.0,28118.0,311595.0,27670.0,-1219.642430842838,-941.7715876480912,-1221.7521409920241
311595.0,11781.0,311595.0,28120.0,311595.0,27698.0,-1232.9399145381471,-951.5334669037226,-1233.9037983011945
311605.0,11715.0,311605.0,28074.0,311605.0,27653.0,-1246.2659945997184,-961.2839093299889,-1246.048953913474
311605.0,11684.0,311605.0,28026.0,311605.0,27604.0,-1259.6159297207878,-971.011572913529,-1258.175952364545
311605.0,11649.0,311605.0,27952.0,311605.0,27581.0,-1272.9834688704282,-980.7025825275737,-1270.2711921063312
311605.0,11639.0,311605.0,27920.0,311605.0,27566.0,-1286.3615325645574,-990.3418265662731,-1282.3198379142254
311605.0,11617.0,311605.0,27925.0,311605.0,27552.0,-1299.742703641478,-999.9142691652189,-1294.3063322587768
311605.0,11624.0,311605.0,27899.0,311605.0,27533.0,-1313.1194144359265,-1009.4057320760138,-1306.21461099937
311616.0,11594.0,311616.0,27940.0,311616.0,27551.0,-1326.4839257028377,-1018.8030576258079,-1318.028157463837
311616.0,11607.0,311616.0,27947.0,311616.0,27528.0,-1339.8282128872947,-1028.093792853358,-1329.7298792429792
311616.0,11601.0,311616.0,27943.0,311616.0,27525.0,-1353.143782253671,-1037.2655369116235,-1341.3018689471064
311616.0,11596.0,311616.0,27956.0,311616.0,27533.0,-1366.4213584492632,-1046.3052799899601,-1352.7251931639955
311616.0,11609.0,311616.0,27998.0,311616.0,27567.0,-1379.6504862799745,-1055.1988232107121,-1363.9795584228364
311616.0,11602.0,311616.0,28018.0,311616.0,27556.0,-1392.819083431246,-1063.9299642324286,-1375.0426503876884
311626.0,11566.0,311626.0,27928.0,311626.0,27487.0,-1405.9130274514205,-1072.4796210467896,-1385.8895152610808
311626.0,11528.0,311626.0,27886.0,311626.0,27466.0,-1418.9160789268376,-1080.8257525575532,-1396.4926337380778
311626.0,11500.0,311626.0,27836.0,311626.0,27441.0,-1431.8102809421753,-1088.9443679732046,-1406.8226377237436
311626.0,11499.0,311626.0,27846.0,311626.0,27414.0,-1444.576525718267,-1096.8108384892362,-1416.8490494153884
311626.0,11475.0,311626.0,27835.0,311626.0,27402.0,-1457.1949065190413,-1104.4007045571616,-1426.5407927479714
311626.0,11470.0,311626.0,27851.0,311626.0,27406.0,-1469.6448169895295,-1111.6898459593663,-1435.86652067767
311636.0,11465.0,311636.0,27827.0,311636.0,27423.0,-1481.904942250077,-1118.6543089149736,-1444.7946399046073
311636.0,11460.0,311636.0,27837.0,311636.0,27419.0,-1493.9531565791647,-1125.2701188395217,-1453.2929733366557
311636.0,11468.0,311636.0,27845.0,311636.0,27420.0,-1505.7662939728202,-1131.5131422707746,-1461.3282778575538
311636.0,11471.0,311636.0,27899.0,311636.0,27423.0,-1517.3197922996985,-1137.3587397040287,-1468.8658491493366
311636.0,11475.0,311636.0,27929.0,311636.0,27422.0,-1528.5872259726175,-1142.780936922862,-1475.869216674103
311636.0,11435.0,311636.0,27898.0,311636.0,27413.0,-1539.5398837633593,-1147.7513159818952,-1482.2998813728186
311647.0,11407.0,311647.0,27829.0,311647.0,27349.0,-1550.1466901064546,-1152.2384139198898,-1488.1172692793975
311647.0,11364.0,311647.0,27798.0,311647.0,27364.0,-1560.3746064096642,-1156.2082089108585,-1493.2791147842115
311647.0,11365.0,311647.0,27757.0,311647.0,27336.0,-1570.1892846910396,-1159.6253386908108,-1497.7420522452076
311647.0,11348.0,311647.0,27731.0,311647.0,27316.0,-1579.5555880730085,-1162.4543561867372,-1501.4620631554417
311647.0,11340.0,311647.0,27712.0,311647.0,27313.0,-1588.4378153156924,-1164.6607583657726,-1504.3948409728778
311647.0,11341.0,311647.0,27765.0,311647.0,27320.0,-1596.7997418256596,-1166.2116538459386,-1506.4961134799537
311657.0,11351.0,311657.0,27792.0,311657.0,27312.0,-1604.6045329337512,-1167.0757344385695,-1507.7217561326636
311657.0,11343.0,311657.0,27786.0,311657.0,27308.0,-1611.8144921641733,-1167.2225840652784,-1508.027770681691
311657.0,11327.0,311657.0,27791.0,311657.0,27312.0,-1618.3907893727517,-1166.6219736578564,-1507.3703106018993
311657.0,11339.0,311657.0,27830.0,311657.0,27352.0,-1624.2933440159088,-1165.243487065014,-1505.7056515429144
311657.0,11339.0,311657.0,27837.0,311657.0,27332.0,-1629.4807514801678,-1163.0561470616644,-1502.9899240614077
311657.0,11314.0,311657.0,27763.0,311657.0,27277.0,-1633.9101404417056,-1160.0280545918822,-1499.1789257502141
311667.0,11277.0,311667.0,27708.0,311667.0,27266.0,-1637.5372155597101,-1156.126762690878,-1494.2285828456738
311667.0,11256.0,311667.0,27710.0,311667.0,27263.0,-1640.316733780536,-1151.3205824099214,-1488.095912980029
311667.0,11258.0,311667.0,27697.0,311667.0,27241.0,-1642.2032031881004,-1145.5799758635553,-1480.7398692106158
311667.0,11234.0,311667.0,27679.0,311667.0,27244.0,-1643.151429442897,-1138.8784282659071,-1472.1219432549265
311667.0,11242.0,311667.0,27742.0,311667.0,27270.0,-1643.116852583939,-1131.192909175928,-1462.2066365041455
311667.0,11247.0,311667.0,27729.0,311667.0,27272.0,-1642.0557586208147,-1122.5039298716838,-1450.9616685105334
311678.0,11248.0,311678.0,27743.0,311678.0,27299.0,-1639.925330925982,-1112.7952805677355,-1438.3579281388102
311678.0,11229.0,311678.0,27759.0,311678.0,27288.0,-1636.683637953205,-1102.0538548730406,-1424.3693971028206
311678.0,11271.0,311678.0,27842.0,311678.0,27328.0,-1632.2897023488476,-1090.2694790426322,-1408.973166226307
311678.0,11276.0,311678.0,27870.0,311678.0,27342.0,-1626.7034686527547,-1077.4342546878356,-1392.1494440814677
311678.0,11247.0,311678.0,27843.0,311678.0,27363.0,-1619.885606154556,-1063.541607534346,-1373.8814454159606
311678.0,11237.0,311678.0,27814.0,311678.0,27326.0,-1611.7975832987245,-1048.5859410208225,-1354.1553664251137
311688.0,11222.0,311688.0,27769.0,311688.0,27330.0,-1602.4022273963956,-1032.5633502870535,-1332.9608157235443
311688.0,11216.0,311688.0,27788.0,311688.0,27329.0,-1591.6644673237863,-1015.4729515039096,-1310.2916710968889
311688.0,11215.0,311688.0,27786.0,311688.0,27363.0,-1579.5520114800229,-997.3180920427874,-1286.1469110665043
311688.0,11233.0,311688.0,27805.0,311688.0,27370.0,-1566.0358832011325,-978.1070792478181,-1260.5311118214313
311688.0,11245.0,311688.0,27883.0,311688.0,27430.0,-1551.0907357392475,-957.8534236403568,-1233.4546358468046
311688.0,11279.0,311688.0,27909.0,311688.0,27459.0,-1534.6949274995309,-936.5755294975572,-1204.9335566148525
311698.0,11298.0,311698.0,27936.0,311698.0,27520.0,-1516.8304048958753,-914.2959942658383,-1174.9893210237396
311698.0,11303.0,311698.0,27993.0,311698.0,27524.0,-1497.4825250650038,-891.0409836969718,-1143.6483170325096
311698.0,11359.0,311698.0,28065.0,311698.0,27634.0,-1476.639952586978,-866.8396556739631,-1110.9414894832375
311698.0,11363.0,311698.0,28091.0,311698.0,27635.0,-1454.2945436648097,-841.7233202352272,-1076.9038595750012
311698.0,11372.0,311698.0,28104.0,311698.0,27662.0,-1430.4412140806926,-815.7246019921729,-1041.5740279391239
311698.0,11367.0,311698.0,28078.0,311698.0,27678.0,-1405.0780906986968,-788.877192834256,-1004.9941134948854
311709.0,11384.0,311709.0,28064.0,311709.0,27703.0,-1378.2070377386362,-761.2164245680211,-967.2101571877795
311709.0,11401.0,311709.0,28116.0,311709.0,27750.0,-1349.8342887164802,-732.7803102857465,-928.2725925896344
311709.0,11423.0,311709.0,28115.0,311709.0,27796.0,-1319.9709532742113,-703.6103814299978,-888.23650663385
311709.0,11478.0,311709.0,28193.0,311709.0,27892.0,-1288.6333157129575,-673.7519995609479,-847.1615269474837
311709.0,11505.0,311709.0,28282.0,311709.0,27948.0,-1255.8428661729179,-643.2541151650933,-805.111236855938
311709.0,11556.0,311709.0,28312.0,311709.0,27995.0,-1221.6261165441285,-612.1684153731513,-762.1523225518208
311719.0,11605.0,311719.0,28367.0,311719.0,28050.0,-1186.0143359987135,-580.5482536344662,-718.3538915455023
311719.0,11669.0,311719.0,28443.0,311719.0,28133.0,-1149.0431870724665,-548.447821092389,-673.787031073815
311719.0,11737.0,311719.0,28534.0,311719.0,28205.0,-1110.752164146691,-515.9212867665395,-628.524246035937
311719.0,11762.0,311719.0,28565.0,311719.0,28235.0,-1071.1839161516987,-483.0216154079315,-582.6387094003511
311719.0,11768.0,311719.0,28527.0,311719.0,28269.0,-1030.3838326754508,-449.79962185412325,-536.203757838424
311719.0,11812.0,311719.0,28530.0,311719.0,28293.0,-988.4002077959211,-416.3040777571973,-489.2929378213922
311729.0,11848.0,311729.0,28538.0,311729.0,28357.0,-945.2847231495051,-382.58277999064376,-441.98038326399165
311729.0,11899.0,311729.0,28533.0,311729.0,28410.0,-901.0927832071101,-348.6837959617323,-394.34108115477943
311729.0,11960.0,311729.0,28606.0,311729.0,28471.0,-855.8835735806746,-314.6564107110867,-346.4508102744535
311729.0,12032.0,311729.0,28710.0,311729.0,28531.0,-809.7198567496675,-280.55142007585033,-298.38585782618634
311729.0,12084.0,311729.0,28755.0,311729.0,28608.0,-762.6675255500105,-246.42044451938438,-250.22262889845388
311729.0,12143.0,311729.0,28771.0,311729.0,28647.0,-714.7950904810624,-212.31480029516422,-202.03717057580445
311740.0,12211.0,311740.0,28841.0,311740.0,28738.0,-666.173254525232,-178.2848045748441,-153.90468715043755
311740.0,12296.0,311740.0,28960.0,311740.0,28829.0,-616.8744619597519,-144.37931051607927,-105.89896100304031
311740.0,12366.0,311740.0,28979.0,311740.0,28886.0,-566.9722387636011,-110.64474413481457,-58.09148244632274
311740.0,12373.0,311740.0,28984.0,311740.0,28875.0,-516.5405104835054,-77.124001631071,-10.550644346580839
311740.0,12426.0,311740.0,28925.0,311740.0,28909.0,-465.6533828963784,-43.856292407579986,36.6583026061727
311740.0,12475.0,311740.0,28967.0,311740.0,28944.0,-414.38542759407255,-10.878169235235987,83.47256857786715
311750.0,12536.0,311750.0,29052.0,311750.0,29008.0,-362.81197224972686,21.77526150536164,129.83114788206285
311750.0,12577.0,311750.0,29043.0,311750.0,29065.0,-311.0091502965139,54.069976731003635,175.67461438481382
311750.0,12662.0,311750.0,29093.0,311750.0,29121.0,-259.05382697180846,85.97325270555882,220.94532422439693
311750.0,12740.0,311750.0,29134.0,311750.0,29181.0,-207.02334461722387,117.45376315685962,265.5877869513929
311750.0,12796.0,311750.0,29160.0,311750.0,29229.0,-154.99497748791487,148.48162932849152,309.5490531534415
311750.0,12854.0,311750.0,29232.0,311750.0,29271.0,-103.04533236698217,179.02863344924083,352.7790394121687
311760.0,12947.0,311760.0,29312.0,311760.0,29353.0,-51.249896881011296,209.0686997969117,395.23079230684857
311760.0,13025.0,311760.0,29356.0,311760.0,29411.0,0.31749968798965256,238.5788021152863,436.8608893865795
311760.0,13055.0,311760.0,29342.0,311760.0,29457.0,51.58540862579423,267.53991776149144,477.6300595781049
311760.0,13093.0,311760.0,29342.0,311760.0,29424.0,102.48522421408188,295.937278523955,517.5035933817114
311760.0,13134.0,311760.0,29312.0,311760.0,29481.0,152.95109321447183,323.75971230894106,556.4510645075159
311760.0,13179.0,311760.0,29318.0,311760.0,29497.0,202.91954683693916,350.99846069204943,594.4456210959877
311771.0,13227.0,311771.0,29326.0,311771.0,29521.0,252.32918922389183,377.64594221863456,631.4634202325506
311771.0,13279.0,311771.0,29362.0,311771.0,29566.0,301.12052344007714,403.6948300745411,667.4832713983551
311771.0,13366.0,311771.0,29414.0,311771.0,29599.0,349.2359736284617,429.1376629514215,702.4864046445621
311771.0,13418.0,311771.0,29438.0,311771.0,29634.0,396.6202206149113,453.96697721171597,736.4564147775818
311771.0,13453.0,311771.0,29480.0,311771.0,29692.0,443.22070509577,478.17569346773234,769.3793416948924
311771.0,13515.0,311771.0,29496.0,311771.0,29705.0,488.98793795411257,501.7574623533508,801.2438489557801
311781.0,13589.0,311781.0,29621.0,311781.0,29778.0,533.8756598811162,524.707064829716,832.041464614483
311781.0,13636.0,311781.0,29614.0,311781.0,29798.0,577.841189866383,547.0212213759007,861.76687861254
311781.0,13661.0,311781.0,29605.0,311781.0,29791.0,620.8458689409285,568.6994985737538,890.4182018906415
311781.0,13677.0,311781.0,29563.0,311781.0,29795.0,662.8551614094647,589.7443802549963,917.9968150310901
311781.0,13698.0,311781.0,29540.0,311781.0,29802.0,703.8382630498438,610.1602583588485,944.5067113851255
311781.0,13733.0,311781.0,29574.0,311781.0,29811.0,743.7674683488474,629.9520294752588,969.9537110645106
311792.0,13781.0,311792.0,29577.0,311792.0,29838.0,782.6176539592168,649.1240700124074,994.3448330513138
311792.0,13832.0,311792.0,29644.0,311792.0,29860.0,820.3660998723192,667.6798893582393,1017.6879082240227
311792.0,13873.0,311792.0,29628.0,311792.0,29917.0,856.9926309148575,685.6222767463844,1039.991497841941
311792.0,13918.0,311792.0,29662.0,311792.0,29916.0,892.4798911038283,702.953538997022,1061.2651010505554
311792.0,13951.0,311792.0,29715.0,311792.0,29955.0,926.8135916412434,719.6756489323941,1081.5194285242694
311792.0,14000.0,311792.0,29769.0,311792.0,30004.0,959.9827047798631,735.7906342569224,1100.7666225404512
311802.0,14045.0,311802.0,29834.0,311802.0,30038.0,991.9796829490847,751.3014840824887,1119.0206477697486
311802.0,14061.0,311802.0,29817.0,311802.0,29998.0,1022.8007298077086,766.2132654190373,1136.2977714393314
311802.0,14055.0,311802.0,29770.0,311802.0,30004.0,1052.4458866953178,780.5337149145596,1152.616549586737
311802.0,14064.0,311802.0,29721.0,311802.0,29981.0,1080.91865736146,794.27269856324,1167.9971590094383
311802.0,14070.0,311802.0,29728.0,311802.0,30001.0,1108.225276214823,807.440781987515,1182.4605417996347
311802.0,14087.0,311802.0,29724.0,311802.0,30010.0,1134.373957954147,820.0478176200397,1196.0277766880013
311812.0,14131.0,311812.0,29735.0,311812.0,30014.0,1159.3743692166613,832.1020948694347,1208.7197615279817
311812.0,14138.0,311812.0,29828.0,311812.0,30061.0,1183.2374211528152,843.6101116549833,1220.557127322729
311812.0,14179.0,311812.0,29830.0,311812.0,30057.0,1205.9752794135136,854.5770500205172,1231.56036288624
311812.0,14197.0,311812.0,29844.0,311812.0,30065.0,1227.6014313284456,865.0076520569739,1241.750038168717
311812.0,14211.0,311812.0,29886.0,311812.0,30067.0,1248.1307633399308,874.9068564643155,1251.1468584540485
311812.0,14263.0,311812.0,29955.0,311812.0,30121.0,1267.5796401639877,884.280308919369,1259.7716216194362
311823.0,14268.0,311823.0,29957.0,311823.0,30127.0,1285.9660661479616,893.1352257019948,1267.645446105062
311823.0,14268.0,311823.0,29897.0,311823.0,30092.0,1303.3098736565717,901.481185407933,1274.7901596402019
311823.0,14237.0,311823.0,29838.0,311823.0,30073.0,1319.632571614418,909.3298993878707,1281.2282389045217
311823.0,14264.0,311823.0,29842.0,311823.0,30072.0,1334.9567301235606,916.6938938268106,1286.9821577628654
311823.0,14275.0,311823.0,29858.0,311823.0,30103.0,1349.305323427911,923.5851169840055,1292.0737342810723
311823.0,14255.0,311823.0,29833.0,311823.0,30080.0,1362.7013563245873,930.0142240306634,1296.5239149525935
311833.0,14263.0,311833.0,29862.0,311833.0,30109.0,1375.1675405625915,935.9903124580558,1300.3528153265092
311833.0,14328.0,311833.0,29907.0,311833.0,30116.0,1386.725955734622,941.5208689208544,1303.5797978013359
311833.0,14336.0,311833.0,29891.0,311833.0,30104.0,1397.3981431982038,946.6120850733791,1306.2236122432166
311833.0,14325.0,311833.0,29927.0,311833.0,30115.0,1407.2055857683479,951.2693478782778,1308.3024935696606
311833.0,14372.0,311833.0,29987.0,311833.0,30134.0,1416.1700058433375,955.4977119297714,1309.8341772428976
311833.0,14381.0,311833.0,30062.0,311833.0,30172.0,1424.313507575073,959.3027806132645,1310.8361174270387
311843.0,14383.0,311843.0,29988.0,311843.0,30124.0,1431.6588598663684,962.6920100916343,1311.3259477082645
311843.0,14363.0,311843.0,29940.0,311843.0,30113.0,1438.2296746103139,965.675355260423,1311.32167990602
311843.0,14328.0,311843.0,29904.0,311843.0,30093.0,1444.0501273107684,968.264524841662,1310.841326729731
311843.0,14326.0,311843.0,29866.0,311843.0,30080.0,1449.1442476591985,970.4714827748958,1309.902273522739
311843.0,14342.0,311843.0,29861.0,311843.0,30064.0,1453.535163803539,972.3070677687192,1308.5207324341177
311843.0,14335.0,311843.0,29879.0,311843.0,30076.0,1457.2447042872082,973.7800645610434,1306.7113310828956
311854.0,14351.0,311854.0,29930.0,311854.0,30095.0,1460.293338705716,974.8969491615571,1304.486958644929
311854.0,14372.0,311854.0,29945.0,311854.0,30087.0,1462.700270197476,975.6623826750786,1301.8589579364227
311854.0,14369.0,311854.0,29954.0,311854.0,30106.0,1464.4836710127656,976.0800669628109,1298.8374728479548
311854.0,14376.0,311854.0,29953.0,311854.0,30103.0,1465.6609654241843,976.1534196261007,1295.4317686250129
311854.0,14395.0,311854.0,30015.0,311854.0,30126.0,1466.2490339189558,975.8860094964336,1291.6505631139044
311854.0,14405.0,311854.0,30007.0,311854.0,30113.0,1466.264453459485,975.2821289245576,1287.5024050965335
311864.0,14379.0,311864.0,29980.0,311864.0,30094.0,1465.7237894541513,974.3474440583391,1282.9959537209675
311864.0,14356.0,311864.0,29941.0,311864.0,30050.0,1464.6436292728943,973.0891178742124,1278.1398997144765
311864.0,14357.0,311864.0,29885.0,311864.0,30045.0,1463.0402211852513,971.5151426970767,1272.9424633433114
311864.0,14335.0,311864.0,29903.0,311864.0,30039.0,1460.9290055579804,969.6332543505189,1267.4107926403915
311864.0,14327.0,311864.0,29859.0,311864.0,30030.0,1458.3242482613725,967.449988263505,1261.550617817977
311864.0,14338.0,311864.0,29896.0,311864.0,30028.0,1455.2387636504725,964.9701444287869,1255.3661596175384
311874.0,14359.0,311874.0,29917.0,311874.0,30066.0,1451.683860230493,962.1966974381448,1248.8602205848151
311874.0,14338.0,311874.0,29906.0,311874.0,30035.0,1447.6695956138856,959.1311534656597,1242.034529963107
311874.0,14368.0,311874.0,29931.0,311874.0,30074.0,1443.2051137462295,955.7740667324351,1234.8902186641149
311874.0,14384.0,311874.0,29977.0,311874.0,30085.0,1438.2989912185942,952.1255454058775,1227.4283149742225
311874.0,14383.0,311874.0,30005.0,311874.0,30102.0,1432.9597502156416,948.1860464167995,1219.6504086831721
311874.0,14362.0,311874.0,29998.0,311874.0,30068.0,1427.1963658005884,943.957445013333,1211.5593581230294
311885.0,14330.0,311885.0,29899.0,311885.0,30024.0,1421.0183867986455,939.4436687007841,1203.1595624616452
311885.0,14308.0,311885.0,29880.0,311885.0,30011.0,1414.435593087394,934.6502296992636,1194.4565988083978
311885.0,14301.0,311885.0,29866.0,311885.0,29995.0,1407.4574480262982,929.5829876879494,1185.456592310678
311885.0,14283.0,311885.0,29877.0,311885.0,29943.0,1400.092655345821,924.2471686960732,1176.165691433396
311885.0,14281.0,311885.0,29871.0,311885.0,29950.0,1392.3489132888797,918.6470831588932,1166.5895753792354
311885.0,14292.0,311885.0,29858.0,311885.0,29986.0,1384.232845491312,912.786207040117,1156.7331088107394
311895.0,14304.0,311895.0,29896.0,311895.0,29961.0,1375.7501872791033,906.6673243490825,1146.600536295226
311895.0,14302.0,311895.0,29884.0,311895.0,29984.0,1366.906229190016,900.2928179578831,1136.1960463216362
311895.0,14303.0,311895.0,29907.0,311895.0,29965.0,1357.706315157716,893.6651632644033,1125.5242615526067
311895.0,14321.0,311895.0,29985.0,311895.0,30006.0,1348.1562757818356,886.7876165220941,1114.5906673110803
311895.0,14306.0,311895.0,29937.0,311895.0,29979.0,1338.2628693583927,879.6652252392182,1103.4021521840677
311895.0,14279.0,311895.0,29909.0,311895.0,29945.0,1328.034145480307,872.3057173353175,1091.9674784245185
311905.0,14251.0,311905.0,29846.0,311905.0,29918.0,1317.479463855394,864.7194755862289,1080.2972933701244
311905.0,14212.0,311905.0,29789.0,311905.0,29873.0,1306.6091154657547,856.9185829422455,1068.4036552876
311905.0,14211.0,311905.0,29799.0,311905.0,29868.0,1295.433766356066,848.9155414629638,1056.2993930508735
311905.0,14176.0,311905.0,29780.0,311905.0,29827.0,1283.9639847852263,840.7223120838141,1043.9975481890235
311905.0,14213.0,311905.0,29795.0,311905.0,29863.0,1272.2100193717968,832.3499864757792,1031.5110425809262
311905.0,14187.0,311905.0,29796.0,311905.0,29860.0,1260.181914914585,823.8089145544931,1018.8527474421004
311916.0,14184.0,311916.0,29794.0,311916.0,29817.0,1247.8898502042118,815.1090322913153,1006.0358864023589
311916.0,14178.0,311916.0,29786.0,311916.0,29829.0,1235.3444141771154,806.2602053291986,993.0743088230269
311916.0,14174.0,311916.0,29843.0,311916.0,29823.0,1222.556785675445,797.272579981588,979.982531736091
311916.0,14180.0,311916.0,29887.0,311916.0,29846.0,1209.5389803875696,788.1573136508222,966.7759648154496
311916.0,14167.0,311916.0,29832.0,311916.0,29807.0,1196.3041949591238,778.9277389658876,953.4713948073395
311916.0,14130.0,311916.0,29753.0,311916.0,29759.0,1182.867088007778,769.6000384508181,940.0872715560702
311926.0,14087.0,311926.0,29697.0,311926.0,29738.0,1169.2437163153636,760.1925995628905,926.6434247391711
311926.0,14069.0,311926.0,29650.0,311926.0,29689.0,1155.451054894378,750.7244583752042,913.1603928523549
311926.0,14037.0,311926.0,29636.0,311926.0,29693.0,1141.5063918300968,741.2137703317895,899.6587645060522
311926.0,14027.0,311926.0,29650.0,311926.0,29655.0,1127.4268665111376,731.6768538835511,886.1587256545045
311926.0,14021.0,311926.0,29685.0,311926.0,29664.0,1113.2292195020696,722.1280249925512,872.6798343585768
311926.0,14024.0,311926.0,29686.0,311926.0,29657.0,1098.9298020760107,712.5801592439786,859.2410062423595
311936.0,14006.0,311936.0,29677.0,311936.0,29642.0,1084.5448185567825,703.0455075465411,845.860691796767
311936.0,13984.0,311936.0,29687.0,311936.0,29634.0,1070.0905803534579,693.5362833495867,832.5571032552627
311936.0,14024.0,311936.0,29719.0,311936.0,29665.0,1055.5836821153096,684.0650938238784,819.3484438948592
311936.0,13987.0,311936.0,29725.0,311936.0,29636.0,1041.0413261307303,674.645576846244,806.2533172544875
311936.0,13953.0,311936.0,29643.0,311936.0,29622.0,1026.4817094316527,665.293049093781,793.2911922281671
311936.0,13920.0,311936.0,29582.0,311936.0,29535.0,1011.9239974695628,656.0243836457931,780.482439757435
311947.0,13893.0,311947.0,29539.0,311947.0,29519.0,997.3878574657693,646.8568575650712,767.8476935996914
311947.0,13875.0,311947.0,29545.0,311947.0,29529.0,982.8929393734779,637.8067318666483,755.4069473578877
311947.0,13833.0,311947.0,29504.0,311947.0,29474.0,968.4584677426692,628.8883404392174,743.1790266076778
311947.0,13833.0,311947.0,29533.0,311947.0,29504.0,954.1028831465164,620.1137197862847,731.181443577303
311947.0,13818.0,311947.0,29580.0,311947.0,29461.0,939.8435851682653,611.4927002040358,719.4303504536888
311947.0,13814.0,311947.0,29534.0,311947.0,29463.0,925.6969078957069,603.0335187152034,707.9405442024785
311957.0,13819.0,311957.0,29530.0,311957.0,29456.0,911.6783091461917,594.7434495282002,696.7254798803835
311957.0,13800.0,311957.0,29590.0,311957.0,29480.0,897.8026777754148,586.6290571217701,685.7973931446866
311957.0,13816.0,311957.0,29634.0,311957.0,29493.0,884.0846816629346,578.6967233474688,675.167750081384
311957.0,13798.0,311957.0,29594.0,311957.0,29440.0,870.5391295776516,570.9537984289236,664.8478600274669
311957.0,13745.0,311957.0,29535.0,311957.0,29433.0,857.181231090537,563.4094366335904,654.8491369846172
311957.0,13740.0,311957.0,29475.0,311957.0,29383.0,844.0264869210432,556.0742502198041,645.1828089062113
311967.0,13700.0,311967.0,29427.0,311967.0,29348.0,831.0902618417779,548.9590302830943,635.8593011464087
311967.0,13666.0,311967.0,29420.0,311967.0,29345.0,818.387310821699,542.0733052091111,626.8875122767297
311967.0,13653.0,311967.0,29413.0,311967.0,29322.0,805.9312822013353,535.424323280233,618.2742247874535
311967.0,13669.0,311967.0,29435.0,311967.0,29355.0,793.7343289698567,529.01667972666,610.0238790726153
311967.0,13659.0,311967.0,29448.0,311967.0,29329.0,781.8071272153567,522.8525090681554,602.1387165525551
311967.0,13628.0,311967.0,29444.0,311967.0,29347.0,770.1591677888546,516.9319977254886,594.6191056060161
311978.0,13645.0,311978.0,29453.0,311978.0,29350.0,758.798928231954,511.25390314934,587.46387821788
311978.0,13656.0,311978.0,29526.0,311978.0,29403.0,747.7340056048948,505.8160794513418,580.6708048172699
311978.0,13651.0,311978.0,29505.0,311978.0,29370.0,736.9715195636493,500.6163252657136,574.2373429229069
311978.0,13618.0,311978.0,29470.0,311978.0,29343.0,726.5185931803449,495.65328272012084,568.1612650323516
311978.0,13573.0,311978.0,29424.0,311978.0,29276.0,716.3824276022394,490.9265963035009,562.4405728808596
311978.0,13539.0,311978.0,29400.0,311978.0,29292.0,706.5698104433717,486.4362183438366,557.0727224264184
311988.0,13548.0,311988.0,29357.0,311988.0,29294.0,697.0863855221567,482.1814095412582,552.0538699566445
311988.0,13525.0,311988.0,29362.0,311988.0,29259.0,687.9361754953677,478.1598251478503,547.3786149810068
311988.0,13522.0,311988.0,29391.0,311988.0,29281.0,679.1214624444888,474.3669559843884,543.0399688591823
311988.0,13537.0,311988.0,29401.0,311988.0,29266.0,670.642838080177,470.7961915066816,539.0293044714609
311988.0,13520.0,311988.0,29427.0,311988.0,29275.0,662.4993951566165,467.43939578549134,535.336408578848
311988.0,13537.0,311988.0,29395.0,311988.0,29286.0,654.6890337637809,464.2875493650365,531.9496594105952
311998.0,13519.0,311998.0,29441.0,311998.0,29305.0,647.2087590743776,461.33116179145884,528.8563338528802
311998.0,13534.0,311998.0,29500.0,311998.0,29359.0,640.0549422751538,458.56072222413525,526.043184243792
311998.0,13533.0,311998.0,29451.0,311998.0,29313.0,633.2235913187062,455.9675405530812,523.4972487490313
311998.0,13496.0,311998.0,29396.0,311998.0,29299.0,626.7105951804963,453.5443681571041,521.2064019489025
311998.0,13465.0,311998.0,29383.0,311998.0,29248.0,620.5116806868211,451.2850012337341,519.1591664279874
311998.0,13459.0,311998.0,29343.0,311998.0,29245.0,614.6219585998606,449.18324334956134,517.3439638473627
312008.0,13434.0,312008.0,29322.0,312008.0,29235.0,609.0353727775858,447.23192560498705,515.7483401391024
312008.0,13460.0,312008.0,29354.0,312008.0,29241.0,603.7443682716462,445.4221829515343,514.3585072145435
312008.0,13440.0,312008.0,29399.0,312008.0,29273.0,598.7398534397528,443.74327831743005,513.1592886144897
312008.0,13450.0,312008.0,29368.0,312008.0,29273.0,594.0113571543926,442.1831164892375,512.1344391913461
312008.0,13461.0,312008.0,29411.0,312008.0,29255.0,589.5472377147681,440.7289138298784,511.2670944394111
312008.0,13472.0,312008.0,29428.0,312008.0,29296.0,585.334986293424,439.36770041977,510.54004238737514
312018.0,13497.0,312018.0,29463.0,312018.0,29300.0,581.3617123067406,438.0869545336837,509.9359683468331
312018.0,13491.0,312018.0,29467.0,312018.0,29319.0,577.6147402748345,436.8754467621679,509.4379321022536
312018.0,13461.0,312018.0,29441.0,312018.0,29312.0,574.082071684648,435.7239278776104,509.0299020312099
312018.0,13418.0,312018.0,29374.0,312018.0,29269.0,570.7523560852733,434.6252054626422,508.6970046869351
312018.0,13416.0,312018.0,29333.0,312018.0,29251.0,567.614319186032,433.57336068208775,508.42526167781233
312018.0,13413.0,312018.0,29343.0,312018.0,29250.0,564.6560996177465,432.56247375647615,508.20094384457707
312029.0,13405.0,312029.0,29319.0,312029.0,29233.0,561.8649055425324,431.585615212936,508.00998841112
312029.0,13420.0,312029.0,29305.0,312029.0,29243.0,559.2269651913435,430.63432775083027,507.83767585985277
312029.0,13434.0,312029.0,29363.0,312029.0,29266.0,556.7276705568385,429.6983864645522,507.6685447295796
312029.0,13423.0,312029.0,29387.0,312029.0,29271.0,554.3518944458185,428.7660218565032,507.4866075463578
312029.0,13433.0,312029.0,29383.0,312029.0,29274.0,552.0843073182602,427.824697032745,507.2757611262407
312029.0,13430.0,312029.0,29436.0,312029.0,29309.0,549.9095689257097,426.8619638778698,507.0201873646127
312039.0,13456.0,312039.0,29474.0,312039.0,29342.0,547.8125207094724,425.8662812246564,506.704866447099
312039.0,13445.0,312039.0,29424.0,312039.0,29291.0,545.7784968245853,424.8279309948355,506.31624143402735
312039.0,13439.0,312039.0,29389.0,312039.0,29272.0,543.7936328507463,423.7394761495139,505.8425004341719
312039.0,13416.0,312039.0,29331.0,312039.0,29244.0,541.8449379079565,422.5952204261373,505.27313074656684
312039.0,13390.0,312039.0,29317.0,312039.0,29234.0,539.9200415792485,421.3900121154811,504.59814402734787
312039.0,13382.0,312039.0,29307.0,312039.0,29245.0,538.0067111767239,420.1180781161812,503.80747268696985
312049.0,13400.0,312049.0,29297.0,312049.0,29229.0,536.0924028381614,418.7722709305358,502.89069569750166
312049.0,13401.0,312049.0,29346.0,312049.0,29271.0,534.1641483867312,417.34379558108424,501.8370496165017
312049.0,13388.0,312049.0,29386.0,312049.0,29258.0,532.2087318140459,415.82251989076315,500.63568064096944
312049.0,13409.0,312049.0,29383.0,312049.0,29262.0,530.21286236397,414.19785221493464,499.2760186347309
312049.0,13401.0,312049.0,29393.0,312049.0,29300.0,528.1633102366819,412.45966886918455,497.7481095523983
312049.0,13440.0,312049.0,29453.0,312049.0,29293.0,526.0471692584308,410.59897588112153,496.0430158740762
312060.0,13446.0,312060.0,29462.0,312060.0,29304.0,523.8523299102123,408.6086676242756,494.15333393322805
312060.0,13410.0,312060.0,29394.0,312060.0,29250.0,521.5680072977116,406.4843461843531,492.0734945049402
312060.0,13387.0,312060.0,29326.0,312060.0,29229.0,519.184879228545,404.2243335039556,489.7995332130407
312060.0,13376.0,312060.0,29290.0,312060.0,29209.0,516.6946748684422,401.82850610824653,487.32840176703144
312060.0,13362.0,312060.0,29292.0,312060.0,29198.0,514.0896089041556,399.29674375067975,484.65722288273054
312060.0,13351.0,312060.0,29264.0,312060.0,29197.0,511.3619670664201,396.6278621983207,481.7827925503001
312070.0,13357.0,312070.0,29287.0,312070.0,29196.0,508.50384124518143,393.819131360927,478.7013540325417
312070.0,13367.0,312070.0,29338.0,312070.0,29204.0,505.5070508749048,390.8662755990446,475.4085931057502
312070.0,13366.0,312070.0,29354.0,312070.0,29221.0,502.3633034606291,387.76408783802066,471.8998303775293
312070.0,13376.0,312070.0,29318.0,312070.0,29210.0,499.064485224128,384.5073520351293,468.17036629403486
312070.0,13378.0,312070.0,29344.0,312070.0,29246.0,495.6029627325214,381.091380021082,464.2158838657757
312070.0,13384.0,312070.0,29425.0,312070.0,29232.0,491.97188564556177,377.5123085805841,460.03288901773203
312080.0,13381.0,312080.0,29384.0,312080.0,29227.0,488.16547867870145,373.76786116542235,455.6191340537143
312080.0,13358.0,312080.0,29309.0,312080.0,29185.0,484.1792319292384,369.85812306486525,450.9737632806167
312080.0,13336.0,312080.0,29286.0,312080.0,29160.0,480.0098440397612,365.78524133981796,446.0970007506394
312080.0,13317.0,312080.0,29238.0,312080.0,29140.0,475.654877868646,361.55221141692414,440.9895157393353
312080.0,13305.0,312080.0,29240.0,312080.0,29139.0,471.112292696896,357.16167714645724,435.6517998707907
312080.0,13277.0,312080.0,29224.0,312080.0,29149.0,466.3800109035175,352.61515303231994,430.08385133600365
312091.0,13327.0,312091.0,29271.0,312091.0,29133.0,461.4556304829904,347.9127434356993,424.2852086885001
312091.0,13318.0,312091.0,29266.0,312091.0,29147.0,456.3365242942365,343.0534072745643,418.2551399382316
312091.0,13293.0,312091.0,29267.0,312091.0,29152.0,451.0202674266478,338.03553953035464,411.99287564890494
312091.0,13299.0,312091.0,29279.0,312091.0,29140.0,445.50488683216196,332.85747091436826,405.4979184350018
312091.0,13309.0,312091.0,29310.0,312091.0,29167.0,439.7888624650452,327.51787966411666,398.770382330054
312091.0,13315.0,312091.0,29345.0,312091.0,29148.0,433.87128675420195,322.0164474020311,391.81134382045434
312101.0,13282.0,312101.0,29283.0,312101.0,29125.0,427.7521864988121,316.35468825664,384.6231377502197
312101.0,13243.0,312101.0,29224.0,312101.0,29088.0,421.43257008813765,310.53622877854446,377.20932283013883
312101.0,13227.0,312101.0,29168.0,312101.0,29051.0,414.91398148053884,304.56601647976095,369.5741992984815
312101.0,13232.0,312101.0,29178.0,312101.0,29056.0,408.1978928002145,298.44895067291475,361.72212349076466
312101.0,13206.0,312101.0,29148.0,312101.0,29038.0,401.2853625094722,292.1888360177069,353.6570016671427
312101.0,13205.0,312101.0,29176.0,312101.0,29050.0,394.17692875539825,285.787966233426,345.3821471184713
312111.0,13215.0,312111.0,29172.0,312111.0,29051.0,386.87257393494275,279.24717191473144,336.90042554656463
312111.0,13222.0,312111.0,29171.0,312111.0,29024.0,379.3718737854721,272.5661340502848,328.21452468584573
312111.0,13211.0,312111.0,29189.0,312111.0,29026.0,371.6743653983618,265.743764886741,319.3271254586888
312111.0,13201.0,312111.0,29210.0,312111.0,29033.0,363.77988119701934,258.77864804490434,310.24095635798164
312111.0,13231.0,312111.0,29264.0,312111.0,29064.0,355.68875781867047,251.66976456830488,300.95904666369046
312111.0,13209.0,312111.0,29221.0,312111.0,29037.0,347.4021303635466,244.4174907697784,291.4853018436811
312122.0,13177.0,312122.0,29179.0,312122.0,28977.0,338.92224925744443,237.02428101637526,281.824939623587
312122.0,13135.0,312122.0,29118.0,312122.0,28962.0,330.2523967281304,229.49442022083224,271.9842563787443
312122.0,13136.0,312122.0,29084.0,312122.0,28927.0,321.3963542515979,221.83297547862077,261.9699017654864
312122.0,13103.0,312122.0,29080.0,312122.0,28914.0,312.3578478682932,214.0446125244515,251.78820374888556
312122.0,13092.0,312122.0,29048.0,312122.0,28902.0,303.140189812082,206.1327787391034,241.44473404721958
312122.0,13105.0,312122.0,29097.0,312122.0,28916.0,293.74606776462457,198.09937196460038,230.94413605272007
312132.0,13098.0,312132.0,29113.0,312132.0,28907.0,284.17757269422043,189.9449597771786,220.29027171123948
312132.0,13076.0,312132.0,29092.0,312132.0,28901.0,274.43644090353627,181.66947832083275,209.48656173509875
312132.0,13089.0,312132.0,29107.0,312132.0,28905.0,264.52424712941206,173.2729067669086,198.5363085500261
312132.0,13099.0,312132.0,29154.0,312132.0,28922.0,254.44258505833795,164.75574942069358,187.44303423596358
312132.0,13106.0,312132.0,29133.0,312132.0,28873.0,244.19348613913616,156.11971401634497,176.21089405709228
312132.0,13067.0,312132.0,29112.0,312132.0,28871.0,233.77994306627255,147.36844855813814,164.84490035162236
312142.0,13027.0,312142.0,29021.0,312142.0,28824.0,223.20607442774343,138.5076465553571,153.35076438804344
312142.0,13004.0,312142.0,28972.0,312142.0,28801.0,212.47673209119176,129.54418864079634,141.7344895889342
312142.0,12989.0,312142.0,28961.0,312142.0,28790.0,201.5968770137489,120.4847170455979,130.0018879553573
312142.0,12980.0,312142.0,28975.0,312142.0,28776.0,190.571142231282,111.33451494397627,118.15821377725985
312142.0,12973.0,312142.0,28961.0,312142.0,28774.0,179.40368607861944,102.0971943703222,106.2080500322968
312142.0,12959.0,312142.0,29005.0,312142.0,28755.0,168.09822418551454,92.77497397985957,94.15537040048241
312153.0,12957.0,312153.0,28983.0,312153.0,28758.0,156.65812273458323,83.3692348783407,82.00365734335253
312153.0,12944.0,312153.0,28953.0,312153.0,28721.0,145.08651440516246,73.88105695276647,69.75600528382984
312153.0,12933.0,312153.0,28994.0,312153.0,28743.0,133.38642676981783,64.31144828103112,57.415176389712656
312153.0,12971.0,312153.0,29034.0,312153.0,28766.0,121.56097969980272,54.661635893025846,44.983797060440224
312153.0,12925.0,312153.0,28994.0,312153.0,28729.0,109.61377309659065,44.93385293926468,32.46488120176309
312153.0,12903.0,312153.0,28953.0,312153.0,28706.0,97.54923615974803,35.13202521924529,19.862307829902534
312163.0,12863.0,312163.0,28873.0,312163.0,28676.0,85.37251915851516,25.261537383504844,7.180799586682156
312163.0,12860.0,312163.0,28874.0,312163.0,28625.0,73.0890287466492,15.328187963153937,-5.574508920076028
312163.0,12827.0,312163.0,28849.0,312163.0,28630.0,60.70401139803073,5.33710612133433,-18.39865001904559
312163.0,12788.0,312163.0,28826.0,312163.0,28602.0,48.222237407107514,-4.707870191746792,-31.287296318199083
312163.0,12794.0,312163.0,28835.0,312163.0,28581.0,35.64762946032465,-14.804472213859128,-44.23698900921693
312163.0,12810.0,312163.0,28866.0,312163.0,28620.0,22.98303799649034,-24.95199530951004,-57.24517591333972
312173.0,12795.0,312173.0,28863.0,312173.0,28596.0,10.230474879079907,-35.15083083921644,-70.30995819853433
312173.0,12805.0,312173.0,28857.0,312173.0,28585.0,-2.6083768528116025,-45.40174748140697,-83.42960049816702
312173.0,12800.0,312173.0,28920.0,312173.0,28610.0,-15.531682811408245,-55.70522556416381,-96.60212627295869
312173.0,12795.0,312173.0,28922.0,312173.0,28590.0,-28.53702292092123,-66.06062178816848,-109.82494181883169
312173.0,12758.0,312173.0,28850.0,312173.0,28549.0,-41.62106166966453,-76.4652311238628,-123.09445054390017
312173.0,12722.0,312173.0,28782.0,312173.0,28508.0,-54.77954362496655,-86.91412623260362,-136.40606437267422
312184.0,12697.0,312184.0,28757.0,312184.0,28484.0,-68.00767503392774,-97.40112865284505,-149.75472572470755
312184.0,12668.0,312184.0,28714.0,312184.0,28470.0,-81.30066903824729,-107.92014086707877,-163.13553142323224
312184.0,12653.0,312184.0,28707.0,312184.0,28430.0,-94.65421585642878,-118.46614530061157,-176.54416323022303
312184.0,12644.0,312184.0,28733.0,312184.0,28441.0,-108.06478297062995,-129.03570651619526,-189.97716563733127
312184.0,12646.0,312184.0,28717.0,312184.0,28454.0,-121.5296827219654,-139.62691200321956,-203.43200629293983
312184.0,12641.0,312184.0,28738.0,312184.0,28440.0,-135.0468851707268,-150.23892166754342,-216.90674514126601
312194.0,12636.0,312194.0,28700.0,312194.0,28430.0,-148.6146754769635,-160.87150655011766,-230.39952890063455
312194.0,12618.0,312194.0,28737.0,312194.0,28444.0,-162.23131979656182,-171.5247366844925,-243.9082124870688
312194.0,12638.0,312194.0,28756.0,312194.0,28422.0,-175.89479237394858,-182.19859954844003,-257.43002448113987
312194.0,12622.0,312194.0,28783.0,312194.0,28401.0,-189.60243842627267,-192.8922394898001,-270.96125243175754
312194.0,12571.0,312194.0,28703.0,312194.0,28374.0,-203.35064169990562,-203.60307919970563,-284.49716665524045
312194.0,12548.0,312194.0,28670.0,312194.0,28323.0,-217.13487320331,-214.32660847477575,-298.0322716974722
312204.0,12513.0,312204.0,28618.0,312204.0,28305.0,-230.95017587641973,-225.05710141559285,-311.5608228767587
312204.0,12487.0,312204.0,28560.0,312204.0,28282.0,-244.79174333336482,-235.7887785335888,-325.07742392345745
312204.0,12465.0,312204.0,28576.0,312204.0,28258.0,-258.6554066528048,-246.51693431789602,-338.5774731700998
312204.0,12496.0,312204.0,28609.0,312204.0,28277.0,-272.5379119926713,-257.2385629583622,-352.0573734674306
312204.0,12460.0,312204.0,28592.0,312204.0,28255.0,-286.4368070303691,-267.95213631632623,-365.5144634775444
312204.0,12455.0,312204.0,28600.0,312204.0,28264.0,-300.35011240158417,-278.65694303489477,-378.9467149864213
312215.0,12443.0,312215.0,28594.0,312215.0,28259.0,-314.27613237437083,-289.3525737018108,-392.35236025036454
312215.0,12465.0,312215.0,28651.0,312215.0,28280.0,-328.213311739054,-300.03845900856027,-405.72944945119843
312215.0,12487.0,312215.0,28653.0,312215.0,28246.0,-342.159786850597,-310.7130784492067,-419.07531201986626
312215.0,12434.0,312215.0,28603.0,312215.0,28207.0,-356.1126693351707,-321.3730176786895,-432.38620926933856
312215.0,12369.0,312215.0,28514.0,312215.0,28180.0,-370.06770000315703,-332.01271241093457,-445.657490082569
312215.0,12352.0,312215.0,28487.0,312215.0,28150.0,-384.01974459431267,-342.6253322835165,-458.88411014163967
312225.0,12330.0,312225.0,28484.0,312225.0,28121.0,-397.9636640132089,-353.2041208457189,-472.0611809324647
312225.0,12308.0,312225.0,28410.0,312225.0,28096.0,-411.89489138872773,-363.74335405877855,-485.1844535686813
312225.0,12299.0,312225.0,28428.0,312225.0,28121.0,-425.8096796916718,-374.2389741778877,-498.2506586638284
312225.0,12298.0,312225.0,28478.0,312225.0,28091.0,-439.7051718357636,-384.6889578809338,-511.25750406412567
312225.0,12297.0,312225.0,28484.0,312225.0,28102.0,-453.5792589829125,-395.09292498831167,-524.2033953094292
312225.0,12281.0,312225.0,28478.0,312225.0,28087.0,-467.4302676252088,-405.4511396259319,-537.0871338906896
312235.0,12287.0,312235.0,28477.0,312235.0,28094.0,-481.2566333694846,-415.7636890592905,-549.9076297902058
312235.0,12277.0,312235.0,28516.0,312235.0,28097.0,-495.0565958903869,-426.02997984125614,-562.6635413320013
312235.0,12265.0,312235.0,28488.0,312235.0,28056.0,-508.82788273187725,-436.2481728489064,-575.3528990499478
312235.0,12228.0,312235.0,28460.0,312235.0,28033.0,-522.5675074924014,-446.41466044900824,-587.9729746840966
312235.0,12184.0,312235.0,28359.0,312235.0,27999.0,-536.2718949629133,-456.5241727365868,-600.5205511990125
312235.0,12165.0,312235.0,28356.0,312235.0,27965.0,-549.9373656951495,-466.57073961873414,-612.9924299912083
312246.0,12145.0,312246.0,28299.0,312246.0,27950.0,-563.5607129826973,-476.54899285682336,-625.385979085162
312246.0,12130.0,312246.0,28292.0,312246.0,27941.0,-577.1395829784855,-486.4552072017725,-637.6995706378353
312246.0,12131.0,312246.0,28322.0,312246.0,27963.0,-590.672607457213,-496.28787436390076,-649.932701414858
312246.0,12138.0,312246.0,28340.0,312246.0,27943.0,-604.1592933475312,-506.04763589252786,-662.0857234386488
312246.0,12112.0,312246.0,28339.0,312246.0,27929.0,-617.5996994389498,-515.7366094204638,-674.1594418422228
312246.0,12112.0,312246.0,28340.0,312246.0,27917.0,-630.9941168242822,-525.3576121678639,-686.1549097901492
312256.0,12120.0,312256.0,28389.0,312256.0,27941.0,-644.3428441507324,-534.9135265197801,-698.0733415221836
312256.0,12097.0,312256.0,28380.0,312256.0,27925.0,-657.6459018520225,-544.4065505883123,-709.9158298155772
312256.0,12070.0,312256.0,28357.0,312256.0,27898.0,-670.9027663077952,-553.8373883203399,-721.6829467583166
312256.0,12045.0,312256.0,28273.0,312256.0,27880.0,-684.1123930896815,-563.2049902532626,-733.3746082632716
312256.0,12012.0,312256.0,28251.0,312256.0,27848.0,-697.2735252663567,-572.5072071451725,-744.9902812338377
312256.0,12021.0,312256.0,28217.0,312256.0,27818.0,-710.3850540736519,-581.7419396220633,-756.5293633919533
312267.0,11974.0,312267.0,28198.0,312267.0,27809.0,-723.4462437832331,-590.9081261914997,-767.9916265020928
312267.0,11968.0,312267.0,28197.0,312267.0,27800.0,-736.4568794925929,-600.0063430220564,-779.3775631334307
312267.0,11973.0,312267.0,28233.0,312267.0,27794.0,-749.417418808888,-609.0389750410393,-790.6884872104165
312267.0,11954.0,312267.0,28245.0,312267.0,27801.0,-762.328975419355,-618.0098227429272,-801.9264126208685
312267.0,11957.0,312267.0,28226.0,312267.0,27773.0,-775.1931021574233,-626.9233429625864,-813.0938211471519
312267.0,11958.0,312267.0,28232.0,312267.0,27799.0,-788.0115212652158,-635.784047643465,-824.1934248937963
312277.0,11955.0,312277.0,28297.0,312277.0,27788.0,-800.7857856197836,-644.5960786814452,-835.2278826632569
312277.0,11942.0,312277.0,28236.0,312277.0,27777.0,-813.516889088932,-653.362558013757,-846.1994196061959
312277.0,11914.0,312277.0,28187.0,312277.0,27730.0,-826.2050101324414,-662.0850791213275,-857.1096050552129
312277.0,11868.0,312277.0,28174.0,312277.0,27710.0,-838.8495727804345,-670.7640319602237,-867.9595596518468
312277.0,11837.0,312277.0,28107.0,312277.0,27675.0,-851.4496958144043,-679.3995022328631,-878.750488506062
312277.0,11834.0,312277.0,28098.0,312277.0,27657.0,-864.0048257709616,-687.9922127396779,-889.4842671452151
312287.0,11789.0,312287.0,28111.0,312287.0,27650.0,-876.5152239255151,-696.5442922822976,-900.1639061676916
312287.0,11834.0,312287.0,28134.0,312287.0,27671.0,-888.9821878700811,-705.059507817423,-910.7937326385744
312287.0,11823.0,312287.0,28134.0,312287.0,27676.0,-901.4079125615926,-713.542836344486,-921.3791383747978
312287.0,11814.0,312287.0,28131.0,312287.0,27654.0,-913.7949928271705,-721.999813533456,-931.9260508108198
312287.0,11787.0,312287.0,28113.0,312287.0,27661.0,-926.1459841486783,-730.436092016297,-942.4405107842076
312287.0,11801.0,312287.0,28174.0,312287.0,27677.0,-938.4632746149557,-738.8571646499757,-952.9283995556425
312298.0,11809.0,312298.0,28198.0,312298.0,27678.0,-950.748954289385,-747.2677770036792,-963.3950234605516
312298.0,11770.0,312298.0,28164.0,312298.0,27632.0,-963.0044734785104,-755.6709256944486,-973.8446268400526
312298.0,11738.0,312298.0,28052.0,312298.0,27594.0,-975.2304460135429,-764.0673247698055,-984.2803208013158
312298.0,11714.0,312298.0,28062.0,312298.0,27582.0,-987.4269172483828,-772.4561009628152,-994.7045693319631
312298.0,11694.0,312298.0,28010.0,312298.0,27542.0,-999.5938680735899,-780.8361187703246,-1005.1198360155815
312298.0,11659.0,312298.0,27955.0,312298.0,27538.0,-1011.731659478168,-789.2070813596961,-1015.5290998462856
312308.0,11656.0,312308.0,27997.0,312308.0,27537.0,-1023.8414075360711,-797.5703830397966,-1025.936187439383
312308.0,11657.0,312308.0,28027.0,312308.0,27543.0,-1035.9252260669869,-805.9294927096006,-1036.3458041629672
312308.0,11660.0,312308.0,28020.0,312308.0,27532.0,-1047.9861588473311,-814.289481706852,-1046.7632721620562
312308.0,11644.0,312308.0,28020.0,312308.0,27536.0,-1060.0278579697706,-822.6562039028003,-1057.1941936885707
312308.0,11641.0,312308.0,28032.0,312308.0,27544.0,-1072.0542693174853,-831.0357451226944,-1067.6441286143304
312308.0,11658.0,312308.0,28085.0,312308.0,27543.0,-1084.0693796818655,-839.4339312471949,-1078.1181989329068
312318.0,11651.0,312318.0,28072.0,312318.0,27517.0,-1096.0768432683592,-847.8555103030986,-1088.620680788894
312318.0,11618.0,312318.0,28032.0,312318.0,27487.0,-1108.0795461566192,-856.3033139480517,-1099.1548530290459
312318.0,11558.0,312318.0,27957.0,312318.0,27460.0,-1120.0795396540677,-864.7781530514047,-1109.723239752059
312318.0,11556.0,312318.0,27931.0,312318.0,27452.0,-1132.078544822481,-873.2796759604998,-1120.3280585434743
312318.0,11532.0,312318.0,27920.0,312318.0,27421.0,-1144.0786193164658,-881.8075762310258,-1130.9716071788478
312318.0,11517.0,312318.0,27904.0,312318.0,27412.0,-1156.0825513725997,-890.3624313993614,-1141.6565441965056
312329.0,11532.0,312329.0,27905.0,312329.0,27439.0,-1168.0939727828268,-898.9460392295892,-1152.3860369535316
312329.0,11532.0,312329.0,27935.0,312329.0,27433.0,-1180.1172109984352,-907.5613971183982,-1163.1635645885237
312329.0,11511.0,312329.0,27944.0,312329.0,27408.0,-1192.1569126299732,-916.2122922213599,-1173.9924567405267
312329.0,11502.0,312329.0,27950.0,312329.0,27405.0,-1204.217733671008,-924.9025872064055,-1184.8756050394868
312329.0,11519.0,312329.0,27990.0,312329.0,27452.0,-1216.304195462981,-933.6354463919707,-1195.815318933853
312329.0,11507.0,312329.0,28003.0,312329.0,27420.0,-1228.4204431724029,-942.4124879919908,-1206.812888644631
312339.0,11490.0,312339.0,27944.0,312339.0,27388.0,-1240.5698783071755,-951.2329534460655,-1217.8680393356558
312339.0,11457.0,312339.0,27883.0,312339.0,27370.0,-1252.7549808424615,-960.093521144323,-1228.9788653651576
312339.0,11425.0,312339.0,27835.0,312339.0,27331.0,-1264.9775009594277,-968.9891328889609,-1240.1422304631233
312339.0,11431.0,312339.0,27830.0,312339.0,27318.0,-1277.2388584180937,-977.914288810762,-1251.3542736706436
312339.0,11388.0,312339.0,27816.0,312339.0,27290.0,-1289.540460112385,-986.8640155683042,-1262.6108754282548
312339.0,11397.0,312339.0,27828.0,312339.0,27296.0,-1301.883870998559,-995.8342307452153,-1273.9080009591237
312349.0,11392.0,312349.0,27828.0,312349.0,27302.0,-1314.2708767997817,-1004.8216553784899,-1285.2417814394014
312349.0,11394.0,312349.0,27862.0,312349.0,27301.0,-1326.703333203195,-1013.8234245056816,-1296.608264279198
312349.0,11389.0,312349.0,27850.0,312349.0,27314.0,-1339.182819708029,-1022.8364686969119,-1308.002945970987
312349.0,11384.0,312349.0,27841.0,312349.0,27277.0,-1351.710272109276,-1031.8568933292206,-1319.4203082243666
312349.0,11389.0,312349.0,27906.0,312349.0,27318.0,-1364.2856502358818,-1040.8794913008571,-1330.8534870575068
312349.0,11359.0,312349.0,27901.0,312349.0,27300.0,-1376.9076368714693,-1049.8970655269504,-1342.2939374172388
312360.0,11346.0,312360.0,27824.0,312360.0,27267.0,-1389.5734771441248,-1058.8996342492642,-1353.7310348677984
312360.0,11314.0,312360.0,27770.0,312360.0,27251.0,-1402.2790616395487,-1067.874417930128,-1365.1519505657154
312360.0,11289.0,312360.0,27724.0,312360.0,27212.0,-1415.0192047567937,-1076.8069156566469,-1376.5419374784071
312360.0,11264.0,312360.0,27705.0,312360.0,27183.0,-1427.7880293922638,-1085.6823085151584,-1387.8848177914879
312360.0,11260.0,312360.0,27684.0,312360.0,27162.0,-1440.5793427626331,-1094.486512441819,-1399.163546504353
312360.0,11270.0,312360.0,27749.0,312360.0,27183.0,-1453.3867951094408,-1103.206636143656,-1410.3606574525886
312370.0,11268.0,312370.0,27739.0,312370.0,27164.0,-1466.203679823943,-1111.830686689467,-1421.4583211249885
312370.0,11257.0,312370.0,27743.0,312370.0,27172.0,-1479.0225087653725,-1120.3467741314535,-1432.438079597486
312370.0,11252.0,312370.0,27754.0,312370.0,27166.0,-1491.834638219996,-1128.7424105270547,-1443.2805242700445
312370.0,11251.0,312370.0,27836.0,312370.0,27195.0,-1504.6300165788248,-1137.0038754248985,-1453.9649311742935
312370.0,11266.0,312370.0,27834.0,312370.0,27192.0,-1517.3968921212636,-1145.1151342082007,-1464.4687148498563
312370.0,11234.0,312370.0,27767.0,312370.0,27163.0,-1530.121408381169,-1153.056625454486,-1474.7668330089032
312380.0,11190.0,312380.0,27668.0,312380.0,27084.0,-1542.787366752843,-1160.8050754078542,-1484.8316425834726
312380.0,11180.0,312380.0,27654.0,312380.0,27102.0,-1555.3764522496094,-1168.3347307743202,-1494.6334750964702
312380.0,11170.0,312380.0,27657.0,312380.0,27077.0,-1567.8686800907083,-1175.6189602708441,-1504.1414040542618
312380.0,11126.0,312380.0,27615.0,312380.0,27078.0,-1580.2426933638787,-1182.6311754331377,-1513.3235961730732
312380.0,11117.0,312380.0,27688.0,312380.0,27065.0,-1592.4760176376308,-1189.3450614101778,-1522.147328381704
312380.0,11118.0,312380.0,27640.0,312380.0,27070.0,-1604.5453602289597,-1195.7343675170782,-1530.5789286397926
312391.0,11128.0,312391.0,27647.0,312391.0,27073.0,-1616.4266654588243,-1201.7725093399188,-1538.5836335359122
312391.0,11103.0,312391.0,27656.0,312391.0,27052.0,-1628.09483760467,-1207.4323616802958,-1546.1253657800958
312391.0,11108.0,312391.0,27677.0,312391.0,27055.0,-1639.5234318403666,-1212.6861015434029,-1553.1665784250274
312391.0,11128.0,312391.0,27724.0,312391.0,27092.0,-1650.6844111176779,-1217.5046892135992,-1559.668122463332
312391.0,11115.0,312391.0,27695.0,312391.0,27060.0,-1661.5477573593346,-1221.857032847069,-1565.5889022437373
312391.0,11087.0,312391.0,27674.0,312391.0,27043.0,-1672.0810350141896,-1225.70934953086,-1570.885518300343
312401.0,11054.0,312401.0,27574.0,312401.0,26985.0,-1682.2493147164423,-1229.0253248638473,-1575.51240485527
312401.0,11019.0,312401.0,27574.0,312401.0,26982.0,-1692.0155714261964,-1231.767191547906,-1579.4225160119424
312401.0,11006.0,312401.0,27531.0,312401.0,26965.0,-1701.341315329946,-1233.8971513907186,-1582.5681330760597
312401.0,10992.0,312401.0,27516.0,312401.0,26981.0,-1710.187155156098,-1235.3785165940894,-1584.901375605707
312401.0,11016.0,312401.0,27590.0,312401.0,26951.0,-1718.5130664624533,-1236.176336781944,-1586.3743711799418
312401.0,10992.0,312401.0,27591.0,312401.0,26958.0,-1726.278303430072,-1236.2572802182026,-1586.9393505362832
312411.0,10993.0,312411.0,27552.0,312411.0,26971.0,-1733.441167947865,-1235.5889889062182,-1586.548778903137
312411.0,10991.0,312411.0,27602.0,312411.0,26962.0,-1739.9588781295804,-1234.1397100441895,-1585.1553692440202
312411.0,10988.0,312411.0,27655.0,312411.0,26980.0,-1745.7874910682308,-1231.8781219164348,-1582.7119708552632
312411.0,10989.0,312411.0,27654.0,312411.0,26986.0,-1750.881778003333,-1228.7726611192918,-1579.1714400798169
312411.0,10982.0,312411.0,27637.0,312411.0,26960.0,-1755.1950917739466,-1224.790669866083,-1574.4865452559511
312411.0,10934.0,312411.0,27568.0,312411.0,26930.0,-1758.679371704686,-1219.8982568579747,-1568.6101462228737
312422.0,10912.0,312422.0,27506.0,312422.0,26882.0,-1761.2855201584096,-1214.0612188315147,-1561.495910964581
312422.0,10898.0,312422.0,27494.0,312422.0,26890.0,-1762.9641340898563,-1207.2467041179596,-1553.0994353155675
312422.0,10860.0,312422.0,27518.0,312422.0,26905.0,-1763.6662815251143,-1199.4247976691272,-1543.3792511629717
312422.0,10891.0,312422.0,27499.0,312422.0,26904.0,-1763.344138370644,-1190.5693749292298,-1532.297325894021
312422.0,10908.0,312422.0,27565.0,312422.0,26913.0,-1761.9513009423338,-1180.6583084769482,-1519.819212268873
312422.0,10880.0,312422.0,27589.0,312422.0,26922.0,-1759.4426765937465,-1169.6732346955603,-1505.9141858793973
312432.0,10901.0,312432.0,27562.0,312432.0,26935.0,-1755.7743344010146,-1157.599041061358,-1490.555413801387
312432.0,10915.0,312432.0,27594.0,312432.0,26961.0,-1750.9035298526853,-1144.4235906949332,-1473.7200623384383
312432.0,10923.0,312432.0,27672.0,312432.0,26998.0,-1744.7886337871405,-1130.1376988324591,-1455.3892556780984
312432.0,10914.0,312432.0,27664.0,312432.0,26997.0,-1737.3889629120736,-1114.7347281883433,-1435.5478801254378
312432.0,10894.0,312432.0,27660.0,312432.0,26991.0,-1728.6648410933362,-1098.2099755252298,-1414.1845077247199
312432.0,10895.0,312432.0,27592.0,312432.0,26985.0,-1718.578018195559,-1080.5607441301936,-1391.2917554535459
312442.0,10885.0,312442.0,27595.0,312442.0,26999.0,-1707.0922676393716,-1061.7873816162667,-1366.8669994017737
312442.0,10868.0,312442.0,27588.0,312442.0,27022.0,-1694.1739999804295,-1041.8947185037505,-1340.9130758446263
312442.0,10885.0,312442.0,27651.0,312442.0,27052.0,-1679.7928956933301,-1020.8931304414705,-1313.4387122692647
312442.0,10907.0,312442.0,27673.0,312442.0,27102.0,-1663.9224307406403,-998.798829269266,-1284.4586396830264
312442.0,10929.0,312442.0,27742.0,312442.0,27120.0,-1646.5400753127137,-975.6335141184557,-1253.9934587678927
312442.0,10945.0,312442.0,27707.0,312442.0,27188.0,-1627.6272313484103,-951.4238393848004,-1222.0693949904164
312453.0,10969.0,312453.0,27823.0,312453.0,27219.0,-1607.1691422890503,-926.2010732617329,-1188.7179844971988
312453.0,11010.0,312453.0,27919.0,312453.0,27295.0,-1585.1548161391456,-900.0005736116018,-1153.9756272128484
312453.0,11040.0,312453.0,27935.0,312453.0,27339.0,-1561.5768348154263,-872.8605337676445,-1117.8829960032504
312453.0,11044.0,312453.0,27985.0,312453.0,27374.0,-1536.4310966839294,-844.8205698467173,-1080.4844201292317
312453.0,11039.0,312453.0,27908.0,312453.0,27386.0,-1509.7168183413937,-815.9211480649149,-1041.8275310684962
312453.0,11041.0,312453.0,27917.0,312453.0,27412.0,-1481.4370163528388,-786.2041705240995,-1001.9633858077132
312463.0,11085.0,312463.0,27957.0,312463.0,27451.0,-1451.5992402798252,-755.7142587654089,-960.9469082069096
312463.0,11110.0,312463.0,28007.0,312463.0,27496.0,-1420.2160954808426,-724.4997076909285,-918.8372865518483
312463.0,11141.0,312463.0,28078.0,312463.0,27559.0,-1387.3054097194754,-692.6125255630094,-875.6980988497751
312463.0,11200.0,312463.0,28147.0,312463.0,27630.0,-1352.8902212505718,-660.1077851678983,-831.5971052578325
312463.0,11245.0,312463.0,28205.0,312463.0,27715.0,-1316.9986141105717,-627.0426365907119,-786.6056873704683
312463.0,11267.0,312463.0,28192.0,312463.0,27763.0,-1279.663412005883,-593.4754068321736,-740.7980252661844
312473.0,11331.0,312473.0,28297.0,312473.0,27825.0,-1240.9219524972298,-559.4651608360643,-694.2503034476097
312473.0,11404.0,312473.0,28369.0,312473.0,27913.0,-1200.8158857756525,-525.0713456332658,-647.0400970820866
312473.0,11452.0,312473.0,28425.0,312473.0,27960.0,-1159.3907013585683,-490.3529126281221,-599.2457559711387
312473.0,11459.0,312473.0,28412.0,312473.0,27997.0,-1116.6951817062036,-455.36731073465387,-550.9458080262121
312473.0,11504.0,312473.0,28398.0,312473.0,28050.0,-1072.7812993571056,-420.1702732985488,-502.2186893446919
312473.0,11544.0,312473.0,28435.0,312473.0,28086.0,-1027.7045398096975,-384.8165527693437,-453.1427963189642
312484.0,11617.0,312484.0,28472.0,312484.0,28146.0,-981.5241587201649,-349.3608525320747,-403.79661034079925
312484.0,11670.0,312484.0,28513.0,312484.0,28188.0,-934.3030862681819,-313.8582842605315,-354.25877315673586
312484.0,11730.0,312484.0,28566.0,312484.0,28262.0,-886.1075779529101,-278.3643611516863,-304.6080658053071
312484.0,11779.0,312484.0,28657.0,312484.0,28339.0,-837.0068506023263,-242.93466691195727,-254.9231873993573
312484.0,11860.0,312484.0,28687.0,312484.0,28389.0,-787.0727844225228,-207.62416227250424,-205.28227656096533
312484.0,11913.0,312484.0,28752.0,312484.0,28447.0,-736.3795694463756,-172.48634580076907,-155.7623773567965
312494.0,11992.0,312494.0,28855.0,312494.0,28562.0,-685.0032394140239,-137.5724594899475,-106.43896255839013
312494.0,12082.0,312494.0,28907.0,312494.0,28608.0,-633.0211008031197,-102.93047634515551,-57.385246629612766
312494.0,12140.0,312494.0,28902.0,312494.0,28656.0,-580.5110059814064,-68.60398771775692,-8.671344690734486
312494.0,12172.0,312494.0,28881.0,312494.0,28666.0,-527.5506703545697,-34.63181654308687,39.63615624287468
