c_ts,c_val,d_ts,d_val,e_ts,e_val,c_val_filtered,d_val_filtered,e_val_filtered
138378,22636,138378.0,58695.0,138378.0,92523.0,654.7825978943789,649.7743059693761,731.896393743967
138378,22617,138378.0,58615.0,138378.0,92495.0,659.1521516874802,636.9437371488798,724.2737403462028
138378,22616,138378.0,58547.0,138378.0,92464.0,663.3148957683744,623.7734049672922,716.2370921835378
138378,22622,138378.0,58517.0,138378.0,92443.0,667.2520445650499,610.297985080358,707.795740379788
138388,22633,138388.0,58480.0,138388.0,92415.0,670.9438812145005,596.5487969737901,698.9582010672069
138388,22638,138388.0,58468.0,138388.0,92401.0,674.3698832035465,582.552976464027,689.7318208240308
138388,22643,138388.0,58425.0,138388.0,92410.0,677.5089614725858,568.3330438218823,680.1225449339224
138388,22671,138388.0,58530.0,138388.0,92414.0,680.3397367395385,553.9068524779134,670.1350081011724
138388,22667,138388.0,58474.0,138388.0,92410.0,682.8409083597849,539.2882292270904,659.7729595667163
138388,22673,138388.0,58432.0,138388.0,92373.0,684.9916617656864,524.4879430977658,649.0397229552209
138399,22682,138399.0,58534.0,138399.0,92411.0,686.7719714831838,509.514265789292,637.9384620423939
138399,22697,138399.0,58595.0,138399.0,92399.0,688.1628611029497,494.3737870913313,626.4724890994632
138399,22710,138399.0,58512.0,138399.0,92413.0,689.1467726252353,479.07314877426626,614.6458605714772
138399,22698,138399.0,58485.0,138399.0,92305.0,689.7079992389558,463.6204278433833,602.4638815362064
138399,22648,138399.0,58400.0,138399.0,92310.0,689.8328825855699,448.0250720678965,589.9329258540697
138399,22671,138399.0,58370.0,138399.0,92300.0,689.509556450352,432.29691368312433,577.0597802785446
138409,22659,138409.0,58326.0,138409.0,92227.0,688.7275570696152,416.44506235822274,563.8511882429268
138409,22623,138409.0,58348.0,138409.0,92233.0,687.4776444711322,400.477134481738,550.3135404912862
138409,22652,138409.0,58345.0,138409.0,92244.0,685.7516651952695,384.39912810495963,536.4525686525657
138409,22638,138409.0,58268.0,138409.0,92236.0,683.542442529475,368.2157490185493,522.2734705768617
138409,22633,138409.0,58287.0,138409.0,92188.0,680.8438766519564,351.930538150204,507.7813842700103
138409,22632,138409.0,58297.0,138409.0,92196.0,677.6510970635134,335.54579405328917,492.9816314670727
138419,22642,138419.0,58370.0,138419.0,92181.0,673.9605784564416,319.06306949466114,477.87974888288466
138419,22627,138419.0,58323.0,138419.0,92197.0,669.7703456427729,302.48445656743047,462.48172384617266
138419,22613,138419.0,58309.0,138419.0,92194.0,665.080178606546,285.813856842983,446.7945454322899
138419,22595,138419.0,58199.0,138419.0,92109.0,659.8916275094236,269.0573622298598,430.82674911946276
138419,22564,138419.0,58157.0,138419.0,92069.0,654.2078174161702,252.22255617449468,414.58837190153145
138419,22541,138419.0,58138.0,138419.0,92047.0,648.0330892349583,235.31727331850993,398.09023055828374
138430,22535,138430.0,58103.0,138430.0,92034.0,641.3725678402784,218.34863091159195,381.34321689571345
138430,22494,138430.0,58064.0,138430.0,91993.0,634.231796877195,201.3225604158315,364.35803459003614
138430,22524,138430.0,58087.0,138430.0,91977.0,626.616494723366,184.24356385064675,347.145114201586
138430,22506,138430.0,58101.0,138430.0,91994.0,618.5325326150979,167.11482420287132,329.71457446773843
138430,22501,138430.0,58064.0,138430.0,91968.0,609.9861792706017,149.93882962238513,312.0764663063362
138430,22495,138430.0,58095.0,138430.0,91912.0,600.9843851580681,132.71810856877823,294.2411615817872
138440,22493,138440.0,58159.0,138440.0,91985.0,591.5349948938324,115.45601712483437,276.2195625045457
138440,22479,138440.0,58069.0,138440.0,91917.0,581.6469786051355,98.15787788563478,258.02343082853565
138440,22437,138440.0,58017.0,138440.0,91883.0,571.3305909295573,80.83179842237746,239.66588707561527
138440,22429,138440.0,57943.0,138440.0,91839.0,560.5972711736989,63.48828881978886,221.16144192736567
138440,22412,138440.0,57892.0,138440.0,91791.0,549.4593854822158,46.13903015076198,202.52547638182648
138440,22369,138440.0,57836.0,138440.0,91791.0,537.9300190887465,28.79554840458377,183.77365994540787
138451,22372,138451.0,57853.0,138451.0,91732.0,526.0227737264256,11.468173963762865,164.92158159033966
138451,22352,138451.0,57851.0,138451.0,91754.0,513.7515839398096,-5.834365654421617,145.98460106593166
138451,22348,138451.0,57892.0,138451.0,91729.0,501.1307218480048,-23.104527872218682,126.97792815182993
138451,22324,138451.0,57853.0,138451.0,91699.0,488.1749433587949,-40.33500162521648,107.91691720698634
138451,22310,138451.0,57823.0,138451.0,91705.0,474.8996053742909,-57.51786830824983,88.8173620004286
138451,22304,138451.0,57870.0,138451.0,91655.0,461.32073124387676,-74.64419709368224,69.69569317857452
138461,22302,138461.0,57847.0,138461.0,91685.0,447.4551514555491,-91.70361146118864,50.56918713029336
138461,22280,138461.0,57815.0,138461.0,91635.0,433.3207837991078,-108.68359653783273,31.456262609728014
138461,22238,138461.0,57739.0,138461.0,91581.0,418.9368541248292,-125.56917899532266,12.376712770480708
138461,22198,138461.0,57699.0,138461.0,91570.0,404.32377379151166,-142.34341299203936,-6.648445715613548
138461,22180,138461.0,57644.0,138461.0,91524.0,389.5026893688791,-158.98835694355364,-25.59738162862061
138461,22153,138461.0,57621.0,138461.0,91476.0,374.4950216582716,-175.48604787537954,-44.447819453763714
138471,22143,138471.0,57601.0,138471.0,91471.0,359.32221595756863,-191.81919465654664,-63.17742626408585
138471,22144,138471.0,57584.0,138471.0,91457.0,344.005731208634,-207.97150569348935,-81.76409250564768
138471,22092,138471.0,57577.0,138471.0,91421.0,328.5671944757015,-223.9277123541391,-100.1858989679954
138471,22089,138471.0,57579.0,138471.0,91401.0,313.0284832799572,-239.67337364975867,-118.42099933940631
138471,22064,138471.0,57552.0,138471.0,91365.0,297.41164401793657,-255.194521363489,-136.44766393126076
138471,22063,138471.0,57594.0,138471.0,91396.0,281.7388724073321,-270.47721086224306,-154.24432541079284
138482,22032,138482.0,57604.0,138482.0,91360.0,266.0326523803267,-285.5068444913587,-171.7893338128746
138482,22014,138482.0,57516.0,138482.0,91304.0,250.3158928266671,-300.2673388485375,-189.0605854578257
138482,21978,138482.0,57453.0,138482.0,91258.0,234.61191979299076,-314.74093174309303,-206.03560526629906
138482,21946,138482.0,57369.0,138482.0,91208.0,218.94429506059794,-328.9091474367642,-222.69221473128994
138482,21926,138482.0,57392.0,138482.0,91200.0,203.3365170088848,-342.75427921616995,-239.00933295918776
138482,21901,138482.0,57361.0,138482.0,91188.0,187.81173656645808,-356.26037599997846,-254.9674642515688
138492,21887,138492.0,57370.0,138492.0,91165.0,172.39259474583002,-369.4134158211805,-270.5487535088365
138492,21843,138492.0,57395.0,138492.0,91158.0,157.10113041776572,-382.20096621073003,-285.7368266266834
138492,21852,138492.0,57345.0,138492.0,91172.0,141.95866652287611,-394.61161324081365,-300.5165520595856
138492,21815,138492.0,57360.0,138492.0,91140.0,126.98574281021706,-406.63446927075256,-314.87364111770864
138492,21822,138492.0,57417.0,138492.0,91130.0,112.20218345238857,-418.2587820379606,-328.794227134218
138492,21819,138492.0,57407.0,138492.0,91144.0,97.62730493765594,-429.47313750760395,-342.2645878972198
138502,21789,138502.0,57362.0,138502.0,91106.0,83.28025144740832,-440.26440457655883,-355.2708559790011
138502,21739,138502.0,57289.0,138502.0,91043.0,69.1802061445643,-450.6173751867989,-367.7988388389068
138502,21707,138502.0,57218.0,138502.0,90988.0,55.34614990537875,-460.51552323756346,-379.8344328212454
138502,21683,138502.0,57185.0,138502.0,90982.0,41.79629234271306,-469.9424436367585,-391.36456472359066
138502,21669,138502.0,57151.0,138502.0,90988.0,28.54758127546063,-478.8832738301377,-402.37793891955255
138502,21648,138502.0,57158.0,138502.0,90987.0,15.61547219146064,-487.32563489244103,-412.86510881025833
138513,21660,138513.0,57181.0,138513.0,90986.0,3.013920727859272,-495.259924683192,-422.8180632019605
138513,21634,138513.0,57168.0,138513.0,90942.0,-9.244432691180805,-502.6790039414085,-432.22980552097056
138513,21634,138513.0,57191.0,138513.0,90941.0,-21.14797960904434,-509.5775933607556,-441.0942438578527
138513,21595,138513.0,57210.0,138513.0,90953.0,-32.685948282303684,-515.951628781836,-449.40626053331835
138513,21604,138513.0,57233.0,138513.0,90972.0,-43.848363583049036,-521.7974795730083,-457.1615060529266
138513,21600,138513.0,57214.0,138513.0,90931.0,-54.625996467917844,-527.1110667744815,-464.3558569132148
138523,21578,138523.0,57125.0,138523.0,90887.0,-65.01014751682067,-531.8873911149306,-470.98510607389244
138523,21526,138523.0,57088.0,138523.0,90873.0,-74.99249757384973,-536.1210255387743,-477.04528086104904
138523,21513,138523.0,57066.0,138523.0,90850.0,-84.5653617135539,-539.8073558657593,-482.5332626210384
138523,21502,138523.0,57077.0,138523.0,90814.0,-93.72217276358208,-542.9436712180925,-487.44730553052136
138523,21486,138523.0,57069.0,138523.0,90838.0,-102.45777774617477,-545.5295822351984,-491.78743037568506
138523,21488,138523.0,56981.0,138523.0,90816.0,-110.7684725735777,-547.5671455935469,-495.5556144302891
138533,21479,138533.0,57115.0,138533.0,90832.0,-118.65189254269978,-549.061138036875,-498.75569041418737
138533,21453,138533.0,57084.0,138533.0,90814.0,-126.1068579165393,-550.0189435681912,-501.39312446503857
138533,21457,138533.0,57086.0,138533.0,90826.0,-133.1333082400347,-550.449717719649,-503.47481669009085
138533,21459,138533.0,57141.0,138533.0,90855.0,-139.73227079396338,-550.3635632827691,-505.00884115647534
138533,21455,138533.0,57195.0,138533.0,90876.0,-145.90566689428601,-549.7707819780305,-506.00391666378823
138533,21451,138533.0,57160.0,138533.0,90842.0,-151.65599648521072,-548.6807545141096,-506.4686910217787
138544,21422,138544.0,57081.0,138544.0,90777.0,-156.98611548558335,-547.1011630921083,-506.41144972541053
138544,21409,138544.0,57005.0,138544.0,90795.0,-161.89924949845488,-545.0385618477919,-505.84062314083053
138544,21374,138544.0,57021.0,138544.0,90782.0,-166.39925189016049,-542.500009635204,-504.76553945909905
138544,21369,138544.0,57024.0,138544.0,90753.0,-170.4910009019378,-539.4945001020843,-503.1968322149809
138544,21372,138544.0,57018.0,138544.0,90776.0,-174.18073936782366,-536.0334784888491,-501.14665586797526
138544,21375,138544.0,57049.0,138544.0,90797.0,-177.47614439075892,-532.1307787661455,-498.6287779075293
138554,21374,138554.0,57070.0,138554.0,90822.0,-180.3861227303811,-527.802324774445,-495.6582556780485
138554,21367,138554.0,57098.0,138554.0,90799.0,-182.92053807915295,-523.0655625466726,-492.2508290279253
138554,21374,138554.0,57129.0,138554.0,90820.0,-185.09000351146528,-517.938684022007,-488.4224897132327
138554,21377,138554.0,57229.0,138554.0,90884.0,-186.90568617745635,-512.4396213647034,-484.18917646438297
138554,21391,138554.0,57170.0,138554.0,90801.0,-188.37902069645008,-506.58474453650615,-479.56627950968823
138554,21359,138554.0,57126.0,138554.0,90795.0,-189.52138553709233,-500.38795164900466,-474.56841140782944
138564,21336,138564.0,57014.0,138564.0,90809.0,-190.34401522332803,-493.8611533171887,-469.2098747478759
138564,21323,138564.0,57044.0,138564.0,90766.0,-190.85830787580278,-487.0159967580022,-463.50526364995324
138564,21329,138564.0,57037.0,138564.0,90769.0,-191.07626464265934,-479.8655522669144,-457.4698768290333
138564,21308,138564.0,57038.0,138564.0,90754.0,-191.0107388788365,-472.42508945502425,-451.12018054322675
138564,21313,138564.0,57070.0,138564.0,90798.0,-190.6755311118975,-464.7121735163254,-444.4741711731874
138564,21329,138564.0,57081.0,138564.0,90818.0,-190.0854143763778,-456.7464776781626,-437.5512807260087
138575,21332,138575.0,57127.0,138575.0,90818.0,-189.25597007489512,-448.5493375803852,-430.37186313597465
138575,21338,138575.0,57121.0,138575.0,90826.0,-188.20324198921128,-440.1431238572826,-422.9566857231421
138575,21327,138575.0,57195.0,138575.0,90853.0,-186.94342448261136,-431.55056378531003,-415.3266437219453
138575,21349,138575.0,57283.0,138575.0,90887.0,-185.49267544985526,-422.79378463160276,-407.5024280637515
138575,21338,138575.0,57188.0,138575.0,90847.0,-183.86694421738105,-413.89299906143367,-399.5040384888123
138575,21324,138575.0,57133.0,138575.0,90845.0,-182.08180982997885,-404.86588423815545,-391.3505703549132
138585,21312,138585.0,57127.0,138585.0,90814.0,-180.1525133711574,-395.72848976359,-383.06056186727574
138585,21305,138585.0,57120.0,138585.0,90809.0,-178.09420607686025,-386.49672273428655,-374.65265219450487
138585,21321,138585.0,57134.0,138585.0,90841.0,-175.92218204694984,-377.1872538382104,-366.1461532168523
138585,21294,138585.0,57104.0,138585.0,90815.0,-173.65194530992687,-367.81788039177286,-357.56128538229063
138585,21299,138585.0,57145.0,138585.0,90847.0,-171.2992402656372,-358.40775860984536,-348.91916811129795
138585,21320,138585.0,57158.0,138585.0,90862.0,-168.8801198843871,-348.9774863183309,-340.24173004275315
138595,21318,138595.0,57179.0,138595.0,90876.0,-166.4108467615016,-339.5488493098193,-331.5514514229941
138595,21315,138595.0,57216.0,138595.0,90874.0,-163.9076184182088,-330.14432579640913,-322.8710026941002
138595,21337,138595.0,57278.0,138595.0,90920.0,-161.38633691443044,-320.7863968339419,-314.22294855357086
138595,21342,138595.0,57270.0,138595.0,90908.0,-158.8623777350757,-311.4965931979675,-305.62941759824946
138595,21333,138595.0,57215.0,138595.0,90911.0,-156.35027649447886,-302.29475357190927,-297.111759091374
138595,21314,138595.0,57223.0,138595.0,90871.0,-153.86355557754803,-293.19914904496534,-288.69051196120677
138606,21269,138606.0,57204.0,138606.0,90903.0,-151.41494119273455,-284.22723650490536,-280.3857642682897
138606,21292,138606.0,57185.0,138606.0,90894.0,-149.01692183063454,-275.39638464463167,-272.21752808869167
138606,21287,138606.0,57208.0,138606.0,90914.0,-146.68223689909553,-266.7244242781794,-264.20582762836904
138606,21280,138606.0,57257.0,138606.0,90905.0,-144.42399966580894,-258.22989288025246,-256.3706092021587
138606,21299,138606.0,57249.0,138606.0,90886.0,-142.25562408882877,-249.93172385538372,-248.73173551572216
138606,21298,138606.0,57269.0,138606.0,90918.0,-140.19069272727586,-241.84867945219537,-241.3091526502834
138616,21312,138616.0,57257.0,138616.0,90959.0,-138.24271066390168,-233.99901241044665,-234.1229174577462
138616,21310,138616.0,57339.0,138616.0,90987.0,-136.42480369491994,-226.4002586035212,-227.19269212449
138616,21336,138616.0,57349.0,138616.0,90961.0,-134.74941297488255,-219.0686845213658,-220.53694406279658
138616,21312,138616.0,57335.0,138616.0,90980.0,-133.2279735580472,-212.01841939296446,-214.17246571526522
138616,21301,138616.0,57302.0,138616.0,90979.0,-131.87072619658937,-205.26098985304242,-208.11430475197363
138616,21293,138616.0,57239.0,138616.0,90934.0,-130.68682595212363,-198.8057444182237,-202.3758531816224
138626,21249,138626.0,57238.0,138626.0,90908.0,-129.684684556273,-192.66095693000807,-196.96923250289575
138626,21269,138626.0,57204.0,138626.0,90902.0,-128.87242884729562,-186.8350521280591,-191.90607969241194
138626,21257,138626.0,57230.0,138626.0,90929.0,-128.25828680235634,-181.3374957118029,-187.1982600799431
138626,21270,138626.0,57274.0,138626.0,90956.0,-127.85068436362758,-176.17911183252318,-182.85799472943904
138626,21277,138626.0,57309.0,138626.0,90939.0,-127.65808922064389,-171.3716759288746,-178.89746467704526
138626,21283,138626.0,57296.0,138626.0,90987.0,-127.688724728343,-166.92702945657305,-175.3283206654532
138637,21274,138637.0,57303.0,138637.0,90966.0,-127.95025083272094,-162.8563738511965,-172.16126191092008
138637,21287,138637.0,57371.0,138637.0,90993.0,-128.44952507421135,-159.1698870377952,-169.40563091936667
138637,21280,138637.0,57361.0,138637.0,90974.0,-129.19242116762564,-155.87615620734306,-167.0691009158653
138637,21255,138637.0,57316.0,138637.0,90976.0,-130.18369482481535,-152.98149534818725,-165.15752439860574
138637,21225,138637.0,57270.0,138637.0,90947.0,-131.42709293497313,-150.48994865453517,-163.67497090650608
138637,21238,138637.0,57254.0,138637.0,90945.0,-132.92574440097007,-148.40416174319023,-162.62396797951874
138647,21213,138647.0,57246.0,138647.0,90915.0,-134.682518833796,-146.72643450072206,-162.00586625444765
138647,21216,138647.0,57261.0,138647.0,90920.0,-136.70018301065681,-145.45936453938725,-161.8212274263784
138647,21209,138647.0,57315.0,138647.0,90913.0,-138.98146630864244,-144.60587476161913,-162.070123725173
138647,21226,138647.0,57280.0,138647.0,90922.0,-141.52903097970812,-144.16868768600796,-162.75223555987185
138647,21223,138647.0,57290.0,138647.0,90911.0,-144.34525206867596,-144.14974023453027,-163.866765543059
138647,21218,138647.0,57267.0,138647.0,90928.0,-147.4318878435152,-144.5500063803879,-165.4122761665913
138657,21200,138657.0,57353.0,138657.0,90970.0,-150.7898531588109,-145.36944832804522,-167.38637425938919
138657,21217,138657.0,57374.0,138657.0,90940.0,-154.4191564140611,-146.60642028011398,-169.78511478847702
138657,21199,138657.0,57315.0,138657.0,90926.0,-158.31883009069486,-148.25659968166102,-172.6024519337996
138657,21170,138657.0,57276.0,138657.0,90878.0,-162.48684273023105,-150.31248619829017,-175.8302313594508
138657,21142,138657.0,57210.0,138657.0,90872.0,-166.92025749509543,-152.76405747632705,-179.45869757277148
138657,21141,138657.0,57184.0,138657.0,90816.0,-171.61566571081391,-155.6000861122706,-183.47717867110072
138668,21140,138668.0,57182.0,138668.0,90805.0,-176.56954133329134,-158.80939972280146,-187.87480510138283
138668,21109,138668.0,57157.0,138668.0,90826.0,-181.77833431611003,-162.3816736487608,-192.64112313392633
138668,21118,138668.0,57176.0,138668.0,90833.0,-187.2384972697323,-166.3077485498975,-197.76623912872566
138668,21113,138668.0,57254.0,138668.0,90826.0,-192.94651838402535,-170.57946512710853,-203.24044231709058
138668,21112,138668.0,57205.0,138668.0,90825.0,-198.89880895439933,-175.18887056703778,-209.0537374770525
138668,21096,138668.0,57205.0,138668.0,90826.0,-205.0914881283805,-180.12731708042944,-215.19553269529007
138678,21106,138678.0,57262.0,138678.0,90845.0,-211.52021272637563,-185.38501337434488,-221.65433279350924
138678,21097,138678.0,57252.0,138678.0,90798.0,-218.18000572338502,-190.9505537778253,-228.41736591646486
138678,21070,138678.0,57203.0,138678.0,90793.0,-225.06506532536633,-196.8102270248824,-235.47040269714563
138678,21031,138678.0,57140.0,138678.0,90708.0,-232.1687875339631,-202.94791253546083,-242.79803959456888
138678,21017,138678.0,57088.0,138678.0,90729.0,-239.4841480972932,-209.34595926453034,-250.38439424699033
138678,21013,138678.0,57113.0,138678.0,90729.0,-247.00418502402084,-215.98643242339983,-258.2137418081768
138689,20999,138689.0,57057.0,138689.0,90680.0,-254.72224392541602,-222.85195152513262,-266.27068803277444
138689,20991,138689.0,57103.0,138689.0,90689.0,-262.6319864103832,-229.92597461675825,-274.54017305709334
138689,20984,138689.0,57101.0,138689.0,90678.0,-270.7273317434457,-237.19268508389501,-283.00758969490533
138689,20976,138689.0,57081.0,138689.0,90660.0,-279.0023744731093,-244.63655846842863,-291.6588062719603
138689,20974,138689.0,57056.0,138689.0,90665.0,-287.45125192424064,-252.24200039527233,-300.4800661424108
138689,20952,138689.0,57098.0,138689.0,90684.0,-296.06799008306905,-259.9932847975631,-309.4577967287647
138699,20973,138699.0,57124.0,138699.0,90671.0,-304.8463523551835,-267.8742809516355,-318.5781828298336
138699,20951,138699.0,57079.0,138699.0,90638.0,-313.7796185424254,-275.8677128271712,-327.826692850495
138699,20925,138699.0,57051.0,138699.0,90613.0,-322.8603428166168,-283.9546170876551,-337.1879752936246
138699,20896,138699.0,56927.0,138699.0,90578.0,-332.08036006752945,-292.11471063126464,-346.6461806294014
138699,20877,138699.0,56903.0,138699.0,90542.0,-341.4311015807283,-300.3277310172988,-356.1854925002333
138699,20855,138699.0,56907.0,138699.0,90531.0,-350.9039875819458,-308.57508056973154,-365.79071091984235
138709,20837,138709.0,56915.0,138709.0,90506.0,-360.49074312109076,-316.8407629377289,-375.4477361939654
138709,20830,138709.0,56920.0,138709.0,90526.0,-370.18361733496454,-325.11133747889875,-385.1437982249129
138709,20829,138709.0,56926.0,138709.0,90497.0,-379.9754537400721,-333.3754181487652,-394.86738915728773
138709,20815,138709.0,56916.0,138709.0,90495.0,-389.8595753820274,-341.62314434350463,-404.6080535839551
138709,20806,138709.0,56922.0,138709.0,90489.0,-399.8295923348451,-349.84575359222885,-414.35622691865024
138709,20815,138709.0,56953.0,138709.0,90512.0,-409.8792167681162,-358.03516738417045,-424.10302514153676
138720,20795,138720.0,56973.0,138720.0,90467.0,-420.0020210368725,-366.1833313893593,-433.839866834847
138720,20782,138720.0,56916.0,138720.0,90460.0,-430.19118150256406,-374.28140141363036,-443.5581949335788
138720,20740,138720.0,56825.0,138720.0,90410.0,-440.4394187659151,-382.3195221106641,-453.24957774755825
138720,20704,138720.0,56821.0,138720.0,90401.0,-450.73927214854325,-390.28768038429524,-462.9061065607687
138720,20699,138720.0,56732.0,138720.0,90377.0,-461.0836155674458,-398.17708738865844,-472.52084520892254
138720,20682,138720.0,56754.0,138720.0,90402.0,-471.4660932700144,-405.98140137071107,-482.0880769001754
138730,20690,138730.0,56824.0,138730.0,90377.0,-481.88123483558593,-413.6973545021522,-491.6031947003704
138730,20655,138730.0,56785.0,138730.0,90378.0,-492.3243366699494,-421.32437915715747,-501.0623896734494
138730,20662,138730.0,56817.0,138730.0,90349.0,-502.7913368296736,-428.86366682216044,-510.4624322949309
138730,20653,138730.0,56758.0,138730.0,90333.0,-513.2787258314886,-436.3175501028002,-519.800662618007
138730,20637,138730.0,56821.0,138730.0,90358.0,-523.7833883500856,-443.6893008916061,-529.0750496644264
138730,20668,138730.0,56867.0,138730.0,90368.0,-534.3023475918278,-450.9827294202231,-538.2839841926955
138740,20635,138740.0,56812.0,138740.0,90335.0,-544.8323881678427,-458.2012400690483,-547.4257401564316
138740,20590,138740.0,56809.0,138740.0,90308.0,-555.3697397053498,-465.34700557892063,-556.4980986996829
138740,20567,138740.0,56749.0,138740.0,90238.0,-565.9102240263342,-472.42095572382516,-565.4985738971253
138740,20553,138740.0,56717.0,138740.0,90230.0,-576.4497749495033,-479.42339419547324,-574.4251694798882
138740,20544,138740.0,56639.0,138740.0,90212.0,-586.9848350380821,-486.3549603428598,-583.2772173551383
138740,20541,138740.0,56669.0,138740.0,90235.0,-597.512437169666,-493.2177637285359,-592.0558001419422
138751,20516,138751.0,56660.0,138751.0,90222.0,-608.0301046092661,-500.0161733960488,-600.7636241757084
138751,20495,138751.0,56664.0,138751.0,90221.0,-618.5357902697524,-506.7569035736349,-609.4046201977143
138751,20495,138751.0,56691.0,138751.0,90190.0,-629.0279503576734,-513.4486425649341,-617.9836359173177
138751,20502,138751.0,56703.0,138751.0,90220.0,-639.5055521256985,-520.101467461112,-626.5063134169069
138751,20495,138751.0,56760.0,138751.0,90229.0,-649.9678113901983,-526.725985716992,-634.9788578094224
138751,20487,138751.0,56754.0,138751.0,90233.0,-660.4137833002354,-533.3322113749562,-643.4074662698413
138761,20467,138761.0,56689.0,138761.0,90199.0,-670.8420573319258,-539.928600590833,-651.7976985450271
138761,20428,138761.0,56671.0,138761.0,90146.0,-681.2507002291356,-546.5219018342358,-660.1543027745445
138761,20395,138761.0,56579.0,138761.0,90119.0,-691.6375238405717,-553.1179115603525,-668.4816886986869
138761,20399,138761.0,56613.0,138761.0,90123.0,-702.0005605391788,-559.7226089609583,-676.7846777564031
138761,20370,138761.0,56587.0,138761.0,90078.0,-712.3384123785252,-566.3430300997638,-685.0690179233266
138761,20358,138761.0,56598.0,138761.0,90128.0,-722.6503748852554,-572.9875270777344,-693.3415558708306
138771,20362,138771.0,56579.0,138771.0,90105.0,-732.9364812399748,-579.6656467472394,-701.6100804248753
138771,20344,138771.0,56600.0,138771.0,90081.0,-743.1974486577519,-586.3879525006334,-709.8829403159717
138771,20336,138771.0,56590.0,138771.0,90088.0,-753.4345188755732,-593.1657706147521,-718.168824527299
138771,20326,138771.0,56621.0,138771.0,90108.0,-763.6493262928878,-600.010785937892,-726.4766766437369
138771,20335,138771.0,56704.0,138771.0,90100.0,-773.8437694450669,-606.9343125217603,-734.815340206452
138771,20307,138771.0,56640.0,138771.0,90065.0,-784.0197926708124,-613.9461113398252,-743.193078474035
138782,20286,138782.0,56556.0,138782.0,90038.0,-794.1792195770701,-621.0535358954305,-751.6174681674262
138782,20262,138782.0,56475.0,138782.0,90016.0,-804.3238365662521,-628.2621123845897,-760.0957458592013
138782,20251,138782.0,56479.0,138782.0,89999.0,-814.4556514905757,-635.5772485875627,-768.6352809411195
138782,20229,138782.0,56482.0,138782.0,89981.0,-824.5771250032248,-643.005676952492,-777.243938156223
138782,20214,138782.0,56455.0,138782.0,89942.0,-834.6913300181571,-650.5559476617856,-785.9303719503831
138782,20227,138782.0,56490.0,138782.0,89971.0,-844.8020331272741,-658.2383539363103,-794.7043130959701
138792,20209,138792.0,56538.0,138792.0,89981.0,-854.913590619827,-666.0645260761323,-803.576594341449
138792,20215,138792.0,56513.0,138792.0,89954.0,-865.0306731516225,-674.0465563001228,-812.5587488288785
138792,20188,138792.0,56480.0,138792.0,89983.0,-875.157999038985,-682.1961275696636,-821.6625148473117
138792,20185,138792.0,56536.0,138792.0,90007.0,-885.3001893597869,-690.5241782538051,-830.8993598854363
138792,20187,138792.0,56595.0,138792.0,89946.0,-895.4616880491968,-699.0404971767132,-840.2798718342582
138792,20170,138792.0,56546.0,138792.0,89988.0,-905.6466072081553,-707.7526395658113,-849.8133083928872
138802,20130,138802.0,56446.0,138802.0,89908.0,-915.8585845040539,-716.6650742686594,-859.5075148081099
138802,20110,138802.0,56404.0,138802.0,89894.0,-926.1009277582097,-725.7797276615569,-869.3691388206956
138802,20092,138802.0,56334.0,138802.0,89846.0,-936.3770162460108,-735.0975962571365,-879.4041951782044
138802,20075,138802.0,56363.0,138802.0,89846.0,-946.6906651608651,-744.6203067917049,-889.6187811678957
138802,20058,138802.0,56374.0,138802.0,89849.0,-957.046341824351,-754.350879012533,-900.0195179866957
138802,20078,138802.0,56360.0,138802.0,89837.0,-967.4492375645916,-764.2935858682052,-910.6135518008573
138813,20054,138813.0,56390.0,138813.0,89853.0,-977.9051161939644,-774.4533946722582,-921.4082579644128
138813,20050,138813.0,56361.0,138813.0,89837.0,-988.4200259412178,-784.8354140889784,-932.4108383991841
138813,20051,138813.0,56380.0,138813.0,89848.0,-999.0000729802604,-795.4444196433958,-943.6278928522567
138813,20049,138813.0,56430.0,138813.0,89856.0,-1009.6511976773901,-806.2843321286234,-955.0649638059813
138813,20013,138813.0,56390.0,138813.0,89843.0,-1020.3789088426824,-817.3574261574537,-966.726016384053
138813,20010,138813.0,56340.0,138813.0,89778.0,-1031.1881801926852,-828.6636350347163,-978.6130696195842
138823,19974,138823.0,56276.0,138823.0,89753.0,-1042.0835715837015,-840.2007026823712,-990.726385727613
138823,19949,138823.0,56248.0,138823.0,89721.0,-1053.0694736686423,-851.9651563093355,-1003.0651505321395
138823,19941,138823.0,56191.0,138823.0,89693.0,-1064.1504292816376,-863.9534725353657,-1015.6281735052135
138823,19934,138823.0,56236.0,138823.0,89672.0,-1075.3313796263906,-876.1629614928327,-1028.4144010164787
138823,19936,138823.0,56223.0,138823.0,89670.0,-1086.6176529847585,-888.5920249765848,-1041.4232549653082
138823,19921,138823.0,56259.0,138823.0,89678.0,-1098.0147403082076,-901.2397017059808,-1054.654687545014
138833,19916,138833.0,56206.0,138833.0,89642.0,-1109.5280335862026,-914.104926759501,-1068.108942038414
138833,19903,138833.0,56234.0,138833.0,89657.0,-1121.1626280040005,-927.1860091274073,-1081.786270589612
138833,19902,138833.0,56274.0,138833.0,89691.0,-1132.9231593872778,-940.4802242165595,-1095.6866089489415
138833,19897,138833.0,56227.0,138833.0,89645.0,-1144.8135998712746,-953.9831166280514,-1109.8089693911172
138833,19862,138833.0,56189.0,138833.0,89631.0,-1156.8370420037768,-967.6878613840388,-1124.1508553741187
138833,19845,138833.0,56120.0,138833.0,89594.0,-1168.9956532907295,-981.5854041967845,-1138.7081715269878
138844,19815,138844.0,56099.0,138844.0,89561.0,-1181.2908800099763,-995.6653202872202,-1153.4755258395548
138844,19819,138844.0,56075.0,138844.0,89551.0,-1193.723716063119,-1009.9167646843676,-1168.446628721115
138844,19777,138844.0,56060.0,138844.0,89520.0,-1206.2948587288693,-1024.3290731598868,-1183.6146150579375
138844,19751,138844.0,55998.0,138844.0,89527.0,-1219.004856516036,-1038.8920910398801,-1198.9721882818385
138844,19778,138844.0,56009.0,138844.0,89485.0,-1231.854325992209,-1053.596547954939,-1214.5116109547766
138844,19750,138844.0,56046.0,138844.0,89507.0,-1244.843956272347,-1068.434288622684,-1230.2246190056208
138854,19732,138854.0,56039.0,138854.0,89468.0,-1257.9742546021903,-1083.3978540329658,-1246.1022659420323
138854,19727,138854.0,56088.0,138854.0,89452.0,-1271.2453871665302,-1098.479490206798,-1262.134751946999
138854,19734,138854.0,56114.0,138854.0,89464.0,-1284.6571029662293,-1113.6699227445538,-1278.3113271948737
138854,19721,138854.0,56048.0,138854.0,89463.0,-1298.2084695836656,-1128.9571240884425,-1294.6200754297927
138854,19695,138854.0,55930.0,138854.0,89385.0,-1311.8975220340235,-1144.3258428262325,-1311.0475518490734
138854,19655,138854.0,55945.0,138854.0,89380.0,-1325.7211606728986,-1159.7584721878975,-1327.5787775612152
138864,19636,138864.0,55851.0,138864.0,89320.0,-1339.6754115527624,-1175.2364831360005,-1344.1977347358838
138864,19625,138864.0,55833.0,138864.0,89318.0,-1353.7558125507107,-1190.7415766877461,-1360.8879500866983
138864,19625,138864.0,55786.0,138864.0,89307.0,-1367.9575935023804,-1206.2566309263527,-1377.6328575684474
138864,19610,138864.0,55848.0,138864.0,89298.0,-1382.275555369085,-1221.7663522112389,-1394.4158214167649
138864,19597,138864.0,55908.0,138864.0,89283.0,-1396.7038226325149,-1237.2570058055805,-1411.2199050609997
138864,19581,138864.0,55823.0,138864.0,89282.0,-1411.2356593170857,-1252.7152142775694,-1428.0275908452318
138875,19569,138875.0,55840.0,138875.0,89246.0,-1425.8633731167797,-1268.1269250330633,-1444.8205320576903
138875,19570,138875.0,55892.0,138875.0,89238.0,-1440.5782086841941,-1283.4770391881834,-1461.5794066441454
138875,19557,138875.0,55890.0,138875.0,89259.0,-1455.3701331939417,-1298.7488077648745,-1478.283810465967
138875,19531,138875.0,55834.0,138875.0,89229.0,-1470.2275751777365,-1313.9228196444515,-1494.9119357418183
138875,19524,138875.0,55726.0,138875.0,89170.0,-1485.1372849266847,-1328.976700944648,-1511.4402154472718
138875,19492,138875.0,55714.0,138875.0,89181.0,-1500.0843350501168,-1343.886066780733,-1527.8433917393995
138885,19479,138885.0,55713.0,138885.0,89115.0,-1515.0521867418993,-1358.6258559259516,-1544.0948836975172
138885,19466,138885.0,55678.0,138885.0,89108.0,-1530.022777713949,-1373.1710150253018,-1560.1671516342903
138885,19430,138885.0,55657.0,138885.0,89126.0,-1544.976589832017,-1387.4966302991054,-1576.0319657402645
138885,19447,138885.0,55752.0,138885.0,89112.0,-1559.8926929889694,-1401.57784752607,-1591.6603087709427
138885,19422,138885.0,55683.0,138885.0,89081.0,-1574.7486869209406,-1415.3892755328704,-1607.021954164206
138885,19421,138885.0,55686.0,138885.0,89095.0,-1589.5204789089232,-1428.9041269656286,-1622.0851657473568
138896,19406,138896.0,55653.0,138896.0,89090.0,-1604.182025586471,-1442.0938823745919,-1636.8164957306508
138896,19385,138896.0,55744.0,138896.0,89110.0,-1618.7051448688385,-1454.9282234960165,-1651.180352152679
138896,19397,138896.0,55717.0,138896.0,89098.0,-1633.0593745637966,-1467.3743988407537,-1665.138340912516
138896,19370,138896.0,55650.0,138896.0,89048.0,-1647.211785486911,-1479.3962775659984,-1678.6487154371416
138896,19341,138896.0,55597.0,138896.0,89025.0,-1661.1267966139903,-1490.9542138353358,-1691.666317713385
138896,19312,138896.0,55588.0,138896.0,88985.0,-1674.7662321351079,-1502.0059130653249,-1704.1430201297085
138906,19283,138906.0,55517.0,138906.0,88982.0,-1688.089660009761,-1512.507475654759,-1716.0282911477884
138906,19293,138906.0,55559.0,138906.0,88966.0,-1701.0547562414636,-1522.4141642138388,-1727.2695706526324
138906,19280,138906.0,55598.0,138906.0,88955.0,-1713.6174148781765,-1531.6806488078296,-1737.8123938739657
138906,19282,138906.0,55566.0,138906.0,88955.0,-1725.7315524887538,-1540.2604807182113,-1747.6003667610807
138906,19252,138906.0,55531.0,138906.0,88953.0,-1737.3488331755161,-1548.105415448204,-1756.575049212228
138906,19241,138906.0,55561.0,138906.0,88938.0,-1748.418554414166,-1555.1653089469519,-1764.6757581019594
138916,19262,138916.0,55605.0,138916.0,88955.0,-1758.8876446930267,-1561.3881009010543,-1771.839362828623
138916,19241,138916.0,55621.0,138916.0,88962.0,-1768.7005034144825,-1566.719146039025,-1778.0000227306061
138916,19214,138916.0,55534.0,138916.0,88910.0,-1777.7987353697906,-1571.100318096356,-1783.0888765113891
138916,19182,138916.0,55480.0,138916.0,88857.0,-1786.1211782349005,-1574.4700053063261,-1787.0341330457313
138916,19159,138916.0,55425.0,138916.0,88836.0,-1793.604324136405,-1576.764321064511,-1789.761873394069
138916,19149,138916.0,55444.0,138916.0,88828.0,-1800.1828620346578,-1577.918695949696,-1791.1971150482566
138927,19114,138927.0,55427.0,138927.0,88741.0,-1805.7901365509879,-1577.8689323559984,-1791.2647097318513
138927,19117,138927.0,55430.0,138927.0,88829.0,-1810.3585415328803,-1576.5515902419993,-1789.890154065799
138927,19115,138927.0,55429.0,138927.0,88817.0,-1813.8198282451185,-1573.9040986645095,-1787.0000200550278
138927,19096,138927.0,55401.0,138927.0,88792.0,-1816.105237277539,-1569.8648946539433,-1782.5217568582802
138927,19074,138927.0,55424.0,138927.0,88792.0,-1817.145614222471,-1564.3736804945252,-1776.383554277589
138927,19078,138927.0,55445.0,138927.0,88814.0,-1816.8717056187038,-1557.3716374749104,-1768.5146244623513
138937,19088,138937.0,55509.0,138937.0,88851.0,-1815.2144572831362,-1548.8012236695665,-1758.845333460367
138937,19061,138937.0,55468.0,138937.0,88789.0,-1812.1051250124124,-1538.605551583574,-1747.3070250292612
138937,19045,138937.0,55470.0,138937.0,88778.0,-1807.475430587116,-1526.7279708310818,-1733.8321905935306
138937,19018,138937.0,55341.0,138937.0,88723.0,-1801.2580465929163,-1513.1125518224806,-1718.3554125416124
138937,19006,138937.0,55328.0,138937.0,88728.0,-1793.3873434519223,-1497.7056908426343,-1700.8147572120617
138937,18994,138937.0,55358.0,138937.0,88700.0,-1783.800186315576,-1480.4582008346233,-1681.1531359954995
138947,18985,138947.0,55387.0,138947.0,88724.0,-1772.436664528835,-1461.3266794120116,-1659.3194199944107
138947,18987,138947.0,55389.0,138947.0,88763.0,-1759.240731409439,-1440.273803541615,-1635.2691765022687
138947,19006,138947.0,55434.0,138947.0,88750.0,-1744.160711746091,-1417.268246423211,-1608.9649743007885
138947,19004,138947.0,55459.0,138947.0,88789.0,-1727.1496160830661,-1392.2845982278554,-1580.3765404986932
138947,18992,138947.0,55456.0,138947.0,88806.0,-1708.165405114048,-1365.3032674215865,-1549.4810190322764
138947,19036,138947.0,55543.0,138947.0,88878.0,-1687.17137973651,-1336.310440394907,-1516.2631294280905
138958,19051,138958.0,55595.0,138958.0,88891.0,-1664.1364977702424,-1305.2978632552263,-1480.7150262136495
138958,19055,138958.0,55576.0,138958.0,88896.0,-1639.0354566222281,-1272.2622904032728,-1442.8361326677154
138958,19065,138958.0,55569.0,138958.0,88899.0,-1611.8488383575998,-1237.2053023896583,-1402.6334348503701
138958,19071,138958.0,55540.0,138958.0,88929.0,-1582.5635365485866,-1200.1341002661222,-1360.122276395358
138958,19101,138958.0,55568.0,138958.0,88991.0,-1551.1733096932971,-1161.0629282851207,-1315.3271539655182
138958,19118,138958.0,55579.0,138958.0,89050.0,-1517.6792572205068,-1120.014448770008,-1268.2820393091768
138968,19166,138968.0,55651.0,138968.0,89076.0,-1482.0901352979647,-1077.0206578551636,-1219.0302635401704
138968,19205,138968.0,55771.0,138968.0,89170.0,-1444.4224800189377,-1032.1230640951599,-1167.6243268042563
138968,19258,138968.0,55806.0,138968.0,89220.0,-1404.7005235102145,-985.3719953342872,-1114.1256784711745
138968,19303,138968.0,55877.0,138968.0,89296.0,-1362.9559651569414,-936.8255404479441,-1058.6043184197006
138968,19349,138968.0,55933.0,138968.0,89391.0,-1319.2277125088963,-886.5488103734333,-1001.1382680190525
138968,19435,138968.0,56080.0,138968.0,89447.0,-1273.5616009589087,-834.6133485885036,-941.8129348507209
138978,19485,138978.0,56127.0,138978.0,89508.0,-1226.0099512970132,-781.0961263438874,-880.7204941180883
138978,19512,138978.0,56087.0,138978.0,89603.0,-1176.6310506767932,-726.0785210372279,-817.959488376332
138978,19550,138978.0,56198.0,138978.0,89660.0,-1125.488970161612,-669.6462526959183,-753.6345029625975
138978,19612,138978.0,56189.0,138978.0,89706.0,-1072.6537938611866,-611.8900715350321,-687.8558511999848
138978,19679,138978.0,56294.0,138978.0,89805.0,-1018.2018265254187,-552.9063053923824,-620.7394683575612
138978,19747,138978.0,56331.0,138978.0,89905.0,-962.2154798324725,-492.79707588321594,-552.4067942542098
138989,19850,138989.0,56461.0,138989.0,89983.0,-904.7828551330643,-431.6701983594967,-482.98425826707114
138989,19907,138989.0,56591.0,138989.0,90091.0,-845.9970847417784,-369.63851142379235,-412.6025024505751
138989,19978,138989.0,56621.0,138989.0,90217.0,-785.9556211787891,-306.8186325118595,-341.39551271622054
138989,20063,138989.0,56710.0,138989.0,90274.0,-724.7597020540225,-243.32981789234645,-269.4995870685284
138989,20157,138989.0,56898.0,138989.0,90402.0,-662.51385589976,-179.29319652031813,-197.0523288207978
138989,20235,138989.0,56960.0,138989.0,90483.0,-599.3252149732521,-114.83057250302932,-124.19181418803987
138999,20305,138999.0,56994.0,138999.0,90550.0,-535.30275711894,-50.06284488553183,-51.05584683720713
138999,20351,138999.0,57006.0,138999.0,90655.0,-470.55678487763737,14.89067816393549,22.218601862409287
138999,20419,138999.0,57106.0,138999.0,90686.0,-405.1987900936663,79.91179540714256,95.49569444737153
138999,20511,138999.0,57121.0,138999.0,90793.0,-339.341504144847,144.88271384540894,168.64083192723842
138999,20574,138999.0,57214.0,138999.0,90869.0,-273.098776029869,209.6856511266442,241.52069118387953
138999,20672,138999.0,57328.0,138999.0,90973.0,-206.58520989972953,274.20274894780255,314.0034727670925
139008,20765,139008.0,57430.0,139008.0,91078.0,-139.9156554839319,338.31657447358384,385.959474709847
139008,20835,139008.0,57518.0,139008.0,91144.0,-73.2045557970107,401.9112196565684,457.26185092150376
139008,20921,139008.0,57575.0,139008.0,91248.0,-6.565290069832145,464.8734194228341,527.7873236034739
139008,21002,139008.0,57630.0,139008.0,91325.0,59.89035216046955,527.0932067750814,597.4167606993069
139008,21098,139008.0,57834.0,139008.0,91402.0,126.05268684598627,588.4643594152376,666.0357073635637
139008,21158,139008.0,57848.0,139008.0,91472.0,191.81472769874608,648.8853881924038,733.5348328073756
139019,21213,139019.0,57834.0,139019.0,91547.0,257.07266016233757,708.2606883255078,799.8102213487361
139019,21272,139019.0,57892.0,139019.0,91606.0,321.72596984538995,766.5005351957393,864.763567873234
139019,21355,139019.0,57908.0,139019.0,91636.0,385.6773461576738,823.5200350664252,928.3022284568183
139019,21410,139019.0,57959.0,139019.0,91716.0,448.83267808564915,879.2381062212835,990.3390119647638
139019,21470,139019.0,58102.0,139019.0,91754.0,511.10116954945124,933.5769850517145,1050.7918653900656
139019,21541,139019.0,58150.0,139019.0,91832.0,572.3954053784425,986.4625572167924,1109.5836884921
139029,21605,139029.0,58200.0,139029.0,91936.0,632.6314032300766,1037.82528366803,1166.6424119422013
139029,21690,139029.0,58273.0,139029.0,91947.0,691.7287999948205,1087.6008982585622,1221.9013981411886
139029,21770,139029.0,58301.0,139029.0,92045.0,749.6112462395079,1135.7306909780032,1275.2998756290317
139029,21820,139029.0,58499.0,139029.0,92086.0,806.2069566513997,1182.1619252947216,1326.7831825885537
139029,21879,139029.0,58437.0,139029.0,92147.0,861.4491700370218,1226.8488023169261,1376.3030055698491
139029,21924,139029.0,58461.0,139029.0,92185.0,915.2763329947891,1269.7532955292545,1423.8176192550827
139039,21956,139039.0,58403.0,139039.0,92187.0,967.6320438293185,1310.8447000212577,1469.291888009228
139039,22010,139039.0,58461.0,139039.0,92247.0,1018.4648234663005,1350.098093750818,1512.696925340973
139039,22052,139039.0,58468.0,139039.0,92264.0,1067.7278346025792,1387.4928674012035,1554.0096188406783
139039,22100,139039.0,58508.0,139039.0,92275.0,1115.3786984993872,1423.0118862572735,1593.212227961395
139039,22153,139039.0,58549.0,139039.0,92323.0,1161.3794271340485,1456.6411350324756,1630.2919501712577
139039,22207,139039.0,58594.0,139039.0,92362.0,1205.696470065854,1488.369662055216,1665.2405329646267
139050,22249,139050.0,58644.0,139050.0,92421.0,1248.300883322439,1518.1898030371312,1698.0542357138675
139050,22272,139050.0,58654.0,139050.0,92424.0,1289.1684817607588,1546.097549190721,1728.7340869947952
139050,22318,139050.0,58710.0,139050.0,92464.0,1328.2798119232707,1572.0928413834772,1757.2860772889094
139050,22380,139050.0,58777.0,139050.0,92498.0,1365.6200736720725,1596.1798835483064,1783.7211716800339
139050,22398,139050.0,58786.0,139050.0,92472.0,1401.1792401532925,1618.367734385828,1808.0552577072517
139050,22414,139050.0,58730.0,139050.0,92492.0,1434.9522167022883,1638.670784618579,1830.308882318173
139060,22428,139060.0,58741.0,139060.0,92490.0,1466.938678798027,1657.1083828726873,1850.5066823035127
139060,22413,139060.0,58714.0,139060.0,92505.0,1497.1425447184001,1673.7037513904083,1868.6767989745126
139060,22460,139060.0,58676.0,139060.0,92473.0,1525.5712670778876,1688.4828021272424,1884.8503855799468
139060,22501,139060.0,58718.0,139060.0,92491.0,1552.2352993094428,1701.4730346382166,1899.0610224067977
139060,22491,139060.0,58811.0,139060.0,92541.0,1577.1479817312033,1712.7029378901861,1911.3441883241435
139060,22517,139060.0,58806.0,139060.0,92538.0,1600.3255149793968,1722.2024698549908,1921.7372086258656
139070,22537,139070.0,58775.0,139070.0,92535.0,1621.7867269439685,1730.0039926802638,1930.279534345725
139070,22549,139070.0,58805.0,139070.0,92564.0,1641.5528431564371,1736.1425615617522,1937.0128641234714
139070,22585,139070.0,58861.0,139070.0,92539.0,1659.6474118067,1740.6558091127026,1941.9811113939782
139070,22607,139070.0,58841.0,139070.0,92567.0,1676.0963766365967,1743.584272032338,1945.2303814973561
139070,22584,139070.0,58801.0,139070.0,92549.0,1690.928213979454,1744.9718714872474,1946.8089451505011
139070,22597,139070.0,58766.0,139070.0,92539.0,1704.1738396711844,1744.865704028039,1946.7671825064958
139081,22599,139081.0,58733.0,139081.0,92509.0,1715.866226229556,1743.315121388901,1945.1573667268763
139081,22573,139081.0,58660.0,139081.0,92478.0,1726.039970132092,1740.3705388303802,1942.0331680675226
139081,22579,139081.0,58678.0,139081.0,92467.0,1734.730814207518,1736.0821748438866,1937.4489698876378
139081,22606,139081.0,58711.0,139081.0,92465.0,1741.9751645066845,1730.4991435629404,1931.4592559159973
139081,22619,139081.0,58703.0,139081.0,92455.0,1747.8099364425402,1723.6694143169184,1924.118295705378
139081,22600,139081.0,58717.0,139081.0,92463.0,1752.2727270032901,1715.6403635407537,1915.480116400634
139091,22614,139091.0,58693.0,139091.0,92436.0,1755.4019050804181,1706.459275967099,1905.5986093129131
139091,22607,139091.0,58713.0,139091.0,92436.0,1757.236511440437,1696.173631665205,1894.5276218213467
139091,22631,139091.0,58750.0,139091.0,92462.0,1757.8162079242984,1684.8314546408888,1882.321065238043
139091,22599,139091.0,58691.0,139091.0,92381.0,1757.181353539429,1672.481911684923,1869.033136055159
139091,22598,139091.0,58648.0,139091.0,92360.0,1755.37300379229,1659.1756863611688,1854.7182926560226
139091,22562,139091.0,58572.0,139091.0,92328.0,1752.4326579198987,1644.964509309233,1839.4306963486642
139102,22551,139102.0,58571.0,139102.0,92289.0,1748.4017972201123,1629.9000557190075,1823.2234974498842
139102,22528,139102.0,58515.0,139102.0,92308.0,1743.3213507596774,1614.0329024525374,1806.1483491840418
139102,22548,139102.0,58472.0,139102.0,92257.0,1737.23126926226,1597.4117698136122,1788.2552266096532
139102,22541,139102.0,58515.0,139102.0,92260.0,1730.1704122791652,1580.0829411090344,1769.592441650871
139102,22532,139102.0,58499.0,139102.0,92232.0,1722.1767210460307,1562.0901478251021,1750.2066644124184
139102,22514,139102.0,58501.0,139102.0,92223.0,1713.2873843543161,1543.4750747492296,1730.1429633820442
139112,22508,139112.0,58496.0,139112.0,92203.0,1703.538830265768,1524.2780242338945,1709.4449196737953
139112,22523,139112.0,58524.0,139112.0,92211.0,1692.9667063887568,1504.5385257550374,1688.154819924038
139112,22504,139112.0,58526.0,139112.0,92189.0,1681.6060580052995,1484.2961201539138,1666.313993210414
139112,22503,139112.0,58388.0,139112.0,92161.0,1669.4916280174116,1463.59104811876,1643.9632015770721
139112,22481,139112.0,58395.0,139112.0,92118.0,1656.658067110725,1442.4640523718892,1621.1428096239574
139112,22437,139112.0,58307.0,139112.0,92066.0,1643.1399396822874,1420.9553327379315,1597.8925719662543
139122,22429,139122.0,58294.0,139122.0,92054.0,1628.9714697729478,1399.1034723919659,1574.2511526128278
139122,22402,139122.0,58293.0,139122.0,92005.0,1614.1861614799243,1376.944744816319,1550.2556643757005
139122,22395,139122.0,58258.0,139122.0,92013.0,1598.8165436890488,1354.5128953431213,1525.9414193184778
139122,22391,139122.0,58297.0,139122.0,92004.0,1582.8941189964241,1331.8393677808083,1501.3419740432782
139122,22383,139122.0,58244.0,139122.0,91980.0,1566.4495096981505,1308.953788848628,1476.4894909340026
139122,22365,139122.0,58241.0,139122.0,91966.0,1549.5127289982217,1285.8844645259821,1451.4151876094015
139133,22351,139133.0,58261.0,139133.0,91944.0,1532.1134125207304,1262.6587477144794,1426.1496549786218
139133,22325,139133.0,58256.0,139133.0,91914.0,1514.28092618096,1239.3035596097973,1400.7230671687025
139133,22336,139133.0,58231.0,139133.0,91911.0,1496.044426356688,1215.846171145838,1375.165341017915
139133,22294,139133.0,58168.0,139133.0,91865.0,1477.4329928317904,1192.314733654615,1349.5062907015888
139133,22267,139133.0,58097.0,139133.0,91809.0,1458.4757364299696,1168.738090375283,1323.77566521633
139133,22241,139133.0,58093.0,139133.0,91766.0,1439.2016739791734,1145.1449873027518,1298.0028147940304
139143,22217,139143.0,58031.0,139143.0,91721.0,1419.6394546632475,1121.5632652820032,1272.216045999746
139143,22179,139143.0,57985.0,139143.0,91747.0,1399.8171108657339,1098.0192874173074,1246.4420956227546
139143,22196,139143.0,57942.0,139143.0,91701.0,1379.7618791287118,1074.5373236571668,1220.7060948143323
139143,22175,139143.0,58002.0,139143.0,91677.0,1359.5002461485658,1051.1390272997442,1195.0318667828974
139143,22148,139143.0,57988.0,139143.0,91670.0,1339.058241187908,1027.8436421319923,1169.4421322497994
139143,22122,139143.0,57986.0,139143.0,91633.0,1318.4616441790183,1004.6689394981202,1143.958617844487
139153,22123,139153.0,58002.0,139153.0,91675.0,1297.7359933225748,981.6322269557293,1118.602317640729
139153,22108,139153.0,57987.0,139153.0,91636.0,1276.9066706189715,958.7511911546758,1093.3940447381563
139153,22076,139153.0,57980.0,139153.0,91598.0,1255.9991515242652,936.0446674550137,1068.355075901119
139153,22037,139153.0,57822.0,139153.0,91575.0,1235.0391325635087,913.5329572663509,1043.5074251426356
139153,22020,139153.0,57832.0,139153.0,91519.0,1214.0523681081165,891.2371400225807,1018.8736828251967
139153,22003,139153.0,57812.0,139153.0,91488.0,1193.0644320249557,869.1778466210365,994.4766583647553
139164,21972,139164.0,57769.0,139164.0,91422.0,1172.1006279988449,847.3745702735301,970.3388703340827
139164,21950,139164.0,57756.0,139164.0,91453.0,1151.18596877818,825.8455343491748,946.4820087041797
139164,21922,139164.0,57764.0,139164.0,91425.0,1130.3450899608918,804.6076551753486,922.9267651488944
139164,21906,139164.0,57786.0,139164.0,91367.0,1109.6021339394995,783.6768116959678,899.6930610686477
139164,21890,139164.0,57719.0,139164.0,91364.0,1088.9807003476467,763.0684902405143,876.8001323300771
139164,21870,139164.0,57698.0,139164.0,91378.0,1068.503900678119,742.7981927204382,854.2664376959996
139174,21864,139174.0,57810.0,139174.0,91382.0,1048.1944899994965,722.881551080777,832.1099792208989
139174,21840,139174.0,57713.0,139174.0,91314.0,1028.0750466895188,703.3349509131373,810.34897532181
139174,21793,139174.0,57687.0,139174.0,91262.0,1008.1680921894182,684.1764026553368,789.0020987091059
139174,21763,139174.0,57589.0,139174.0,91259.0,988.4959395813897,665.4254618003142,768.0880094307084
139174,21736,139174.0,57540.0,139174.0,91193.0,969.0802824047305,647.1020922993197,747.6247349027497
139174,21706,139174.0,57479.0,139174.0,91190.0,949.9417779815928,629.2251666740681,727.6292322668461
139184,21702,139184.0,57474.0,139184.0,91160.0,931.0997783582554,611.8111243307771,708.117055595602
139184,21697,139184.0,57521.0,139184.0,91161.0,912.5722830743821,594.873279245753,689.1022063265742
139184,21671,139184.0,57499.0,139184.0,91154.0,894.3761293240752,578.4220760089322,670.5972574893756
139184,21649,139184.0,57491.0,139184.0,91094.0,876.5272023865521,562.465860716957,652.6135752072514
139184,21634,139184.0,57501.0,139184.0,91090.0,859.0404715021097,547.0114823525182,635.161307198206
139184,21631,139184.0,57540.0,139184.0,91116.0,841.9299721006635,532.0647992463355,618.2492229024447
139195,21625,139195.0,57517.0,139195.0,91133.0,825.2089423395604,517.6314708472178,601.8849958302628
139195,21597,139195.0,57477.0,139195.0,91073.0,808.8900892093792,503.7177229465074,586.0759501023067
139195,21548,139195.0,57421.0,139195.0,91012.0,792.9856964086041,490.3304446464824,570.8294108459152
139195,21541,139195.0,57396.0,139195.0,91008.0,777.5073671559492,477.47655211022095,556.1521968001555
139195,21499,139195.0,57333.0,139195.0,90941.0,762.4655836796319,465.1620519516947,542.0497749906099
139195,21487,139195.0,57290.0,139195.0,90950.0,747.8693258590636,453.39103273489116,528.5255690261602
139205,21502,139205.0,57347.0,139205.0,90999.0,733.7258458230826,442.16476046501396,515.5806394104595
139205,21478,139205.0,57364.0,139205.0,90971.0,720.0407338051375,431.4814830403169,503.21404134056434
139205,21471,139205.0,57377.0,139205.0,90957.0,706.8181879999,421.3371844464963,491.42354223018623
139205,21463,139205.0,57349.0,139205.0,90945.0,694.0612109879448,411.72657032234895,480.2059805605036
139205,21455,139205.0,57341.0,139205.0,90929.0,681.7717285414828,402.6435746900785,469.55724183930505
139205,21454,139205.0,57380.0,139205.0,90985.0,669.9507541571481,394.081495268393,459.472311150961
139215,21445,139215.0,57416.0,139215.0,90931.0,658.5986053214028,386.03338895730394,449.9456634856074
139215,21428,139215.0,57347.0,139215.0,90941.0,647.7151067129989,378.49286329199447,440.9717208266733
139215,21395,139215.0,57298.0,139215.0,90873.0,637.2996406926759,371.45442626362274,432.54489047758796
139215,21370,139215.0,57287.0,139215.0,90894.0,627.3509216383118,364.9128543783768,424.65916659332356
139215,21365,139215.0,57219.0,139215.0,90876.0,617.8665852149948,358.86212351790095,417.3077038910331
139215,21345,139215.0,57216.0,139215.0,90864.0,608.84284559049,353.2944046648421,410.4826490817779
139226,21346,139226.0,57296.0,139226.0,90835.0,600.2743340046277,348.19939385601924,404.1750582317287
139226,21371,139226.0,57260.0,139226.0,90855.0,592.1541370303382,343.5644683864097,398.3746959129983
139226,21356,139226.0,57251.0,139226.0,90851.0,584.4741075519469,339.3753619908288,393.06992892421397
139226,21341,139226.0,57293.0,139226.0,90862.0,577.2252685689884,335.61654182376594,388.24790918831627
139226,21366,139226.0,57346.0,139226.0,90876.0,570.398034858217,332.27156291554536,383.8949389433361
139226,21346,139226.0,57348.0,139226.0,90864.0,563.9823782495118,329.32399759331645,379.9968789993041
139236,21326,139236.0,57312.0,139236.0,90885.0,557.9680197941348,326.7584627888941,376.53950740637777
139236,21322,139236.0,57293.0,139236.0,90811.0,552.3444184437693,324.56093424250633,373.50867720695874
139236,21310,139236.0,57232.0,139236.0,90841.0,547.1005768092471,322.71824893268706,370.8900976660024
139236,21307,139236.0,57236.0,139236.0,90833.0,542.2248909971171,321.2171827202855,368.6689276438485
139236,21281,139236.0,57192.0,139236.0,90784.0,537.7050469051572,320.0434962451046,366.8295256091371
139236,21306,139236.0,57216.0,139236.0,90804.0,533.5278985944894,319.18120248004806,365.3551827360017
139246,21297,139246.0,57252.0,139246.0,90810.0,529.6794566312649,318.6122567610987,364.22777888399617
139246,21295,139246.0,57270.0,139246.0,90833.0,526.1450556282708,318.31686611365586,363.42777686445606
139246,21282,139246.0,57257.0,139246.0,90846.0,522.9094990653031,318.2741796558455,362.9346284321925
139246,21298,139246.0,57295.0,139246.0,90860.0,519.9570766269126,318.4628385919685,362.72732347407583
139246,21319,139246.0,57396.0,139246.0,90901.0,517.2716710842218,318.86156049900404,362.7849798404455
139246,21312,139246.0,57333.0,139246.0,90887.0,514.8371171228076,319.4502260626374,363.0874967493624
139257,21305,139257.0,57312.0,139257.0,90860.0,512.6375981187781,320.2108314660293,363.6160437487142
139257,21270,139257.0,57263.0,139257.0,90810.0,510.6577373490254,321.12733973582516,364.3529426866804
139257,21268,139257.0,57212.0,139257.0,90810.0,508.8823052206494,322.1846056676709,365.2809088972113
139257,21261,139257.0,57205.0,139257.0,90814.0,507.2957797938759,323.3670366174677,366.3822026310155
139257,21260,139257.0,57252.0,139257.0,90780.0,505.8820464395833,324.6575482107943,367.6381243759117
139257,21261,139257.0,57279.0,139257.0,90859.0,504.62429380093795,326.03737403313323,369.02883238679505
139267,21276,139267.0,57319.0,139267.0,90815.0,503.50504789388697,327.48674402109515,370.53349315005505
139267,21276,139267.0,57294.0,139267.0,90844.0,502.5063469123455,328.9858169443292,372.13065209364413
139267,21293,139267.0,57280.0,139267.0,90860.0,501.61002289660405,330.5152119214286,373.79850951140503
139267,21307,139267.0,57364.0,139267.0,90873.0,500.79804631890556,332.05610115166655,375.5152015517123
139267,21296,139267.0,57389.0,139267.0,90922.0,500.0529058354963,333.5906092099522,377.25931160077687
139267,21294,139267.0,57338.0,139267.0,90863.0,499.3578720033187,335.1027279478288,379.0104589569605
139277,21272,139277.0,57283.0,139277.0,90861.0,498.6969977921889,336.5787073792917,380.74951419223487
139277,21266,139277.0,57215.0,139277.0,90832.0,498.05488881165434,338.00618643384865,382.45819496340454
139277,21250,139277.0,57305.0,139277.0,90806.0,497.416361145731,339.37275614080926,384.11834038166165
139277,21243,139277.0,57233.0,139277.0,90828.0,496.7660864592096,340.66513143822965,385.7112227373371
139277,21256,139277.0,57193.0,139277.0,90840.0,496.0883179615747,341.868883451143,387.2171622824199
139277,21278,139277.0,57331.0,139277.0,90883.0,495.36685760004667,342.96807901556576,388.615678407196
139288,21274,139288.0,57348.0,139288.0,90848.0,494.5853398673728,343.94551597864324,389.8860098764033
139288,21262,139288.0,57305.0,139288.0,90855.0,493.727579779498,344.7839534548027,391.0074846857593
139288,21267,139288.0,57353.0,139288.0,90877.0,492.7776900848989,345.4670808534764,391.9595479512471
139288,21305,139288.0,57363.0,139288.0,90915.0,491.7201159561308,345.9798032650487,392.7218896651415
139288,21312,139288.0,57367.0,139288.0,90913.0,490.53996610815364,346.30858642579614,393.2749907018975
139288,21270,139288.0,57320.0,139288.0,90905.0,489.2235194175125,346.44180912695026,393.6007396430642
139298,21266,139298.0,57310.0,139298.0,90874.0,487.75834087753634,346.3695872169965,393.6826353526967
139298,21250,139298.0,57265.0,139298.0,90868.0,486.13290614473027,346.0830877878883,393.50549695955453
139298,21240,139298.0,57229.0,139298.0,90851.0,484.3361479186555,345.5736090978665,393.054952959338
139298,21248,139298.0,57217.0,139298.0,90860.0,482.35715523580586,344.8315600945499,392.31700741867667
139298,21239,139298.0,57295.0,139298.0,90891.0,480.1850422284027,343.8457243378923,391.2778921926068
139298,21252,139298.0,57291.0,139298.0,90865.0,477.8089725353883,342.60338742294044,389.9242683435303
139308,21257,139308.0,57302.0,139308.0,90861.0,475.2183032890559,341.0911441042513,388.2434756701658
139308,21261,139308.0,57301.0,139308.0,90873.0,472.40283485766497,339.2955922270975,386.22354138247067
139308,21264,139308.0,57395.0,139308.0,90891.0,469.35310394782084,337.2038309142203,383.8531911741596
139308,21264,139308.0,57387.0,139308.0,90920.0,466.0606374179215,334.80434018761855,381.1221990132527
139308,21278,139308.0,57373.0,139308.0,90899.0,462.51818126886394,332.0881189806555,378.02198291655554
139308,21233,139308.0,57300.0,139308.0,90856.0,458.7198848432664,329.0491712267218,374.5459775286184
139319,21221,139319.0,57315.0,139319.0,90854.0,454.6612259503868,325.683996276146,370.68941748403824
139319,21207,139319.0,57245.0,139319.0,90823.0,450.33859818061717,321.99065857361137,366.44875639770845
139319,21199,139319.0,57163.0,139319.0,90864.0,445.74885399737025,317.9677342064442,361.82122757023416
139319,21205,139319.0,57297.0,139319.0,90833.0,440.88905669107885,313.6131688045811,356.8047893723737
139319,21200,139319.0,57296.0,139319.0,90839.0,435.7564554648445,308.9239656156912,351.3982975475416
139319,21189,139319.0,57284.0,139319.0,90841.0,430.3485825596225,303.8971227315667,345.60163129320085
139329,21190,139329.0,57278.0,139329.0,90847.0,424.6633267974829,298.53058913375395,339.41581969883214
139329,21198,139329.0,57278.0,139329.0,90830.0,418.698993737668,292.823503009877,332.84327174868054
139329,21217,139329.0,57379.0,139329.0,90874.0,412.45452857265116,286.7764045075855,325.88804711472176
139329,21186,139329.0,57338.0,139329.0,90828.0,405.9299058603065,280.3920887466037,318.5561959868454
139329,21168,139329.0,57244.0,139329.0,90792.0,399.1263643487872,273.67650003928276,310.85596543027987
139329,21142,139329.0,57198.0,139329.0,90740.0,392.04623594938437,266.6384104923547,302.7974207824327
139340,21132,139340.0,57183.0,139340.0,90728.0,384.6925266663201,259.2879718436074,294.391546584412
139340,21113,139340.0,57153.0,139340.0,90694.0,377.0685246358933,251.63536461068628,285.6493427770194
139340,21122,139340.0,57145.0,139340.0,90698.0,369.17755660357295,243.69003802672125,276.5812072313381
139340,21102,139340.0,57167.0,139340.0,90712.0,361.02292511318547,235.46036438075834,267.19668116521393
139340,21105,139340.0,57144.0,139340.0,90695.0,352.607965587767,226.95366293882688,257.5045874663754
139340,21096,139340.0,57161.0,139340.0,90690.0,343.936130101216,218.17646163101406,247.51333697673735
139350,21085,139350.0,57162.0,139350.0,90683.0,335.01107951544503,209.13479996182548,237.231119126423
139350,21087,139350.0,57200.0,139350.0,90713.0,325.83677577223597,199.83466803897716,226.66607580064925
139350,21094,139350.0,57221.0,139350.0,90693.0,316.4176227859987,190.28275757804676,215.82669291811382
139350,21064,139350.0,57189.0,139350.0,90679.0,306.758698301831,180.48737694367315,204.7222657654992
139350,21040,139350.0,57112.0,139350.0,90638.0,296.86586812847935,170.4589147880012,193.3630553227117
139350,21022,139350.0,57047.0,139350.0,90605.0,286.7455862779134,160.20926513318548,181.75999361372862
139360,21001,139360.0,57062.0,139360.0,90610.0,276.4045285523289,149.7505090291304,169.92415833599776
139360,20986,139360.0,56975.0,139360.0,90557.0,265.8492678143698,139.09371856521594,157.86633616536486
139360,20986,139360.0,57008.0,139360.0,90564.0,255.08605953257398,128.24816213289532,145.59671687999418
139360,20986,139360.0,57046.0,139360.0,90559.0,244.12081631447552,117.22093082783661,133.1246754580238
139360,20946,139360.0,57028.0,139360.0,90500.0,232.95923277198395,106.01729127447373,120.45869038887318
139360,20943,139360.0,57013.0,139360.0,90516.0,221.60680148864296,94.64142262917878,107.60620564098366
139371,20972,139371.0,57001.0,139371.0,90510.0,210.0687441858688,83.09679285426293,94.57342993987697
139371,20948,139371.0,57116.0,139371.0,90553.0,198.35022622241587,71.38641493961322,81.3655122595963
139371,20941,139371.0,57000.0,139371.0,90513.0,186.4567894932399,59.51361637215709,67.98718236340056
139371,20912,139371.0,56991.0,139371.0,90487.0,174.39457452551574,47.48273284288075,54.443321956281636
139371,20884,139371.0,56953.0,139371.0,90459.0,162.17021421098832,35.298843735374646,40.73899476112746
139371,20860,139371.0,56890.0,139371.0,90432.0,149.79051230219386,22.966913523766266,26.879064873934567
139381,20854,139381.0,56882.0,139381.0,90393.0,137.26206430875197,10.490893421690316,12.867725006540013
139381,20833,139381.0,56858.0,139381.0,90380.0,124.59101080490092,-2.1270812782783537,-1.2919906593892847
139381,20830,139381.0,56901.0,139381.0,90406.0,111.78296340973242,-14.88707652345613,-15.598541169991904
139381,20805,139381.0,56911.0,139381.0,90399.0,98.84300812559775,-27.79106446213683,-30.051739375736247
139381,20804,139381.0,56887.0,139381.0,90380.0,85.7757170439748,-40.84216458830309,-44.65223962688509
139381,20792,139381.0,56894.0,139381.0,90380.0,72.58518444072001,-54.04398361048163,-59.401111985801094
139391,20804,139391.0,56970.0,139391.0,90422.0,59.275176151927155,-67.40010454957354,-74.29950699231881
139391,20804,139391.0,56924.0,139391.0,90422.0,45.84946899332107,-80.91322510480387,-89.34799407271078
139391,20779,139391.0,56932.0,139391.0,90349.0,32.3122971207988,-94.58414958252979,-104.54574355973688
139391,20724,139391.0,56850.0,139391.0,90332.0,18.668565217630544,-108.41138106567064,-119.89031323427218
139391,20717,139391.0,56773.0,139391.0,90316.0,4.923567306966902,-122.39161938617718,-135.3781163218548
139391,20707,139391.0,56801.0,139391.0,90237.0,-8.917499577975775,-136.5209038856962,-151.0050003347082
139402,20682,139402.0,56745.0,139402.0,90238.0,-22.84978384153959,-150.7956300244213,-166.76685187313757
139402,20666,139402.0,56767.0,139402.0,90219.0,-36.868836603448244,-165.21295021604425,-182.66023358497898
139402,20675,139402.0,56735.0,139402.0,90259.0,-50.970652004532894,-179.77080791723307,-198.68259605192577
139402,20656,139402.0,56772.0,139402.0,90229.0,-65.1515773592526,-194.46778517531175,-214.8318724617306
139402,20629,139402.0,56759.0,139402.0,90226.0,-79.40811757363576,-209.30268275747216,-231.10586494620463
139402,20616,139402.0,56763.0,139402.0,90234.0,-93.73689298708092,-224.27390779390265,-247.50179907345944
139412,20629,139412.0,56811.0,139412.0,90230.0,-108.13470218594762,-239.3787883844122,-264.0159292011748
139412,20630,139412.0,56772.0,139412.0,90210.0,-122.59834789444807,-254.61276261737856,-280.64305920132676
139412,20600,139412.0,56736.0,139412.0,90167.0,-137.1242078389525,-269.96869101876985,-297.37623772276845
139412,20560,139412.0,56637.0,139412.0,90123.0,-151.70798174797363,-285.43693410628737,-314.2069074382583
139412,20535,139412.0,56646.0,139412.0,90083.0,-166.34490804909154,-301.0062964663325,-331.1254842172709
139412,20523,139412.0,56606.0,139412.0,90072.0,-181.03022779419888,-316.665109119729,-348.1220730578949
139422,20502,139422.0,56571.0,139422.0,90057.0,-195.7595215774714,-332.40188793413665,-365.18696086042644
139422,20503,139422.0,56607.0,139422.0,90065.0,-210.52881436517907,-348.2056534482306,-382.3107102951682
139422,20501,139422.0,56581.0,139422.0,90059.0,-225.3344807607889,-364.0659165241792,-399.4838996021731
139422,20471,139422.0,56559.0,139422.0,90022.0,-240.173009526015,-379.9723524471435,-416.69673124237397
139422,20451,139422.0,56554.0,139422.0,89995.0,-255.04085008921004,-395.9145746309953,-433.9388618388143
139422,20484,139422.0,56626.0,139422.0,90013.0,-269.9343897291034,-411.8819232748915,-451.1995022995395
139433,20467,139433.0,56586.0,139433.0,90032.0,-284.84971347510816,-427.8627431498876,-468.46730884019803
139433,20419,139433.0,56516.0,139433.0,89979.0,-299.7821630375273,-443.8435475206728,-485.72984670057883
139433,20394,139433.0,56507.0,139433.0,89937.0,-314.72625749400106,-459.8090035465639,-502.9732178544308
139433,20374,139433.0,56411.0,139433.0,89865.0,-329.67609123822,-475.74271531631985,-520.1824359511008
139433,20330,139433.0,56374.0,139433.0,89895.0,-344.6258127188828,-491.62832133795666,-537.3422858534159
139433,20340,139433.0,56347.0,139433.0,89833.0,-359.57000404563246,-507.4507187943708,-554.4379660212023
139443,20334,139443.0,56408.0,139443.0,89821.0,-374.5038604629093,-523.1968949851906,-571.4553583996499
139443,20322,139443.0,56416.0,139443.0,89838.0,-389.4230403500245,-538.8557330134473,-588.3811893716585
139443,20298,139443.0,56381.0,139443.0,89808.0,-404.32339434962887,-554.4170673673334,-605.2029850932223
139443,20279,139443.0,56360.0,139443.0,89786.0,-419.20087530416197,-569.8709732942204,-621.9088236685793
139443,20271,139443.0,56340.0,139443.0,89791.0,-434.0516129490893,-585.2077173111715,-638.487206344331
139443,20270,139443.0,56419.0,139443.0,89775.0,-448.8719349355897,-600.4177883731695,-654.9269813306914
139453,20254,139453.0,56341.0,139453.0,89712.0,-463.65821288813277,-615.4914109996683,-671.2172396778477
139453,20241,139453.0,56332.0,139453.0,89707.0,-478.40664087727816,-630.417955536419,-687.3474992699867
139453,20202,139453.0,56278.0,139453.0,89700.0,-493.1131467780507,-645.185988579881,-703.3081145550319
139453,20174,139453.0,56205.0,139453.0,89655.0,-507.7735641344989,-659.7839639093162,-719.0905035567392
139453,20168,139453.0,56135.0,139453.0,89642.0,-522.3839938324707,-674.2013721543244,-734.6872734283868
139453,20137,139453.0,56203.0,139453.0,89579.0,-536.9411108441133,-688.4300480232049,-750.0925544525163
139464,20135,139464.0,56198.0,139464.0,89653.0,-551.4423129591232,-702.4647227227528,-765.3023909453457
139464,20135,139464.0,56188.0,139464.0,89632.0,-565.8857358949351,-716.302522318891,-780.3146468989185
139464,20113,139464.0,56199.0,139464.0,89609.0,-580.2701045167153,-729.9422338419106,-795.1283678054289
139464,20100,139464.0,56152.0,139464.0,89592.0,-594.5945376073915,-743.3838977852969,-809.7432989466205
139464,20086,139464.0,56257.0,139464.0,89618.0,-608.8584762254943,-756.6285024146059,-824.1597908911128
139464,20104,139464.0,56240.0,139464.0,89627.0,-623.061622355608,-769.6772456339297,-838.3785336691493
139474,20089,139474.0,56141.0,139474.0,89563.0,-637.2036713366531,-782.5305384301563,-852.4000164109041
139474,20043,139474.0,56149.0,139474.0,89511.0,-651.2839777198623,-795.1878305313462,-866.2244065668261
139474,20015,139474.0,56106.0,139474.0,89521.0,-665.3015815753654,-807.6483554082052,-879.852150229798
139474,19990,139474.0,56027.0,139474.0,89480.0,-679.2556640761788,-819.9119790734054,-893.284660126477
139474,19970,139474.0,56037.0,139474.0,89449.0,-693.1460701425783,-831.9800859090478,-906.5247006793317
139474,19974,139474.0,56027.0,139474.0,89435.0,-706.973624967204,-843.8564246130865,-919.5767574550829
139484,19967,139484.0,56070.0,139484.0,89473.0,-720.7401594274498,-855.5473293572037,-932.4473362653221
139484,19950,139484.0,56071.0,139484.0,89434.0,-734.4483091186671,-867.0611986578267,-945.1448194101077
139484,19958,139484.0,56074.0,139484.0,89464.0,-748.1012751586783,-878.4076547188286,-957.6790225398643
139484,19916,139484.0,56058.0,139484.0,89492.0,-761.7026478693512,-889.5968524880308,-970.0606825758241
139484,19945,139484.0,56152.0,139484.0,89468.0,-775.2562932365048,-900.6389340809561,-982.300752934372
139484,19949,139484.0,56095.0,139484.0,89471.0,-788.7661421632232,-911.5432032752908,-994.4096919015934
139495,19896,139495.0,56081.0,139495.0,89424.0,-802.2357913299859,-922.3172545117438,-1006.3971465330485
139495,19873,139495.0,56006.0,139495.0,89395.0,-815.668336473186,-932.9668635728187,-1018.272106623574
139495,19856,139495.0,56002.0,139495.0,89379.0,-829.0667030751646,-943.4967105260725,-1030.0433847506213
139495,19837,139495.0,55908.0,139495.0,89369.0,-842.4340817636539,-953.911412618535,-1041.7201144905412
139495,19824,139495.0,55968.0,139495.0,89343.0,-855.774168812561,-964.2165229256177,-1053.3120337897549
139495,19821,139495.0,55956.0,139495.0,89364.0,-869.0912541363576,-974.4190736592142,-1064.8295916420197
139505,19804,139505.0,55954.0,139505.0,89337.0,-882.3901890380903,-984.5274008660064,-1076.283893945048
139505,19814,139505.0,55956.0,139505.0,89366.0,-895.6762477400499,-994.5506934828486,-1087.6864740347205
139505,19788,139505.0,55952.0,139505.0,89338.0,-908.9549209944398,-1004.4986752753234,-1099.0489624184283
139505,19783,139505.0,56022.0,139505.0,89365.0,-922.2317245798934,-1014.3812048554926,-1110.3827221228144
139505,19780,139505.0,56029.0,139505.0,89368.0,-935.5120811982324,-1024.2074271804695,-1121.6984250017663
139505,19759,139505.0,55934.0,139505.0,89325.0,-948.8012047664926,-1033.9847858539235,-1133.0055969758935
139515,19740,139515.0,55927.0,139515.0,89311.0,-962.1040051454967,-1043.7188632806988,-1144.3124394690572
139515,19707,139515.0,55849.0,139515.0,89253.0,-975.4251649166828,-1053.414252831069,-1155.6261473209133
139515,19698,139515.0,55828.0,139515.0,89244.0,-988.7693981669864,-1063.0757767844361,-1166.9535529142422
139515,19668,139515.0,55831.0,139515.0,89234.0,-1002.1417474442104,-1072.7095520535731,-1178.301768433983
139515,19675,139515.0,55833.0,139515.0,89243.0,-1015.5477932572173,-1082.3235696053193,-1189.6785002111308
139515,19675,139515.0,55892.0,139515.0,89227.0,-1028.9936666754684,-1091.9275586920385,-1201.091964086594
139526,19661,139526.0,55882.0,139526.0,89225.0,-1042.485818302996,-1101.532232775279,-1212.5506524865807
139526,19642,139526.0,55846.0,139526.0,89225.0,-1056.0307377086865,-1111.148414670049,-1224.063135080864
139526,19626,139526.0,55875.0,139526.0,89207.0,-1069.6348578591492,-1120.7866193561833,-1235.6378725155378
139526,19648,139526.0,55927.0,139526.0,89232.0,-1083.3045451852606,-1130.456822937032,-1247.2830004480304
139526,19625,139526.0,55893.0,139526.0,89229.0,-1097.045903898785,-1140.1677799421254,-1259.0059945712553
139526,19618,139526.0,55824.0,139526.0,89179.0,-1110.8644348312753,-1149.9263541135747,-1270.813275056305
139536,19580,139536.0,55764.0,139536.0,89146.0,-1124.764858230375,-1159.7378398521907,-1282.7101832507656
139536,19571,139536.0,55754.0,139536.0,89143.0,-1138.7512197377828,-1169.6071830291148,-1294.7014680365833
139536,19560,139536.0,55767.0,139536.0,89109.0,-1152.827101309008,-1179.5400972145837,-1306.7918202625963
139536,19532,139536.0,55711.0,139536.0,89119.0,-1166.9957467132147,-1189.543522674415,-1318.9861596282121
139536,19534,139536.0,55783.0,139536.0,89112.0,-1181.2601136378532,-1199.6256809044187,-1331.2896961222332
139536,19508,139536.0,55761.0,139536.0,89114.0,-1195.6229008618448,-1209.7958317329658,-1343.7077638327196
139546,19492,139546.0,55777.0,139546.0,89106.0,-1210.0865564725664,-1220.063669994086,-1356.245511956888
139546,19513,139546.0,55770.0,139546.0,89093.0,-1224.6532589448818,-1230.438703486584,-1368.9076228340339
139546,19505,139546.0,55811.0,139546.0,89114.0,-1239.3246989888185,-1240.9297576212646,-1381.6980811232452
139546,19505,139546.0,55828.0,139546.0,89128.0,-1254.1016034118552,-1251.5442988527975,-1394.619801725806
139546,19500,139546.0,55849.0,139546.0,89091.0,-1268.9832336749457,-1262.2874673410631,-1407.6740616885027
139546,19467,139546.0,55756.0,139546.0,89053.0,-1283.9670412603687,-1273.1612537109636,-1420.8601630033977
139557,19424,139557.0,55662.0,139557.0,89065.0,-1299.0486215403027,-1284.1646454279185,-1434.1756055385008
139557,19412,139557.0,55692.0,139557.0,89015.0,-1314.2220471776432,-1295.2949268784296,-1447.616415970314
139557,19388,139557.0,55664.0,139557.0,89014.0,-1329.4803302570501,-1306.5490160820464,-1461.1773798299091
139557,19391,139557.0,55692.0,139557.0,89009.0,-1344.815685490771,-1317.9238869597148,-1474.8522314265504
139557,19382,139557.0,55709.0,139557.0,89014.0,-1360.219511749308,-1329.4162593835533,-1488.6336581306232
139557,19385,139557.0,55711.0,139557.0,89002.0,-1375.6821508564992,-1341.021943637273,-1502.5130321984088
139567,19368,139567.0,55679.0,139567.0,89033.0,-1391.1925392823662,-1352.7351692666223,-1516.4800019192503
139567,19344,139567.0,55723.0,139567.0,88990.0,-1406.737931137647,-1364.5481898782868,-1530.5220152232423
139567,19358,139567.0,55771.0,139567.0,89017.0,-1422.303769733125,-1376.450818025955,-1544.623893465684
139567,19340,139567.0,55765.0,139567.0,89013.0,-1437.873538127021,-1388.4294168938786,-1558.7674841323183
139567,19317,139567.0,55659.0,139567.0,88966.0,-1453.4285142567148,-1400.4659339730706,-1572.931312012554
139567,19298,139567.0,55617.0,139567.0,88986.0,-1468.9476538003796,-1412.538082127686,-1587.0904014475004
139578,19280,139578.0,55589.0,139578.0,88924.0,-1484.407682324118,-1424.6206160153406,-1601.2163533213022
139578,19260,139578.0,55569.0,139578.0,88881.0,-1499.783241568671,-1436.6866198557939,-1615.2776452220273
139578,19238,139578.0,55581.0,139578.0,88892.0,-1515.0470238440278,-1448.708179994775,-1629.2402103254676
139578,19233,139578.0,55627.0,139578.0,88935.0,-1530.169899397302,-1460.6563905056169,-1643.067814369401
139578,19236,139578.0,55658.0,139578.0,88901.0,-1545.1209324026615,-1472.5006340430295,-1656.7216894613434
139578,19216,139578.0,55627.0,139578.0,88908.0,-1559.86719747225,-1484.2074242370072,-1670.1598488505597
139588,19214,139588.0,55632.0,139588.0,88906.0,-1574.3735211376238,-1495.739522978502,-1683.336660684421
139588,19200,139588.0,55648.0,139588.0,88921.0,-1588.6022890064244,-1507.055554277039,-1696.2025283116013
139588,19206,139588.0,55689.0,139588.0,88892.0,-1602.513269142494,-1518.1095796186676,-1708.7034641003456
139588,19184,139588.0,55638.0,139588.0,88890.0,-1616.0633861067047,-1528.8503649926538,-1720.7807587285888
139588,19153,139588.0,55566.0,139588.0,88859.0,-1629.2065683857434,-1539.220978550213,-1732.3709176884681
139588,19131,139588.0,55543.0,139588.0,88807.0,-1641.8938648801663,-1549.159362072622,-1743.4058830939857
139598,19115,139598.0,55528.0,139598.0,88794.0,-1654.0737853948654,-1558.5994510788096,-1753.8135853395877
139598,19109,139598.0,55448.0,139598.0,88779.0,-1665.6926076758891,-1567.4721372653476,-1763.5186365737065
139598,19086,139598.0,55463.0,139598.0,88775.0,-1676.694527184604,-1575.7061300395274,-1772.44279392155
139598,19086,139598.0,55497.0,139598.0,88747.0,-1687.0217282451947,-1583.2286546084747,-1780.505156437871
139598,19080,139598.0,55489.0,139598.0,88757.0,-1696.6144147961568,-1589.9654587080354,-1787.6223087817352
139598,19073,139598.0,55475.0,139598.0,88735.0,-1705.410752022798,-1595.8403266244927,-1793.708456725782
139609,19060,139609.0,55428.0,139609.0,88737.0,-1713.3467734221922,-1600.7748982334965,-1798.6755146977578
139609,19047,139609.0,55513.0,139609.0,88776.0,-1720.3563767243693,-1604.6888906383006,-1802.4330874163502
139609,19029,139609.0,55508.0,139609.0,88707.0,-1726.3714512129086,-1607.4999984283768,-1804.8882978783977
139609,19014,139609.0,55426.0,139609.0,88663.0,-1731.3221203676947,-1609.1233881372902,-1805.945899719906
139609,18982,139609.0,55355.0,139609.0,88637.0,-1735.1371000052534,-1609.4719208198608,-1805.5091565706243
139609,18952,139609.0,55319.0,139609.0,88600.0,-1737.7442288110237,-1608.457649864953,-1803.4811393440232
139619,18942,139619.0,55286.0,139619.0,88596.0,-1739.071171536888,-1605.9937428350095,-1799.7658920996523
139619,18927,139619.0,55315.0,139619.0,88572.0,-1739.0461170770263,-1601.995939715994,-1794.2693603135613
139619,18925,139619.0,55330.0,139619.0,88556.0,-1737.5983078065487,-1596.3832427593888,-1786.9001716644289
139619,18926,139619.0,55316.0,139619.0,88545.0,-1734.6583964257309,-1589.0779802652442,-1777.570397833776
139619,18907,139619.0,55308.0,139619.0,88551.0,-1730.1587074693493,-1580.005807490174,-1766.1963002628554
139619,18905,139619.0,55315.0,139619.0,88560.0,-1724.0335433311584,-1569.0960236002516,-1752.6989109189917
139629,18909,139629.0,55326.0,139629.0,88549.0,-1716.21958353206,-1556.2820067205353,-1737.0044325563003
139629,18896,139629.0,55392.0,139629.0,88597.0,-1706.6562720933216,-1541.5013929506313,-1719.0445662493064
139629,18901,139629.0,55356.0,139629.0,88533.0,-1695.286191008311,-1524.695896264129,-1698.7568434567083
139629,18887,139629.0,55335.0,139629.0,88557.0,-1682.0555067596101,-1505.8112569986451,-1676.0851995661187
139629,18869,139629.0,55306.0,139629.0,88547.0,-1666.9145443464488,-1484.7979360265313,-1650.9809022325576
139629,18874,139629.0,55340.0,139629.0,88571.0,-1649.8185269794096,-1461.6123458822067,-1623.4034821585174
139640,18879,139640.0,55338.0,139640.0,88545.0,-1630.7283575656925,-1436.217895940355,-1593.3214958584551
139640,18903,139640.0,55325.0,139640.0,88635.0,-1609.6112167637284,-1408.5856911385413,-1560.7132228867345
139640,18937,139640.0,55360.0,139640.0,88707.0,-1586.4408736270882,-1378.6952375377386,-1525.5669423584884
139640,18950,139640.0,55434.0,139640.0,88706.0,-1561.1977463181215,-1346.5350504077683,-1487.880512210546
139640,18964,139640.0,55480.0,139640.0,88752.0,-1533.8689221772186,-1312.1026555134601,-1447.6609072628946
139640,19004,139640.0,55531.0,139640.0,88812.0,-1504.4483199106933,-1275.404040632276,-1404.9242281497168
139650,19046,139650.0,55638.0,139650.0,88896.0,-1472.9368425308858,-1236.4529540335568,-1359.695687104841
139650,19086,139650.0,55660.0,139650.0,88920.0,-1439.3423047025085,-1195.270082111125,-1312.0091997378029
139650,19109,139650.0,55694.0,139650.0,88975.0,-1403.6792417191286,-1151.882300007903,-1261.9069806544132
139650,19133,139650.0,55637.0,139650.0,89004.0,-1365.968877102827,-1106.3226502497096,-1209.4395263285962
139650,19176,139650.0,55719.0,139650.0,89060.0,-1326.2393293006337,-1058.6312771917985,-1154.6658927867607
139650,19244,139650.0,55760.0,139650.0,89112.0,-1284.5258098907834,-1008.8565694412171,-1097.654025638269
139660,19274,139660.0,55807.0,139660.0,89196.0,-1240.8705573939355,-957.0557156398855,-1038.4809523248168
139660,19348,139660.0,55904.0,139660.0,89264.0,-1195.3225945885652,-903.294734761896,-977.2327028388745
139660,19393,139660.0,56004.0,139660.0,89365.0,-1147.937471881954,-847.6481389400853,-914.0039523647204
139660,19449,139660.0,56040.0,139660.0,89449.0,-1098.7770072909593,-790.1981922811804,-848.8974417442416
139660,19536,139660.0,56149.0,139660.0,89521.0,-1047.9090070673285,-731.0341477670717,-782.023288055876
139660,19590,139660.0,56302.0,139660.0,89655.0,-995.4068718750306,-670.2515142251386,-713.4982993602584
139671,19677,139671.0,56367.0,139671.0,89767.0,-941.3490519224981,-607.950826344988,-643.4451058946931
139671,19724,139671.0,56409.0,139671.0,89829.0,-885.818496407088,-544.2362303608156,-571.9910027571079
139671,19774,139671.0,56429.0,139671.0,89895.0,-828.9022748450243,-479.2149142501129,-499.26702830784814
139671,19846,139671.0,56457.0,139671.0,89967.0,-770.6914627158369,-412.9976482325467,-425.40770320125455
139671,19913,139671.0,56536.0,139671.0,90077.0,-711.2811246786856,-345.6998310437493,-350.55108581971774
139671,19976,139671.0,56598.0,139671.0,90134.0,-650.7701778939322,-277.44232400751935,-274.83866012982185
139681,20059,139681.0,56745.0,139681.0,90250.0,-589.261162724312,-208.35164619640125,-198.41504743799248
139681,20150,139681.0,56869.0,139681.0,90370.0,-526.8599155872571,-138.55933653004297,-121.42758400812545
139681,20232,139681.0,56945.0,139681.0,90470.0,-463.67502731076286,-68.20062847327165,-44.02556558339393
139681,20305,139681.0,57024.0,139681.0,90565.0,-399.81717058825745,2.586844447700514,33.640736673082756
139681,20381,139681.0,57141.0,139681.0,90690.0,-335.3985237240016,73.66382896228242,111.42097592150662
139681,20496,139681.0,57340.0,139681.0,90807.0,-270.53227899436354,144.89029333973508,189.16563290221643
139691,20557,139691.0,57400.0,139691.0,90894.0,-205.332017482556,216.12703029602653,266.72707327288845
139691,20647,139691.0,57427.0,139691.0,90951.0,-139.91099731886015,287.2373723810888,343.96043804022815
139691,20686,139691.0,57461.0,139691.0,91034.0,-74.3816552099463,358.08770690150106,420.7239812840937
139691,20777,139691.0,57526.0,139691.0,91117.0,-8.855428896253557,428.5467543271916,496.8790055720558
139691,20833,139691.0,57628.0,139691.0,91208.0,56.55727309712222,498.48471744442236,572.2898408287508
139691,20901,139691.0,57652.0,139691.0,91248.0,121.74711992575044,567.7729510868951,646.8239541297667
139702,21003,139702.0,57842.0,139702.0,91366.0,186.60596916124223,636.2840676159917,720.3519782812075
139702,21070,139702.0,57882.0,139702.0,91460.0,251.02715666812048,703.8925187464586,792.7477970465145
139702,21165,139702.0,57972.0,139702.0,91547.0,314.9060095986904,770.4755485587148,863.8890048886769
139702,21225,139702.0,58063.0,139702.0,91638.0,378.1404038237391,835.913947021656,933.6575915085091
139702,21298,139702.0,58120.0,139702.0,91745.0,440.6312072886524,900.0925047853073,1001.9406102694738
139702,21393,139702.0,58333.0,139702.0,91826.0,502.2826247423068,962.9006587905694,1068.630911226615
139712,21450,139712.0,58314.0,139712.0,91866.0,563.0025988263812,1024.2336683564233,1133.627841225371
139712,21499,139712.0,58303.0,139712.0,91877.0,622.7032159859248,1083.9935947543274,1196.8374268225334
139712,21550,139712.0,58348.0,139712.0,91983.0,681.3008247203047,1142.0888835473122,1258.1718935369777
139712,21615,139712.0,58438.0,139712.0,91985.0,738.7158710483488,1198.4330770167544,1317.5490648159644
139712,21654,139712.0,58422.0,139712.0,92071.0,794.8727129385411,1252.9440054300067,1374.8919855802806
139712,21727,139712.0,58492.0,139712.0,92136.0,849.6995012840532,1305.5433668767105,1430.1286940967111
139722,21817,139722.0,58657.0,139722.0,92239.0,903.1282128511596,1356.1564453835404,1483.192336930928
139722,21851,139722.0,58684.0,139722.0,92264.0,955.0949812151241,1404.7126579117912,1534.0217163338139
139722,21915,139722.0,58735.0,139722.0,92316.0,1005.5405093261666,1451.1467323066536,1582.5617926051177
139722,21986,139722.0,58789.0,139722.0,92384.0,1054.41031280916,1495.399419599025,1628.7638277156448
139722,22036,139722.0,58913.0,139722.0,92469.0,1101.654971980473,1537.4178075251098,1672.585540287308
139722,22048,139722.0,58946.0,139722.0,92493.0,1147.2304024420782,1577.1560385689022,1713.9916053992893
139733,22120,139733.0,58916.0,139733.0,92540.0,1191.0978544405384,1614.5761590103907,1752.9541747702538
139733,22130,139733.0,58968.0,139733.0,92518.0,1233.2237092055761,1649.6481655043167,1789.45295098208
139733,22168,139733.0,58979.0,139733.0,92526.0,1273.5792637592476,1682.3493475603968,1823.4746628489434
139733,22201,139733.0,59025.0,139733.0,92578.0,1312.1404445817075,1712.6637465114322,1855.012177352024
139733,22224,139733.0,58984.0,139733.0,92607.0,1348.8874773804432,1740.5818369507047,1884.0638536764368
139733,22299,139733.0,59046.0,139733.0,92623.0,1383.8046796963704,1766.1000486848943,1910.63340267774
139743,22279,139743.0,59018.0,139743.0,92635.0,1416.880435682453,1789.2201619024422,1934.7298511450726
139743,22341,139743.0,59092.0,139743.0,92655.0,1448.1071673870592,1809.9488751950967,1956.3673152852366
139743,22363,139743.0,59110.0,139743.0,92703.0,1477.4811956668518,1828.2977285194206,1975.5647753952853
139743,22406,139743.0,59180.0,139743.0,92738.0,1505.002711565045,1844.2834739770801,1992.3461689962533
139743,22444,139743.0,59262.0,139743.0,92738.0,1530.6759533930758,1857.9289324886263,2006.7407836027628
139743,22437,139743.0,59158.0,139743.0,92741.0,1554.5094094013148,1869.264032252734,2018.7835355158454
139753,22440,139753.0,59121.0,139753.0,92706.0,1576.5157646079115,1878.3260062690024,2028.5147997790787
139753,22448,139753.0,59075.0,139753.0,92700.0,1596.7114539040595,1885.1581327496824,2035.9797942218943
139753,22449,139753.0,59068.0,139753.0,92680.0,1615.1160476910254,1889.807887431337,2041.2277368798873
139753,22459,139753.0,59025.0,139753.0,92620.0,1631.7517083278694,1892.32546767742,2044.3109331945434
139753,22473,139753.0,59056.0,139753.0,92633.0,1646.642761290157,1892.762781976076,2045.2837468954394
139753,22510,139753.0,59054.0,139753.0,92664.0,1659.815465328616,1891.1729012034061,2044.201728115463
139764,22514,139764.0,59097.0,139764.0,92670.0,1671.29806584293,1887.6100873586488,2041.1214393485989
139764,22504,139764.0,59055.0,139764.0,92654.0,1681.1209383715068,1882.1302058034094,2036.1008297273943
139764,22518,139764.0,59059.0,139764.0,92641.0,1689.3165157046856,1874.7910355793406,2029.1994920113939
139764,22520,139764.0,59144.0,139764.0,92661.0,1695.9190482351232,1865.652443613788,2020.4786405363247
139764,22543,139764.0,59128.0,139764.0,92676.0,1700.964473749818,1854.7770321012845,2010.0012149621948
139764,22538,139764.0,59037.0,139764.0,92635.0,1704.4904724609405,1842.2310587912784,1997.8322697360904
139774,22495,139774.0,58933.0,139774.0,92583.0,1706.5364754119973,1828.0843026174816,1984.0391574913729
139774,22494,139774.0,58950.0,139774.0,92551.0,1707.1433052971215,1812.4085588538433,1968.691065133793
139774,22482,139774.0,58895.0,139774.0,92518.0,1706.3525374686415,1795.2760506636705,1951.8581655480689
139774,22482,139774.0,58877.0,139774.0,92497.0,1704.2059886123607,1776.758594581997,1933.6108764854384
139774,22481,139774.0,58893.0,139774.0,92501.0,1700.7454754386163,1756.9272605981303,1914.0194429334315
139774,22482,139774.0,58884.0,139774.0,92474.0,1696.012755022428,1735.8524132169202,1893.1538831954522
139785,22483,139785.0,58830.0,139785.0,92445.0,1690.049586755168,1713.604068463984,1871.0841223696711
139785,22484,139785.0,58832.0,139785.0,92400.0,1682.8978761068165,1690.2520869589368,1847.8799689546236
139785,22467,139785.0,58853.0,139785.0,92412.0,1674.5998361121465,1665.866216977709,1823.6108918452117
139785,22475,139785.0,58874.0,139785.0,92424.0,1665.1980964178808,1640.5165923539498,1798.346022466128
139785,22456,139785.0,58788.0,139785.0,92327.0,1654.7357787615626,1614.2746404571567,1772.1545295490039
139785,22425,139785.0,58730.0,139785.0,92302.0,1643.2565233370492,1587.2134792019986,1745.1057187488946
139795,22384,139795.0,58644.0,139795.0,92236.0,1630.8042703765589,1559.4072523476445,1717.2684541676492
139795,22378,139795.0,58580.0,139795.0,92194.0,1617.4227510204473,1530.929783211682,1688.7103164336438
139795,22358,139795.0,58542.0,139795.0,92164.0,1603.1549916413644,1501.8531535557709,1659.4968695083248
139795,22336,139795.0,58486.0,139795.0,92164.0,1588.043050800547,1472.2465756144488,1629.6912141541275
139795,22343,139795.0,58568.0,139795.0,92159.0,1572.127920666858,1442.175854460953,1599.354052604276
139795,22345,139795.0,58542.0,139795.0,92116.0,1555.4496138009624,1411.7038027451424,1568.544165253541
139805,22325,139805.0,58493.0,139805.0,92101.0,1538.0474987361079,1380.8913324673447,1537.3188602779856
139805,22327,139805.0,58451.0,139805.0,92088.0,1519.9606968754135,1349.7981572695214,1505.7342283306787
139805,22302,139805.0,58520.0,139805.0,92075.0,1501.2283775297994,1318.4829130330122,1473.8454493698416
139805,22276,139805.0,58440.0,139805.0,92026.0,1481.889933636922,1287.0035650404382,1441.7072125341072
139805,22251,139805.0,58384.0,139805.0,91977.0,1461.9849782039125,1255.4180228968835,1409.3739275271673
139805,22227,139805.0,58319.0,139805.0,91915.0,1441.5531844843442,1223.7840405389836,1376.8994849174774
139816,22180,139816.0,58277.0,139816.0,91878.0,1420.6340556297166,1192.1584035066126,1344.3366769232966
139816,22163,139816.0,58279.0,139816.0,91861.0,1399.2666043224951,1160.5961766991222,1311.7366351434405
139816,22150,139816.0,58186.0,139816.0,91796.0,1377.4890301608484,1129.1503710094044,1279.1485344734085
139816,22128,139816.0,58166.0,139816.0,91797.0,1355.3386060269263,1097.8716891001854,1246.619462394851
139816,22124,139816.0,58191.0,139816.0,91789.0,1332.8517863705579,1066.80819885643,1214.1944338354463
139816,22114,139816.0,58151.0,139816.0,91782.0,1310.0644451339433,1036.005440827461,1181.916786847751
139826,22086,139826.0,58140.0,139826.0,91727.0,1287.0121935650402,1005.507006551061,1149.8288139604883
139826,22069,139826.0,58119.0,139826.0,91726.0,1263.7306391418597,975.3550459473082,1117.9721825742781
139826,22059,139826.0,58097.0,139826.0,91708.0,1240.2555257637039,945.5905991534709,1086.388159215272
139826,22013,139826.0,58097.0,139826.0,91669.0,1216.6228410739507,916.2539355871986,1055.117915565184
139826,21988,139826.0,57980.0,139826.0,91602.0,1192.8688189262007,887.3847875998609,1024.2027327931037
139826,21937,139826.0,57966.0,139826.0,91558.0,1169.0297063120101,859.0220706481215,993.6837325151151
139836,21901,139836.0,57905.0,139836.0,91520.0,1145.1413320314907,831.2030826305029,963.6012504239866
139836,21890,139836.0,57849.0,139836.0,91466.0,1121.2386317656533,803.9626648070296,933.99422362896
139836,21884,139836.0,57877.0,139836.0,91446.0,1097.3554015982604,777.3325821416425,904.8997057603842
139836,21831,139836.0,57922.0,139836.0,91439.0,1073.5243699269436,751.3414882394711,876.3525692970046
139836,21822,139836.0,57843.0,139836.0,91418.0,1049.777270970479,726.0157227662844,848.3855639119598
139836,21822,139836.0,57821.0,139836.0,91363.0,1026.1448115553214,701.3800965249292,821.0295759056095
139847,21789,139847.0,57812.0,139847.0,91353.0,1002.656805377982,677.4579449083164,794.3136889902963
139847,21789,139847.0,57825.0,139847.0,91375.0,979.342473746874,654.2710317508582,768.265154706063
139847,21772,139847.0,57815.0,139847.0,91354.0,956.2307357712467,631.839930172087,742.909757214037
139847,21720,139847.0,57760.0,139847.0,91271.0,933.350436453573,610.1845903116808,718.2723671848792
139847,21685,139847.0,57673.0,139847.0,91254.0,910.730313422367,589.3243789127794,694.3769331438909
139847,21646,139847.0,57658.0,139847.0,91178.0,888.3985900680331,569.2772926223608,671.2458285190313
139857,21646,139857.0,57602.0,139857.0,91194.0,866.3824956894796,550.0588462720308,648.8990959784874
139857,21603,139857.0,57596.0,139857.0,91139.0,844.7080233953357,531.6812285192932,627.353960707143
139857,21593,139857.0,57555.0,139857.0,91156.0,823.3998722655473,514.1527850710748,606.6246625718109
139857,21585,139857.0,57596.0,139857.0,91137.0,802.4814353203275,497.47777851014916,586.7225357907369
139857,21559,139857.0,57579.0,139857.0,91118.0,781.9748871366241,481.65656409302466,567.6562567192474
139857,21544,139857.0,57595.0,139857.0,91102.0,761.9013399971453,466.6861489986371,549.4320731992997
139867,21544,139867.0,57649.0,139867.0,91110.0,742.2809707132154,452.56095692083596,532.0539342396418
139867,21506,139867.0,57650.0,139867.0,91109.0,723.1331700515705,439.27386284687805,515.5237323095917
139867,21488,139867.0,57600.0,139867.0,91090.0,704.4766453028524,426.81727962544426,499.84172489661654
139867,21446,139867.0,57543.0,139867.0,91009.0,686.3293033469546,415.18352145788174,485.006748731226
139867,21409,139867.0,57488.0,139867.0,91000.0,668.7078994447663,404.3641167121848,471.01580775961975
139867,21393,139867.0,57449.0,139867.0,90988.0,651.6275462956012,394.3485377941846,457.8632939421037
139878,21382,139878.0,57466.0,139878.0,90993.0,635.1012932902076,385.123012144946,445.54052702075427
139878,21375,139878.0,57482.0,139878.0,90987.0,619.1399839174142,376.669955052426,434.03580367312617
139878,21370,139878.0,57529.0,139878.0,90993.0,603.752372690246,368.9682453153983,423.33468313095466
139878,21350,139878.0,57477.0,139878.0,90991.0,588.9453413650477,361.9940002943829,413.42032548030835
139878,21342,139878.0,57546.0,139878.0,90999.0,574.7240664355375,355.72125200374506,404.27385072497117
139878,21333,139878.0,57515.0,139878.0,90973.0,561.0921052960593,350.1224238215034,395.8746624880896
139888,21337,139888.0,57590.0,139888.0,91039.0,548.0515101842445,345.1689202992993,388.2007389802865
139888,21315,139888.0,57595.0,139888.0,91015.0,535.6030304961337,340.83197666184594,381.22911450318816
139888,21301,139888.0,57517.0,139888.0,90982.0,523.7462759098527,337.0834754700346,374.93645303096935
139888,21278,139888.0,57486.0,139888.0,90969.0,512.4796945832886,333.89597247631735,369.2991499897244
139888,21266,139888.0,57475.0,139888.0,90939.0,501.80039476962247,331.24176461403994,364.2928881107293
139888,21247,139888.0,57497.0,139888.0,90949.0,491.7039252539894,329.0919258560361,359.89210346110883
139898,21236,139898.0,57448.0,139898.0,90950.0,482.1840733946804,327.4159047991588,356.06967409697364
139898,21235,139898.0,57490.0,139898.0,90942.0,473.2327153183295,326.1813732666596,352.79688681079176
139898,21238,139898.0,57543.0,139898.0,90971.0,464.8397994195709,325.3542641842624,350.0435674993698
139898,21242,139898.0,57538.0,139898.0,90957.0,456.99351806746995,324.89936404186443,347.77830524921256
139898,21241,139898.0,57543.0,139898.0,90978.0,449.68060510543927,324.78116961994334,345.96874075593627
139898,21243,139898.0,57572.0,139898.0,91020.0,442.88664619356973,324.9644313268421,344.5819241363238
139909,21260,139909.0,57655.0,139909.0,91046.0,436.5963821797636,325.41466355781347,343.5849475674884
139909,21232,139909.0,57634.0,139909.0,91023.0,430.79402417360086,326.09912711005165,342.94578702691797
139909,21230,139909.0,57599.0,139909.0,90996.0,425.46343712770704,326.98780311177865,342.63377338049565
139909,21210,139909.0,57498.0,139909.0,90985.0,420.5880629167507,328.05333551505703,342.6193700545223
139909,21194,139909.0,57522.0,139909.0,90990.0,416.15067247931194,329.2697832512517,342.8736245769066
139909,21209,139909.0,57484.0,139909.0,90971.0,412.1330993393483,330.6111280237662,343.3677543323997
139919,21210,139919.0,57505.0,139919.0,90994.0,408.5161372013962,332.05035010584834,344.0729302093214
139919,21209,139919.0,57600.0,139919.0,90998.0,405.2796791087652,333.5592531094857,344.9602246690164
139919,21218,139919.0,57606.0,139919.0,91020.0,402.40293688681885,335.10917216614064,346.0007838582301
139919,21234,139919.0,57605.0,139919.0,91043.0,399.8646686640632,336.67219608226975,347.16620243625084
139919,21216,139919.0,57628.0,139919.0,91059.0,397.6434596606634,338.2220179944973,348.4290372848251
139919,21248,139919.0,57727.0,139919.0,91086.0,395.717980025463,339.7344781480996,349.7634023239205
139929,21220,139929.0,57662.0,139929.0,91011.0,394.0671799352257,341.18844520196774,351.145402465895
139929,21206,139929.0,57696.0,139929.0,91068.0,392.670363954796,342.56667458386187,352.5530857691732
139929,21226,139929.0,57555.0,139929.0,91062.0,391.5070461755894,343.8557885385045,353.9661715747267
139929,21214,139929.0,57572.0,139929.0,91028.0,390.55679322117277,345.04519022155944,355.36601067224746
139929,21190,139929.0,57590.0,139929.0,91019.0,389.7991812538281,346.1256064191223,356.73546650144215
139929,21219,139929.0,57575.0,139929.0,91024.0,389.21367134375186,347.0882771808635,358.05844479268575
139940,21214,139940.0,57579.0,139940.0,91056.0,388.7795030240743,347.9248574372969,359.31954170711117
139940,21213,139940.0,57615.0,139940.0,91087.0,388.4757969250364,348.6274682956646,360.5042258605889
139940,21231,139940.0,57593.0,139940.0,91032.0,388.28171537858844,349.1888598318624,361.59933211840513
139940,21233,139940.0,57598.0,139940.0,91066.0,388.1766209540659,349.60263908448684,362.59327670005655
139940,21233,139940.0,57678.0,139940.0,91058.0,388.14029228297585,349.8634663427061,363.47591306718886
139940,21267,139940.0,57701.0,139940.0,91120.0,388.1531573618694,349.9676712162965,364.23857537043006
139950,21243,139950.0,57652.0,139950.0,91080.0,388.19656724331327,349.9142785306489,364.8745222698892
139950,21231,139950.0,57619.0,139950.0,91066.0,388.2529872967929,349.7054586041419,365.3793017834736
139950,21242,139950.0,57580.0,139950.0,91007.0,388.3058981970284,349.3459162417269,365.75048287881395
139950,21223,139950.0,57525.0,139950.0,91014.0,388.3395670799652,348.84170002422377,365.9867924060753
139950,21215,139950.0,57506.0,139950.0,91032.0,388.33885737066635,348.19887090243526,366.08727064441007
139950,21227,139950.0,57507.0,139950.0,91028.0,388.2890150590381,347.4222970488788,366.050965606971
139960,21228,139960.0,57605.0,139960.0,91010.0,388.1755331002895,346.5151070229298,365.8770022189311
139960,21248,139960.0,57602.0,139960.0,91034.0,387.98423810126815,345.47923012400383,365.56458320497615
139960,21244,139960.0,57585.0,139960.0,91037.0,387.7015350005867,344.3165077768301,365.11296623441615
139960,21248,139960.0,57588.0,139960.0,91029.0,387.31465841796506,343.0293356831135,364.52160555261224
139960,21260,139960.0,57690.0,139960.0,91077.0,386.8118481351711,341.62088118951175,363.7903791940636
139960,21265,139960.0,57652.0,139960.0,91075.0,386.1825199468436,340.0957480051601,362.9199544055601
139971,21253,139971.0,57589.0,139971.0,91023.0,385.4174626128078,338.46079674060275,361.91220020874533
139971,21216,139971.0,57565.0,139971.0,91020.0,384.50884673696044,336.7249878300531,360.7701229328301
139971,21211,139971.0,57534.0,139971.0,91001.0,383.4498536170214,334.89829316099303,359.4972720395377
139971,21220,139971.0,57508.0,139971.0,91016.0,382.23414085906535,332.9905524002078,358.0971787403945
139971,21200,139971.0,57540.0,139971.0,90985.0,380.8555193692591,331.01067035609077,356.5730822845538
139971,21208,139971.0,57512.0,139971.0,91001.0,379.30783586034863,328.96624816021495,354.927765719928
139981,21243,139981.0,57529.0,139981.0,90993.0,377.5849679828112,326.8635528697686,353.1634119800414
139981,21210,139981.0,57559.0,139981.0,90999.0,375.68103953419836,324.70763096806934,351.28156520238866
139981,21229,139981.0,57553.0,139981.0,91012.0,373.59069201936865,322.50263436240425,349.28321946686424
139981,21230,139981.0,57565.0,139981.0,91027.0,371.3091962092089,320.25229395011576,347.16904299543467
139981,21234,139981.0,57610.0,139981.0,91051.0,368.832565763596,317.96036657066605,344.9397903917321
139981,21217,139981.0,57583.0,139981.0,91018.0,366.15772366045286,315.63115842228376,342.5967855148307
139992,21199,139992.0,57520.0,139992.0,90965.0,363.28249894766134,313.2698678012935,340.14204592813934
139992,21192,139992.0,57437.0,139992.0,90978.0,360.2053770146919,310.88202657853975,337.5777675812325
139992,21184,139992.0,57457.0,139992.0,90943.0,356.92516737603387,308.47203620436693,334.90556428795105
139992,21150,139992.0,57444.0,139992.0,90965.0,353.44070032236,306.04179172325576,332.12596179398497
139992,21182,139992.0,57462.0,139992.0,90974.0,349.75052819616377,303.59011816146256,329.23824150238477
139992,21161,139992.0,57513.0,139992.0,90976.0,345.85275882568203,301.11291804850487,326.24060550759305
140001,21185,140001.0,57476.0,140001.0,90975.0,341.74514663397645,298.6037265505511,323.13048891864815
140001,21191,140001.0,57502.0,140001.0,90958.0,337.4253564852165,296.0542675731327,319.90474429811644
140001,21169,140001.0,57506.0,140001.0,90932.0,332.8912829594462,293.45473783141034,316.55956270690126
140001,21197,140001.0,57631.0,140001.0,91009.0,328.14128953587124,290.79427853015926,313.09030144659886
140001,21190,140001.0,57581.0,140001.0,90966.0,323.17439405475824,288.0621388632593,309.49166181429604
140001,21166,140001.0,57581.0,140001.0,91006.0,317.99048752486567,285.24894478939916,305.75821296760057
140011,21134,140011.0,57490.0,140011.0,90913.0,312.59032929189516,282.3470008469668,301.8846812576029
140011,21126,140011.0,57428.0,140011.0,90914.0,306.97514453083977,279.34935210447054,297.86560248178284
140011,21119,140011.0,57468.0,140011.0,90926.0,301.14611950225594,276.24823588062424,293.69457602774423
140011,21121,140011.0,57475.0,140011.0,90922.0,295.1041223786684,273.0340122346664,289.3638132010026
140011,21129,140011.0,57482.0,140011.0,90929.0,288.8497062683258,269.69511989325554,284.8642086273387
140011,21113,140011.0,57502.0,140011.0,90936.0,282.3832851257941,266.2185459278329,280.18559094881266
140022,21108,140022.0,57517.0,140022.0,90958.0,275.7052922980261,262.5903339765763,275.31703572697813
140022,21098,140022.0,57513.0,140022.0,90961.0,268.8162002652665,258.7961091614315,270.2473238469863
140022,21123,140022.0,57576.0,140022.0,90970.0,261.71652905328756,254.82163430717583,264.9654688656555
140022,21107,140022.0,57585.0,140022.0,90976.0,254.4070416218568,250.65355981319098,259.4611841385844
140022,21101,140022.0,57528.0,140022.0,90979.0,246.88904121145788,246.28025834445833,253.72527590654673
140022,21079,140022.0,57502.0,140022.0,90933.0,239.164499439922,241.6920425334028,247.74989385882432
140032,21048,140032.0,57458.0,140032.0,90907.0,231.23590379845973,236.8805009581131,241.52838447842996
140032,21039,140032.0,57435.0,140032.0,90898.0,223.10588721801147,231.83747078717758,235.05472313855424
140032,21015,140032.0,57410.0,140032.0,90859.0,214.77679343016584,226.55408247412979,228.32287122576975
140032,21025,140032.0,57423.0,140032.0,90887.0,206.2503581515054,221.0200447462711,221.32630336084316
140032,21029,140032.0,57489.0,140032.0,90902.0,197.52763755873974,215.2234615978017,214.05787288524107
140032,21019,140032.0,57487.0,140032.0,90919.0,188.60920221027806,209.15143660764542,206.51018986256946
140042,21020,140042.0,57499.0,140042.0,90883.0,179.49541828846372,202.79111080704126,198.6762406414582
140042,21020,140042.0,57477.0,140042.0,90866.0,170.186672453742,196.13043429399315,190.54968054606792
140042,21038,140042.0,57565.0,140042.0,90934.0,160.68363945427706,189.1586214036447,182.1248080083758
140042,21017,140042.0,57550.0,140042.0,90902.0,150.9876713957521,181.8668604992779,173.3968395990587
140042,21000,140042.0,57500.0,140042.0,90894.0,141.10111841256133,174.2492180082662,164.36251244233216
140042,20955,140042.0,57430.0,140042.0,90839.0,131.02730141765392,166.302799996712,155.0203078850268
140053,20946,140053.0,57429.0,140053.0,90840.0,120.77010649712162,158.02686589069293,145.37007188804557
140053,20934,140053.0,57402.0,140053.0,90845.0,110.3334841643811,149.42172416813014,135.41252800002673
140053,20933,140053.0,57400.0,140053.0,90823.0,99.7211710749495,140.48808395391808,125.14912611474995
140053,20917,140053.0,57410.0,140053.0,90793.0,88.93667454976162,131.2268463269117,114.58207318693701
140053,20919,140053.0,57426.0,140053.0,90796.0,77.98335991096536,121.63924829737363,103.714193731857
140053,20913,140053.0,57401.0,140053.0,90774.0,66.86457373042754,111.72727847298825,92.5487090799557
140063,20888,140063.0,57406.0,140063.0,90787.0,55.583788711206466,101.49405271383336,81.08917611653385
140063,20887,140063.0,57426.0,140063.0,90807.0,44.144666879745046,90.94404851817217,69.33968051431191
140063,20912,140063.0,57468.0,140063.0,90800.0,32.55111584966903,80.0835602749604,57.30533088336949
140063,20864,140063.0,57410.0,140063.0,90781.0,20.807534334101376,68.92148248455379,44.99283715877499
140063,20852,140063.0,57372.0,140063.0,90730.0,8.919016071154317,57.46978326196671,32.41073592882623
140063,20834,140063.0,57292.0,140063.0,90732.0,-3.1087895177066116,45.743058689997554,19.569122844482763
140073,20815,140073.0,57273.0,140073.0,90657.0,-15.269963802590382,33.75735786758361,6.479126584820449
140073,20799,140073.0,57234.0,140073.0,90643.0,-27.558532150776045,21.52891971107738,-6.847748449360552
140073,20783,140073.0,57193.0,140073.0,90671.0,-39.96863643316448,9.073193368335069,-20.400263335809143
140073,20794,140073.0,57242.0,140073.0,90689.0,-52.49463262202164,-3.595801603134248,-34.167533808536746
140073,20768,140073.0,57251.0,140073.0,90640.0,-65.13101855684374,-16.465522823565095,-48.13848075900967
140073,20759,140073.0,57296.0,140073.0,90653.0,-77.87228920267557,-29.524160552678723,-62.30134869735821
140084,20747,140084.0,57248.0,140084.0,90609.0,-90.71288755160037,-42.75954463768471,-76.64364061977261
140084,20750,140084.0,57319.0,140084.0,90652.0,-103.64718456685841,-56.158261892070186,-91.15214182659912
140084,20741,140084.0,57287.0,140084.0,90624.0,-116.66933252753029,-69.70493169976947,-105.81270323476929
140084,20719,140084.0,57215.0,140084.0,90614.0,-129.7730466010757,-83.3816261273684,-120.60983723464187
140084,20708,140084.0,57144.0,140084.0,90546.0,-142.95149697265214,-97.16808263915419,-135.5265535603296
140084,20681,140084.0,57069.0,140084.0,90508.0,-156.19736637915872,-111.04299128949117,-150.5447797098659
140094,20655,140094.0,57101.0,140094.0,90527.0,-169.50302874948022,-124.98561433102537,-165.6461215933055
140094,20640,140094.0,57079.0,140094.0,90481.0,-182.86082692689723,-138.9767675274017,-180.81235989690822
140094,20633,140094.0,57091.0,140094.0,90494.0,-196.26333841513502,-152.99889872343812,-196.02553299981582
140094,20634,140094.0,57087.0,140094.0,90469.0,-209.70344928482666,-167.0357196284104,-211.26788428170323
140094,20608,140094.0,57092.0,140094.0,90446.0,-223.17422838728402,-181.0717556557072,-226.52180594762564
140094,20608,140094.0,57087.0,140094.0,90440.0,-236.66878222036758,-195.09187101979467,-241.76984673033724
140104,20604,140104.0,57111.0,140104.0,90416.0,-250.18015341056844,-209.08076757791594,-256.9947820196155
140104,20590,140104.0,57121.0,140104.0,90446.0,-263.70115780633034,-223.02235875570125,-272.17957497004954
140104,20583,140104.0,57074.0,140104.0,90414.0,-277.2241806501585,-236.899083823139,-287.3071036788839
140104,20547,140104.0,57032.0,140104.0,90375.0,-290.74107575096195,-250.6916305306495,-302.35986141038563
140104,20533,140104.0,56962.0,140104.0,90324.0,-304.24325897419146,-264.3794228528119,-317.3200918328821
140104,20488,140104.0,56899.0,140104.0,90308.0,-317.7220023856505,-277.94175303700206,-332.17043066563383
140115,20473,140115.0,56838.0,140115.0,90276.0,-331.1688726610877,-291.3592712416471,-346.8946273010366
140115,20460,140115.0,56937.0,140115.0,90298.0,-344.57618047528786,-304.61527082329076,-361.47797661783045
140115,20443,140115.0,56875.0,140115.0,90264.0,-357.93726507669976,-317.69598468354866,-375.907366392908
140115,20457,140115.0,56906.0,140115.0,90267.0,-371.2465454888212,-330.590028802755,-390.1711107808635
140115,20442,140115.0,56889.0,140115.0,90236.0,-384.4993527213669,-343.28785146740677,-404.25883337249775
140115,20437,140115.0,56877.0,140115.0,90227.0,-397.6916301966163,-355.78141724992224,-418.161481163207
140125,20415,140125.0,56925.0,140125.0,90259.0,-410.8196988485562,-368.06389130766365,-431.8713098969549
140125,20423,140125.0,56874.0,140125.0,90232.0,-423.88015179096567,-380.12918463328776,-445.3815962136034
140125,20396,140125.0,56826.0,140125.0,90226.0,-436.86976332669326,-391.97162963991093,-458.6861841137817
140125,20367,140125.0,56811.0,140125.0,90171.0,-449.78544074409444,-403.58627804565856,-471.7793071361082
140125,20349,140125.0,56758.0,140125.0,90124.0,-462.62438899942276,-414.9696593421587,-484.6559373904581
140125,20347,140125.0,56810.0,140125.0,90125.0,-475.38440338945486,-426.12041717055456,-497.3125240193723
140135,20306,140135.0,56739.0,140135.0,90112.0,-488.06406769513035,-437.0395403910012,-509.7476355513204
140135,20339,140135.0,56753.0,140135.0,90110.0,-500.6628416770743,-447.73039125802495,-521.9621521053583
140135,20301,140135.0,56770.0,140135.0,90077.0,-513.181017732727,-458.1987674448652,-533.9592037914878
140135,20308,140135.0,56765.0,140135.0,90091.0,-525.6195487593067,-468.45274282237983,-545.7441547899562
140135,20276,140135.0,56780.0,140135.0,90098.0,-537.9799354225895,-478.5021775293933,-557.3245439674494
140135,20288,140135.0,56828.0,140135.0,90090.0,-550.2642213735052,-488.3580771926935,-568.7097774657244
140146,20280,140146.0,56840.0,140146.0,90114.0,-562.4749283990086,-498.0316937335099,-579.9106519503393
140146,20258,140146.0,56764.0,140146.0,90099.0,-574.6148747805285,-507.5335839569209,-590.938847860254
140146,20243,140146.0,56687.0,140146.0,90068.0,-586.6870609404174,-516.8735180302358,-601.8065238597079
140146,20225,140146.0,56620.0,140146.0,90029.0,-598.6947497824499,-526.0616746319417,-612.5263075835103
140146,20203,140146.0,56632.0,140146.0,90019.0,-610.6416505634269,-535.1103979514389,-623.1117429956884
140146,20172,140146.0,56629.0,140146.0,89994.0,-622.53216369146,-544.0354152891109,-633.5778438463344
140156,20184,140156.0,56642.0,140156.0,89997.0,-634.3716721630631,-552.8561100983244,-643.9414613682226
140156,20179,140156.0,56687.0,140156.0,90018.0,-646.166669028681,-561.5951272049916,-654.2213564430549
140156,20165,140156.0,56718.0,140156.0,89993.0,-657.9246013137844,-570.2775180266424,-664.437945336794
140156,20158,140156.0,56681.0,140156.0,89993.0,-669.653650773414,-578.9296517281896,-674.612955176103
140156,20174,140156.0,56696.0,140156.0,90018.0,-681.3625726666975,-587.5784520885013,-684.7691848115414
140156,20163,140156.0,56786.0,140156.0,90033.0,-693.0604263472727,-596.2509369770479,-694.9301174066035
140166,20151,140166.0,56749.0,140166.0,90023.0,-704.7562095344967,-604.9733553296121,-705.119252481998
140166,20144,140166.0,56721.0,140166.0,89988.0,-716.4586185872386,-613.770139323422,-715.3595593842643
140166,20111,140166.0,56632.0,140166.0,89980.0,-728.1760053241691,-622.663735388621,-725.6734116475492
140166,20083,140166.0,56664.0,140166.0,89946.0,-739.916536182484,-631.6754488572512,-736.0828800855744
140166,20093,140166.0,56593.0,140166.0,89944.0,-751.688510946092,-640.8264394132487,-746.6100944965393
140166,20074,140166.0,56559.0,140166.0,89937.0,-763.5005716226625,-650.1384780881631,-757.27750124728
140177,20060,140177.0,56644.0,140177.0,89918.0,-775.3616858481088,-659.634554149332,-768.1079492357067
140177,20066,140177.0,56657.0,140177.0,89949.0,-787.2810826263044,-669.3387989335639,-779.1246217178369
140177,20035,140177.0,56630.0,140177.0,89930.0,-799.2681967800322,-679.2755316089626,-790.3507808831323
140177,20045,140177.0,56638.0,140177.0,89929.0,-811.3326036034193,-689.4683873594224,-801.8093750258093
140177,20039,140177.0,56650.0,140177.0,89955.0,-823.48392924693,-699.9399744584439,-813.5226654153247
140177,20051,140177.0,56745.0,140177.0,89996.0,-835.7316130818983,-710.7113673671016,-825.511681902628
140187,20024,140187.0,56682.0,140187.0,89941.0,-848.0845379278045,-721.8009878954407,-837.7953709632125
140187,20019,140187.0,56597.0,140187.0,89901.0,-860.5507565223688,-733.2236893165209,-850.3900446458965
140187,19980,140187.0,56560.0,140187.0,89884.0,-873.1374657304825,-744.9911498186195,-863.3096418212501
140187,19963,140187.0,56553.0,140187.0,89855.0,-885.8512201380041,-757.1131842346266,-876.5663822915124
140187,19964,140187.0,56514.0,140187.0,89836.0,-898.698241112243,-769.5987816890953,-890.1712810677973
140187,19941,140187.0,56483.0,140187.0,89831.0,-911.6845883872202,-782.4566664595061,-904.134471818852
140197,19927,140197.0,56567.0,140197.0,89832.0,-924.8161757573473,-795.6955982885195,-918.4653229411099
140197,19934,140197.0,56539.0,140197.0,89846.0,-938.098768295902,-809.3240577132578,-933.1722406885833
140197,19927,140197.0,56561.0,140197.0,89816.0,-951.5378819835017,-823.3493282760578,-948.2622379880289
140197,19931,140197.0,56542.0,140197.0,89819.0,-965.1384904485863,-837.7766573460791,-963.7405459221908
140197,19927,140197.0,56596.0,140197.0,89846.0,-978.9046357846372,-852.6086552030235,-979.6103142068805
140197,19925,140197.0,56578.0,140197.0,89821.0,-992.8390323333374,-867.8445558149057,-995.8721394403209
140208,19898,140208.0,56526.0,140208.0,89788.0,-1006.9427361633954,-883.4794606603356,-1012.5235485247138
140208,19864,140208.0,56387.0,140208.0,89750.0,-1021.2150440832418,-899.5043872568431,-1029.558914843763
140208,19851,140208.0,56415.0,140208.0,89726.0,-1035.6537051277223,-915.9075191995778,-1046.9698437051752
140208,19831,140208.0,56367.0,140208.0,89714.0,-1050.2552543106535,-932.6757230310003,-1064.7456386736271
140208,19807,140208.0,56405.0,140208.0,89679.0,-1065.0152582464016,-949.7952395004149,-1082.8735920490697
140208,19808,140208.0,56397.0,140208.0,89696.0,-1079.928466678042,-967.25150713043,-1101.3390957849472
140218,19804,140218.0,56381.0,140218.0,89646.0,-1094.9888295798928,-985.0285961332178,-1120.1256096836191
140218,19794,140218.0,56377.0,140218.0,89660.0,-1110.1893051275022,-1003.1086882541334,-1139.2145622197613
140218,19784,140218.0,56370.0,140218.0,89665.0,-1125.5215781331858,-1021.4717507977289,-1158.5851804820873
140218,19786,140218.0,56386.0,140218.0,89673.0,-1140.975812625931,-1040.0951909064001,-1178.2140373491277
140218,19792,140218.0,56414.0,140218.0,89689.0,-1156.5403538537266,-1058.95324587817,-1198.0742761052918
140218,19773,140218.0,56368.0,140218.0,89651.0,-1172.2013112261493,-1078.0161385973663,-1218.1347783738145
140229,19749,140229.0,56304.0,140229.0,89588.0,-1187.9422047147682,-1097.2495352077153,-1238.3597093224785
140229,19717,140229.0,56265.0,140229.0,89540.0,-1203.7439119403775,-1116.6148463299248,-1258.7088135185318
140229,19699,140229.0,56212.0,140229.0,89531.0,-1219.5849043395383,-1136.070142228674,-1279.1382298627457
140229,19688,140229.0,56176.0,140229.0,89497.0,-1235.4415423235998,-1155.5711347402994,-1299.6011671659437
140229,19688,140229.0,56205.0,140229.0,89475.0,-1251.288195373016,-1175.0718913683575,-1320.0482110745077
140229,19679,140229.0,56185.0,140229.0,89493.0,-1267.0971089059826,-1194.524977390431,-1340.4274095622854
140239,19655,140239.0,56205.0,140239.0,89467.0,-1282.8381563652229,-1213.881015319061,-1360.6841021603739
140239,19649,140239.0,56165.0,140239.0,89463.0,-1298.4786838431478,-1233.088078118834,-1380.7605310363965
140239,19627,140239.0,56176.0,140239.0,89447.0,-1313.9834765551425,-1252.0912476520698,-1400.59548866221
140239,19629,140239.0,56186.0,140239.0,89461.0,-1329.3147308436955,-1270.8322712354422,-1420.124016087796
140239,19634,140239.0,56195.0,140239.0,89416.0,-1344.4319094078878,-1289.249020606831,-1439.27704250405
140239,19602,140239.0,56121.0,140239.0,89372.0,-1359.2914546761192,-1307.2748563822613,-1457.9811989055831
140249,19557,140249.0,56049.0,140249.0,89308.0,-1373.8466368624627,-1324.8385880837056,-1476.1591743828599
140249,19548,140249.0,55982.0,140249.0,89305.0,-1388.0478194137547,-1341.8654386602236,-1493.7305303936628
140249,19521,140249.0,55996.0,140249.0,89277.0,-1401.8429308668317,-1358.278469391613,-1510.612443269492
140249,19505,140249.0,55957.0,140249.0,89238.0,-1415.177814851094,-1373.9995650005912,-1526.7201104200715
140249,19504,140249.0,55976.0,140249.0,89238.0,-1427.996427536988,-1388.949722414189,-1541.9670394465686
140249,19503,140249.0,55916.0,140249.0,89237.0,-1440.2408680901558,-1403.049030202166,-1556.2652613542475
140260,19466,140260.0,55944.0,140260.0,89188.0,-1451.851264181843,-1416.2166953981289,-1569.5253431676304
140260,19464,140260.0,55882.0,140260.0,89184.0,-1462.765753228152,-1428.3711648112421,-1581.6564476635021
140260,19464,140260.0,55952.0,140260.0,89137.0,-1472.920603793927,-1439.4301916640711,-1592.5666616754268
140260,19462,140260.0,56009.0,140260.0,89191.0,-1482.250214056212,-1449.3104333122724,-1602.1633490129022
140260,19444,140260.0,55911.0,140260.0,89167.0,-1490.6869489156845,-1457.9264511741324,-1610.3531383658208
140260,19400,140260.0,55830.0,140260.0,89108.0,-1498.1611234609034,-1465.1902407628586,-1617.0416868046748
140270,19379,140270.0,55771.0,140270.0,89056.0,-1504.6013859135687,-1471.0123408490879,-1622.133974719847
140270,19360,140270.0,55749.0,140270.0,89037.0,-1509.9353909998708,-1475.3038081931004,-1625.5353780929636
140270,19332,140270.0,55721.0,140270.0,89011.0,-1514.0904726091337,-1477.9778606542484,-1627.1528958337958
140270,19305,140270.0,55653.0,140270.0,88948.0,-1516.9942654534384,-1478.9510377281324,-1626.8961770298497
140270,19311,140270.0,55759.0,140270.0,89021.0,-1518.5753367569557,-1478.144114027202,-1624.6784340732863
140270,19308,140270.0,55701.0,140270.0,88970.0,-1518.7636663863937,-1475.4824506695388,-1620.4170057771519
140280,19307,140280.0,55703.0,140280.0,88967.0,-1517.4908482088426,-1470.8958336790656,-1614.0335530434884
140280,19291,140280.0,55709.0,140280.0,88952.0,-1514.6901910015426,-1464.3185424902595,-1605.4544361539902
140280,19290,140280.0,55770.0,140280.0,88978.0,-1510.2969396849403,-1455.6895840460343,-1594.6113207337298
140280,19282,140280.0,55718.0,140280.0,88982.0,-1504.2486230802697,-1444.9525724956145,-1581.4415756166418
140280,19271,140280.0,55709.0,140280.0,88953.0,-1496.4854513564082,-1432.0556814451247,-1565.8884911247223
140280,19242,140280.0,55669.0,140280.0,88924.0,-1486.9508218438732,-1416.952297933599,-1547.9017994011867
140291,19239,140291.0,55651.0,140291.0,88922.0,-1475.592036326806,-1399.6022340931495,-1527.4387131351832
140291,19247,140291.0,55667.0,140291.0,88922.0,-1462.3611000909696,-1379.9730203870354,-1504.4651321624087
140291,19229,140291.0,55668.0,140291.0,88958.0,-1447.2153797879546,-1358.0409235081156,-1478.9565801609901
140291,19249,140291.0,55735.0,140291.0,89004.0,-1430.1181479644981,-1333.7914977187493,-1450.89866813542
140291,19283,140291.0,55749.0,140291.0,89046.0,-1411.03902776842,-1307.2196461046174,-1420.2870591623414
140291,19282,140291.0,55804.0,140291.0,89052.0,-1389.954185209081,-1278.3293541032492,-1387.1272040145413
140301,19314,140301.0,55805.0,140301.0,89087.0,-1366.846377206421,-1247.133415219154,-1351.434286948572
140301,19324,140301.0,55902.0,140301.0,89153.0,-1341.705076780524,-1213.6532722443026,-1313.2334057618464
140301,19381,140301.0,56008.0,140301.0,89228.0,-1314.5266010580692,-1177.918568828919,-1272.5595120750318
140301,19406,140301.0,56027.0,140301.0,89267.0,-1285.314060298293,-1139.9660666832697,-1229.456894488584
140301,19410,140301.0,55975.0,140301.0,89298.0,-1254.077215074789,-1099.838706591092,-1183.9786304882496
140301,19437,140301.0,55969.0,140301.0,89326.0,-1220.832575422733,-1057.5860121127507,-1136.1864893362886
140311,19483,140311.0,56061.0,140311.0,89373.0,-1185.6037598440412,-1013.2655411411251,-1086.1512680381968
140311,19524,140311.0,56061.0,140311.0,89484.0,-1148.421731147003,-966.9439913725336,-1033.9530929241905
140311,19562,140311.0,56144.0,140311.0,89515.0,-1109.3247687128944,-918.6975308063404,-979.6812474251171
140311,19616,140311.0,56259.0,140311.0,89609.0,-1068.3583562938534,-868.6116870401286,-923.4336651061822
140311,19682,140311.0,56356.0,140311.0,89696.0,-1025.5750164800063,-816.7806148066145,-865.3164088651704
140311,19734,140311.0,56414.0,140311.0,89787.0,-981.0339770350628,-763.3057733946818,-805.4430157536526
140322,19791,140322.0,56514.0,140322.0,89863.0,-934.8007301363108,-708.2946827933253,-743.9336372118225
140322,19862,140322.0,56652.0,140322.0,89989.0,-886.9466202165463,-651.8598706412812,-680.9141369941136
140322,19939,140322.0,56734.0,140322.0,90070.0,-837.5483894845227,-594.1175167781314,-616.5150923136028
140322,20003,140322.0,56735.0,140322.0,90139.0,-786.6875715610757,-535.186038663731,-550.8707386633171
140322,20017,140322.0,56782.0,140322.0,90181.0,-734.4499452646448,-475.18556911141536,-484.1182831247256
140322,20103,140322.0,56783.0,140322.0,90265.0,-680.9253757748498,-414.23855320772327,-416.39780038374187
140332,20158,140332.0,56912.0,140332.0,90358.0,-626.207880522758,-352.47070365058295,-347.85232250598114
140332,20224,140332.0,56947.0,140332.0,90451.0,-570.3955222708439,-290.01149092228377,-278.62762009871824
140332,20299,140332.0,57126.0,140332.0,90539.0,-513.5901283599532,-226.99385458854164,-208.8716257064524
140332,20404,140332.0,57143.0,140332.0,90662.0,-455.8968835411151,-163.55329747617247,-138.73369102443723
140332,20462,140332.0,57277.0,140332.0,90751.0,-397.4236716754385,-99.8268259112765,-68.36368933763947
140332,20541,140332.0,57368.0,140332.0,90828.0,-338.2803247990417,-35.95203519936865,2.088954621062385
140342,20615,140342.0,57505.0,140342.0,90954.0,-278.57804724417707,27.933941324991906,72.47608962754578
140342,20717,140342.0,57586.0,140342.0,91058.0,-218.42891008019706,91.69583458618536,142.6516622025947
140342,20765,140342.0,57650.0,140342.0,91144.0,-157.94523216805783,155.20160116872864,212.47275740426358
140342,20844,140342.0,57737.0,140342.0,91166.0,-97.23900812533691,218.32330297841793,281.8004763892461
140342,20901,140342.0,57707.0,140342.0,91268.0,-36.42157991670376,280.93737788779947,350.50017169592024
140342,20977,140342.0,57760.0,140342.0,91329.0,24.396540598376646,342.92417194349196,418.44129568581
140353,21039,140353.0,57788.0,140353.0,91382.0,85.1058454501756,404.1668403562204,485.4973380327808
140353,21103,140353.0,57919.0,140353.0,91509.0,145.598010326299,464.55038208204724,551.5458929192691
140353,21199,140353.0,58019.0,140353.0,91585.0,205.76609803535666,523.9616010415707,616.4689834840992
140353,21272,140353.0,58110.0,140353.0,91642.0,265.5049308344112,582.2900422266434,680.1537183146286
140353,21349,140353.0,58186.0,140353.0,91715.0,324.7116715075207,639.4292628105754,742.4928264388279
140353,21403,140353.0,58260.0,140353.0,91786.0,383.28638791745175,695.2778610185271,803.3848640038013
140363,21500,140363.0,58426.0,140363.0,91894.0,441.13246269597823,749.7403957085507,862.7344603805427
140363,21570,140363.0,58436.0,140363.0,91958.0,498.15702332105457,802.7286127708453,920.4528882749378
140363,21618,140363.0,58457.0,140363.0,91981.0,554.2714766544361,854.162546322724,976.4587099882256
140363,21660,140363.0,58466.0,140363.0,92048.0,609.3918534580885,903.9705787815694,1030.6779947437153
