c_ts,c_val,d_ts,d_val,e_ts,e_val,c_val_filtered,d_val_filtered,e_val_filtered
414188,20546,414188.0,38350.0,414188.0,35486.0,-75.26996158079335,-298.9276861680099,-346.6883800445923
414188,20506,414188.0,38255.0,414188.0,35435.0,-83.22775224998891,-308.9644973607184,-358.6852481639167
414188,20486,414188.0,38206.0,414188.0,35393.0,-91.40141279641063,-319.22698386275744,-370.98049121049615
414188,20454,414188.0,38183.0,414188.0,35348.0,-99.77542746224583,-329.68776278612364,-383.55243504084007
414188,20449,414188.0,38149.0,414188.0,35341.0,-108.33512281314879,-340.32227350220796,-396.3807740317198
414188,20440,414188.0,38184.0,414188.0,35364.0,-117.06711733223366,-351.1095840267567,-409.44725252635743
414198,20465,414198.0,38204.0,414198.0,35368.0,-125.95945763837433,-362.0324938923591,-422.7356786703198
414198,20465,414198.0,38242.0,414198.0,35357.0,-135.0013790262323,-373.07691597144907,-436.2314493145184
414198,20472,414198.0,38243.0,414198.0,35374.0,-144.18281416589474,-384.2308292302928,-449.92104387468544
414198,20479,414198.0,38289.0,414198.0,35404.0,-153.49387697450672,-395.4831995330144,-463.7915341739742
414198,20472,414198.0,38316.0,414198.0,35394.0,-162.92441913302244,-406.8229053293087,-477.8298840600098
414198,20455,414198.0,38263.0,414198.0,35360.0,-172.46371016907267,-418.23769288507634,-492.02226183425614
414209,20417,414209.0,38205.0,414209.0,35312.0,-182.10039321844414,-429.71372806992656,-506.3538941137192
414209,20377,414209.0,38117.0,414209.0,35259.0,-191.82284633155572,-441.23628138733983,-520.8096275193415
414209,20371,414209.0,38111.0,414209.0,35237.0,-201.61985254989668,-452.79123503384494,-535.3749092710909
414209,20348,414209.0,38044.0,414209.0,35202.0,-211.4812411606217,-464.36661510094666,-550.0367621871612
414209,20329,414209.0,38076.0,414209.0,35211.0,-221.3983021602023,-475.95367378173137,-564.7844651533431
414209,20354,414209.0,38119.0,414209.0,35221.0,-231.36401270105907,-487.5472851792641,-579.6097897181012
414219,20377,414219.0,38130.0,414219.0,35217.0,-241.37293009398425,-499.14544250448125,-594.506762801195
414219,20352,414219.0,38129.0,414219.0,35226.0,-251.42066457717323,-510.74822717575665,-609.4711723226766
414219,20363,414219.0,38176.0,414219.0,35243.0,-261.50332665980307,-522.3568772494748,-624.5000223715432
414219,20395,414219.0,38243.0,414219.0,35269.0,-271.61714953880755,-533.9728094874525,-639.5908571112316
414219,20376,414219.0,38202.0,414219.0,35233.0,-281.7579993559623,-545.596277315412,-654.7409616248553
414219,20327,414219.0,38148.0,414219.0,35171.0,-291.92090901431243,-557.2253223518996,-669.9469153629962
414229,20298,414229.0,38061.0,414229.0,35171.0,-302.1001901908861,-568.8559504195683,-685.2048929113073
414229,20274,414229.0,38021.0,414229.0,35127.0,-312.29010751609826,-580.4834713883427,-700.5113499409697
414229,20268,414229.0,37961.0,414229.0,35098.0,-322.48557881252697,-592.104223831906,-715.86361686084
414229,20235,414229.0,37957.0,414229.0,35081.0,-332.6826222973775,-603.7170714393296,-731.260430631789
414229,20254,414229.0,37984.0,414229.0,35096.0,-342.878617688949,-615.3243130802082,-746.702352204795
414229,20242,414229.0,38039.0,414229.0,35092.0,-353.07238134267527,-626.9316726341822,-762.1917842744849
414240,20261,414240.0,38051.0,414240.0,35108.0,-363.2639806242323,-638.5473604153369,-777.7325852822919
414240,20262,414240.0,38045.0,414240.0,35105.0,-373.4543442254898,-650.1808151557402,-793.3295062521639
414240,20297,414240.0,38144.0,414240.0,35127.0,-383.6447190208113,-661.8416119909041,-808.9875758122234
414240,20275,414240.0,38186.0,414240.0,35137.0,-393.8359977277356,-673.5381455842438,-824.7114130214159
414240,20254,414240.0,38087.0,414240.0,35082.0,-404.02817637720665,-685.2760172716,-840.5045771289485
414240,20217,414240.0,37999.0,414240.0,35042.0,-414.22028965103283,-697.0574191260323,-856.369393270726
414250,20200,414250.0,37954.0,414250.0,34996.0,-424.41081599364895,-708.8823019916747,-872.3075029055663
414250,20165,414250.0,37909.0,414250.0,34982.0,-434.598259086559,-720.7503175680317,-888.3207645213216
414250,20150,414250.0,37847.0,414250.0,34950.0,-444.78171954532553,-732.6624680229464,-904.412012782848
414250,20148,414250.0,37858.0,414250.0,34952.0,-454.96136783603856,-744.6223740749219,-920.5855222473813
414250,20162,414250.0,37916.0,414250.0,34952.0,-465.138642371157,-756.6369753106533,-936.8471694762877
414250,20168,414250.0,37930.0,414250.0,34984.0,-475.31605135439685,-768.7161890618423,-953.2042124533791
414260,20160,414260.0,37954.0,414260.0,34962.0,-485.4967280859774,-780.8717765369298,-969.6647033122139
414260,20176,414260.0,38010.0,414260.0,34967.0,-495.68399261766643,-793.1160675365869,-986.2368397250984
414260,20190,414260.0,38019.0,414260.0,34995.0,-505.8809257349711,-805.4606587431651,-1002.9284489785628
414260,20163,414260.0,38035.0,414260.0,34999.0,-516.0898802892759,-817.9150953234683,-1019.7463757987304
414260,20132,414260.0,37913.0,414260.0,34912.0,-526.3121908464273,-830.4860636765077,-1036.6958566541791
414260,20097,414260.0,37888.0,414260.0,34865.0,-536.5483891835576,-843.1777324957161,-1053.7805967147538
414271,20084,414271.0,37838.0,414271.0,34859.0,-546.798792023528,-855.9930699078564,-1071.0036889301323
414271,20076,414271.0,37781.0,414271.0,34810.0,-557.0640643348504,-868.9352987183161,-1088.3685838243464
414271,20066,414271.0,37787.0,414271.0,34771.0,-567.345519381023,-882.0090747825286,-1105.879745622551
414271,20058,414271.0,37778.0,414271.0,34789.0,-577.64520001489,-895.2212730283277,-1123.5432171942607
414271,20071,414271.0,37831.0,414271.0,34818.0,-587.9658403358382,-908.5811077642807,-1141.366840694942
414271,20056,414271.0,37800.0,414271.0,34808.0,-598.3106955025125,-922.0996032381413,-1159.3597775339354
414281,20081,414281.0,37868.0,414281.0,34806.0,-608.6832497339827,-935.7887804446307,-1177.5317078773687
414281,20073,414281.0,37900.0,414281.0,34842.0,-619.0868327545747,-949.6606589988643,-1195.8921525921478
414281,20101,414281.0,37948.0,414281.0,34826.0,-629.524128386277,-963.7258652596607,-1214.449783762671
414281,20053,414281.0,37862.0,414281.0,34798.0,-639.9966783980301,-977.9921822694233,-1233.2117275291434
414281,20002,414281.0,37802.0,414281.0,34744.0,-650.5047559181963,-992.4640226846382,-1252.1833183570295
414281,19986,414281.0,37767.0,414281.0,34703.0,-661.0478896572656,-1007.1432049083234,-1271.3685210456902
414291,19971,414291.0,37719.0,414291.0,34663.0,-671.6256807281816,-1022.0302834972285,-1290.7707572134582
414291,19946,414291.0,37656.0,414291.0,34648.0,-682.238383879657,-1037.1257659396924,-1310.3937435172857
414291,19930,414291.0,37665.0,414291.0,34621.0,-692.8872612409816,-1052.43120159897,-1330.2420804231804
414291,19952,414291.0,37687.0,414291.0,34628.0,-703.5748279627783,-1067.9498918471927,-1350.321524613384
414291,19961,414291.0,37728.0,414291.0,34641.0,-714.3047853148363,-1083.6867234953972,-1370.638908448534
414291,19956,414291.0,37704.0,414291.0,34655.0,-725.081572354637,-1099.6472630256621,-1391.2016354679845
414302,19966,414302.0,37730.0,414302.0,34657.0,-735.9098315146217,-1115.836787396771,-1412.0168609932912
414302,19993,414302.0,37810.0,414302.0,34665.0,-746.7939154662512,-1132.2594030347207,-1433.0906206876584
414302,19962,414302.0,37802.0,414302.0,34622.0,-757.7373298858298,-1148.916779303058,-1454.4271314827674
414302,19932,414302.0,37698.0,414302.0,34619.0,-768.7423426920043,-1165.8068525102221,-1476.028438725003
414302,19917,414302.0,37625.0,414302.0,34575.0,-779.8100895113668,-1182.9237672572967,-1497.8944094080134
414302,19869,414302.0,37586.0,414302.0,34512.0,-790.9410457794986,-1200.2592595855976,-1520.0230026172658
414312,19867,414312.0,37526.0,414312.0,34485.0,-802.1355983040414,-1217.8043791711602,-1542.4108900372053
414312,19830,414312.0,37478.0,414312.0,34467.0,-813.3945907951074,-1235.5508809575276,-1565.054240394072
414312,19850,414312.0,37550.0,414312.0,34474.0,-824.7197138242904,-1253.4921873306785,-1587.9491721193453
414312,19856,414312.0,37562.0,414312.0,34471.0,-836.1135793056274,-1271.6234495621188,-1611.0916537644011
414312,19865,414312.0,37577.0,414312.0,34473.0,-847.579398493986,-1289.9405711178852,-1634.4770182343968
414312,19852,414312.0,37592.0,414312.0,34473.0,-859.1204576964682,-1308.4389336794852,-1658.0993338215317
414322,19878,414322.0,37676.0,414322.0,34491.0,-870.7396526585636,-1327.1121842227183,-1681.950717191547
414322,19892,414322.0,37677.0,414322.0,34518.0,-882.4390005773713,-1345.9507231020016,-1706.0204792437266
414322,19843,414322.0,37615.0,414322.0,34426.0,-894.2190729917253,-1364.9401422831309,-1730.2942194614504
414322,19814,414322.0,37508.0,414322.0,34388.0,-906.0787704227222,-1384.06070888147,-1754.7535166960706
414322,19778,414322.0,37461.0,414322.0,34364.0,-918.0157301622386,-1403.2883842138604,-1779.3764839809814
414322,19770,414322.0,37387.0,414322.0,34316.0,-930.0270232082319,-1422.596632237336,-1804.1385423986922
414333,19745,414333.0,37378.0,414333.0,34296.0,-942.1097073385724,-1441.9580750751534,-1829.012961384099
414333,19726,414333.0,37358.0,414333.0,34281.0,-954.2611797448486,-1461.3455755292598,-1853.9712269588802
414333,19747,414333.0,37396.0,414333.0,34290.0,-966.4793920495662,-1480.732597691097,-1878.9831436386457
414333,19750,414333.0,37430.0,414333.0,34279.0,-978.7627841035932,-1500.0927675961834,-1904.0165414141509
414333,19757,414333.0,37437.0,414333.0,34275.0,-991.1098536584957,-1519.3987744209203,-1929.0367405627658
414333,19755,414333.0,37448.0,414333.0,34256.0,-1003.5185926722957,-1538.6210846133504,-1954.006028299778
414343,19775,414343.0,37491.0,414343.0,34302.0,-1015.9859663675326,-1557.726803770449,-1978.8831544679906
414343,19763,414343.0,37512.0,414343.0,34262.0,-1028.5073905924692,-1576.6785051001066,-2003.6226430969375
414343,19725,414343.0,37428.0,414343.0,34207.0,-1041.0763168709095,-1595.4330862594745,-2028.174151876575
414343,19688,414343.0,37323.0,414343.0,34148.0,-1053.684253134546,-1613.9415239653213,-2052.4825144432416
414343,19661,414343.0,37279.0,414343.0,34124.0,-1066.3212851066012,-1632.1500701247355,-2076.4884974584775
414343,19653,414343.0,37231.0,414343.0,34078.0,-1078.9767404066433,-1650.0021200196559,-2100.1296711868245
414353,19633,414353.0,37181.0,414353.0,34056.0,-1091.6396455845831,-1667.4397687079963,-2123.3410575134862
414353,19628,414353.0,37217.0,414353.0,34064.0,-1104.2989359466742,-1684.4048186482105,-2146.055527052596
414353,19646,414353.0,37249.0,414353.0,34053.0,-1116.943469116382,-1700.8390461265274,-2168.203821969472
414353,19644,414353.0,37274.0,414353.0,34066.0,-1129.561769833363,-1716.6835098028487,-2189.71418644818
414353,19630,414353.0,37272.0,414353.0,34043.0,-1142.1415852782657,-1731.87734443528,-2210.511833702866
414353,19660,414353.0,37328.0,414353.0,34073.0,-1154.669475931542,-1746.35661846232,-2230.518419827233
414364,19663,414364.0,37350.0,414364.0,34060.0,-1167.1303674908181,-1760.0532048116859,-2249.65148036202
414364,19629,414364.0,37289.0,414364.0,34011.0,-1179.50700155275,-1772.893646782579,-2267.8239130691545
414364,19595,414364.0,37203.0,414364.0,33979.0,-1191.779684223999,-1784.7987699917267,-2284.9439123030115
414364,19557,414364.0,37129.0,414364.0,33925.0,-1203.9266246356697,-1795.6846660638262,-2300.9155196906454
414364,19552,414364.0,37121.0,414364.0,33910.0,-1215.9245968625664,-1805.464520399551,-2315.6394804054944
414364,19519,414364.0,37060.0,414364.0,33835.0,-1227.7495191757694,-1814.0502708044955,-2329.0141450405663
414374,19509,414374.0,37034.0,414374.0,33843.0,-1239.376850184052,-1821.3538123927538,-2340.9364000375167
414374,19523,414374.0,37075.0,414374.0,33825.0,-1250.7818370381501,-1827.2879074172374,-2351.302480188076
414374,19518,414374.0,37082.0,414374.0,33836.0,-1261.9394950643186,-1831.7665337075591,-2360.0083791615752
414374,19516,414374.0,37099.0,414374.0,33847.0,-1272.8243216503006,-1834.7045429885402,-2366.949841168676
414374,19524,414374.0,37128.0,414374.0,33826.0,-1283.409963755049,-1836.0170608904627,-2372.022161753937
414374,19558,414374.0,37210.0,414374.0,33854.0,-1293.6688297524706,-1835.6187508110531,-2375.1200236972836
414384,19543,414384.0,37159.0,414384.0,33822.0,-1303.5714926648511,-1833.4228128432637,-2376.1374483115223
414384,19504,414384.0,37089.0,414384.0,33768.0,-1313.0861467443033,-1829.340392412388,-2374.9680051758805
414384,19475,414384.0,37025.0,414384.0,33731.0,-1322.1786141685823,-1823.2813505540419,-2371.5056297801966
414384,19444,414384.0,36975.0,414384.0,33708.0,-1330.812923115464,-1815.156218582331,-2365.645999889628
414384,19428,414384.0,36928.0,414384.0,33677.0,-1338.9520576170544,-1804.878447576527,-2357.287982275133
414384,19390,414384.0,36876.0,414384.0,33670.0,-1346.558637499449,-1792.366530563264,-2346.3349103127152
414395,19396,414395.0,36928.0,414395.0,33659.0,-1353.5955174503408,-1777.5458625446809,-2332.695705816705
414395,19415,414395.0,36965.0,414395.0,33694.0,-1360.0261708241678,-1760.3498694527193,-2316.285769287345
414395,19419,414395.0,37014.0,414395.0,33696.0,-1365.8146306999383,-1740.7200805810332,-2297.027522101257
414395,19413,414395.0,37038.0,414395.0,33723.0,-1370.9251229368092,-1718.6055817390277,-2274.850680268589
414395,19440,414395.0,37110.0,414395.0,33751.0,-1375.3217222585172,-1693.9624176607545,-2249.692452484813
414395,19442,414395.0,37178.0,414395.0,33788.0,-1378.96803050371,-1666.7529311547805,-2221.4976768840247
414405,19436,414405.0,37131.0,414405.0,33760.0,-1381.826807377774,-1636.945044469919,-2190.2189652991287
414405,19392,414405.0,37043.0,414405.0,33730.0,-1383.8598240400252,-1604.512348222391,-2155.8173080903975
414405,19364,414405.0,37035.0,414405.0,33740.0,-1385.0282503576082,-1569.435776017379,-2118.2634284247033
414405,19357,414405.0,37018.0,414405.0,33745.0,-1385.2934738454273,-1531.7061714558008,-2077.539456189473
414405,19315,414405.0,37025.0,414405.0,33772.0,-1384.6179771475431,-1491.326558157849,-2033.640361888235
414405,19330,414405.0,37077.0,414405.0,33816.0,-1382.9661053014293,-1448.3137548606244,-1986.575021547176
414416,19365,414416.0,37154.0,414416.0,33887.0,-1380.304584348276,-1402.6992808188484,-1936.366884438344
414416,19380,414416.0,37249.0,414416.0,33957.0,-1376.6024989948044,-1354.529384998615,-1883.0541522453543
414416,19375,414416.0,37345.0,414416.0,34022.0,-1371.830872059749,-1303.8642951737343,-1826.6895680622818
414416,19392,414416.0,37418.0,414416.0,34117.0,-1365.9623607296605,-1250.777076006743,-1767.3400446853232
414416,19437,414416.0,37557.0,414416.0,34224.0,-1358.9711171084282,-1195.3524118970163,-1705.0861385809487
414416,19434,414416.0,37655.0,414416.0,34309.0,-1350.8324901516269,-1137.6852515312953,-1640.0212459411982
414426,19417,414426.0,37646.0,414426.0,34352.0,-1341.5227033878234,-1077.8794591394094,-1572.2507772552808
414426,19387,414426.0,37702.0,414426.0,34430.0,-1331.0190212230145,-1016.0472829236808,-1501.8918011609192
414426,19398,414426.0,37719.0,414426.0,34507.0,-1319.3004774444937,-952.3099428791489,-1429.0731582058966
414426,19407,414426.0,37808.0,414426.0,34600.0,-1306.3486829791686,-886.798613914387,-1353.9355934791731
414426,19385,414426.0,37858.0,414426.0,34709.0,-1292.1483877515216,-819.6551304783118,-1276.6316206094916
414426,19413,414426.0,38043.0,414426.0,34859.0,-1276.6879510246254,-751.0321008234806,-1197.3249911442877
414436,19459,414436.0,38172.0,414436.0,35002.0,-1259.9597207058446,-681.0920640606785,-1116.1895943782115
414436,19479,414436.0,38333.0,414436.0,35143.0,-1241.960008309467,-610.0056142393584,-1033.4078228108087
414436,19510,414436.0,38474.0,414436.0,35313.0,-1222.6887326731191,-537.9490143999072,-949.1686748667728
414436,19534,414436.0,38650.0,414436.0,35462.0,-1202.1490988387827,-465.1017302008963,-863.6657164867252
414436,19598,414436.0,38814.0,414436.0,35617.0,-1180.3473343621893,-391.6438329239945,-777.0949258472547
414436,19604,414436.0,38899.0,414436.0,35717.0,-1157.2923089077515,-317.75335714637504,-689.6526659062515
414447,19595,414447.0,38918.0,414447.0,35804.0,-1132.9952433464578,-243.6043540309215,-601.5342014046103
414447,19605,414447.0,39007.0,414447.0,35918.0,-1107.4699370942787,-169.36633671791355,-512.9329563498925
414447,19625,414447.0,39028.0,414447.0,36039.0,-1080.733432371022,-95.20477017743201,-424.0401515129388
414447,19650,414447.0,39135.0,414447.0,36151.0,-1052.8066352991812,-21.28178446507809,-335.0443077203604
414447,19683,414447.0,39217.0,414447.0,36252.0,-1023.7146747159154,52.2433675430168,-246.13057636956728
414447,19733,414447.0,39374.0,414447.0,36415.0,-993.4870202708638,125.21444508864124,-157.4800347453404
414457,19789,414457.0,39526.0,414457.0,36563.0,-962.157330657137,197.4792194347824,-69.26869932305999
414457,19841,414457.0,39627.0,414457.0,36673.0,-929.7630168524895,268.8912304574965,18.333916766622224
414457,19881,414457.0,39744.0,414457.0,36798.0,-896.344671060231,339.3116815346209,105.16628079659426
414457,19977,414457.0,39921.0,414457.0,36946.0,-861.9454795408519,408.6111050898228,191.07604787469336
414457,20016,414457.0,39992.0,414457.0,37010.0,-826.610496601789,476.67110277535335,275.9211537227145
414457,20027,414457.0,39967.0,414457.0,37068.0,-790.3858937043233,543.385824483666,359.5705690505881
414467,20043,414467.0,39962.0,414467.0,37108.0,-753.3187185167073,608.6619818548015,441.9042000319855
414467,20077,414467.0,39984.0,414467.0,37199.0,-715.4572939574302,672.4172196051952,522.8120787717608
414467,20119,414467.0,40043.0,414467.0,37229.0,-676.8517639333031,734.5780781446931,602.1934487172971
414467,20135,414467.0,40002.0,414467.0,37281.0,-637.5544502820314,795.0783981211205,679.9559084721257
414467,20213,414467.0,40159.0,414467.0,37398.0,-597.6200658292387,853.8580762143288,756.014550516421
414467,20265,414467.0,40240.0,414467.0,37475.0,-557.1057150744346,910.8624637396972,830.2914742593985
414478,20333,414478.0,40290.0,414478.0,37567.0,-516.0705350217426,966.0428127418597,902.7159048694677
414478,20399,414478.0,40391.0,414478.0,37648.0,-474.5750957286291,1019.3571095977795,973.2245541226871
414478,20471,414478.0,40511.0,414478.0,37755.0,-432.6807124629622,1070.7708282026315,1041.761994863255
414478,20541,414478.0,40582.0,414478.0,37834.0,-390.448675607248,1120.2580128826867,1108.2811583858047
414478,20554,414478.0,40548.0,414478.0,37858.0,-347.93953596673487,1167.8023946588355,1172.7438148769324
414478,20601,414478.0,40545.0,414478.0,37878.0,-305.2127733659446,1213.3974448435497,1235.1205143031675
414488,20618,414488.0,40529.0,414488.0,37886.0,-262.32695585252725,1257.0450831863332,1295.3896955572895
414488,20653,414488.0,40497.0,414488.0,37956.0,-219.34016496642823,1298.7537389850863,1353.5363412496113
414488,20700,414488.0,40480.0,414488.0,37956.0,-176.31046053399916,1338.5362568999044,1409.5507718191993
414488,20738,414488.0,40523.0,414488.0,38025.0,-133.29622524399485,1376.407871868917,1463.4277292345273
414488,20835,414488.0,40616.0,414488.0,38092.0,-90.35623331234228,1412.3848598610025,1515.1657121713024
414488,20902,414488.0,40680.0,414488.0,38162.0,-47.54927741821405,1446.484414448818,1564.7667672520088
414498,20944,414498.0,40739.0,414498.0,38220.0,-4.933418790359724,1478.7254633417983,1612.2367424799231
414498,21000,414498.0,40778.0,414498.0,38264.0,37.43468814426228,1509.1296391195756,1657.585644611252
414498,21082,414498.0,40890.0,414498.0,38343.0,79.50021629150376,1537.722102012448,1700.827897909262
414498,21120,414498.0,40884.0,414498.0,38379.0,121.21062282397884,1564.5324325819156,1741.9826071704247
414498,21142,414498.0,40853.0,414498.0,38378.0,162.5161058415697,1589.5952919473111,1781.073753730856
414498,21191,414498.0,40840.0,414498.0,38357.0,203.3697022392887,1612.9500917317164,1818.1298523175637
414509,21195,414509.0,40784.0,414509.0,38390.0,243.72702839955923,1634.639668569559,1853.1828959679028
414509,21251,414509.0,40763.0,414509.0,38392.0,283.54588582352824,1654.7085143986437,1886.267112258985
414509,21260,414509.0,40772.0,414509.0,38372.0,322.7858485020396,1673.2009780679277,1917.4179082727314
414509,21307,414509.0,40815.0,414509.0,38460.0,361.40788602164366,1690.1599448052216,1946.670940479411
414509,21396,414509.0,40868.0,414509.0,38523.0,399.3741572911931,1705.6264231855803,1974.0616625649
414509,21429,414509.0,40932.0,414509.0,38552.0,436.6482372199116,1719.6400119164377,1999.6257345666845
414519,21473,414519.0,40977.0,414519.0,38610.0,473.19565615229817,1732.2399233415422,2023.3998024363377
414519,21543,414519.0,41031.0,414519.0,38676.0,508.9843404011167,1743.4662021518093,2045.4221915363032
414519,21618,414519.0,41098.0,414519.0,38707.0,543.9850622496856,1753.3609680286804,2065.733678825077
414519,21618,414519.0,41079.0,414519.0,38669.0,578.1720947360889,1761.9696121032161,2084.3781623760556
414519,21641,414519.0,40949.0,414519.0,38654.0,611.5236249226814,1769.3413083871037,2101.4025732506584
414519,21622,414519.0,40914.0,414519.0,38652.0,644.0214772208785,1775.5279401789699,2116.8559493893154
414529,21650,414529.0,40888.0,414529.0,38642.0,675.6503012893031,1780.5818365226296,2130.7883014190247
414529,21670,414529.0,40863.0,414529.0,38621.0,706.396676398683,1784.5537033164883,2143.2496472483303
414529,21704,414529.0,40866.0,414529.0,38678.0,736.2484849050588,1787.4913100079152,2154.2892199246517
414529,21763,414529.0,40937.0,414529.0,38699.0,765.1946767040904,1789.4388533569718,2163.9551102364057
414529,21793,414529.0,40995.0,414529.0,38705.0,793.2254068548605,1790.4372456536303,2172.29447604319
414529,21827,414529.0,41006.0,414529.0,38729.0,820.3323767434963,1790.5252895314093,2179.353883708459
414540,21876,414540.0,41053.0,414540.0,38761.0,846.5091463794561,1789.741025695284,2185.179539288713
414540,21927,414540.0,41110.0,414540.0,38815.0,871.7514666627267,1788.1228839765563,2189.8176953406146
414540,21947,414540.0,41103.0,414540.0,38810.0,896.057751229021,1785.7108449108969,2193.3153694620687
414540,21953,414540.0,41009.0,414540.0,38761.0,919.4294532589097,1782.547252385581,2195.7209035659034
414540,21942,414540.0,40947.0,414540.0,38750.0,941.8709951771821,1778.6763896711109,2197.0837592977546
414540,21944,414540.0,40946.0,414540.0,38719.0,963.3892006093786,1774.142908544247,2197.4536492280063
414550,21963,414550.0,40906.0,414550.0,38722.0,983.9925138090132,1768.9902514672985,2196.8795951819884
414550,21958,414550.0,40827.0,414550.0,38685.0,1003.6903301450459,1763.2595247885374,2195.4091893677746
414550,21991,414550.0,40901.0,414550.0,38712.0,1022.492516316622,1756.988471479106,2193.088020305937
414550,22015,414550.0,40941.0,414550.0,38757.0,1040.4091220276637,1750.2109670739962,2189.959432026795
414550,22056,414550.0,40942.0,414550.0,38742.0,1057.4503839967642,1742.9576426948147,2186.0648579135313
414550,22091,414550.0,40999.0,414550.0,38769.0,1073.6270341242296,1735.2570694381684,2181.4444363749103
414560,22124,414560.0,41026.0,414560.0,38797.0,1088.9507941101217,1727.1369122014146,2176.137540711798
414560,22175,414560.0,41103.0,414560.0,38816.0,1103.4349651061555,1718.6252523527096,2170.183383771118
414560,22138,414560.0,41020.0,414560.0,38781.0,1117.0949744054692,1709.7520155970078,2163.6216940847357
414560,22131,414560.0,40935.0,414560.0,38730.0,1129.948488160876,1700.549591419545,2156.4929279603966
414560,22118,414560.0,40876.0,414560.0,38698.0,1142.0148548855402,1691.0519024558382,2148.837684353027
414560,22122,414560.0,40835.0,414560.0,38670.0,1153.314249515535,1681.292513679694,2140.6956510849927
414571,22119,414571.0,40781.0,414571.0,38634.0,1163.8669585936213,1671.3028468365453,2132.104576930285
414571,22123,414571.0,40771.0,414571.0,38631.0,1173.6928666484357,1661.1108127416715,2123.0994322193055
414571,22155,414571.0,40800.0,414571.0,38666.0,1182.8111208643245,1650.7399272336736,2113.7119024672124
414571,22192,414571.0,40831.0,414571.0,38691.0,1191.2401191146048,1640.2092195235718,2103.9705275807305
414571,22210,414571.0,40868.0,414571.0,38679.0,1198.997905738516,1629.5339787280445,2093.9014107428934
414571,22207,414571.0,40880.0,414571.0,38685.0,1206.1026951930924,1618.726933221036,2083.5289294080126
414581,22250,414581.0,40981.0,414581.0,38716.0,1212.573207293857,1607.7995809978265,2072.8762006628676
414581,22249,414581.0,40942.0,414581.0,38707.0,1218.4289085675377,1596.7637110950213,2061.965577409294
414581,22226,414581.0,40888.0,414581.0,38688.0,1223.6902238695013,1585.6326562916825,2050.819184734275
414581,22207,414581.0,40799.0,414581.0,38616.0,1228.3783938437612,1574.421327575635,2039.4590302879114
414581,22211,414581.0,40752.0,414581.0,38584.0,1232.5149006700503,1563.1449186416662,2027.9063803520926
414581,22199,414581.0,40729.0,414581.0,38577.0,1236.1208479507404,1551.8171724156418,2016.1807125520631
414591,22177,414591.0,40666.0,414591.0,38561.0,1239.216476189484,1540.4489599371434,2004.2988961754938
414591,22194,414591.0,40720.0,414591.0,38571.0,1241.820693791453,1529.047335101003,1992.2748787566265
414591,22221,414591.0,40764.0,414591.0,38573.0,1243.9507565057709,1517.6153118154393,1980.1197468476196
414591,22248,414591.0,40794.0,414591.0,38602.0,1245.6224043334253,1506.1526790518863,1967.842075532304
414591,22251,414591.0,40799.0,414591.0,38606.0,1246.85038249019,1494.6573983448257,1955.4485460846192
414591,22285,414591.0,40855.0,414591.0,38634.0,1247.6490059280352,1483.126889597877,1942.9447303022173
414602,22297,414602.0,40918.0,414602.0,38631.0,1248.0326738416795,1471.5593084521472,1930.335909748962
414602,22284,414602.0,40842.0,414602.0,38609.0,1248.0163519053594,1459.9549893203884,1917.6277536537045
414602,22269,414602.0,40735.0,414602.0,38559.0,1247.6157971382156,1448.317149529806,1904.82655780219
414602,22228,414602.0,40696.0,414602.0,38502.0,1246.8473083773176,1436.6509540053755,1891.9388135356578
414602,22216,414602.0,40648.0,414602.0,38526.0,1245.7270666139063,1424.9616264415627,1878.9703312932027
414602,22222,414602.0,40600.0,414602.0,38471.0,1244.270376329575,1413.252782599551,1865.9255134737189
414612,22189,414612.0,40613.0,414612.0,38454.0,1242.4911230216462,1401.5252668838962,1852.806938340115
414612,22221,414612.0,40652.0,414612.0,38501.0,1240.4014585763541,1389.7766013821802,1839.6150666281824
414612,22242,414612.0,40682.0,414612.0,38511.0,1238.011732261843,1378.0013509061198,1826.3483804107311
414612,22269,414612.0,40716.0,414612.0,38515.0,1235.3308652745818,1366.1922341189222,1813.004138359449
414612,22262,414612.0,40723.0,414612.0,38518.0,1232.367028865529,1354.3414385557423,1799.5792293756165
414612,22301,414612.0,40840.0,414612.0,38592.0,1229.1282655299735,1342.4419697620156,1786.0709222967782
414622,22288,414622.0,40811.0,414622.0,38563.0,1225.6230003729997,1330.4892836975066,1772.4778497286432
414622,22281,414622.0,40714.0,414622.0,38506.0,1221.860448455835,1318.482727037051,1758.8009468058463
414622,22245,414622.0,40676.0,414622.0,38461.0,1217.8506932153853,1306.4256117450318,1745.0435131706392
414622,22241,414622.0,40578.0,414622.0,38443.0,1213.6043486407295,1294.3238632333764,1731.2104001640316
414622,22222,414622.0,40583.0,414622.0,38400.0,1209.1320497563686,1282.1842639890465,1717.307080002446
414622,22195,414622.0,40502.0,414622.0,38369.0,1204.4439795207304,1270.0129704489045,1703.3389084501591
414633,22215,414633.0,40522.0,414633.0,38383.0,1199.549452042842,1257.8144243495117,1689.3105180891337
414633,22224,414633.0,40602.0,414633.0,38396.0,1194.4567076217602,1245.5908728834406,1675.2255747500926
414633,22224,414633.0,40592.0,414633.0,38403.0,1189.173083232926,1233.3429326228893,1661.0871094492572
414633,22229,414633.0,40632.0,414633.0,38417.0,1183.705357847462,1221.070899645159,1646.8981950059874
414633,22252,414633.0,40651.0,414633.0,38446.0,1178.0600780681389,1208.7760206222388,1632.662722365317
414633,22286,414633.0,40727.0,414633.0,38459.0,1172.244023731947,1196.4617106791993,1618.3863028230141
414643,22249,414643.0,40683.0,414643.0,38401.0,1166.2648658781775,1184.1349587823047,1604.0771260224356
414643,22210,414643.0,40573.0,414643.0,38353.0,1160.1315412837232,1171.8072527018371,1589.746206891993
414643,22200,414643.0,40490.0,414643.0,38336.0,1153.8539385724812,1159.4939871726224,1575.4068168609258
414643,22169,414643.0,40464.0,414643.0,38282.0,1147.4422052431253,1147.212549165658,1561.0736069565382
414643,22172,414643.0,40398.0,414643.0,38256.0,1140.9061508785637,1134.9803344995262,1546.7618028242712
414643,22145,414643.0,40361.0,414643.0,38233.0,1134.2548453813745,1122.8132760639137,1532.4864550205934
414653,22156,414653.0,40428.0,414653.0,38239.0,1127.4963572860242,1110.7248466889457,1518.2618756392167
414653,22177,414653.0,40436.0,414653.0,38245.0,1120.637692571157,1098.7259267355253,1504.101497566176
414653,22181,414653.0,40461.0,414653.0,38254.0,1113.685071325235,1086.825643228753,1490.018172093126
414653,22181,414653.0,40452.0,414653.0,38243.0,1106.6444307322588,1075.0324597301892,1476.024689936662
414653,22199,414653.0,40550.0,414653.0,38303.0,1099.5218870405363,1063.3551442739465,1462.1343775094415
414653,22199,414653.0,40562.0,414653.0,38266.0,1092.324144174289,1051.8040319599775,1448.3618509912667
414664,22191,414664.0,40439.0,414664.0,38223.0,1085.0588953299543,1040.3923734581565,1434.7236768175549
414664,22146,414664.0,40371.0,414664.0,38158.0,1077.735006869912,1029.1364516358144,1421.2382925399334
414664,22123,414664.0,40303.0,414664.0,38134.0,1070.3622434422136,1018.0540206624594,1407.9251146708218
414664,22107,414664.0,40340.0,414664.0,38082.0,1062.950637253788,1007.1623541647468,1394.8034056372262
414664,22083,414664.0,40230.0,414664.0,38076.0,1055.509851293164,996.4770129009937,1381.8913100452396
414664,22084,414664.0,40280.0,414664.0,38072.0,1048.0487183225566,986.0111270214811,1369.205209401131
414674,22101,414674.0,40285.0,414674.0,38074.0,1040.5750200935875,975.7749414822088,1356.7595141100887
414674,22100,414674.0,40317.0,414674.0,38101.0,1033.095613761561,965.7760107213875,1344.5668881780032
414674,22104,414674.0,40333.0,414674.0,38097.0,1025.616804060126,956.0200240495179,1332.6387887709034
414674,22126,414674.0,40403.0,414674.0,38116.0,1018.1447545914984,946.5118911568036,1320.986150221724
414674,22137,414674.0,40428.0,414674.0,38121.0,1010.6859704016027,937.257099677526,1309.6200562767822
414674,22112,414674.0,40365.0,414674.0,38084.0,1003.2478415151248,928.2631038089139,1298.552284865346
414685,22077,414685.0,40298.0,414685.0,38026.0,995.8388971111691,919.5398432355049,1287.7954153975388
414685,22038,414685.0,40228.0,414685.0,38000.0,988.4684807073176,911.0988922536251,1277.3622452436716
414685,22033,414685.0,40204.0,414685.0,37973.0,981.1460261914772,902.9518175661182,1267.2648306941876
414685,22019,414685.0,40152.0,414685.0,37937.0,973.8803877208504,895.1085963771613,1257.5136255472999
414685,22007,414685.0,40148.0,414685.0,37932.0,966.6794599674372,887.5764222772223,1248.1168039660406
414685,22009,414685.0,40198.0,414685.0,37963.0,959.5499993870043,880.3590261065558,1239.0798441771378
414695,22007,414695.0,40224.0,414695.0,37988.0,952.4975693586165,873.4568252483003,1230.4056823793212
414695,22023,414695.0,40251.0,414695.0,37974.0,945.5266555225195,866.8678587288276,1222.095398229794
414695,22041,414695.0,40266.0,414695.0,37994.0,938.6409976799281,860.5889394350055,1214.1489238521003
414695,22057,414695.0,40352.0,414695.0,38037.0,931.8441461992633,854.616770528938,1206.5656144214486
414695,22045,414695.0,40327.0,414695.0,38040.0,925.1401051873203,848.9492163721538,1199.3449980407022
414695,22027,414695.0,40272.0,414695.0,37989.0,918.5337627920575,843.5863718722833,1192.4875571840043
414705,21977,414705.0,40185.0,414705.0,37943.0,912.0308535140932,838.5305176124093,1185.9948415082006
414705,21970,414705.0,40157.0,414705.0,37903.0,905.6374422508602,833.7848069579735,1179.8686894055634
414705,21956,414705.0,40125.0,414705.0,37876.0,899.3592455939367,829.3515573031498,1174.1100560900577
414705,21929,414705.0,40088.0,414705.0,37896.0,893.2011180342229,825.2308860562259,1168.7180350487652
414705,21945,414705.0,40135.0,414705.0,37883.0,887.166715040401,821.4198309450295,1163.6893986581056
414705,21941,414705.0,40159.0,414705.0,37881.0,881.258332858924,817.912120594711,1159.0185709808388
414716,21953,414716.0,40177.0,414716.0,37925.0,875.4770180101336,814.6987088034233,1154.6977778603336
414716,21964,414716.0,40200.0,414716.0,37926.0,869.8228796220017,811.7686517784064,1150.7174331759443
414716,21977,414716.0,40297.0,414716.0,37950.0,864.2955134958163,809.1100776699159,1147.0667938823103
414716,22008,414716.0,40340.0,414716.0,37999.0,858.8945520591535,806.7116028883701,1143.7347141394855
414716,21969,414716.0,40297.0,414716.0,37966.0,853.6202633093183,804.5640559285915,1140.710450298709
414716,21945,414716.0,40198.0,414716.0,37925.0,848.4738425774951,802.6613373158891,1137.9841791312163
414726,21923,414726.0,40169.0,414726.0,37890.0,843.4571259235688,800.999628734472,1135.5467075220329
414726,21893,414726.0,40107.0,414726.0,37895.0,838.5719517820171,799.575609250203,1133.3885925094833
414726,21881,414726.0,40064.0,414726.0,37864.0,833.819494601868,798.3846582506442,1131.4993458732272
414726,21883,414726.0,40083.0,414726.0,37856.0,829.1997181618574,797.4193831953615,1129.866903696929
414726,21890,414726.0,40123.0,414726.0,37913.0,824.7111063800481,796.6687900694134,1128.4773045877128
414726,21913,414726.0,40179.0,414726.0,37898.0,820.3507626895034,796.1184893890827,1127.3148096718335
414736,21911,414736.0,40198.0,414736.0,37914.0,816.1147950550941,795.7517458585747,1126.3623980320276
414736,21919,414736.0,40222.0,414736.0,37940.0,811.9987782769931,795.550722515735,1125.6022252502964
414736,21946,414736.0,40326.0,414736.0,38001.0,807.9981682291091,795.4976446626131,1125.0161528534247
414736,21937,414736.0,40311.0,414736.0,38010.0,804.1087450690874,795.5761593610022,1124.586677068115
414736,21936,414736.0,40241.0,414736.0,37969.0,800.3270390139181,795.7725530857757,1124.2978992596331
414736,21895,414736.0,40203.0,414736.0,37932.0,796.6504737050054,796.0757979784565,1124.1357675715844
414747,21863,414747.0,40166.0,414747.0,37913.0,793.0770451386562,796.4763866678966,1124.0874263548546
414747,21871,414747.0,40148.0,414747.0,37889.0,789.6046576718304,796.964913243286,1124.1402364381208
414747,21844,414747.0,40083.0,414747.0,37846.0,786.2305118001987,797.5308702069688,1124.2808633149248
414747,21852,414747.0,40117.0,414747.0,37894.0,782.9507542503779,798.1615666146221,1124.4944862847224
414747,21873,414747.0,40193.0,414747.0,37918.0,779.7603520313565,798.8415158348843,1124.7644588532492
414747,21877,414747.0,40209.0,414747.0,37929.0,776.6532573530943,799.5529004578509,1125.0726880032362
414757,21883,414757.0,40254.0,414757.0,37957.0,773.6228069078803,800.2768254539769,1125.400348361903
414757,21911,414757.0,40315.0,414757.0,37998.0,770.6621492849744,800.9946498176969,1125.7285918539037
414757,21919,414757.0,40392.0,414757.0,38020.0,767.7647209631999,801.689431686139,1126.0393768808278
414757,21921,414757.0,40299.0,414757.0,37987.0,764.9247953790667,802.3474672735306,1126.3163022694891
414757,21867,414757.0,40221.0,414757.0,37957.0,762.1378077882482,802.9588677688765,1126.5449122990283
414757,21864,414757.0,40179.0,414757.0,37932.0,759.4001383781338,803.5164299058498,1126.7122426271458
414767,21833,414767.0,40139.0,414767.0,37904.0,756.7084812745918,804.0136424008973,1126.8059556646301
414767,21828,414767.0,40119.0,414767.0,37896.0,754.0591921676458,804.4429658436363,1126.8134685453279
414767,21805,414767.0,40107.0,414767.0,37883.0,751.4477684736502,804.7946392379939,1126.721246116464
414767,21839,414767.0,40173.0,414767.0,37914.0,748.8684904908685,805.0560438103059,1126.5143747156585
414767,21855,414767.0,40224.0,414767.0,37950.0,746.3144220215661,805.211934034196,1126.1766013331903
414767,21866,414767.0,40238.0,414767.0,37963.0,743.7778536160816,805.2455281792169,1125.6909054203065
414778,21877,414778.0,40267.0,414778.0,37962.0,741.2509114075418,805.1397991288848,1125.0402679219826
414778,21900,414778.0,40356.0,414778.0,38006.0,738.7260990494491,804.8785996972529,1124.208273802488
414778,21887,414778.0,40352.0,414778.0,38021.0,736.196787166735,804.4479427189742,1123.179680141885
414778,21867,414778.0,40286.0,414778.0,37979.0,733.6575331786468,803.8371834488328,1121.9410272225596
414778,21847,414778.0,40208.0,414778.0,37955.0,731.1040050464738,803.0390685652155,1120.4808154915618
414778,21845,414778.0,40167.0,414778.0,37932.0,728.5325900700656,802.048384989328,1118.7890019357826
414788,21815,414788.0,40161.0,414788.0,37909.0,725.9399641015992,800.8601497953589,1116.8562108685119
414788,21803,414788.0,40126.0,414788.0,37896.0,723.3226759388232,799.46825814413,1114.6730156330489
414788,21810,414788.0,40133.0,414788.0,37907.0,720.6767227257947,797.864688581391,1112.229402837957
414788,21830,414788.0,40187.0,414788.0,37935.0,717.9973350379374,796.039156627888,1109.5145975195567
414788,21823,414788.0,40233.0,414788.0,37949.0,715.2791336788143,793.9794860755071,1106.5173790713247
414788,21831,414788.0,40254.0,414788.0,37954.0,712.5164478734579,791.6727246212488,1103.2266960278585
414798,21855,414798.0,40330.0,414798.0,37970.0,709.7036047972414,789.1065448307974,1099.6322562597356
414798,21887,414798.0,40397.0,414798.0,38009.0,706.8353565608599,786.27080737898,1095.7250747097453
414798,21860,414798.0,40312.0,414798.0,37993.0,703.9075156557797,783.1592019418117,1091.4981388629221
414798,21814,414798.0,40251.0,414798.0,37940.0,700.9173335660068,779.7700007315009,1086.9469149785036
414798,21798,414798.0,40176.0,414798.0,37897.0,697.863169363907,776.1051801402224,1082.0691266375234
414798,21779,414798.0,40134.0,414798.0,37889.0,694.7437053927073,772.1685480253345,1076.8638482492377
414809,21778,414809.0,40072.0,414809.0,37868.0,691.5572686413615,767.963823691837,1071.3305773749405
414809,21763,414809.0,40085.0,414809.0,37819.0,688.3014399965969,763.4930529558629,1065.4685874409233
414809,21779,414809.0,40130.0,414809.0,37856.0,684.9728704821528,758.7557001962673,1059.2763848002824
414809,21802,414809.0,40161.0,414809.0,37870.0,681.5673349198969,753.7487957715059,1052.7514523042814
414809,21803,414809.0,40171.0,414809.0,37871.0,678.0801000186968,748.4678919208638,1045.890582986278
414809,21817,414809.0,40230.0,414809.0,37888.0,674.5064511944875,742.9081978549893,1038.6905125158942
414819,21814,414819.0,40286.0,414819.0,37936.0,670.8421455378816,737.0658111854109,1031.1485854069497
414819,21844,414819.0,40249.0,414819.0,37932.0,667.0837910723499,730.9391429619676,1023.2636210123824
414819,21807,414819.0,40209.0,414819.0,37874.0,663.2292151664612,724.5299110929016,1015.0367405761233
414819,21776,414819.0,40131.0,414819.0,37831.0,659.2775955468344,717.8429878115953,1006.4714511125994
414819,21750,414819.0,40075.0,414819.0,37802.0,655.2290726827921,710.8851982703383,997.572876790905
414819,21735,414819.0,40066.0,414819.0,37780.0,651.0840257062212,703.663727821967,988.3467691126773
414829,21725,414829.0,39992.0,414829.0,37738.0,646.8424247068475,696.1847408537117,978.7987267770986
414829,21721,414829.0,40040.0,414829.0,37760.0,642.5034253420533,688.4524011865249,968.9336230301725
414829,21743,414829.0,40052.0,414829.0,37751.0,638.0652280269335,680.4684517006883,958.7553415060936
414829,21750,414829.0,40079.0,414829.0,37773.0,633.5252563714497,672.2325918523786,948.2669640842716
414829,21748,414829.0,40105.0,414829.0,37764.0,628.8805739692248,663.7434020747362,937.4712588501386
414829,21763,414829.0,40182.0,414829.0,37796.0,624.1283068860192,654.9995094748291,926.3712656757311
414840,21793,414840.0,40236.0,414840.0,37817.0,619.2660597911207,646.0011648399759,914.9710137184716
414840,21772,414840.0,40156.0,414840.0,37771.0,614.2924573558369,636.7520124079595,903.2763342953994
414840,21724,414840.0,40066.0,414840.0,37708.0,609.2075236192316,627.2598948014515,891.2952428207822
414840,21716,414840.0,39986.0,414840.0,37684.0,604.0124642603134,617.5358956518799,879.0374524861214
414840,21698,414840.0,39929.0,414840.0,37652.0,598.7090460520596,607.5922652310478,866.5134261895108
414840,21672,414840.0,39899.0,414840.0,37616.0,593.299047011933,597.4403640580719,853.7335654252335
414850,21667,414850.0,39911.0,414850.0,37585.0,587.7838358849606,587.089257532655,840.7075702049968
414850,21676,414850.0,39926.0,414850.0,37609.0,582.1640566211686,576.5451980182111,827.443925156844
414850,21672,414850.0,39939.0,414850.0,37617.0,576.4395736302927,565.811909089286,813.9498190927117
414850,21684,414850.0,39963.0,414850.0,37598.0,570.6096717196037,554.8913135360496,800.2315888317725
414850,21688,414850.0,40019.0,414850.0,37603.0,564.6733710773685,543.7845066656341,786.2952620557172
414850,21712,414850.0,40078.0,414850.0,37645.0,558.6298391035734,532.4931245715615,772.1470310083837
414860,21715,414860.0,40026.0,414860.0,37622.0,552.4789314889946,521.0209919576355,757.7939421727971
414860,21678,414860.0,39960.0,414860.0,37562.0,546.2216966140777,509.37516709719046,743.2445811240752
414860,21659,414860.0,39890.0,414860.0,37525.0,539.8604870890127,497.5656127508131,728.5090703243625
414860,21616,414860.0,39864.0,414860.0,37471.0,533.3985569738788,485.6038671997363,713.5983249357453
414860,21607,414860.0,39827.0,414860.0,37448.0,526.8393894739902,473.5016682528792,698.5230884442509
414860,21587,414860.0,39744.0,414860.0,37384.0,520.1860545207975,461.2698739008433,683.2930472588233
414871,21582,414871.0,39759.0,414871.0,37418.0,513.4407661236593,448.91742830991734,667.9161028696395
414871,21594,414871.0,39806.0,414871.0,37413.0,506.60469201320996,436.45063185035144,652.3980825521925
414871,21598,414871.0,39815.0,414871.0,37412.0,499.67804990724073,423.8733928164779,636.7430684688718
414871,21613,414871.0,39826.0,414871.0,37434.0,492.66047011937786,411.18826837374115,620.9540474832501
414871,21618,414871.0,39888.0,414871.0,37444.0,485.5515010481989,398.39762473823373,605.0336589301271
414871,21633,414871.0,39951.0,414871.0,37470.0,478.35116040941614,385.50499743017895,588.9851151030941
414881,21610,414881.0,39864.0,414881.0,37409.0,471.0604451940855,372.5167182797517,572.8131284087377
414881,21575,414881.0,39753.0,414881.0,37364.0,463.6815757094322,359.4427121920029,556.5243148515526
414881,21545,414881.0,39713.0,414881.0,37304.0,456.2177551026009,346.2955365916607,540.1267498910821
414881,21537,414881.0,39642.0,414881.0,37272.0,448.6725839312314,333.08843224388863,523.6289860841349
414881,21499,414881.0,39622.0,414881.0,37237.0,441.04948180750245,319.8335932216868,507.0390665172979
414881,21502,414881.0,39572.0,414881.0,37259.0,433.35123540320507,306.5409409560476,490.3638838627202
414891,21507,414891.0,39620.0,414891.0,37238.0,425.5797091355808,293.21736758558757,473.60907705179955
414891,21508,414891.0,39650.0,414891.0,37224.0,417.7358661749746,279.8667235150094,456.7793216557668
414891,21517,414891.0,39667.0,414891.0,37241.0,409.8200713781191,266.49068454215956,439.87867582022386
414891,21526,414891.0,39661.0,414891.0,37222.0,401.83251218728833,253.08998236538412,422.9109593290568
414891,21544,414891.0,39746.0,414891.0,37248.0,393.77370914109036,239.66552889239324,405.88028100434326
414891,21520,414891.0,39749.0,414891.0,37246.0,385.6450734811608,226.21969131368076,388.7917041844064
414902,21499,414902.0,39656.0,414902.0,37172.0,377.4492588620965,212.7576025339506,371.65185990119926
414902,21459,414902.0,39555.0,414902.0,37138.0,369.1900642650968,199.28737358427986,354.469011768698
414902,21429,414902.0,39507.0,414902.0,37068.0,360.87192040643953,185.81870393798783,337.2523639180183
414902,21431,414902.0,39462.0,414902.0,37073.0,352.49923272220366,172.3608871702928,320.01107716770343
414902,21385,414902.0,39431.0,414902.0,36998.0,344.07586208733505,158.92125388174395,302.75347275749755
414902,21397,414902.0,39460.0,414902.0,37035.0,335.6047674153738,145.5042984961483,285.48651644520146
414912,21415,414912.0,39496.0,414912.0,37010.0,327.0878282291043,132.11160707898432,268.21564745684145
414912,21410,414912.0,39490.0,414912.0,37020.0,318.52605149931776,118.74260423987005,250.94504110323987
414912,21410,414912.0,39498.0,414912.0,37003.0,309.9200493561682,105.39558681624749,233.6780923864344
414912,21417,414912.0,39539.0,414912.0,37002.0,301.2704597889734,92.06860519097484,216.41786343568242
414912,21436,414912.0,39613.0,414912.0,37032.0,292.57833661192524,78.76052214294043,199.16755333583183
414912,21420,414912.0,39568.0,414912.0,36983.0,283.8456462767706,65.4725265185375,181.93110558524882
414923,21375,414923.0,39447.0,414923.0,36927.0,275.0756367365467,52.20922546730799,164.71361308065116
414923,21335,414923.0,39400.0,414923.0,36891.0,266.2726694988198,38.978159645419964,147.52103075097625
414923,21325,414923.0,39334.0,414923.0,36876.0,257.4415430937629,25.78805896165636,130.35943042251347
414923,21300,414923.0,39280.0,414923.0,36819.0,248.58678541672293,12.64701036871088,113.2343663878446
414923,21268,414923.0,39257.0,414923.0,36793.0,239.71215764180408,-0.4390011545708603,96.15036565095079
414923,21304,414923.0,39294.0,414923.0,36810.0,230.8203108763563,-13.467039038014036,79.11045565039603
414933,21294,414933.0,39325.0,414933.0,36812.0,221.91275530871826,-26.43725453390357,62.11608750980781
414933,21297,414933.0,39347.0,414933.0,36813.0,212.99022270786668,-39.3519908779183,45.167622679163514
414933,21287,414933.0,39383.0,414933.0,36784.0,204.0530862814088,-52.21445813805872,28.26497816370852
414933,21323,414933.0,39417.0,414933.0,36825.0,195.10169215069743,-65.02733689822799,11.408122708597148
414933,21320,414933.0,39384.0,414933.0,36801.0,186.13683919475864,-77.79145033611132,-5.402395964121979
414933,21278,414933.0,39332.0,414933.0,36765.0,177.16034450521306,-90.50494782660371,-22.164870620015563
414943,21237,414943.0,39223.0,414943.0,36706.0,168.1751682500735,-103.16356062867828,-38.876282354225395
414943,21221,414943.0,39198.0,414943.0,36660.0,159.18490158232078,-115.76192769324007,-55.53283995730271
414943,21210,414943.0,39192.0,414943.0,36656.0,150.193084976911,-128.29518628036067,-72.1308385397565
414943,21178,414943.0,39102.0,414943.0,36583.0,141.20275758016476,-140.7600605555749,-88.66737207980486
414943,21173,414943.0,39149.0,414943.0,36620.0,132.21615651177854,-153.15555961445307,-105.14081501438227
414943,21182,414943.0,39183.0,414943.0,36591.0,123.2344992396769,-165.48329110654868,-121.55102035087452
414954,21187,414954.0,39177.0,414954.0,36613.0,114.25803918259987,-177.74694122920448,-137.89908864943186
414954,21176,414954.0,39159.0,414954.0,36593.0,105.2864025908026,-189.95132377010918,-154.1868616933059
414954,21188,414954.0,39250.0,414954.0,36626.0,96.31896181888669,-202.10162140044758,-170.4163431972229
414954,21219,414954.0,39324.0,414954.0,36628.0,87.355234874095,-214.20227672833266,-186.5889857996699
414954,21179,414954.0,39253.0,414954.0,36584.0,78.395436719396,-226.25517072489356,-202.7049171465692
414954,21153,414954.0,39170.0,414954.0,36547.0,69.44086865972554,-238.25834918151918,-218.76255834827225
414964,21119,414964.0,39070.0,414964.0,36467.0,60.493743076989404,-250.20655995412324,-234.75897682534492
414964,21104,414964.0,39019.0,414964.0,36436.0,51.55661548512069,-262.09318417149836,-250.69084003106855
414964,21076,414964.0,38980.0,414964.0,36405.0,42.63181643689995,-273.9123453064477,-266.5555330177922
414964,21051,414964.0,38950.0,414964.0,36382.0,33.720978318885614,-285.66047180917917,-282.35200080025606
414964,21064,414964.0,39002.0,414964.0,36421.0,24.82464279647786,-297.337115150877,-298.0810929869408
414964,21079,414964.0,39023.0,414964.0,36422.0,15.942149204930956,-308.94486351204114,-313.7452892929564
414974,21082,414974.0,39047.0,414974.0,36404.0,7.0719738575625115,-320.4884098248589,-329.34795567259357
414974,21066,414974.0,39056.0,414974.0,36432.0,-1.787728632757421,-331.97332252935246,-344.8926065806936
414974,21100,414974.0,39114.0,414974.0,36431.0,-10.638689585455495,-343.4048892545842,-360.38226838713126
414974,21091,414974.0,39125.0,414974.0,36422.0,-19.482096827386385,-354.78688149073196,-375.81876778567084
414974,21076,414974.0,39062.0,414974.0,36369.0,-28.31809668946096,-366.12037164683227,-391.2021940334171
414974,21026,414974.0,38959.0,414974.0,36319.0,-37.14557142814408,-377.40343616230564,-406.53095186045084
414985,20990,414985.0,38925.0,414985.0,36277.0,-45.962491582978714,-388.63222426525783,-421.8024333846636
414985,20972,414985.0,38877.0,414985.0,36246.0,-54.766679384944155,-399.80267806046743,-437.0139407658821
414985,20961,414985.0,38815.0,414985.0,36216.0,-63.55653805847783,-410.9120318330831,-452.16348731405105
414985,20940,414985.0,38836.0,414985.0,36217.0,-72.33148399868764,-421.95995104467784,-467.2503253554414
414985,20974,414985.0,38887.0,414985.0,36237.0,-81.09208996748998,-432.9490844434222,-482.27506937888325
414985,20959,414985.0,38908.0,414985.0,36225.0,-89.83991099764853,-443.88456991448425,-497.23932544807394
414995,20962,414995.0,38934.0,414995.0,36224.0,-98.57706989394364,-454.77276719824033,-512.1450757887649
414995,20978,414995.0,38962.0,414995.0,36239.0,-107.30584108902633,-465.61990134705525,-526.9941159999687
414995,20991,414995.0,39026.0,414995.0,36252.0,-116.02820244063435,-476.43074018786785,-541.787455798039
414995,20968,414995.0,38956.0,414995.0,36193.0,-124.74528003091109,-487.2072489516328,-556.5246650388751
414995,20927,414995.0,38905.0,414995.0,36145.0,-133.45701578075114,-497.94782905309603,-571.2036547389896
414995,20897,414995.0,38796.0,414995.0,36100.0,-142.16239378692126,-508.6478533182917,-585.8212229835387
415004,20893,415004.0,38756.0,415004.0,36081.0,-150.8600412273696,-519.3013135507051,-600.3739792594831
415004,20848,415004.0,38703.0,415004.0,36041.0,-159.5487869792978,-529.902758940774,-614.8591231703144
415004,20839,415004.0,38689.0,415004.0,36010.0,-168.22811120726772,-540.4488556411175,-629.2750149012918
415004,20864,415004.0,38727.0,415004.0,36032.0,-176.8985001221705,-550.9392438708951,-643.6216063294528
415004,20854,415004.0,38762.0,415004.0,36052.0,-185.56143879740318,-561.3764740886818,-657.9004576074087
415004,20857,415004.0,38764.0,415004.0,36043.0,-194.21904000712925,-571.765115341416,-672.1141570955429
415015,20856,415015.0,38807.0,415015.0,36027.0,-202.87365307827724,-582.1105861736842,-686.265569585968
415015,20887,415015.0,38866.0,415015.0,36075.0,-211.52749721973794,-592.4179427225247,-700.3572749958591
415015,20887,415015.0,38873.0,415015.0,36047.0,-220.18211284510403,-602.6904194527922,-714.3909687746982
415015,20842,415015.0,38806.0,415015.0,36011.0,-228.8377724892548,-612.9280826169027,-728.3668340766167
415015,20804,415015.0,38719.0,415015.0,35938.0,-237.49336732699078,-623.1275434539141,-742.2834745572129
415015,20789,415015.0,38662.0,415015.0,35924.0,-246.1469230921599,-633.2830609987182,-756.1386121904802
415025,20772,415025.0,38629.0,415025.0,35911.0,-254.79627592986844,-643.3883020174171,-769.9299754144081
415025,20756,415025.0,38584.0,415025.0,35853.0,-263.43951766408395,-653.4378799435585,-783.6558717453297
415025,20739,415025.0,38597.0,415025.0,35858.0,-272.07525911631126,-663.4283815868648,-797.315584566938
415025,20749,415025.0,38605.0,415025.0,35866.0,-280.7028046274961,-673.3588271366741,-810.9096750970277
415025,20733,415025.0,38661.0,415025.0,35863.0,-289.3221690232265,-683.2304198849217,-824.4398819533703
415025,20756,415025.0,38644.0,415025.0,35874.0,-297.93390466938354,-693.0456727281176,-837.9086284271182
415035,20755,415035.0,38679.0,415035.0,35883.0,-306.53876088532115,-702.8073627138549,-851.3184045503976
415035,20780,415035.0,38751.0,415035.0,35900.0,-315.1371676112793,-712.5174997525082,-864.6710643697077
415035,20746,415035.0,38710.0,415035.0,35873.0,-323.7286566456421,-722.1760888417018,-877.967082883617
415035,20730,415035.0,38616.0,415035.0,35820.0,-332.3115240068395,-731.7801937123982,-891.2051146085123
415035,20690,415035.0,38541.0,415035.0,35778.0,-340.8829499808271,-741.3243603126703,-904.3822160131695
415035,20645,415035.0,38503.0,415035.0,35729.0,-349.4395303660458,-750.802297013013,-917.4946509199219
415046,20639,415046.0,38491.0,415046.0,35696.0,-357.97803484555914,-760.2086318676384,-930.5388883858648
415046,20609,415046.0,38433.0,415046.0,35665.0,-366.4961173645513,-769.5400590522979,-943.5125179511217
415046,20633,415046.0,38474.0,415046.0,35691.0,-374.9927276709624,-778.7960061787869,-956.4148759419277
415046,20637,415046.0,38514.0,415046.0,35704.0,-383.4681127887818,-787.978778065135,-969.2470995835363
415046,20646,415046.0,38516.0,415046.0,35711.0,-391.92343072251197,-797.0929058055867,-982.0115603806466
415046,20642,415046.0,38563.0,415046.0,35710.0,-400.3602050734596,-806.144018801717,-994.7110571994649
415056,20656,415056.0,38645.0,415056.0,35732.0,-408.77984112659385,-815.1375533042801,-1007.3480927859034
415056,20679,415056.0,38620.0,415056.0,35715.0,-417.183136588063,-824.0771596965753,-1019.9242174570013
415056,20614,415056.0,38531.0,415056.0,35704.0,-425.5697747973942,-832.9633952470974,-1032.4394763272464
415056,20586,415056.0,38438.0,415056.0,35611.0,-433.93822740184885,-841.793869915073,-1044.8922797792982
415056,20561,415056.0,38412.0,415056.0,35590.0,-442.28631137664104,-850.5648634056738,-1057.2799906220957
415056,20538,415056.0,38396.0,415056.0,35569.0,-450.6119633152682,-859.2731649050754,-1069.5999568074906
415066,20521,415066.0,38343.0,415066.0,35537.0,-458.9138283348533,-867.9172573025721,-1081.8503462417086
415066,20529,415066.0,38358.0,415066.0,35533.0,-467.1916272308007,-876.4980099082629,-1094.0305996123489
415066,20540,415066.0,38423.0,415066.0,35538.0,-475.4462209741886,-885.018954584847,-1106.1416287815098
415066,20533,415066.0,38412.0,415066.0,35547.0,-483.67933208945374,-893.485766832312,-1118.185685887939
415066,20543,415066.0,38435.0,415066.0,35540.0,-491.89312728669165,-901.9052127806087,-1130.165921349421
415066,20545,415066.0,38470.0,415066.0,35569.0,-500.08982319932545,-910.2841791568396,-1142.085822956414
415077,20566,415077.0,38537.0,415077.0,35576.0,-508.2712524321779,-918.628644367855,-1153.9485541823135
415077,20553,415077.0,38503.0,415077.0,35545.0,-516.4383412898035,-926.942329437589,-1165.7562341110515
415077,20498,415077.0,38403.0,415077.0,35490.0,-524.5907480532471,-935.22574704566,-1177.5095838736215
415077,20488,415077.0,38336.0,415077.0,35446.0,-532.7270260511708,-943.4766624407059,-1189.2083139206338
415077,20458,415077.0,38310.0,415077.0,35440.0,-540.8452103520166,-951.6917597901852,-1200.8519910484606
415077,20412,415077.0,38264.0,415077.0,35410.0,-548.9434618277479,-959.8683564569035,-1212.4407861627762
415087,20411,415087.0,38241.0,415087.0,35368.0,-557.0207140057154,-968.0056026956793,-1223.975940889797
415087,20427,415087.0,38270.0,415087.0,35386.0,-565.0771871730415,-976.1052356467037,-1235.4601736104037
415087,20441,415087.0,38299.0,415087.0,35408.0,-573.114393354252,-984.1717136055759,-1246.897856907556
415087,20441,415087.0,38317.0,415087.0,35426.0,-581.1346483478404,-992.2115969502295,-1258.2945899318386
415087,20438,415087.0,38340.0,415087.0,35383.0,-589.1404995721649,-1000.2325418838705,-1269.656418517673
415087,20461,415087.0,38421.0,415087.0,35429.0,-597.1342780995685,-1008.2421658347382,-1280.9892654755233
415097,20459,415097.0,38422.0,415097.0,35430.0,-605.117645289745,-1016.24663453213,-1292.2984980244453
415097,20417,415097.0,38344.0,415097.0,35390.0,-613.0911602656205,-1024.2493348042997,-1303.5883650556698
415097,20381,415097.0,38251.0,415097.0,35330.0,-621.0542587626993,-1032.2507095333071,-1314.8617573760941
415097,20365,415097.0,38211.0,415097.0,35304.0,-629.0057789256205,-1040.2495966681913,-1326.120744111896
415097,20355,415097.0,38219.0,415097.0,35286.0,-636.9446151580219,-1048.2450260088751,-1337.3674844805087
415097,20325,415097.0,38163.0,415097.0,35226.0,-644.8701540026708,-1056.2373951380525,-1348.604992737841
415108,20320,415108.0,38135.0,415108.0,35247.0,-652.7825750554306,-1064.2291257011896,-1359.8377481275272
415108,20344,415108.0,38204.0,415108.0,35266.0,-660.6830452629864,-1072.225178446474,-1371.072030330013
415108,20344,415108.0,38206.0,415108.0,35274.0,-668.5735738724516,-1080.2329999389128,-1382.3156342116051
415108,20314,415108.0,38231.0,415108.0,35269.0,-676.456608948467,-1088.2616903261887,-1393.5771539065108
415108,20341,415108.0,38277.0,415108.0,35312.0,-684.3347680007159,-1096.320914046656,-1404.865260972404
415108,20349,415108.0,38364.0,415108.0,35309.0,-692.2106459860743,-1104.4196240343126,-1416.1879379061422
415118,20353,415118.0,38283.0,415118.0,35268.0,-700.0863849089299,-1112.564487827138,-1427.5517052051205
415118,20304,415118.0,38219.0,415118.0,35209.0,-707.9632133868445,-1120.7589239595316,-1438.9613881315208
415118,20281,415118.0,38157.0,415118.0,35192.0,-715.8414499060746,-1129.0036611307964,-1450.4206799859257
415118,20263,415118.0,38086.0,415118.0,35159.0,-723.7210000854304,-1137.2983687464573,-1461.9330160393215
415118,20231,415118.0,38048.0,415118.0,35112.0,-731.6019634291445,-1145.6434703785983,-1473.5023168256669
415118,20207,415118.0,38020.0,415118.0,35112.0,-739.4851735025587,-1154.0417272933219,-1485.1336391252594
415128,20251,415128.0,38105.0,415128.0,35113.0,-747.3726128338507,-1162.4991791722366,-1496.8336576037225
415128,20254,415128.0,38121.0,415128.0,35109.0,-755.2673665759545,-1171.02493802348,-1508.610721951557
415128,20242,415128.0,38141.0,415128.0,35125.0,-763.1730764175002,-1179.6300111538787,-1520.4745479973735
415128,20241,415128.0,38151.0,415128.0,35135.0,-771.0934248644485,-1188.3260130020317,-1532.435714547114
415128,20265,415128.0,38227.0,415128.0,35155.0,-779.0318562031135,-1197.124103457044,-1544.5049818352877
415128,20263,415128.0,38245.0,415128.0,35172.0,-786.9912183346299,-1206.03373542276,-1556.6924535199996
415139,20248,415139.0,38148.0,415139.0,35100.0,-794.9732788322696,-1215.0613731843146,-1569.0068267577349
415139,20191,415139.0,38097.0,415139.0,35048.0,-802.9785219041513,-1224.210235642748,-1581.455286563741
415139,20169,415139.0,38015.0,415139.0,35046.0,-811.0065317887515,-1233.4814588361564,-1594.044218219124
415139,20150,415139.0,37977.0,415139.0,35007.0,-819.0567541223126,-1242.8759065947415,-1606.7800696607005
415139,20126,415139.0,37912.0,415139.0,34976.0,-827.1291839956987,-1252.3959128743195,-1619.6699042545215
415139,20132,415139.0,37947.0,415139.0,34983.0,-835.2247985763632,-1262.0466602525098,-1632.721811705021
415149,20150,415149.0,38014.0,415149.0,34984.0,-843.345687745718,-1271.8367148734953,-1645.9451202028167
415149,20138,415149.0,38020.0,415149.0,34998.0,-851.4948179616226,-1281.7773372097613,-1659.3501747981231
415149,20143,415149.0,38026.0,415149.0,34999.0,-859.6756255836204,-1291.8811390601647,-1672.9477808650424
415149,20135,415149.0,38107.0,415149.0,35008.0,-867.8917046785117,-1302.1608635446119,-1686.7485450582633
415149,20172,415149.0,38150.0,415149.0,35019.0,-876.1465203962778,-1312.628059029146,-1700.7622065152937
415149,20170,415149.0,38115.0,415149.0,34985.0,-884.442917104252,-1323.2914260077562,-1714.9970186842963
415160,20116,415160.0,37990.0,415160.0,34947.0,-892.7825709314566,-1334.155826185438,-1729.4594344368948
415160,20077,415160.0,37947.0,415160.0,34905.0,-901.1659674444311,-1345.2229511834344,-1744.1543390733195
415160,20055,415160.0,37890.0,415160.0,34872.0,-909.5930784410606,-1356.4931508443726,-1759.0856994680003
415160,20040,415160.0,37857.0,415160.0,34834.0,-918.0642035798551,-1367.9672108791954,-1774.2573155142618
415160,20036,415160.0,37834.0,415160.0,34822.0,-926.580509358172,-1379.647598174828,-1789.6734835007142
415160,20024,415160.0,37867.0,415160.0,34831.0,-935.1442411383023,-1391.5391615754886,-1805.3393952245262
415170,20040,415170.0,37908.0,415170.0,34852.0,-943.7587174618054,-1403.6490694868567,-1821.2610419950352
415170,20062,415170.0,37911.0,415170.0,34828.0,-952.4280782492793,-1415.985943673516,-1837.444649670276
415170,20046,415170.0,37974.0,415170.0,34837.0,-961.1567624992431,-1428.558601867336,-1853.8960351171627
415170,20075,415170.0,38003.0,415170.0,34867.0,-969.9489177325113,-1441.3746598675618,-1870.6200518725639
415170,20060,415170.0,38004.0,415170.0,34845.0,-978.8078887795615,-1454.4390212017424,-1887.619902219106
415170,20037,415170.0,37955.0,415170.0,34806.0,-987.7358262604245,-1467.7526912453382,-1904.896465284566
415180,19992,415180.0,37858.0,415180.0,34752.0,-996.7336494060926,-1481.3125794352995,-1922.4481793774592
415180,19971,415180.0,37806.0,415180.0,34700.0,-1005.80149874187,-1495.1124939422784,-1940.2716181685378
415180,19965,415180.0,37767.0,415180.0,34703.0,-1014.9393831360791,-1509.1447824853026,-1958.3623560189867
415180,19935,415180.0,37689.0,415180.0,34645.0,-1024.147654910153,-1523.4018828349515,-1976.7156348401027
415180,19932,415180.0,37736.0,415180.0,34656.0,-1033.4272907424697,-1537.8775039563022,-1995.326723337186
415180,19977,415180.0,37784.0,415180.0,34655.0,-1042.779976327429,-1552.5670636319255,-2014.191025449682
415191,19944,415191.0,37771.0,415191.0,34661.0,-1052.2077944112507,-1567.46700635256,-2033.30380862196
415191,19943,415191.0,37790.0,415191.0,34639.0,-1061.712724597372,-1582.573598626654,-2052.6596350297964
415191,19944,415191.0,37812.0,415191.0,34672.0,-1071.2963818645464,-1597.8819324000597,-2072.2517731720245
415191,19960,415191.0,37894.0,415191.0,34687.0,-1080.959852079346,-1613.3848797116668,-2092.0715009698365
415191,19948,415191.0,37846.0,415191.0,34649.0,-1090.7033350648649,-1629.0716466360595,-2112.1071994172926
415191,19918,415191.0,37734.0,415191.0,34576.0,-1100.5257854250335,-1644.9266856552329,-2132.3437693137084
415201,19871,415201.0,37663.0,415201.0,34551.0,-1110.4249457469277,-1660.9301243838895,-2152.7629057206295
415201,19854,415201.0,37646.0,415201.0,34513.0,-1120.3978693526903,-1677.0594561574856,-2173.3438946922897
415201,19840,415201.0,37577.0,415201.0,34472.0,-1130.4416007791663,-1693.291177690722,-2194.064323724032
415201,19815,415201.0,37519.0,415201.0,34440.0,-1140.5536619457248,-1709.6019636960546,-2214.900633723555
415201,19838,415201.0,37608.0,415201.0,34489.0,-1150.7322833876542,-1725.969563360103,-2235.8284747703997
415201,19841,415201.0,37638.0,415201.0,34461.0,-1160.9763340868008,-1742.3728021877887,-2256.8225001293554
415211,19830,415211.0,37657.0,415211.0,34475.0,-1171.284939839956,-1758.7903135247082,-2277.8556458534376
415211,19827,415211.0,37671.0,415211.0,34434.0,-1181.6570735264495,-1775.1988726784825,-2298.898441183727
415211,19860,415211.0,37719.0,415211.0,34491.0,-1192.0912407562435,-1791.5720163444996,-2319.9185145520414
415211,19862,415211.0,37697.0,415211.0,34455.0,-1202.5849917844562,-1807.878798354734,-2340.87997842567
415211,19828,415211.0,37644.0,415211.0,34410.0,-1213.1342820096697,-1824.0828263079466,-2361.74275678551
415211,19791,415211.0,37537.0,415211.0,34363.0,-1223.7331971900485,-1840.1422458955146,-2382.462439235152
415222,19760,415222.0,37486.0,415222.0,34325.0,-1234.3743045705432,-1856.010927062639,-2402.9908006509895
415222,19751,415222.0,37461.0,415222.0,34301.0,-1245.0493002433827,-1871.6401976590892,-2423.2765102068624
415222,19738,415222.0,37421.0,415222.0,34264.0,-1255.7495097809492,-1886.980223471479,-2443.2656852677887
415222,19702,415222.0,37424.0,415222.0,34249.0,-1266.4661574061479,-1901.9807710834968,-2462.9022756141944
415222,19727,415222.0,37439.0,415222.0,34260.0,-1277.190555754442,-1916.5914664666843,-2482.1282534244424
415222,19747,415222.0,37488.0,415222.0,34241.0,-1287.9140788964892,-1930.7614456895224,-2500.8834752369585
415232,19736,415232.0,37493.0,415232.0,34263.0,-1298.627692248111,-1944.4383690234065,-2519.1052501497356
415232,19745,415232.0,37475.0,415232.0,34269.0,-1309.3213067829674,-1957.5672554394139,-2536.7277335836548
415232,19757,415232.0,37568.0,415232.0,34282.0,-1319.9832593823387,-1970.0895297813775,-2553.681146622811
415232,19731,415232.0,37530.0,415232.0,34243.0,-1330.5998650165398,-1981.9420213271826,-2569.890986993553
415232,19696,415232.0,37429.0,415232.0,34176.0,-1341.1551605409636,-1993.0560977814355,-2585.2777014266967
415232,19661,415232.0,37347.0,415232.0,34117.0,-1351.6311198242593,-2003.3580315797121,-2599.7572002499824
415242,19639,415242.0,37320.0,415242.0,34084.0,-1362.0082557260591,-2012.7707261873884,-2613.2420285704484
415242,19617,415242.0,37249.0,415242.0,34058.0,-1372.266269515062,-2021.2156573096172,-2625.64257749409
415242,19616,415242.0,37238.0,415242.0,34023.0,-1382.3845216925956,-2028.6143838890573,-2636.8679658297115
415242,19618,415242.0,37265.0,415242.0,34055.0,-1392.342225708765,-2034.889578790163,-2646.8265830184137
415242,19618,415242.0,37326.0,415242.0,34062.0,-1402.118344998501,-2039.9652336126655,-2655.4261788439735
415242,19634,415242.0,37331.0,415242.0,34063.0,-1411.6912729356145,-2043.7658802590136,-2662.5734543160465
415253,19623,415253.0,37356.0,415253.0,34029.0,-1421.0384016226749,-2046.2154226472471,-2668.173595859368
415253,19632,415253.0,37399.0,415253.0,34067.0,-1430.1356915258536,-2047.236139570173,-2672.1301342658244
415253,19634,415253.0,37379.0,415253.0,34041.0,-1438.957303403657,-2046.7478551063493,-2674.344925059465
415253,19605,415253.0,37326.0,415253.0,33998.0,-1447.4753014072917,-2044.667465289524,-2674.7181562562455
415253,19559,415253.0,37250.0,415253.0,33944.0,-1455.659628539615,-2040.9094064629464,-2673.148837977411
415253,19538,415253.0,37204.0,415253.0,33916.0,-1463.4785719122124,-2035.3871752541404,-2669.5359673637763
415263,19549,415263.0,37172.0,415263.0,33902.0,-1470.8994435413422,-2028.0153059193349,-2663.779918727683
415263,19498,415263.0,37116.0,415263.0,33867.0,-1477.8890365295838,-2018.7112290431037,-2655.783637207652
415263,19508,415263.0,37140.0,415263.0,33865.0,-1484.4139163700015,-2007.396856477322,-2645.4536472221534
415263,19527,415263.0,37171.0,415263.0,33882.0,-1490.4406577216519,-1993.9996846976342,-2632.7009172935313
415263,19517,415263.0,37187.0,415263.0,33900.0,-1495.9357788178204,-1978.4531317177034,-2617.441385926575
415263,19519,415263.0,37195.0,415263.0,33883.0,-1500.8654251811158,-1960.6963952408576,-2599.596173671077
415273,19530,415273.0,37267.0,415273.0,33938.0,-1505.1951113356372,-1940.6742794172928,-2579.0917815655957
415273,19526,415273.0,37336.0,415273.0,33961.0,-1508.8895094723566,-1918.3367857557937,-2555.860233985749
415273,19522,415273.0,37319.0,415273.0,33928.0,-1511.9122315456543,-1893.638293916477,-2529.8390873206763
415273,19490,415273.0,37262.0,415273.0,33929.0,-1514.2257739136846,-1866.5371293273324,-2500.9717883135954
415273,19467,415273.0,37225.0,415273.0,33908.0,-1515.7917956905505,-1836.996429769719,-2469.208685608193
415273,19450,415273.0,37184.0,415273.0,33887.0,-1516.5717057096435,-1804.9861240587315,-2434.50841703809
415284,19428,415284.0,37181.0,415284.0,33875.0,-1516.5273529099977,-1770.4852003271035,-2396.8394779388423
415284,19406,415284.0,37160.0,415284.0,33897.0,-1515.6216938883013,-1733.4837508236715,-2356.181852391226
415284,19410,415284.0,37220.0,415284.0,33961.0,-1513.8194287199674,-1693.9846097108716,-2312.5283157842177
415284,19455,415284.0,37318.0,415284.0,34020.0,-1511.087399818136,-1652.0042583337163,-2265.885018742906
415284,19454,415284.0,37391.0,415284.0,34071.0,-1507.3944756933138,-1607.572639652457,-2216.271421444755
415284,19459,415284.0,37461.0,415284.0,34123.0,-1502.7111169856921,-1560.7321808105503,-2163.720039523131
415294,19482,415294.0,37603.0,415294.0,34223.0,-1497.009062902207,-1511.5366057045483,-2108.276233650639
415294,19506,415294.0,37698.0,415294.0,34306.0,-1490.2611187798889,-1460.0494997687124,-2049.9978029483937
415294,19496,415294.0,37680.0,415294.0,34327.0,-1482.4408635578216,-1406.3427608399718,-1988.9543605142512
415294,19451,415294.0,37662.0,415294.0,34380.0,-1473.5225674293702,-1350.49603293391,-1925.227053814258
415294,19440,415294.0,37707.0,415294.0,34427.0,-1463.4817272927976,-1292.597691290852,-1858.9089211167375
415294,19457,415294.0,37745.0,415294.0,34510.0,-1452.2960042851548,-1232.7464107844517,-1790.1054583738003
415304,19453,415304.0,37781.0,415304.0,34597.0,-1439.945953016053,-1171.0523252082107,-1718.9349098554133
415304,19453,415304.0,37930.0,415304.0,34712.0,-1426.4154055974986,-1107.6376123232083,-1645.5280969737832
415304,19478,415304.0,38063.0,415304.0,34839.0,-1411.691770123878,-1042.6362096716034,-1570.0277450372578
415304,19519,415304.0,38207.0,415304.0,34967.0,-1395.7661975719545,-976.1923516182596,-1492.587338103134
415304,19537,415304.0,38283.0,415304.0,35091.0,-1378.6334111045983,-908.4584899376664,-1413.369661238013
415304,19571,415304.0,38461.0,415304.0,35263.0,-1360.2913235333867,-839.5933724279852,-1332.5451749848535
415315,19604,415315.0,38655.0,415315.0,35432.0,-1340.7406657208016,-769.7600742938592,-1250.290081195525
415315,19626,415315.0,38716.0,415315.0,35525.0,-1319.9846442050205,-699.1234955408672,-1166.7840666368654
415315,19629,415315.0,38793.0,415315.0,35622.0,-1298.0286948075222,-627.8480517154438,-1082.2083561592035
415315,19624,415315.0,38838.0,415315.0,35702.0,-1274.8805547270015,-556.0966050068046,-996.7446585293974
415315,19633,415315.0,38876.0,415315.0,35803.0,-1250.5507318628192,-484.0305393307085,-910.5748149113831
415315,19639,415315.0,38964.0,415315.0,35921.0,-1225.0531788538697,-411.8103346228439,-823.8805997311085
415325,19666,415325.0,39055.0,415325.0,36021.0,-1198.405920538346,-339.59605227319184,-736.8433179312063
415325,19730,415325.0,39226.0,415325.0,36173.0,-1170.6314137844856,-267.5471537820247,-649.6431178500077
415325,19761,415325.0,39355.0,415325.0,36320.0,-1141.756452917865,-195.82132972893487,-562.4579430266008
415325,19813,415325.0,39460.0,415325.0,36452.0,-1111.8117232239726,-124.57261519801864,-475.46204020574555
415325,19874,415325.0,39583.0,415325.0,36564.0,-1080.8312606953468,-53.949509038419365,-388.8243051616207
415325,19921,415325.0,39753.0,415325.0,36716.0,-1048.8518392946808,15.906693491508804,-302.70682093510277
415335,19973,415335.0,39856.0,415335.0,36823.0,-1015.9122826132816,84.8637723208376,-217.2635263662205
415335,20006,415335.0,39887.0,415335.0,36877.0,-982.0528606371108,152.80045856137576,-132.63904611268686
415335,20013,415335.0,39857.0,415335.0,36946.0,-947.3149585726168,219.60723647875102,-48.96816084450484
415335,20025,415335.0,39886.0,415335.0,36984.0,-911.7411945150111,285.18548241505664,33.62388065125765
415335,20063,415335.0,39916.0,415335.0,37061.0,-875.3759319959087,349.4456606215101,115.02057002949846
415335,20100,415335.0,39955.0,415335.0,37110.0,-838.2657994898702,412.30566191210664,195.1132794521452
415346,20151,415346.0,40028.0,415346.0,37207.0,-800.4599118745348,473.6896928123517,273.8005636097005
415346,20223,415346.0,40131.0,415346.0,37313.0,-762.009751851958,533.5277826454198,350.98782353643355
415346,20265,415346.0,40211.0,415346.0,37418.0,-722.9687502117404,591.7560223288258,426.5875216996153
415346,20333,415346.0,40290.0,415346.0,37472.0,-683.3917110010968,648.3173226379488,500.51977536935374
415346,20367,415346.0,40343.0,415346.0,37558.0,-643.3342802225438,703.1621961696824,572.7128110115291
415346,20441,415346.0,40509.0,415346.0,37679.0,-602.8525109282433,756.2494737825295,643.1031932493945
415356,20492,415356.0,40506.0,415356.0,37703.0,-562.0024298205576,807.5472788797824,711.6361707053547
415356,20517,415356.0,40467.0,415356.0,37740.0,-520.8395934272717,857.0337771951645,778.2659019837588
415356,20540,415356.0,40436.0,415356.0,37757.0,-479.41889512061596,904.6965192413293,842.9549766989935
415356,20579,415356.0,40428.0,415356.0,37789.0,-437.79478712278365,950.530376145879,905.6733099507974
415356,20599,415356.0,40417.0,415356.0,37816.0,-396.02170119900836,994.5351783077895,966.3968769368942
415356,20656,415356.0,40464.0,415356.0,37841.0,-354.15442948966836,1036.7137775236283,1025.1065133377124
415366,20731,415366.0,40532.0,415366.0,37922.0,-312.2482795503977,1077.070846301328,1081.7868976304794
415366,20770,415366.0,40594.0,415366.0,38019.0,-270.35883182708335,1115.6126207131233,1136.4260498898125
415366,20827,415366.0,40648.0,415366.0,38079.0,-228.54147383564919,1152.3473559449567,1189.015604598139
415366,20897,415366.0,40719.0,415366.0,38144.0,-186.85097840160188,1187.286024840539,1239.551503710199
415366,20955,415366.0,40823.0,415366.0,38220.0,-145.34103512433796,1220.4431761961937,1288.0346124090652
415366,21028,415366.0,40885.0,415366.0,38264.0,-104.06361389639858,1251.8381629090231,1334.4712192333195
415377,21069,415377.0,40848.0,415377.0,38270.0,-63.068270047678766,1281.4964096301032,1378.8733659081731
415377,21059,415377.0,40769.0,415377.0,38252.0,-22.401692993154597,1309.4496426719666,1421.2585978917937
415377,21076,415377.0,40760.0,415377.0,38259.0,17.89210454906629,1335.734502570347,1461.6489389603885
415377,21110,415377.0,40740.0,415377.0,38282.0,57.77101292967245,1360.390359925404,1500.0695021244323
415377,21137,415377.0,40718.0,415377.0,38322.0,97.19403763385458,1383.457401892672,1536.5473615180126
415377,21208,415377.0,40726.0,415377.0,38360.0,136.12087887864686,1404.9751641484509,1571.1109698168939
415387,21256,415387.0,40808.0,415387.0,38406.0,174.51194281642483,1424.981535389817,1603.7900252122258
415387,21307,415387.0,40874.0,415387.0,38427.0,212.32870065914506,1443.512704634235,1634.6155603740272
415387,21352,415387.0,40893.0,415387.0,38475.0,249.53413999476356,1460.6040703356066,1663.6200601977575
415387,21404,415387.0,40932.0,415387.0,38504.0,286.093139550326,1476.2913229157166,1690.837576979488
415387,21472,415387.0,41034.0,415387.0,38583.0,321.972857642617,1490.6113130254557,1716.3039937517306
415387,21500,415387.0,41022.0,415387.0,38598.0,357.1432325903894,1503.6030747098985,1740.0575581266335
415398,21517,415398.0,40970.0,415398.0,38565.0,391.57739782600004,1515.3087209780206,1762.1393657387525
415398,21531,415398.0,40928.0,415398.0,38551.0,425.2516828148521,1525.7732451978673,1782.5931383923462
415398,21539,415398.0,40884.0,415398.0,38553.0,458.14517637351173,1535.0431601800783,1801.4642429775745
415398,21571,415398.0,40857.0,415398.0,38552.0,490.23910815195836,1543.1647627643374,1818.7985993719644
415398,21582,415398.0,40799.0,415398.0,38541.0,521.5162877694045,1550.1824878882671,1834.6418462207448
415398,21634,415398.0,40917.0,415398.0,38568.0,551.9607196006384,1556.1376157762793,1849.0386842057464
415408,21680,415408.0,40958.0,415408.0,38633.0,581.5574909187758,1561.0680411558665,1862.0325390256207
415408,21716,415408.0,40987.0,415408.0,38670.0,610.2929946305378,1565.0093500650764,1873.6658968008242
415408,21757,415408.0,41016.0,415408.0,38689.0,638.1553251922387,1567.9962599662322,1883.981170863026
415408,21811,415408.0,41115.0,415408.0,38727.0,665.1346822022251,1570.0638209550448,1893.0215501226821
415408,21853,415408.0,41102.0,415408.0,38744.0,691.2238508597907,1571.2487351221962,1900.8316333590305
415408,21852,415408.0,41051.0,415408.0,38702.0,716.4187049652899,1571.590548047579,1907.457843982943
415418,21845,415418.0,40962.0,415418.0,38683.0,740.7183481883003,1571.131691277803,1912.9483162256215
415418,21857,415418.0,40950.0,415418.0,38644.0,764.1246812514901,1569.9161741638122,1917.3521176939066
415418,21857,415418.0,40909.0,415418.0,38649.0,786.6416824370046,1567.987870803449,1920.7181953036102
415418,21853,415418.0,40846.0,415418.0,38614.0,808.2747069497061,1565.38910292133,1923.0944558609517
415418,21891,415418.0,40836.0,415418.0,38624.0,829.0298637121448,1562.1593695622705,1924.5270667475697
415418,21922,415418.0,40919.0,415418.0,38653.0,848.9136394238419,1558.3343699831446,1925.0600217205683
415429,21966,415429.0,40939.0,415429.0,38671.0,867.9329740922085,1553.9460793966255,1924.7351808108
415429,21973,415429.0,40970.0,415429.0,38678.0,886.0956421218884,1549.0238703428017,1923.5927424261786
415429,21996,415429.0,40982.0,415429.0,38704.0,903.4105805409663,1543.5957983281214,1921.671804297022
415429,22057,415429.0,41081.0,415429.0,38764.0,919.8880932821739,1537.6897391136702,1919.0109896974977
415429,22055,415429.0,41032.0,415429.0,38722.0,935.5401841939195,1531.3346782614392,1915.6492874270493
415429,22028,415429.0,40946.0,415429.0,38677.0,950.3808727401808,1524.561668353964,1911.626628722634
415439,22044,415439.0,40898.0,415439.0,38640.0,964.4259961927237,1517.40344715649,1906.9835542741985
415439,22037,415439.0,40827.0,415439.0,38608.0,977.6926031020209,1509.8928594089994,1901.7601845737827
415439,22043,415439.0,40774.0,415439.0,38593.0,990.1984050238427,1502.0610040257575,1895.9951520345367
415439,22029,415439.0,40777.0,415439.0,38571.0,1001.9613365554553,1493.935605527443,1889.7247951351133
415439,22049,415439.0,40861.0,415439.0,38575.0,1012.9991057445347,1485.5401227489783,1882.9826295460107
415439,22077,415439.0,40867.0,415439.0,38602.0,1023.3288759610884,1476.8941443906565,1875.7991557860696
415449,22088,415449.0,40869.0,415449.0,38606.0,1032.9672790149814,1468.0146274589251,1868.202115659079
415449,22120,415449.0,40899.0,415449.0,38607.0,1041.9306881377563,1458.9169903781751,1860.2170467297378
415449,22153,415449.0,40963.0,415449.0,38668.0,1050.2356126782113,1449.615993428176,1851.8679072813752
415449,22171,415449.0,40953.0,415449.0,38677.0,1057.8992261214996,1440.1269018036528,1843.1779186536323
415449,22157,415449.0,40927.0,415449.0,38615.0,1064.9398771387312,1430.466655578932,1834.1705128713197
415449,22125,415449.0,40820.0,415449.0,38555.0,1071.3771945556996,1420.6541859932056,1824.8695692493097
415460,22112,415460.0,40753.0,415460.0,38560.0,1077.2315974445003,1410.7094383622034,1815.2986478019193
415460,22120,415460.0,40708.0,415460.0,38504.0,1082.5235132698253,1400.6515057624115,1805.4799796127477
415460,22090,415460.0,40661.0,415460.0,38488.0,1087.2727284230275,1390.4967390200968,1795.43371530082
415460,22111,415460.0,40699.0,415460.0,38488.0,1091.4979251368052,1380.2574435784834,1785.177327670829
415460,22145,415460.0,40751.0,415460.0,38520.0,1095.2164223644618,1369.9415310513514,1774.7253399231804
415460,22154,415460.0,40765.0,415460.0,38522.0,1098.4443426340422,1359.5532707792877,1764.089654090068
415470,22161,415470.0,40785.0,415470.0,38516.0,1101.1970828954175,1349.0946028178398,1753.2802262629996
415470,22172,415470.0,40807.0,415470.0,38532.0,1103.4896982594244,1338.5663302122457,1742.3056551464078
415470,22200,415470.0,40875.0,415470.0,38574.0,1105.3371677723696,1327.9692167871076,1731.173732178255
415470,22212,415470.0,40858.0,415470.0,38546.0,1106.7547623212238,1317.3052838465367,1719.8922079200763
415470,22186,415470.0,40795.0,415470.0,38495.0,1107.7584554946527,1306.5789151664142,1708.4694284022507
415470,22153,415470.0,40702.0,415470.0,38452.0,1108.364978232545,1295.7968757206743,1696.9142117946517
415480,22134,415480.0,40620.0,415480.0,38440.0,1108.591302236704,1284.966958659307,1685.2350642993247
415480,22131,415480.0,40585.0,415480.0,38418.0,1108.453857191865,1274.0959099515883,1673.4394007937658
415480,22109,415480.0,40573.0,415480.0,38378.0,1107.967888027725,1263.1875795945598,1661.5330472124667
415480,22132,415480.0,40628.0,415480.0,38406.0,1107.1470549123806,1252.2419953541164,1649.519884802308
415480,22154,415480.0,40673.0,415480.0,38412.0,1106.0033341806204,1241.2556422491705,1637.4017676123094
415480,22162,415480.0,40689.0,415480.0,38434.0,1104.547318920822,1230.222698859764,1625.1789579645629
415491,22170,415491.0,40713.0,415491.0,38420.0,1102.788730626419,1219.1365242820837,1612.8508693767628
415491,22181,415491.0,40745.0,415491.0,38483.0,1100.736860268818,1207.9909304446203,1600.4168315763113
415491,22209,415491.0,40813.0,415491.0,38466.0,1098.4009627571882,1196.7814362807148,1587.876968681901
415491,22194,415491.0,40711.0,415491.0,38433.0,1095.7907198318387,1185.5065747686265,1575.2330772351315
415491,22171,415491.0,40661.0,415491.0,38372.0,1092.916578834952,1174.1684495542409,1562.4889010028548
415491,22138,415491.0,40593.0,415491.0,38381.0,1089.789637178825,1162.7719219429664,1549.649638569867
415501,22132,415501.0,40541.0,415501.0,38327.0,1086.4210984859878,1151.3230150812933,1536.7212623902908
415501,22109,415501.0,40503.0,415501.0,38287.0,1082.821648130242,1139.8273365839877,1523.7099506741138
415501,22117,415501.0,40530.0,415501.0,38272.0,1079.0009926966704,1128.2889019186155,1510.6214315803404
415501,22131,415501.0,40553.0,415501.0,38303.0,1074.9676621859892,1116.709740865835,1497.4604277336496
415501,22146,415501.0,40578.0,415501.0,38301.0,1070.7291636976076,1105.090412402538,1484.2306987211573
415501,22138,415501.0,40604.0,415501.0,38327.0,1066.2923932246854,1093.4310454547297,1470.9356652277515
415511,22143,415511.0,40630.0,415511.0,38328.0,1061.6640179479923,1081.7325128878333,1457.579234223914
415511,22181,415511.0,40690.0,415511.0,38365.0,1056.8507782087163,1069.9976962141923,1444.166663187197
415511,22172,415511.0,40629.0,415511.0,38336.0,1051.8599416676143,1058.2327944247886,1430.7054409579616
415511,22140,415511.0,40583.0,415511.0,38264.0,1046.6997960996869,1046.448100075902,1417.2058410166937
415511,22129,415511.0,40489.0,415511.0,38213.0,1041.379727273692,1034.657606975462,1403.6806106516397
415511,22079,415511.0,40448.0,415511.0,38213.0,1035.9098007007542,1022.8776090151323,1390.1439515158577
415522,22063,415522.0,40372.0,415522.0,38174.0,1030.300075635498,1011.1249514694747,1376.610608754652
415522,22071,415522.0,40358.0,415522.0,38131.0,1024.5598979085808,999.4154098336553,1363.0953394360538
415522,22069,415522.0,40381.0,415522.0,38148.0,1018.697511260528,987.7625518527217,1349.6124522136076
415522,22081,415522.0,40434.0,415522.0,38138.0,1012.7201083045509,976.1775355600739,1336.175516913826
415522,22078,415522.0,40425.0,415522.0,38133.0,1006.6341103872176,964.6699036005712,1322.7974823876837
415522,22079,415522.0,40454.0,415522.0,38140.0,1000.4454757647716,953.2487400452734,1309.4910079103593
415532,22109,415532.0,40509.0,415532.0,38174.0,994.1600136230959,941.9237502268434,1296.2689085440124
415532,22118,415532.0,40491.0,415532.0,38170.0,987.7838494516685,930.7064211329634,1283.1448718961942
415532,22097,415532.0,40454.0,415532.0,38126.0,981.3240172929553,919.6110475124766,1270.1342191934034
415532,22064,415532.0,40334.0,415532.0,38064.0,974.7887759439868,908.6548340615004,1257.254084890652
415532,22026,415532.0,40285.0,415532.0,38041.0,968.1873453232458,897.8566968162102,1244.522787663875
415532,22028,415532.0,40270.0,415532.0,38019.0,961.529254992933,887.2353946102252,1231.9588961433408
415542,21990,415542.0,40197.0,415542.0,37980.0,954.8237194092275,876.807965439133,1219.580510925944
415542,21991,415542.0,40220.0,415542.0,37955.0,948.0791913812271,866.5887018998109,1207.4047238269463
415542,22006,415542.0,40261.0,415542.0,37957.0,941.3030894013082,856.5886489795166,1195.447120229639
415542,22040,415542.0,40295.0,415542.0,37983.0,934.5019090439949,846.8159920540791,1183.7215769510854
415542,22016,415542.0,40282.0,415542.0,37983.0,927.6817768800281,837.2771647399802,1172.2406020143294
415542,22025,415542.0,40342.0,415542.0,37990.0,920.8490257570838,827.9779720683839,1161.0160094549674
415553,22039,415553.0,40372.0,415553.0,38015.0,914.0105261355533,818.9246457824219,1150.0596130484726
415553,22030,415553.0,40342.0,415553.0,37987.0,907.1739817114195,810.1250197569548,1139.383873806105
415553,21982,415553.0,40292.0,415553.0,37934.0,900.3481708866631,801.589303203986,1129.002282286528
415553,21963,415553.0,40208.0,415553.0,37904.0,893.5427594497544,793.3297916700815,1118.9290928335383
415553,21945,415553.0,40152.0,415553.0,37860.0,886.7677003755442,785.3595620444944,1109.1785104923192
415553,21918,415553.0,40123.0,415553.0,37821.0,880.0326130406092,777.6907441456007,1099.7637348965745
415563,21900,415563.0,40072.0,415563.0,37824.0,873.3462751071305,770.3329816719248,1090.6960853127885
415563,21914,415563.0,40118.0,415563.0,37834.0,866.7162085594355,763.2923877283123,1081.9844634385204
415563,21920,415563.0,40182.0,415563.0,37841.0,860.1485457972623,756.5713204477715,1073.6353782276365
415563,21915,415563.0,40176.0,415563.0,37837.0,853.648250421953,750.1692071923264,1065.6533482964915
415563,21929,415563.0,40223.0,415563.0,37850.0,847.219465859446,744.0838587005655,1058.0413437349737
415563,21956,415563.0,40283.0,415563.0,37888.0,840.865908682351,738.3127207072807,1050.8012610974097
415573,21956,415573.0,40288.0,415573.0,37908.0,834.5914360083029,732.8542229577688,1043.9346641946229
415573,21926,415573.0,40266.0,415573.0,37838.0,828.400620901839,727.7090637805684,1037.4436044327836
415573,21902,415573.0,40140.0,415573.0,37813.0,822.2989106684323,722.8806005294616,1031.3308103144116
415573,21878,415573.0,40119.0,415573.0,37792.0,816.292274800097,718.3738541051705,1025.5990497322596
415573,21859,415573.0,40064.0,415573.0,37773.0,810.3866358393337,714.1936920763583,1020.2502983964221
415573,21831,415573.0,40038.0,415573.0,37735.0,804.5873076086772,710.3431636671495,1015.2851048924731
415584,21826,415584.0,40032.0,415584.0,37731.0,798.8984770502607,706.8223264618204,1010.7020066096043
415584,21851,415584.0,40083.0,415584.0,37762.0,793.3228610526282,703.6276295042251,1006.4970734299673
415584,21857,415584.0,40122.0,415584.0,37768.0,787.8617809794506,700.752132070286,1002.663935405262
415584,21867,415584.0,40129.0,415584.0,37789.0,782.5156204082457,698.1864631097546,999.1942884749242
415584,21868,415584.0,40146.0,415584.0,37801.0,777.2843523550301,695.9198881462291,996.0785404646911
415584,21895,415584.0,40261.0,415584.0,37856.0,772.1679983521683,693.9412754790231,993.3065106036504
415594,21881,415594.0,40244.0,415594.0,37830.0,767.1670962738524,692.2404173508908,990.8682638059938
415594,21846,415594.0,40156.0,415594.0,37800.0,762.283041312681,690.8093360817516,988.7547501687427
415594,21821,415594.0,40108.0,415594.0,37760.0,757.5179681971551,689.6422985197858,986.9577278803407
415594,21797,415594.0,40064.0,415594.0,37725.0,752.8741786542187,688.7344216918336,985.4689880461726
415594,21786,415594.0,40031.0,415594.0,37723.0,748.3534682048958,688.0799687310455,984.279359303253
415594,21759,415594.0,40022.0,415594.0,37682.0,743.9565728130442,687.6710030880149,983.3778628423354
415604,21778,415604.0,40030.0,415604.0,37736.0,739.6827616459941,687.496510511781,982.7511557583666
415604,21808,415604.0,40086.0,415604.0,37756.0,735.5297337784948,687.5421368005306,982.3834695101568
415604,21827,415604.0,40137.0,415604.0,37764.0,731.4940333776652,687.7907197676489,982.2571451060079
415604,21811,415604.0,40191.0,415604.0,37787.0,727.5717749949927,688.2235490953364,982.3533708932789
415604,21850,415604.0,40237.0,415604.0,37839.0,723.7592419453647,688.8219903431283,982.6528644763455
415604,21844,415604.0,40263.0,415604.0,37837.0,720.0533437229908,689.5690912093856,983.1366895873718
415615,21820,415615.0,40205.0,415615.0,37823.0,716.4520317281901,690.4507679045424,983.7870547177722
415615,21778,415615.0,40137.0,415615.0,37767.0,712.9543577003781,691.4559852902665,984.587533543244
415615,21764,415615.0,40094.0,415615.0,37772.0,709.5599685043392,692.5757045812325,985.5225397454619
415615,21748,415615.0,40084.0,415615.0,37753.0,706.2683651481877,693.8012546620164,986.5765262682264
415615,21732,415615.0,40038.0,415615.0,37714.0,703.0783004410548,695.1229469362794,987.7333223593024
415615,21744,415615.0,40059.0,415615.0,37741.0,699.987396263905,696.5291141192796,988.9755562938223
415625,21750,415625.0,40093.0,415625.0,37782.0,696.9920128788483,698.0055955618325,990.2843241826483
415625,21779,415625.0,40117.0,415625.0,37794.0,694.0874492797668,699.535894121296,991.6395020774999
415625,21765,415625.0,40141.0,415625.0,37812.0,691.2683937501403,701.1018775400888,993.0204975836655
415625,21775,415625.0,40154.0,415625.0,37824.0,688.5293596671086,702.6845755907719,994.4069316443313
415625,21800,415625.0,40281.0,415625.0,37880.0,685.8649954123766,704.2650634413387,995.7792268656724
415625,21798,415625.0,40254.0,415625.0,37853.0,683.2704486713616,705.8258021764527,997.119301353685
415636,21756,415636.0,40192.0,415636.0,37803.0,680.7417185050215,707.3519574460314,998.411042866878
415636,21745,415636.0,40131.0,415636.0,37796.0,678.275586556809,708.8314683976653,999.6400215078262
415636,21737,415636.0,40101.0,415636.0,37770.0,675.8691295483353,710.2537479717712,1000.7926519426507
415636,21713,415636.0,40083.0,415636.0,37763.0,673.5192199392288,711.608077412892,1001.8554107140673
415636,21700,415636.0,40023.0,415636.0,37728.0,671.222124133051,712.8823287831332,1002.8142244491773
415636,21711,415636.0,40082.0,415636.0,37790.0,668.9731295300898,714.0619895350877,1003.6539950041242
415646,21744,415646.0,40161.0,415646.0,37773.0,666.7664191129022,715.1298436985344,1004.3585291353993
415646,21742,415646.0,40192.0,415646.0,37814.0,664.5954001360709,716.0668504826666,1004.91093996727
415646,21727,415646.0,40213.0,415646.0,37816.0,662.4532058071668,716.8537391932555,1005.2942131674565
415646,21760,415646.0,40289.0,415646.0,37867.0,660.3329897070978,717.4724589556006,1005.4918230150392
415646,21786,415646.0,40310.0,415646.0,37871.0,658.2281973232504,717.9074980073087,1005.4884919888591
415646,21748,415646.0,40247.0,415646.0,37843.0,656.1330577558824,718.1470832402579,1005.2709082157846
415656,21731,415656.0,40150.0,415656.0,37809.0,654.04287689432,718.1833943269268,1004.8279256886674
415656,21710,415656.0,40147.0,415656.0,37800.0,651.9537558350155,718.0113455681511,1004.1501039958569
415656,21684,415656.0,40098.0,415656.0,37805.0,649.861989683287,717.6268383042914,1003.2290594505204
415656,21682,415656.0,40070.0,415656.0,37732.0,647.7634666186402,717.0253866519223,1002.0569699386367
415656,21675,415656.0,40085.0,415656.0,37727.0,645.6532009163775,716.2011410028573,1000.6259544911617
415656,21697,415656.0,40102.0,415656.0,37775.0,643.5251275581079,715.1463438469212,998.9273359350664
415667,21730,415667.0,40170.0,415667.0,37795.0,641.3722779931361,713.8515115509863,996.9515073256442
415667,21718,415667.0,40187.0,415667.0,37796.0,639.1873149819221,712.3063484109202,994.688578502228
415667,21726,415667.0,40197.0,415667.0,37825.0,636.963102944724,710.5009642409715,992.1291615503442
415667,21767,415667.0,40298.0,415667.0,37848.0,634.693109648226,708.4270254736562,989.2650303696553
415667,21749,415667.0,40257.0,415667.0,37830.0,632.3718580130192,706.0789695860628,986.0897882017424
415667,21700,415667.0,40183.0,415667.0,37804.0,629.9953108698978,703.4549572836219,982.599312667693
415677,21680,415677.0,40123.0,415677.0,37756.0,627.5606566004648,700.5565932493353,978.7916122216424
415677,21681,415677.0,40065.0,415677.0,37731.0,625.0655868612462,697.3874074247539,974.6661204604378
415677,21666,415677.0,40028.0,415677.0,37675.0,622.5076958641307,693.9510196011197,970.2227096567746
415677,21647,415677.0,39997.0,415677.0,37686.0,619.8841712870101,690.2495660122219,965.4606846038109
415677,21654,415677.0,40018.0,415677.0,37713.0,617.1915421461234,686.2825881808594,960.37812712587
415677,21666,415677.0,40083.0,415677.0,37725.0,614.4255140791577,682.0466875201193,954.9719595985003
415687,21680,415687.0,40107.0,415687.0,37707.0,611.5811026174241,677.5361845038636,949.2385109989444
415687,21680,415687.0,40168.0,415687.0,37745.0,608.6530200607508,672.7444971604353,943.1740472683592
415687,21703,415687.0,40204.0,415687.0,37764.0,605.6361157617116,667.6657412170516,936.7752741871951
415687,21733,415687.0,40253.0,415687.0,37764.0,602.5258760525734,662.2963699456164,930.0400658352693
415687,21690,415687.0,40188.0,415687.0,37742.0,599.3190062323872,656.6366110261552,922.9681677882204
415687,21655,415687.0,40093.0,415687.0,37680.0,596.0136839372921,650.6909598411253,915.5613813200839
415698,21647,415698.0,40035.0,415698.0,37663.0,592.6091521072506,644.4671848052946,907.8230667169042
415698,21627,415698.0,40006.0,415698.0,37623.0,589.1050300453718,637.9744395675934,899.7572732497716
415698,21607,415698.0,39925.0,415698.0,37586.0,585.5007756759297,631.2214896645087,891.3678781883491
415698,21612,415698.0,39961.0,415698.0,37609.0,581.7952909251933,624.2153548859192,882.6578865110575
415698,21612,415698.0,39963.0,415698.0,37602.0,577.9866803654991,616.9605168420776,873.629107729809
415698,21644,415698.0,40025.0,415698.0,37622.0,574.0723169613105,609.4590395907284,864.2823615104501
415708,21645,415708.0,40026.0,415708.0,37629.0,570.0492493783714,601.7114898464472,854.6180136998081
415708,21637,415708.0,40052.0,415708.0,37637.0,565.914742490798,593.718112310766,844.6366261833298
415708,21665,415708.0,40141.0,415708.0,37665.0,561.6666941603679,585.4800192613334,834.3396659064744
415708,21648,415708.0,40095.0,415708.0,37635.0,557.3039607469043,577.0005562658246,823.7302305279562
415708,21614,415708.0,40008.0,415708.0,37605.0,552.826589386481,568.2863441038737,812.8135397016783
415708,21597,415708.0,39909.0,415708.0,37545.0,548.2356777973935,559.3468938501194,801.5968357028012
415718,21573,415718.0,39920.0,415718.0,37525.0,543.5328636360496,550.1928920440814,790.0887033443573
415718,21564,415718.0,39834.0,415718.0,37459.0,538.7197691893019,540.8344366672839,778.2981489383401
415718,21543,415718.0,39848.0,415718.0,37439.0,533.7975652768424,531.279852978033,766.2336525460014
415718,21546,415718.0,39857.0,415718.0,37471.0,528.7666502682866,521.5350038968598,753.9024117963576
415718,21551,415718.0,39871.0,415718.0,37477.0,523.6264927487372,511.6032282446987,741.3102303150195
415718,21584,415718.0,39875.0,415718.0,37463.0,518.3757754317609,501.485858072349,728.4620748120034
415729,21577,415729.0,39940.0,415729.0,37477.0,513.0128828300244,491.18300735798886,715.3627339894279
415729,21586,415729.0,39990.0,415729.0,37488.0,507.53650606093095,480.6947392691237,702.0173585091843
415729,21614,415729.0,39994.0,415729.0,37512.0,501.94616448067484,470.02269493444305,688.4321368383685
415729,21573,415729.0,39939.0,415729.0,37453.0,496.24267250995456,459.1715280133554,674.6150663157038
415729,21539,415729.0,39846.0,415729.0,37383.0,490.428345238887,448.149234316281,660.5762282995703
415729,21498,415729.0,39775.0,415729.0,37360.0,484.50659874936304,436.96610513968017,646.3271684596882
415739,21486,415739.0,39732.0,415739.0,37289.0,478.48112114581625,425.6328889198397,631.8797886552101
415739,21473,415739.0,39692.0,415739.0,37283.0,472.35511202552345,414.15903109051783,617.2453025092962
415739,21464,415739.0,39702.0,415739.0,37263.0,466.1308351468049,402.55148560446315,602.4334708424999
415739,21478,415739.0,39728.0,415739.0,37287.0,459.80946193519594,390.81427591398176,587.452314932223
415739,21479,415739.0,39803.0,415739.0,37272.0,453.3911774223302,378.9489772030845,572.3083720398483
415739,21489,415739.0,39770.0,415739.0,37284.0,446.87551214835105,366.95598616485,557.0072480684735
415749,21497,415749.0,39790.0,415749.0,37306.0,440.26178263894064,354.8358537622025,541.5542688021578
415749,21527,415749.0,39874.0,415749.0,37300.0,433.54961415411174,342.59029845397026,525.9552619088103
415749,21509,415749.0,39839.0,415749.0,37275.0,426.7395700039506,330.2233693465951,510.2173399989774
415749,21473,415749.0,39748.0,415749.0,37227.0,419.83362839637385,317.74252444356995,494.3492838405406
415749,21441,415749.0,39670.0,415749.0,37179.0,412.8351162133847,305.1584662813582,478.36130692755376
415749,21417,415749.0,39611.0,415749.0,37129.0,405.74813202908933,292.4836112628848,462.264330634119
415760,21392,415760.0,39586.0,415760.0,37102.0,398.5768407481396,279.73024873571785,446.069069136924
415760,21378,415760.0,39524.0,415760.0,37064.0,391.32487853734415,266.9091260664411,429.78521112813814
415760,21380,415760.0,39578.0,415760.0,37089.0,383.99494279919696,254.02856456449592,413.4209064206218
415760,21390,415760.0,39581.0,415760.0,37079.0,376.5886723058989,241.0942779323002,396.98274331553944
415760,21404,415760.0,39607.0,415760.0,37083.0,369.10688418756524,228.11000427443503,380.4761962258159
415760,21401,415760.0,39602.0,415760.0,37073.0,361.55006045846756,215.07850827546258,363.90622358454914
415770,21411,415770.0,39643.0,415770.0,37096.0,353.91887155504855,202.00252842698228,347.2778357358786
415770,21427,415770.0,39707.0,415770.0,37099.0,346.2146619815531,188.88585132803053,330.5967641738674
415770,21398,415770.0,39604.0,415770.0,37050.0,338.43992433867686,175.73458984920865,313.87018135801316
415770,21346,415770.0,39526.0,415770.0,36998.0,330.59850871810426,162.5577502988624,297.1069912847039
415770,21312,415770.0,39460.0,415770.0,36926.0,322.69521322754457,149.3662788986403,280.31733035282855
415770,21313,415770.0,39436.0,415770.0,36903.0,314.7349619428389,136.17128951277937,263.51150893993724
415780,21278,415780.0,39379.0,415780.0,36863.0,306.72213677889584,122.98257521931964,246.69894381908955
415780,21280,415780.0,39373.0,415780.0,36861.0,298.6602189526821,109.80761384831362,229.88745750322857
415780,21293,415780.0,39401.0,415780.0,36842.0,290.5516366902316,96.65101861255039,213.08300088123792
415780,21295,415780.0,39426.0,415780.0,36846.0,282.3979101308359,83.51469465101411,196.2897078245802
415780,21287,415780.0,39421.0,415780.0,36865.0,274.2000488226303,70.39866894948705,179.51023299613678
415780,21288,415780.0,39445.0,415780.0,36871.0,265.95891843237933,57.30207751436387,162.7464030718387
415791,21298,415791.0,39546.0,415791.0,36880.0,257.6755118689381,44.224222759086274,146.00010234817864
415791,21316,415791.0,39516.0,415791.0,36849.0,249.35131703655338,31.16609168452794,129.27411136175647
415791,21267,415791.0,39416.0,415791.0,36817.0,240.98877712924804,18.13178035208682,112.57258071877186
415791,21226,415791.0,39323.0,415791.0,36751.0,232.59141438217665,5.12845656654099,95.90093968453459
415791,21209,415791.0,39292.0,415791.0,36709.0,224.16333792452542,-7.835250671307335,79.26524748889221
415791,21205,415791.0,39206.0,415791.0,36667.0,215.70854441261332,-20.751218907198904,62.671236092051345
415801,21163,415801.0,39219.0,415801.0,36643.0,207.23046867503234,-33.61337829718457,46.12340241959589
415801,21174,415801.0,39242.0,415801.0,36651.0,198.73170329625384,-46.41858934346715,29.624435232133237
415801,21186,415801.0,39239.0,415801.0,36679.0,190.21384250712435,-59.166611668162886,13.17520718975561
415801,21178,415801.0,39294.0,415801.0,36657.0,181.67765671527542,-71.8593561835487,-3.2246396499911043
415801,21179,415801.0,39282.0,415801.0,36653.0,173.1234883375705,-84.49983958966084,-19.57593992161651
415801,21200,415801.0,39351.0,415801.0,36677.0,164.55163415028602,-97.09100507873609,-35.879430712325416
415811,21212,415811.0,39394.0,415811.0,36677.0,155.96282139260092,-109.6343383426422,-52.1351465165867
415811,21165,415811.0,39286.0,415811.0,36644.0,147.3587674842197,-122.12844273487485,-68.34169231000396
415811,21138,415811.0,39211.0,415811.0,36575.0,138.74237405886868,-134.56856720484848,-84.49588651875183
415811,21113,415811.0,39133.0,415811.0,36518.0,130.117338715271,-146.9477548837864,-100.59321106134485
415811,21089,415811.0,39104.0,415811.0,36488.0,121.4875324715158,-159.2587928620643,-116.62886417028426
415811,21060,415811.0,39047.0,415811.0,36456.0,112.85644231771596,-171.49589888818343,-132.59881306522152
415822,21035,415822.0,39032.0,415822.0,36438.0,104.22665041541768,-183.6559144979026,-148.50048437885744
415822,21055,415822.0,39082.0,415822.0,36462.0,95.59938828615736,-195.73897843757152,-164.33303984471968
415822,21066,415822.0,39122.0,415822.0,36468.0,86.97444720405747,-207.7483141872234,-180.0971422173019
415822,21069,415822.0,39143.0,415822.0,36465.0,78.35056819651538,-219.68906682825207,-195.79426812517022
415822,21072,415822.0,39170.0,415822.0,36451.0,69.72603035511008,-231.5667942617306,-211.42596854576698
415822,21098,415822.0,39229.0,415822.0,36479.0,61.09920678242054,-243.38602749876873,-226.99330555021038
415832,21085,415832.0,39208.0,415832.0,36478.0,52.46914488159928,-255.148837135755,-242.49625279421696
415832,21044,415832.0,39112.0,415832.0,36399.0,43.836037464131664,-266.8538025412014,-257.93308806783
415832,21016,415832.0,39044.0,415832.0,36345.0,35.20120626296898,-278.49623366361595,-273.3004032449569
415832,20993,415832.0,38963.0,415832.0,36312.0,26.56659177049437,-290.0696880046629,-288.593968467276
415832,20989,415832.0,38943.0,415832.0,36270.0,17.934174340876666,-301.5679005548882,-303.8098334352112
415832,20943,415832.0,38874.0,415832.0,36215.0,9.305573391813255,-312.98640441132954,-318.94523083457
415842,20954,415842.0,38957.0,415842.0,36256.0,0.6817194118160614,-324.32355084475284,-333.99928201796683
415842,20959,415842.0,38973.0,415842.0,36305.0,-7.937370921973752,-335.58056468234247,-348.9731002841912
415842,20955,415842.0,38976.0,415842.0,36269.0,-16.552495961780778,-346.76059863576916,-363.8689619244053
415842,20968,415842.0,39010.0,415842.0,36255.0,-25.164905336023935,-357.8675150878564,-378.68927557517827
415842,20984,415842.0,39034.0,415842.0,36286.0,-33.77583512855426,-368.90483237957767,-393.4360581230983
415842,20976,415842.0,39051.0,415842.0,36294.0,-42.38594600816691,-379.8746331230931,-408.1105002142109
415853,20958,415853.0,39038.0,415853.0,36238.0,-50.99482010618965,-390.77648908900994,-422.7122975232469
415853,20911,415853.0,38907.0,415853.0,36173.0,-59.60083030643568,-401.60697330607877,-437.23939129807025
415853,20888,415853.0,38875.0,415853.0,36146.0,-68.20150541244857,-412.36037055775273,-451.6885796034039
415853,20870,415853.0,38815.0,415853.0,36111.0,-76.79417268250245,-423.0303354399723,-466.0565136373467
415853,20860,415853.0,38760.0,415853.0,36066.0,-85.37650746765951,-433.6115834285831,-480.3405226954492
415853,20837,415853.0,38764.0,415853.0,36078.0,-93.94684837481634,-444.101202303078,-494.5392152666735
415863,20850,415863.0,38804.0,415863.0,36092.0,-102.50435897655166,-454.4993817103191,-508.6527268263874
415863,20854,415863.0,38850.0,415863.0,36092.0,-111.04899969575615,-464.80914204814565,-522.6823877183158
415863,20849,415863.0,38861.0,415863.0,36090.0,-119.58124311386814,-475.0351638562481,-536.6300458813114
415863,20833,415863.0,38864.0,415863.0,36067.0,-128.10172901127225,-485.18243605429984,-550.4974896092424
415863,20878,415863.0,38942.0,415863.0,36119.0,-136.61099472177557,-495.2551235946621,-564.2860249386126
415863,20851,415863.0,38886.0,415863.0,36087.0,-145.10908246533518,-505.25547023362356,-577.9959182289163
415874,20835,415874.0,38828.0,415874.0,36026.0,-153.59507424398328,-515.1830176026028,-591.6258435432428
415874,20789,415874.0,38751.0,415874.0,35985.0,-162.06700154912005,-525.0349176252962,-605.1729824199153
415874,20758,415874.0,38741.0,415874.0,35946.0,-170.5222938346093,-534.8072229434463,-618.6338408401098
415874,20764,415874.0,38669.0,415874.0,35882.0,-178.95845214173346,-544.4962811864623,-632.0052654070014
415874,20722,415874.0,38639.0,415874.0,35884.0,-187.37355940063367,-554.0998932118139,-645.2854038515434
415874,20728,415874.0,38650.0,415874.0,35900.0,-195.76657284434896,-563.6183001781401,-658.4743529464108
415884,20744,415884.0,38724.0,415884.0,35900.0,-204.1374613310344,-573.054570484793,-671.5741255688458
415884,20738,415884.0,38694.0,415884.0,35920.0,-212.4870378552423,-582.4139777795551,-684.5880563132205
415884,20739,415884.0,38741.0,415884.0,35910.0,-220.81654391907318,-591.7028859932536,-697.5200564150016
415884,20757,415884.0,38817.0,415884.0,35943.0,-229.12723263875114,-600.9276249172729,-710.3738858623972
415884,20776,415884.0,38841.0,415884.0,35937.0,-237.41988579812687,-610.093018181471,-723.1523940170496
415884,20740,415884.0,38752.0,415884.0,35888.0,-245.69421625077354,-619.2007982043749,-735.8568460142121
415894,20701,415894.0,38686.0,415894.0,35842.0,-253.94855837531122,-628.2491323293511,-748.486780080741
415894,20663,415894.0,38616.0,415894.0,35790.0,-262.1802068208974,-637.2337073403287,-761.0406062022375
415894,20651,415894.0,38574.0,415894.0,35770.0,-270.3861749161125,-646.1495325654823,-773.516581883058
415894,20616,415894.0,38526.0,415894.0,35747.0,-278.56391343921905,-654.9926218459359,-785.9136732797308
415894,20614,415894.0,38533.0,415894.0,35772.0,-286.71183198941037,-663.7612610704814,-798.2320002234319
415894,20625,415894.0,38551.0,415894.0,35744.0,-294.8295947044387,-672.4566650889751,-810.4727923091395
415905,20631,415905.0,38601.0,415905.0,35762.0,-302.91805478667857,-681.0828075164377,-822.6380604471738
415905,20638,415905.0,38600.0,415905.0,35766.0,-310.9788501133596,-689.645530651027,-834.7301882413658
415905,20631,415905.0,38640.0,415905.0,35741.0,-319.0139088288297,-698.1513988229071,-846.7514714718577
415905,20653,415905.0,38715.0,415905.0,35774.0,-327.0250126072492,-706.6064892823208,-858.7036825182481
415905,20657,415905.0,38699.0,415905.0,35761.0,-335.013334561802,-715.0149362800312,-870.5876333521105
415905,20610,415905.0,38617.0,415905.0,35695.0,-342.9789861563547,-723.3776936221038,-882.4027795510492
415915,20576,415915.0,38540.0,415915.0,35655.0,-350.92096366685246,-731.692561842854,-894.1473510075894
415915,20554,415915.0,38498.0,415915.0,35640.0,-358.8376722787526,-739.9555730581715,-905.8191226803756
415915,20543,415915.0,38461.0,415915.0,35619.0,-366.72762310700534,-748.1627419366241,-917.4162041599582
415915,20512,415915.0,38419.0,415915.0,35558.0,-374.58993486805673,-756.3114563820027,-928.937554675869
415915,20521,415915.0,38470.0,415915.0,35579.0,-382.42466048417407,-764.4013684013846,-940.3834765650347
415915,20535,415915.0,38460.0,415915.0,35590.0,-390.23291031447593,-772.4346071460598,-951.7559516435967
415925,20546,415925.0,38512.0,415925.0,35589.0,-398.0165959500174,-780.4152635434168,-963.0584258487129
415925,20516,415925.0,38505.0,415925.0,35612.0,-405.77793822693513,-788.3484925155794,-974.2951837533974
415925,20567,415925.0,38583.0,415925.0,35620.0,-413.51905915204543,-796.2394755139301,-985.470622483474
415925,20564,415925.0,38630.0,415925.0,35639.0,-421.2415403037303,-804.0920975158801,-996.5884532456384
415925,20531,415925.0,38538.0,415925.0,35577.0,-428.94583432216814,-811.9074779757016,-1007.650992237652
415925,20486,415925.0,38459.0,415925.0,35545.0,-436.63102728128695,-819.6834099797368,-1018.6589880741897
415936,20469,415936.0,38405.0,415936.0,35518.0,-444.2952797744209,-827.4154118302026,-1029.6121232720968
415936,20422,415936.0,38367.0,415936.0,35480.0,-451.9366006858994,-835.0985755623838,-1040.5097688361911
415936,20423,415936.0,38305.0,415936.0,35446.0,-459.55358538446694,-842.7292087562143,-1051.3516823209375
415936,20425,415936.0,38315.0,415936.0,35431.0,-467.1459261421454,-850.3061038335634,-1062.1386696180143
415936,20423,415936.0,38374.0,415936.0,35452.0,-474.7145268512629,-857.8312386435355,-1072.8730526216152
415936,20448,415936.0,38369.0,415936.0,35463.0,-482.26125645353704,-865.3094995780832,-1083.5586270439276
415946,20432,415946.0,38411.0,415946.0,35447.0,-489.7885110498945,-872.7477003608444,-1094.200158878801
415946,20433,415946.0,38403.0,415946.0,35454.0,-497.2987768921937,-880.1535581201495,-1104.8028464037511
415946,20453,415946.0,38541.0,415946.0,35510.0,-504.79430549274286,-887.5346285684755,-1115.371834597609
415946,20449,415946.0,38501.0,415946.0,35484.0,-512.2767550725915,-894.8967771038765,-1125.9114600478283
415946,20417,415946.0,38410.0,415946.0,35408.0,-519.7467982841644,-902.2427320159022,-1136.424535823254
415946,20367,415946.0,38339.0,415946.0,35370.0,-527.2040968568086,-909.5720917023881,-1146.912518047399
415956,20363,415956.0,38266.0,415956.0,35368.0,-534.6478252799767,-916.8829396125484,-1157.3764650388384
415956,20349,415956.0,38279.0,415956.0,35315.0,-542.0773367647074,-924.1738324464147,-1167.8179187668125
415956,20323,415956.0,38223.0,415956.0,35275.0,-549.4925789036228,-931.4451983595449,-1178.2395304909003
415956,20315,415956.0,38245.0,415956.0,35324.0,-556.8943561839204,-938.7000682989304,-1188.6456531350902
415956,20323,415956.0,38285.0,415956.0,35347.0,-564.2845486334745,-945.9442861527839,-1199.0424490182527
415956,20346,415956.0,38294.0,415956.0,35320.0,-571.6660700366268,-953.1860741687776,-1209.4372274588932
415967,20345,415967.0,38327.0,415967.0,35318.0,-579.0424381687909,-960.4350910725037,-1219.8377061988613
415967,20358,415967.0,38394.0,415967.0,35339.0,-586.4171633826471,-967.7013003582547,-1230.2516618757345
415967,20366,415967.0,38406.0,415967.0,35359.0,-593.7931719806281,-974.9935978672875,-1240.6865503960398
415967,20356,415967.0,38384.0,415967.0,35309.0,-601.1723006985038,-982.3184088197526,-1251.1488966197167
415967,20300,415967.0,38302.0,415967.0,35269.0,-608.5550261357988,-989.6790250679223,-1261.6440055980145
415967,20277,415967.0,38224.0,415967.0,35250.0,-615.9407306122177,-997.0762085379653,-1272.1763614512302
415977,20256,415977.0,38187.0,415977.0,35217.0,-623.3284113422033,-1004.5097936166067,-1282.750331230629
415977,20233,415977.0,38130.0,415977.0,35167.0,-630.7173857001765,-1011.9805032369666,-1293.3708214861704
415977,20233,415977.0,38133.0,415977.0,35173.0,-638.1077679685666,-1019.4913958143602,-1304.0439379831407
415977,20237,415977.0,38175.0,415977.0,35209.0,-645.5006933010012,-1027.0486495499308,-1314.777407579553
415977,20240,415977.0,38209.0,415977.0,35193.0,-652.8982443739318,-1034.6613966259072,-1325.5803472033813
415977,20247,415977.0,38237.0,415977.0,35210.0,-660.3031474756573,-1042.3407143528439,-1336.4626022923517
415987,20247,415987.0,38240.0,415987.0,35220.0,-667.7183836788652,-1050.0983740306401,-1347.434105700212
415987,20288,415987.0,38321.0,415987.0,35247.0,-675.1467251355192,-1057.9456912159058,-1358.504216288836
415987,20259,415987.0,38313.0,415987.0,35227.0,-682.5901356959383,-1065.89229085356,-1369.6809357123948
415987,20212,415987.0,38248.0,415987.0,35152.0,-690.0493251637073,-1073.9449731082655,-1380.9703977272218
415987,20187,415987.0,38155.0,415987.0,35129.0,-697.5239367496786,-1082.1075943173848,-1392.37714177548
415987,20182,415987.0,38117.0,415987.0,35087.0,-705.0132179471551,-1090.3823149726343,-1403.9050148163046
415998,20158,415998.0,38101.0,415998.0,35057.0,-712.5165879567072,-1098.7713362993677,-1415.5581082995027
415998,20146,415998.0,38057.0,415998.0,35014.0,-720.0339499001802,-1107.2781863377381,-1427.341541939593
415998,20136,415998.0,38089.0,415998.0,35054.0,-727.5659259253442,-1115.9084198468627,-1439.2620840278555
415998,20144,415998.0,38073.0,415998.0,35061.0,-735.114007107527,-1124.6698472580283,-1451.3282620551786
415998,20143,415998.0,38131.0,415998.0,35063.0,-742.6804926579075,-1133.57225809151,-1463.5498197431912
415998,20148,415998.0,38170.0,415998.0,35059.0,-750.2682305351939,-1142.6266041862132,-1475.9369775746952
416007,20153,416007.0,38194.0,416007.0,35091.0,-757.8802686720642,-1151.8436991028625,-1488.499824361408
416007,20194,416007.0,38257.0,416007.0,35092.0,-765.5193964945983,-1161.2326843070273,-1501.2476553718952
416007,20132,416007.0,38161.0,416007.0,35047.0,-773.1875725975715,-1170.7996827375744,-1514.1882708711692
416007,20106,416007.0,38107.0,416007.0,35026.0,-780.8856634739406,-1180.5473356407308,-1527.3276901165384
416007,20086,416007.0,38012.0,416007.0,34977.0,-788.613837270488,-1190.4757223343895,-1540.6704586488165
416007,20056,416007.0,37997.0,416007.0,34933.0,-796.3722523175247,-1200.584142710683,-1554.220309883007
416017,20051,416017.0,37935.0,416017.0,34895.0,-804.1616194872871,-1210.8728214239181,-1567.9810068030026
416017,20028,416017.0,37923.0,416017.0,34909.0,-811.983597894263,-1221.3441613977072,-1581.9571410192482
416017,20028,416017.0,37992.0,416017.0,34926.0,-819.8410542649216,-1232.0034292493992,-1596.1544418169476
416017,20064,416017.0,38010.0,416017.0,34919.0,-827.7380989011432,-1242.858494110294,-1610.5794129085716
416017,20051,416017.0,38045.0,416017.0,34939.0,-835.679744343778,-1253.918645983798,-1625.238632646281
416017,20062,416017.0,38043.0,416017.0,34916.0,-843.6713242219997,-1265.1932077731813,-1640.1380777148318
416028,20101,416028.0,38116.0,416028.0,34939.0,-851.7179170048272,-1276.6903312752497,-1655.2825550988384
416028,20076,416028.0,38137.0,416028.0,34920.0,-859.8237036630755,-1288.41569961013,-1670.67519154794
416028,20039,416028.0,38041.0,416028.0,34848.0,-867.9914311037362,-1300.3712350056433,-1686.317097767361
416028,19985,416028.0,37964.0,416028.0,34852.0,-876.2225074139759,-1312.5548074349526,-1702.2075249599568
416028,19986,416028.0,37893.0,416028.0,34778.0,-884.5177288254578,-1324.96146009405,-1718.3444468989258
416028,19976,416028.0,37888.0,416028.0,34753.0,-892.878015042012,-1337.5852674095368,-1734.7252579196452
416038,19948,416038.0,37803.0,416038.0,34741.0,-901.3047623192657,-1350.420823973719,-1751.3474796284079
416038,19957,416038.0,37813.0,416038.0,34730.0,-909.7999883002159,-1363.464293744517,-1768.209235580418
416038,19960,416038.0,37861.0,416038.0,34763.0,-918.3663839111183,-1376.714031810166,-1785.3092248466019
416038,19958,416038.0,37881.0,416038.0,34740.0,-927.0071407117846,-1390.1703093329743,-1802.646228933265
416038,19959,416038.0,37917.0,416038.0,34742.0,-935.7256203989215,-1403.8341579188168,-1820.2184455412344
416038,19975,416038.0,37985.0,416038.0,34772.0,-944.5250019534684,-1417.7058535134638,-1838.0228778926812
416048,20004,416048.0,38056.0,416048.0,34797.0,-953.4077950258678,-1431.7830843374236,-1856.054561133372
416048,19952,416048.0,37924.0,416048.0,34714.0,-962.3752133936995,-1446.0590376288683,-1874.3056117533372
416048,19931,416048.0,37845.0,416048.0,34677.0,-971.4268536360745,-1460.5216883272954,-1892.7648348056796
416048,19900,416048.0,37797.0,416048.0,34646.0,-980.5609886178083,-1475.1549658461695,-1911.4182352374953
416048,19876,416048.0,37764.0,416048.0,34596.0,-989.7751783078351,-1489.9406275795525,-1930.2498387175272
416048,19852,416048.0,37680.0,416048.0,34586.0,-999.0668559726199,-1504.8597144527032,-1949.2423529001094
416059,19832,416059.0,37712.0,416059.0,34538.0,-1008.4338371982113,-1519.893639675076,-1968.3776655835456
416059,19846,416059.0,37735.0,416059.0,34584.0,-1017.874689081409,-1535.024787844895,-1987.6371115075217
416059,19870,416059.0,37767.0,416059.0,34581.0,-1027.3887390714976,-1550.2361393071772,-2007.0012493365523
416059,19853,416059.0,37753.0,416059.0,34574.0,-1036.9756385136075,-1565.5101854455497,-2026.4491251513716
416059,19857,416059.0,37778.0,416059.0,34543.0,-1046.634808762686,-1580.827864007998,-2045.9575249668642
416059,19882,416059.0,37845.0,416059.0,34606.0,-1056.3650208277818,-1596.167595997446,-2065.5004840941697
416069,19878,416069.0,37851.0,416069.0,34575.0,-1066.1639183442198,-1611.5039856146068,-2085.0486473405745
416069,19854,416069.0,37772.0,416069.0,34517.0,-1076.0274717790403,-1626.80645312368,-2104.568505180977
416069,19803,416069.0,37684.0,416069.0,34468.0,-1085.9497869089419,-1642.038896307172,-2124.0222596794138
416069,19773,416069.0,37611.0,416069.0,34445.0,-1095.9235226908534,-1657.1608368366124,-2143.3684649288725
416069,19765,416069.0,37609.0,416069.0,34395.0,-1105.9406414618456,-1672.1292250131842,-2162.5628138490983
416069,19743,416069.0,37558.0,416069.0,34369.0,-1115.9930120761248,-1686.899835642169,-2181.558765066493
416079,19739,416079.0,37553.0,416079.0,34368.0,-1126.072706356922,-1701.4280074950811,-2200.308029511645
416079,19750,416079.0,37597.0,416079.0,34386.0,-1136.1720680459475,-1715.6689078868494,-2218.7606976476004
416079,19760,416079.0,37616.0,416079.0,34393.0,-1146.2835120079437,-1729.5771538164609,-2236.8648004464476
416079,19758,416079.0,37610.0,416079.0,34376.0,-1156.3990559649183,-1743.1058275532887,-2254.565536436738
416079,19775,416079.0,37677.0,416079.0,34405.0,-1166.5097651224032,-1756.205371817086,-2271.8045408996722
416079,19776,416079.0,37685.0,416079.0,34410.0,-1176.605198997749,-1768.8224328683716,-2288.519186855082
416090,19750,416090.0,37641.0,416090.0,34363.0,-1186.6729113407719,-1780.8986672959672,-2304.641859024391
416090,19724,416090.0,37580.0,416090.0,34290.0,-1196.6982341944772,-1792.3701962338896,-2320.0996864720764
416090,19690,416090.0,37515.0,416090.0,34239.0,-1206.664498279641,-1803.1681844729196,-2334.8151934732723
416090,19662,416090.0,37444.0,416090.0,34227.0,-1216.553558633093,-1813.2202308255578,-2348.707500615372
416090,19629,416090.0,37400.0,416090.0,34191.0,-1226.3464358021808,-1822.4520660215971,-2361.693331873019
416090,19623,416090.0,37409.0,416090.0,34139.0,-1236.0239375836281,-1830.7890889255264,-2373.687676453984
416100,19642,416100.0,37423.0,416100.0,34181.0,-1245.5670433504888,-1838.1572193132356,-2384.604350942579
416100,19659,416100.0,37429.0,416100.0,34184.0,-1254.9567945711374,-1844.4829056867297,-2394.356221635888
416100,19644,416100.0,37446.0,416100.0,34150.0,-1264.1737589192503,-1849.692662883359,-2402.8548895093563
416100,19663,416100.0,37473.0,416100.0,34175.0,-1273.1974571473172,-1853.7124838712398,-2410.0103384652193
416100,19668,416100.0,37509.0,416100.0,34200.0,-1282.0059031150547,-1856.4671099029338,-2415.73072174259
416100,19656,416100.0,37540.0,416100.0,34184.0,-1290.5751483622744,-1857.8790825074166,-2419.9219372786574
416111,19628,416111.0,37427.0,416111.0,34120.0,-1298.8789634848576,-1857.8679561778558,-2422.4872762923787
416111,19593,416111.0,37359.0,416111.0,34079.0,-1306.8889221983584,-1856.350597080807,-2423.327842268983
416111,19554,416111.0,37343.0,416111.0,34029.0,-1314.5749192913993,-1853.2428294169308,-2422.343769773703
416111,19550,416111.0,37305.0,416111.0,34014.0,-1321.9059088668882,-1848.4613838163896,-2419.4356938013234
416111,19520,416111.0,37230.0,416111.0,33961.0,-1328.8505602769733,-1841.9254462098852,-2414.50609241054
416111,19529,416111.0,37266.0,416111.0,33970.0,-1335.3776789434119,-1833.5580911373054,-2407.4604754781867
416121,19524,416121.0,37282.0,416121.0,33993.0,-1341.4563930693678,-1823.2874361394704,-2398.20830533197
416121,19543,416121.0,37325.0,416121.0,33991.0,-1347.056084987325,-1811.0469591351502,-2386.6634074332683
416121,19530,416121.0,37357.0,416121.0,34014.0,-1352.1461146872489,-1796.7751004995089,-2372.7440096174632
416121,19546,416121.0,37419.0,416121.0,34028.0,-1356.695502462805,-1780.4145668593726,-2356.3727364688284
416121,19571,416121.0,37453.0,416121.0,34039.0,-1360.6725979790651,-1761.9114701457036,-2337.4766302780063
416121,19543,416121.0,37418.0,416121.0,34019.0,-1364.0446598675912,-1741.214570896584,-2315.987296195614
416131,19507,416131.0,37359.0,416131.0,33996.0,-1366.7776200784201,-1718.2753176458677,-2291.8414451123144
416131,19487,416131.0,37308.0,416131.0,33985.0,-1368.8364124834256,-1693.0491393841266,-2264.9819396742314
416131,19468,416131.0,37270.0,416131.0,33987.0,-1370.1856988592522,-1665.4976263481508,-2235.359096544328
416131,19458,416131.0,37248.0,416131.0,33946.0,-1370.7905683937042,-1635.590884150296,-2202.9319998409646
416131,19443,416131.0,37286.0,416131.0,33987.0,-1370.6170722105999,-1603.3095383093823,-2167.6698374531334
416131,19453,416131.0,37342.0,416131.0,34030.0,-1369.632622364421,-1568.645977277576,-2129.553053087866
416142,19466,416142.0,37409.0,416142.0,34075.0,-1367.8061936602721,-1531.604620052722,-2088.5738961156167
416142,19473,416142.0,37461.0,416142.0,34131.0,-1365.1082585190388,-1492.20146562306,-2044.7364244712826
416142,19493,416142.0,37507.0,416142.0,34159.0,-1361.5105429099854,-1450.4634522894544,-1998.056361548288
416142,19513,416142.0,37666.0,416142.0,34263.0,-1356.9857034697584,-1406.4277700348277,-1948.5609647985252
416142,19514,416142.0,37698.0,416142.0,34285.0,-1351.5069570813303,-1360.140762830987,-1896.288784101962
416142,19487,416142.0,37683.0,416142.0,34324.0,-1345.047858077019,-1311.6567353883804,-1841.2894223475025
416152,19481,416152.0,37697.0,416152.0,34363.0,-1337.5824951098052,-1261.0377941115037,-1783.6236855244915
416152,19459,416152.0,37693.0,416152.0,34394.0,-1329.086076163936,-1208.3549309636094,-1723.3641409458944
416152,19458,416152.0,37774.0,416152.0,34468.0,-1319.5356434973423,-1153.6894355156548,-1660.5957679438839
416152,19443,416152.0,37792.0,416152.0,34522.0,-1308.9107614551301,-1097.1338921765316,-1595.4164477306879
416152,19464,416152.0,37906.0,416152.0,34637.0,-1297.1941111010792,-1038.7926122196372,-1527.9371156190364
416152,19496,416152.0,38037.0,416152.0,34771.0,-1284.3718385145626,-978.7814287887528,-1458.2813700522229
416162,19517,416162.0,38129.0,416162.0,34875.0,-1270.4335055270542,-917.2266632982532,-1386.5843972383427
416162,19542,416162.0,38252.0,416162.0,35011.0,-1255.3717607190626,-854.2635428055979,-1312.9914603590362
416162,19577,416162.0,38426.0,416162.0,35143.0,-1239.18196576702,-790.0344548599791,-1237.65629099756
416162,19622,416162.0,38554.0,416162.0,35322.0,-1221.8617753569865,-724.6868330995391,-1160.7392951288048
416162,19614,416162.0,38642.0,416162.0,35389.0,-1203.4106485579925,-658.3707459153397,-1082.405512050504
416162,19603,416162.0,38685.0,416162.0,35467.0,-1183.8296215988325,-591.2370192298883,-1002.8229059367156
416173,19611,416173.0,38714.0,416173.0,35545.0,-1163.1216456213892,-523.4365381635154,-922.1616019184944
416173,19611,416173.0,38786.0,416173.0,35659.0,-1141.2922687840771,-455.1205648607038,-840.5937678200714
416173,19624,416173.0,38878.0,416173.0,35765.0,-1118.3502942909988,-386.4413046425227,-758.2933933361917
