c_ts,c_val,d_ts,d_val,e_ts,e_val,c_val_filtered,d_val_filtered,e_val_filtered
138938,6371,138938,24608,138938.0,63466.0,-114.27718881694074,-137.09473194313045,-343.1663042309906
138938,6318,138938,24450,138938.0,63331.0,-123.09270672085893,-147.04366412846906,-359.9068129933697
138938,6284,138938,24415,138938.0,63260.0,-132.09005268904565,-157.14628396899536,-377.0655374472609
138938,6300,138938,24474,138938.0,63324.0,-141.25464424262356,-167.37488501557675,-394.6157027885876
138948,6327,138948,24518,138948.0,63392.0,-150.57326246783038,-177.70568540746552,-412.53351701896077
138948,6333,138948,24572,138948.0,63393.0,-160.03374517747295,-188.1179464660565,-430.7972006444136
138948,6323,138948,24513,138948.0,63359.0,-169.62430091660764,-198.59240814732317,-449.3853471719028
138948,6254,138948,24415,138948.0,63232.0,-179.3331322772563,-209.1105254247411,-468.2762523119241
138948,6246,138948,24394,138948.0,63196.0,-189.14875139077162,-219.65518417984208,-487.44876101566024
138948,6263,138948,24484,138948.0,63308.0,-199.0606358511312,-230.21193593059635,-506.88361713719024
138959,6301,138959,24578,138959.0,63336.0,-209.05940583142876,-240.7689346467256,-526.5634950517648
138959,6294,138959,24528,138959.0,63285.0,-219.1362414373878,-251.3152401864738,-546.4715175543627
138959,6241,138959,24444,138959.0,63229.0,-229.28217403094206,-261.8392534355357,-566.5900536253731
138959,6190,138959,24348,138959.0,63107.0,-239.48806939778217,-272.32894296494277,-586.9010229940947
138959,6173,138959,24316,138959.0,63086.0,-249.74540423542334,-282.7736106171873,-607.3873943924908
138959,6207,138959,24426,138959.0,63163.0,-260.04710164141295,-293.16556527715574,-628.0346638390685
138969,6248,138969,24481,138969.0,63197.0,-270.38760221755587,-303.5001489196861,-648.8309393861261
138969,6224,138969,24476,138969.0,63218.0,-280.7621103077454,-313.7741131590004,-669.765521495614
138969,6195,138969,24386,138969.0,63107.0,-291.1658088539705,-323.98404436456104,-690.8273758072677
138969,6150,138969,24317,138969.0,62992.0,-301.59377561974645,-334.1263228725462,-712.0049860925267
138969,6142,138969,24330,138969.0,63022.0,-312.04152606191496,-344.19837760747134,-733.2877375082728
138969,6188,138969,24430,138969.0,63119.0,-322.50551315622545,-354.19965772255864,-754.6671305905032
138979,6204,138979,24486,138979.0,63163.0,-332.98294077677474,-364.130997824696,-776.1360960459107
138979,6160,138979,24410,138979.0,63070.0,-343.47101824108336,-373.992846311423,-797.6870339285658
138979,6113,138979,24293,138979.0,62932.0,-353.9665586956514,-383.78431171939724,-819.3108581761427
138979,6085,138979,24244,138979.0,62875.0,-364.4664253415582,-393.5041886910244,-840.9981962310075
138979,6096,138979,24310,138979.0,62937.0,-374.96832776558136,-403.1528586297965,-862.7414528981781
138979,6115,138979,24377,138979.0,62988.0,-385.4712014824968,-412.73303325455873,-884.5355895376798
138990,6152,138990,24397,138990.0,62972.0,-395.9748651778684,-422.24872379910937,-906.3771169459653
138990,6119,138990,24360,138990.0,62913.0,-406.47922282068794,-431.70362774725055,-928.2627227458413
138990,6061,138990,24252,138990.0,62805.0,-416.9837209849582,-441.10045280095125,-950.1890066758397
138990,6032,138990,24209,138990.0,62799.0,-427.4876381480324,-450.4417567519567,-972.1534918581283
138990,6068,138990,24309,138990.0,62856.0,-437.99084171274654,-459.7313924893126,-994.1557606510652
138990,6089,138990,24395,138990.0,62916.0,-448.4940413872958,-468.97472658499476,-1016.197318793101
139000,6077,139000,24343,139000.0,62890.0,-458.9982576286571,-478.1771334984521,-1038.280117023589
139000,6041,139000,24283,139000.0,62791.0,-469.5042033131958,-487.34250563553906,-1060.405162937607
139000,5984,139000,24150,139000.0,62684.0,-480.0122929790313,-496.4734769988997,-1082.5726315310494
139000,5955,139000,24158,139000.0,62666.0,-490.5233544942617,-505.5731963802744,-1104.7834359511012
139000,6015,139000,24271,139000.0,62731.0,-501.03945018133726,-514.6469784015662,-1127.0407709983397
139000,6037,139000,24334,139000.0,62782.0,-511.5639331179366,-523.70210200974,-1149.3501439274667
139009,6030,139009,24302,139009.0,62766.0,-522.1006049824518,-532.7459383897926,-1171.7179410108781
139009,5996,139009,24211,139009.0,62645.0,-532.6528475655191,-541.7844398884426,-1194.1500657002857
139009,5955,139009,24127,139009.0,62596.0,-543.2234664904477,-550.8224387056694,-1216.6520384850692
139009,5937,139009,24179,139009.0,62622.0,-553.8151843009448,-559.8652006617544,-1239.230206129604
139009,5984,139009,24288,139009.0,62705.0,-564.4311777301612,-568.9193477663164,-1261.8923379188884
139009,5987,139009,24299,139009.0,62711.0,-575.0750094455476,-577.9919291107248,-1284.6466332715022
139020,5976,139020,24240,139020.0,62665.0,-585.7499824997336,-587.0886193565616,-1307.500010675882
139020,5912,139020,24112,139020.0,62544.0,-596.4586762712615,-596.2130764188465,-1330.4572885790994
139020,5887,139020,24082,139020.0,62461.0,-607.2032263853571,-605.368186703601,-1353.52203309462
139020,5913,139020,24129,139020.0,62490.0,-617.9860308052165,-614.5579633017246,-1376.6983559673047
139020,5917,139020,24214,139020.0,62542.0,-628.8100705081963,-623.7882534208634,-1399.9920072605946
139020,5941,139020,24237,139020.0,62602.0,-639.6785390848181,-633.0656741106909,-1423.409746714823
139030,5914,139030,24170,139030.0,62500.0,-650.5941879343254,-642.3959478332127,-1446.9577120139122
139030,5857,139030,24128,139030.0,62393.0,-661.5589758615339,-651.7832040365831,-1470.6405949813457
139030,5840,139030,24061,139030.0,62380.0,-672.5743811869023,-661.2306452276634,-1494.462519995113
139030,5856,139030,24135,139030.0,62456.0,-683.6420585797325,-670.7416788738599,-1518.4283333315693
139030,5907,139030,24255,139030.0,62516.0,-694.7640169085473,-680.3200963956772,-1542.5434273091269
139030,5891,139030,24195,139030.0,62502.0,-705.9419841408801,-689.9686819066599,-1566.8120080094159
139040,5838,139040,24098,139040.0,62365.0,-717.1766149173231,-699.687701595051,-1591.235490148848
139040,5785,139040,24006,139040.0,62283.0,-728.4674595176784,-709.4752083412445,-1615.8126197377483
139040,5758,139040,23988,139040.0,62238.0,-739.8137994307526,-719.3289672811629,-1640.5411969843776
139040,5799,139040,24065,139040.0,62327.0,-751.2155683789558,-729.2481911323027,-1665.4197015671068
139040,5824,139040,24131,139040.0,62377.0,-762.6735128976698,-739.2336626624992,-1690.4472620665683
139040,5813,139040,24163,139040.0,62340.0,-774.1885175914406,-749.2862503951566,-1715.6220748375517
139051,5783,139051,24054,139051.0,62243.0,-785.7608498945845,-759.40519771454,-1740.9399581174207
139051,5738,139051,23981,139051.0,62161.0,-797.3900164257941,-769.5877881427643,-1766.3944580427042
139051,5728,139051,23996,139051.0,62178.0,-809.07522283503,-779.8305487137461,-1791.978140415017
139051,5781,139051,24075,139051.0,62251.0,-820.8158300396012,-790.1303826675239,-1817.6834433681447
139051,5791,139051,24120,139051.0,62274.0,-832.6111208317388,-800.4841765153928,-1843.5019720527005
139051,5751,139051,24069,139051.0,62201.0,-844.4594962799001,-810.8873126302149,-1869.4228771059618
139061,5710,139061,23975,139061.0,62081.0,-856.3580186969325,-821.3327610884351,-1895.4320555635347
139061,5675,139061,23890,139061.0,62006.0,-868.3027768037509,-831.8118113473431,-1921.5130953590817
139061,5678,139061,23918,139061.0,62041.0,-880.2896279622311,-842.31586924057,-1947.6490794923825
139061,5710,139061,24028,139061.0,62115.0,-892.3146092948999,-852.8376054668036,-1973.8234472452573
139061,5734,139061,24072,139061.0,62126.0,-904.3736211721927,-863.3702153001288,-2000.0190609970941
139061,5697,139061,24048,139061.0,62074.0,-916.4616260441494,-873.9054211653342,-2026.216454612996
139071,5644,139071,23890,139071.0,61975.0,-928.5721580766981,-884.4322056063228,-2052.3929133028323
139071,5608,139071,23867,139071.0,61906.0,-940.6976739728117,-894.937549867783,-2078.5230696048325
139071,5657,139071,23950,139071.0,61978.0,-952.8302979427133,-905.4081767004213,-2104.5801804265116
139071,5673,139071,24040,139071.0,62061.0,-964.9619917003216,-915.8310049258132,-2130.5363860293196
139071,5673,139071,24029,139071.0,62037.0,-977.0838866555969,-926.1916443123623,-2156.3612394716806
139071,5633,139071,23926,139071.0,61909.0,-989.1855050821739,-936.4726796885178,-2182.0199806883365
139082,5582,139082,23824,139082.0,61831.0,-1001.254617305288,-946.6536551612627,-2207.473480757929
139082,5561,139082,23834,139082.0,61775.0,-1013.277810127306,-956.7127468602096,-2232.6798493864403
139082,5599,139082,23843,139082.0,61857.0,-1025.2411840497464,-966.628471475352,-2257.596043359211
139082,5598,139082,23926,139082.0,61881.0,-1037.1304592750282,-976.3800753844424,-2282.1780222450584
139082,5589,139082,23970,139082.0,61915.0,-1048.9304787926376,-985.9465119673307,-2306.3794082179047
139082,5564,139082,23864,139082.0,61757.0,-1060.6247464851517,-995.3049265552017,-2330.150007320519
139092,5510,139092,23786,139092.0,61716.0,-1072.1954500129802,-1004.4301816623553,-2353.435729682169
139092,5511,139092,23794,139092.0,61733.0,-1083.6239487729397,-1013.295975717303,-2376.179827340454
139092,5556,139092,23899,139092.0,61778.0,-1094.8912296668611,-1021.8760302147791,-2398.3237352934098
139092,5571,139092,23931,139092.0,61844.0,-1105.9776715474409,-1030.1436806112692,-2419.8063984929804
139092,5548,139092,23885,139092.0,61772.0,-1116.8622140730695,-1038.0702947735317,-2440.5626816509794
139092,5486,139092,23773,139092.0,61635.0,-1127.521815976977,-1045.624393816224,-2460.5224504384205
139102,5452,139102,23719,139102.0,61579.0,-1137.931794360859,-1052.7725427594942,-2479.611487802683
139102,5453,139102,23763,139102.0,61625.0,-1148.0667158880217,-1059.4811661012368,-2497.7534381719875
139102,5509,139102,23817,139102.0,61683.0,-1157.900954276805,-1065.7175509937915,-2514.870752138977
139102,5514,139102,23885,139102.0,61705.0,-1167.4083421987104,-1071.4492296124404,-2530.8838751861517
139102,5500,139102,23820,139102.0,61623.0,-1176.561276610049,-1076.6425006712893,-2545.7098364824756
139102,5442,139102,23720,139102.0,61526.0,-1185.330180948392,-1081.2616656005139,-2559.2618795439685
139113,5414,139113,23683,139113.0,61481.0,-1193.6838067355125,-1085.269919484539,-2571.450677773517
139113,5439,139113,23789,139113.0,61546.0,-1201.5899890100095,-1088.6309346172297,-2582.1860448636535
139113,5479,139113,23865,139113.0,61618.0,-1209.015986394456,-1091.3091546084813,-2591.377485507719
139113,5473,139113,23855,139113.0,61587.0,-1215.9280101848494,-1093.2683509489004,-2598.93321898676
139113,5412,139113,23749,139113.0,61502.0,-1222.290580994227,-1094.4701714472822,-2604.7591154010024
139113,5370,139113,23668,139113.0,61398.0,-1228.066638884864,-1094.874436285406,-2608.7591320881475
139123,5361,139123,23647,139123.0,61369.0,-1233.2184607497963,-1094.4410574548547,-2610.837283618087
139123,5385,139123,23729,139123.0,61447.0,-1237.708570573775,-1093.1319375721434,-2610.8997237482336
139123,5405,139123,23809,139123.0,61495.0,-1241.4999678607805,-1090.911329535409,-2608.855436771196
139123,5422,139123,23790,139123.0,61498.0,-1244.5557098380891,-1087.7446542000614,-2604.615460327428
139123,5381,139123,23712,139123.0,61412.0,-1246.8383727780679,-1083.597337522172,-2598.0920673221567
139123,5351,139123,23645,139123.0,61350.0,-1248.3099865848353,-1078.4351435848964,-2589.1992636907507
139134,5328,139134,23666,139134.0,61378.0,-1248.9326280126697,-1072.2257941536602,-2577.8544894863
139134,5373,139134,23794,139134.0,61457.0,-1248.6691880442618,-1064.9402366396012,-2563.980085161994
139134,5406,139134,23840,139134.0,61515.0,-1247.483584084363,-1056.5522076352217,-2547.5033600371576
139134,5377,139134,23831,139134.0,61488.0,-1245.340319002412,-1047.0365725843264,-2528.3556884061936
139134,5316,139134,23676,139134.0,61372.0,-1242.2042179148086,-1036.3683933102654,-2506.47221818697
139134,5307,139134,23630,139134.0,61339.0,-1238.041062271882,-1024.5241084410247,-2481.7933174825002
139144,5316,139144,23683,139144.0,61394.0,-1232.8187135868993,-1011.4840524377922,-2454.2670710413904
139144,5354,139144,23793,139144.0,61506.0,-1226.5078192507322,-997.2340656111494,-2423.850924194104
139144,5388,139144,23869,139144.0,61557.0,-1219.081751357295,-981.7649612731273,-2390.5115207229564
139144,5380,139144,23835,139144.0,61545.0,-1210.5160951853693,-965.0708157949721,-2354.223683130933
139144,5329,139144,23736,139144.0,61487.0,-1200.7883782865965,-947.1480711925367,-2314.9701917861335
139144,5317,139144,23726,139144.0,61515.0,-1189.8785893944942,-927.9965189571967,-2272.743001218526
139154,5370,139154,23843,139154.0,61650.0,-1177.7701580064445,-907.6210946887559,-2227.544831653293
139154,5413,139154,23968,139154.0,61780.0,-1164.450425913095,-886.0323363549655,-2179.3894563327235
139154,5449,139154,23981,139154.0,61787.0,-1149.9102347914531,-863.2449130615003,-2128.3004720356294
139154,5417,139154,23946,139154.0,61814.0,-1134.1432636934815,-839.2758915425889,-2074.310140965871
139154,5396,139154,23842,139154.0,61788.0,-1117.1459687125762,-814.1446077994611,-2017.4595903303707
139154,5387,139154,23874,139154.0,61841.0,-1098.9183516843839,-787.8743335602768,-1957.800137846845
139165,5449,139165,23981,139165.0,62004.0,-1079.464959003955,-760.4941806763733,-1895.3945781888967
139165,5525,139165,24109,139165.0,62159.0,-1058.7952201094743,-732.0393970490783,-1830.3171152925108
139165,5547,139165,24144,139165.0,62279.0,-1036.922840133463,-702.5498446938998,-1762.6516511159555
139165,5538,139165,24109,139165.0,62287.0,-1013.8649628127102,-672.0682696891613,-1692.4897175667984
139165,5535,139165,24092,139165.0,62268.0,-989.6420098414787,-640.6399432542718,-1619.9297204815357
139165,5568,139165,24132,139165.0,62407.0,-964.2782224192446,-608.3136341247025,-1545.0778225594781
139175,5649,139175,24329,139175.0,62639.0,-937.8021393586896,-575.142368675811,-1468.0487418920814
139175,5702,139175,24402,139175.0,62740.0,-910.246357300608,-541.1825039436769,-1388.9646635542401
139175,5741,139175,24403,139175.0,62800.0,-881.6466955569251,-506.4915732408957,-1307.9530113440997
139175,5730,139175,24315,139175.0,62842.0,-852.0414890210511,-471.12703960367236,-1225.145172296944
139175,5737,139175,24338,139175.0,62899.0,-821.4715827242984,-435.14712897082325,-1140.6767688731234
139175,5785,139175,24427,139175.0,63049.0,-789.9809073940231,-398.6125674682476,-1054.6884950781782
139185,5866,139185,24565,139185.0,63223.0,-757.6169020962318,-361.58722348559365,-967.3262513319602
139185,5948,139185,24672,139185.0,63417.0,-724.4301551806063,-324.1369139121984,-878.7398793877202
139185,5981,139185,24646,139185.0,63469.0,-690.4733955572201,-286.32739242549434,-789.0809924409994
139185,5971,139185,24617,139185.0,63507.0,-655.8006320412296,-248.22328037420107,-698.5013971883063
139185,5996,139185,24629,139185.0,63567.0,-620.4671149840847,-209.88871726575837,-607.153133005721
139185,6076,139185,24764,139185.0,63798.0,-584.5298432145066,-171.38861571352527,-515.1892956254949
139196,6165,139196,24923,139196.0,63985.0,-548.047651204281,-132.78867514824685,-422.7637239157723
139196,6219,139196,24966,139196.0,64084.0,-511.0804496291047,-94.15362197679349,-330.0290145899544
139196,6226,139196,24926,139196.0,64121.0,-473.68823667993865,-55.54518983838807,-237.13449503740435
139196,6242,139196,24876,139196.0,64130.0,-435.93072815123617,-17.02175838496271,-144.22584319534894
139196,6285,139196,24889,139196.0,64243.0,-397.8677095968315,21.360157136591283,-51.44628283974953
139196,6363,139196,25030,139196.0,64460.0,-359.5594529291287,59.54416007392092,41.0622532261018
139206,6443,139206,25154,139206.0,64624.0,-321.0665499525559,97.47374900490445,133.15960964429087
139206,6495,139206,25208,139206.0,64740.0,-282.4491325453058,135.09386554571597,224.70942578982704
139206,6523,139206,25173,139206.0,64776.0,-243.76601179254953,172.35266093630037,315.58102490590454
139206,6515,139206,25130,139206.0,64797.0,-205.07434124376516,209.2018075357836,405.6498418150686
139206,6567,139206,25180,139206.0,64914.0,-166.4299663100619,245.59526381591888,494.7964784377143
139206,6663,139206,25355,139206.0,65122.0,-127.88788725567235,281.48809923886563,582.9058199124031
139216,6738,139216,25416,139216.0,65229.0,-89.50201841014461,316.8369994963946,669.8675953754755
139216,6770,139216,25435,139216.0,65301.0,-51.3242539611914,351.6020346552406,755.5779358439063
139216,6756,139216,25366,139216.0,65297.0,-13.403747235112178,385.74774276088397,839.9402368943836
139216,6793,139216,25327,139216.0,65351.0,24.2129445529863,419.2424009532815,922.8645058522261
139216,6825,139216,25396,139216.0,65476.0,61.48117749461278,452.05613891535415,1004.265955528585
139216,6914,139216,25503,139216.0,65647.0,98.3577828022485,484.15959157990824,1084.0643308283647
139227,6973,139227,25653,139227.0,65760.0,134.80129967830624,515.5243447609168,1162.184717742878
139227,7009,139227,25611,139227.0,65789.0,170.77268636243912,546.1247597981242,1238.5590157001775
139227,6999,139227,25580,139227.0,65774.0,206.23585298989644,575.939338563669,1313.1265073161726
139227,7011,139227,25536,139227.0,65864.0,241.1574751692399,604.950269714679,1385.8329449265893
139227,7086,139227,25646,139227.0,66002.0,275.5063242058462,633.141873290708,1456.6293114261211
139227,7165,139227,25769,139227.0,66152.0,309.25298121134085,660.4998870174811,1525.4718033116246
139237,7208,139237,25831,139237.0,66250.0,342.3703793110267,687.0125480049492,1592.3232115660553
139237,7207,139237,25753,139237.0,66188.0,374.8345880243602,712.6723026114007,1657.1543681690996
139237,7202,139237,25664,139237.0,66150.0,406.62497656607707,737.4760644642226,1719.9439736820373
139237,7227,139237,25658,139237.0,66227.0,437.7236091150413,761.4234117472467,1780.6765781859126
139237,7287,139237,25764,139237.0,66326.0,468.1144980580941,784.5143205900263,1839.3404951409948
139237,7344,139237,25870,139237.0,66488.0,497.78339981861654,806.7484684354026,1895.927354694089
139247,7394,139247,25930,139247.0,66536.0,526.7182549810682,828.1264817866358,1950.4332502839302
139247,7377,139247,25873,139247.0,66518.0,554.9097672448343,848.651677333316,2002.8600723340242
139247,7377,139247,25796,139247.0,66518.0,582.3514598425961,868.3305115052481,2053.215582199736
139247,7391,139247,25819,139247.0,66561.0,609.0390458083707,887.1713052712475,2101.5121898905036
139247,7487,139247,25935,139247.0,66722.0,634.9697518103958,905.1827111833024,2147.7658397958235
139247,7511,139247,26030,139247.0,66784.0,660.1423566160479,922.3737336399074,2191.9962526656595
139258,7522,139258,26008,139258.0,66767.0,684.557788457744,938.7552676890568,2234.2280902625257
139258,7502,139258,25913,139258.0,66706.0,708.2193969762948,954.3412699667745,2274.491297604882
139258,7498,139258,25869,139258.0,66711.0,731.1324565210762,969.1480658865428,2312.819765980763
139258,7535,139258,25913,139258.0,66786.0,753.3032791439982,983.192397730006,2349.2493620476494
139258,7587,139258,26018,139258.0,66899.0,774.7386312658643,996.490125545226,2383.8169490197447
139258,7653,139258,26082,139258.0,66982.0,795.4458889211853,1009.0566974194026,2416.5610119881853
139268,7656,139268,26073,139268.0,66923.0,815.4337492312657,1020.9087207863556,2447.522975513167
139268,7636,139268,25990,139268.0,66880.0,834.712783492635,1032.064990999618,2476.747548745093
139268,7618,139268,25920,139268.0,66886.0,853.2952103180253,1042.5458757257527,2504.2814673648354
139268,7662,139268,26053,139268.0,67014.0,871.1940726528389,1052.3716657210116,2530.1719200233474
139268,7727,139268,26137,139268.0,67112.0,888.4226925292423,1061.5619029231511,2554.466394138867
139268,7751,139268,26184,139268.0,67074.0,904.994957643589,1070.1366788539003,2577.2139678664234
139278,7730,139278,26066,139278.0,67043.0,920.9259678027975,1078.1183950226914,2598.466290114652
139278,7703,139278,25993,139278.0,66990.0,936.2321240463702,1085.5318638147426,2618.27697612755
139278,7710,139278,25966,139278.0,66982.0,950.9304231847975,1092.402484034596,2636.6998884992863
139278,7752,139278,26031,139278.0,67081.0,965.0375987529912,1098.7541295340725,2653.7875606651583
139278,7806,139278,26119,139278.0,67128.0,978.5698626879464,1104.6084358843348,2669.5908094362358
139278,7826,139278,26160,139278.0,67188.0,991.5433827853603,1109.985775746932,2684.1596158384273
139289,7809,139289,26072,139289.0,67086.0,1003.9749267461045,1114.9067262217723,2697.544151472341
139289,7788,139289,26014,139289.0,67055.0,1015.8819720814424,1119.3923700785676,2709.794631335203
139289,7782,139289,26019,139289.0,67082.0,1027.2821315823253,1123.4630821264666,2720.959930778822
139289,7840,139289,26165,139289.0,67194.0,1038.1924300815872,1127.1373502184526,2731.086458500094
139289,7881,139289,26171,139289.0,67278.0,1048.6291564402582,1130.4322148122817,2740.218647982613
139289,7879,139289,26159,139289.0,67223.0,1058.6083974693265,1133.3648347250864,2748.4006206708386
139299,7852,139299,26062,139299.0,67130.0,1068.146530792735,1135.9533167000375,2755.677145468388
139299,7827,139299,26010,139299.0,67077.0,1077.2600042570689,1138.2158935048371,2762.0926606875832
139299,7844,139299,26049,139299.0,67141.0,1085.9645450479607,1140.1692007854767,2767.6892434047177
139299,7902,139299,26135,139299.0,67218.0,1094.2745406962829,1141.8272184616494,2772.5054776950856
139299,7928,139299,26211,139299.0,67295.0,1102.2031763288514,1143.20187990151,2776.5771229813718
139299,7931,139299,26173,139299.0,67229.0,1109.763121281479,1144.3047777313845,2779.9387049774546
139309,7886,139309,26060,139309.0,67183.0,1116.9669733718845,1145.148247744568,2782.62435647109
139309,7882,139309,26036,139309.0,67101.0,1123.8269544927741,1145.7446648654327,2784.66706091153
139309,7923,139309,26091,139309.0,67213.0,1130.3542072262426,1146.1047744302973,2786.0971051721185
139309,7982,139309,26220,139309.0,67309.0,1136.5585663383727,1146.2370639034903,2786.941527380608
139309,7988,139309,26225,139309.0,67292.0,1142.4491609721167,1146.1490185772118,2787.2253319049933
139309,7956,139309,26124,139309.0,67209.0,1148.0351874862686,1145.8488848438385,2786.9729791358745
139320,7927,139320,26046,139320.0,67122.0,1153.3259844669549,1145.3458826654237,2786.208242907642
139320,7911,139320,26011,139320.0,67108.0,1158.330314501799,1144.64855734531,2784.9524529873734
139320,7966,139320,26093,139320.0,67201.0,1163.0555263223346,1143.7628933418398,2783.2227509754066
139320,8001,139320,26192,139320.0,67243.0,1167.5073660548542,1142.6919100276857,2781.031846382288
139320,8023,139320,26229,139320.0,67343.0,1171.6905830544479,1141.437091333629,2778.3893755438326
139320,7983,139320,26124,139320.0,67232.0,1175.6096724257598,1140.0002730394065,2775.3037134816036
139330,7962,139330,26047,139330.0,67127.0,1179.2689870840159,1138.3840651163694,2771.782613338092
139330,7963,139330,26064,139330.0,67161.0,1182.672158500713,1136.5905055019005,2767.8319951682965
139330,8027,139330,26149,139330.0,67257.0,1185.821534301333,1134.6196836054748,2763.4544825855805
139330,8050,139330,26237,139330.0,67318.0,1188.7183469766235,1132.4700071067314,2758.6496946116063
139330,8045,139330,26183,139330.0,67273.0,1191.3634841143491,1130.1398550294762,2753.4159445669297
139330,8001,139330,26062,139330.0,67163.0,1193.7580182411764,1127.6287290025448,2747.7513222875505
139340,7985,139340,26041,139340.0,67131.0,1195.9029417452268,1124.9365084111157,2741.652977864608
139340,7990,139340,26067,139340.0,67186.0,1197.79839624093,1122.0616594232417,2735.1155095561107
139340,8032,139340,26127,139340.0,67262.0,1199.443122868444,1119.000284017244,2728.1303198224955
139340,8058,139340,26215,139340.0,67327.0,1200.8345908912772,1115.7467517752036,2720.6866904682847
139340,8052,139340,26158,139340.0,67233.0,1201.9696164287218,1112.2952669745418,2712.773579467729
139340,8014,139340,26069,139340.0,67162.0,1202.8448136936775,1108.6409140693222,2704.3804054815764
139351,8008,139351,26001,139351.0,67105.0,1203.4564174295294,1104.7790282220224,2695.4960858076693
139351,8042,139351,26107,139351.0,67226.0,1203.7997741450897,1100.7035892336962,2686.107534253367
139351,8089,139351,26199,139351.0,67286.0,1203.8692571211836,1096.4067052515068,2676.1995276672083
139351,8102,139351,26215,139351.0,67311.0,1203.6589068747428,1091.8800546264247,2665.7563462986204
139351,8061,139351,26123,139351.0,67213.0,1203.1632427594768,1087.1167825424523,2654.7636281785817
139351,8025,139351,26056,139351.0,67130.0,1202.377430332423,1082.1118977593821,2643.208717854271
139361,8015,139361,25983,139361.0,67102.0,1201.2966468140955,1076.860912674993,2631.0793662559036
139361,8047,139361,26095,139361.0,67180.0,1199.915306561821,1071.3580928905476,2618.3622250286103
139361,8091,139361,26174,139361.0,67243.0,1198.2269076390992,1065.596056838634,2605.042728406101
139361,8123,139361,26182,139361.0,67243.0,1196.2246919178224,1059.5672214732704,2591.1065087682523
139361,8071,139361,26097,139361.0,67180.0,1193.9025866808101,1053.2655784845047,2576.5409823565446
139361,8042,139361,26004,139361.0,67071.0,1191.2555597610708,1046.6869556372167,2561.3356809007337
139372,8041,139372,26020,139372.0,67090.0,1188.279135447214,1039.8276723581098,2545.4811858765356
139372,8089,139372,26129,139372.0,67182.0,1184.9688221211568,1032.683281543918,2528.968072225606
139372,8117,139372,26167,139372.0,67210.0,1181.3202632886785,1025.2490005036452,2511.787389755953
139372,8095,139372,26131,139372.0,67147.0,1177.3300048908307,1017.5214223838453,2493.932293970044
139372,8045,139372,26027,139372.0,67055.0,1172.9960229995745,1009.4996119942554,2475.398976919235
139372,8008,139372,25951,139372.0,67000.0,1168.3173927489277,1001.1844326154387,2456.18598560138
139382,8023,139382,25997,139382.0,67027.0,1163.293394034254,992.5767878413337,2436.2928103704253
139382,8069,139382,26076,139382.0,67087.0,1157.922942430987,983.6765674108855,2415.719257158137
139382,8084,139382,26141,139382.0,67107.0,1152.2048998609766,974.4834120769166,2394.4662652854895
139382,8086,139382,26072,139382.0,67072.0,1146.1389432686442,964.9985487330765,2372.537452441462
139382,8032,139382,26007,139382.0,66986.0,1139.7262061337533,955.2259027793853,2349.9400814852415
139382,8010,139382,25943,139382.0,66941.0,1132.969197014338,945.1715810492913,2326.6847952819917
139392,8024,139392,25987,139392.0,66960.0,1125.8712136451509,934.8425265656698,2302.7846900251934
139392,8093,139392,26070,139392.0,67027.0,1118.436080215205,924.2459092721645,2278.2549996245216
139392,8082,139392,26099,139392.0,66997.0,1110.6687622172592,913.3900599819473,2253.1139998738054
139392,8014,139392,25967,139392.0,66848.0,1102.5762536487255,902.286000203167,2227.384091707264
139392,7973,139392,25866,139392.0,66754.0,1094.167615257765,890.9476187196105,2201.091393377701
139392,7944,139392,25831,139392.0,66735.0,1085.4530381383306,879.3899279294329,2174.2638165527173
139403,7992,139403,25900,139403.0,66772.0,1076.442875442091,867.6270366957935,2146.9293901819638
139403,8009,139403,25955,139403.0,66804.0,1067.1474938723568,855.6716707068963,2119.1161608306
139403,8012,139403,26004,139403.0,66775.0,1057.5779426037668,843.5364341712352,2090.853344778811
139403,7970,139403,25902,139403.0,66655.0,1047.7466986060826,831.2355293868234,2062.172362935324
139403,7916,139403,25776,139403.0,66612.0,1037.6677675640262,818.7852358606614,2033.1066425399795
139403,7895,139403,25775,139403.0,66595.0,1027.356040826222,806.2025434225684,2003.6905003369166
139413,7941,139413,25889,139413.0,66658.0,1016.8265251697003,793.5035092213798,1973.958486317557
139413,7965,139413,25951,139413.0,66686.0,1006.0942908182983,780.703462967396,1943.9460712893856
139413,7911,139413,25887,139413.0,66587.0,995.175147348321,767.8189000243805,1913.6911428803937
139413,7880,139413,25784,139413.0,66447.0,984.0860836997202,754.8688317020012,1883.2346756755865
139413,7843,139413,25681,139413.0,66348.0,972.8448990655725,741.8741047697246,1852.6194976356435
139413,7813,139413,25681,139413.0,66390.0,961.469408619164,728.8553331241942,1821.8880844151645
139423,7836,139423,25768,139423.0,66437.0,949.9767739622797,715.8312703951702,1791.0814201200137
139423,7878,139423,25812,139423.0,66455.0,938.3833887772013,702.8189726578698,1760.2398054787222
139423,7873,139423,25790,139423.0,66408.0,926.7055154274348,689.8353701843669,1729.404588090987
139423,7798,139423,25648,139423.0,66255.0,914.9600769969062,676.8984526302963,1698.6191276727861
139423,7756,139423,25614,139423.0,66174.0,903.1646429687082,664.0267273965238,1667.9280357049179
139423,7778,139423,25684,139423.0,66236.0,891.3366221611122,651.2376831714407,1637.3754146000772
139434,7819,139434,25751,139434.0,66296.0,879.4927531405544,638.5472939235323,1607.00413283813
139434,7814,139434,25799,139434.0,66205.0,867.6495593776924,625.9713520289906,1576.8568793731315
139434,7768,139434,25650,139434.0,66116.0,855.8241655329371,613.5272700654057,1546.9772737318065
139434,7700,139434,25564,139434.0,66004.0,844.0344624709221,601.2343675004079,1517.4093790582463
139434,7647,139434,25493,139434.0,65928.0,832.2982926060914,589.1121418505275,1488.1958919200692
139434,7706,139434,25580,139434.0,66010.0,820.6322904553684,577.1781082709107,1459.3763653801386
139444,7718,139444,25656,139444.0,66040.0,809.0514544483149,565.4471841361212,1430.9868502131505
139444,7730,139444,25634,139444.0,66016.0,797.5697732547671,553.9329479168505,1403.0611573823694
139444,7682,139444,25534,139444.0,65918.0,786.2010946282851,542.6491164583493,1375.6322410209477
139444,7626,139444,25477,139444.0,65818.0,774.9593357494704,531.6095119525888,1348.7322073034402
139444,7612,139444,25435,139444.0,65772.0,763.8578868860792,520.8266375574651,1322.3909602788228
139444,7662,139444,25527,139444.0,65875.0,752.9088980107657,510.31033044542966,1296.6348375008013
139454,7673,139454,25642,139454.0,65918.0,742.1233242169344,500.06791051277224,1271.4868028748908
139454,7667,139454,25568,139454.0,65818.0,731.5117173952449,490.10596001507326,1246.9680886062665
139454,7597,139454,25459,139454.0,65714.0,721.084875396356,480.43188824373465,1223.0992395096564
139454,7546,139454,25382,139454.0,65650.0,710.853613722297,471.05343133855956,1199.8992658263276
139454,7556,139454,25421,139454.0,65664.0,700.8278152244663,461.97672851669455,1177.3839299099395
139454,7594,139454,25502,139454.0,65710.0,691.0157025416858,453.20513581183604,1155.5648721704852
139465,7615,139465,25564,139465.0,65756.0,681.4240615019828,444.739928629509,1134.4502375271913
139465,7583,139465,25510,139465.0,65663.0,672.0590853533286,436.5821199417236,1114.0460997533164
139465,7533,139465,25403,139465.0,65572.0,662.9268904717264,428.73356664440087,1094.3571595729845
139465,7500,139465,25339,139465.0,65538.0,654.0331893157903,421.19624694061247,1075.3859290768055
139465,7524,139465,25410,139465.0,65612.0,645.3825271980037,413.9705282991052,1057.1314728518157
139465,7543,139465,25496,139465.0,65673.0,636.9779164643847,407.0544071557083,1039.5894016230613
139475,7561,139475,25504,139475.0,65666.0,628.8212139930995,400.44458245360534,1022.7533774667397
139475,7541,139475,25410,139475.0,65592.0,620.9138412136319,394.13804361337674,1006.6167424470824
139475,7481,139475,25321,139475.0,65480.0,613.2571706562784,388.13228084943717,991.1727935476904
139475,7458,139475,25288,139475.0,65435.0,605.852176261179,382.42380020338675,976.4134734011375
139475,7473,139475,25379,139475.0,65505.0,598.6986570331011,377.00641058248686,962.3276730588162
139475,7532,139475,25461,139475.0,65583.0,591.7948981427127,371.87100106603657,948.900830805554
139485,7519,139485,25503,139485.0,65573.0,585.1382146994192,367.00712437946606,936.1162584286483
139485,7491,139485,25415,139485.0,65489.0,578.7257913668203,362.404992471666,923.9567484386517
139485,7441,139485,25292,139485.0,65404.0,572.554907225957,358.0560328109541,912.4047891480213
139485,7417,139485,25309,139485.0,65417.0,566.6223516965935,353.95151596922176,901.4413557772066
139485,7470,139485,25413,139485.0,65510.0,560.923665031462,350.0809263707781,891.0448485629922
139485,7500,139485,25500,139485.0,65559.0,555.453055477021,346.432148784907,881.191603184094
139496,7478,139496,25453,139496.0,65529.0,550.2041187142476,342.9933575700772,871.8576301603882
139496,7420,139496,25332,139496.0,65423.0,545.1704531344172,339.7544456903081,863.0198557154762
139496,7405,139496,25262,139496.0,65347.0,540.3454021381472,336.7063627564897,854.6556384898475
139496,7405,139496,25304,139496.0,65378.0,535.7212636493887,333.8390687007161,846.7410788983937
139496,7446,139496,25376,139496.0,65477.0,531.2888230972851,331.1401979404943,839.2499067933072
139496,7481,139496,25450,139496.0,65505.0,527.0376573593093,328.5955878881004,832.1541502986037
139506,7477,139506,25461,139506.0,65481.0,522.9570116341985,326.1910650836467,825.4258641882914
139506,7431,139506,25329,139506.0,65381.0,519.0365594831749,323.91392100908405,819.038176271563
139506,7382,139506,25287,139506.0,65344.0,515.2663724801037,321.75272011093,812.9647662852726
139506,7423,139506,25327,139506.0,65407.0,511.63620503598634,319.6957561416354,807.178559315932
139506,7467,139506,25459,139506.0,65532.0,508.13505396409226,317.7301627025393,801.6513891695148
139506,7467,139506,25484,139506.0,65485.0,504.7516326127542,315.8429836679888,796.3553772881958
139516,7445,139516,25396,139516.0,65389.0,501.4751993464568,314.0231090640419,791.2645022255272
139516,7386,139516,25267,139516.0,65323.0,498.2958017267576,312.2618223819895,786.3544420806007
139516,7372,139516,25219,139516.0,65302.0,495.2036918666083,310.5511259094091,781.6008829822559
139516,7397,139516,25328,139516.0,65360.0,492.1884657585671,308.88140870819717,776.9779660110528
139516,7451,139516,25391,139516.0,65419.0,489.238776859616,307.24071396306164,772.4580612792869
139516,7450,139516,25446,139516.0,65455.0,486.3429338984367,305.61609575722275,768.0128841698007
139527,7419,139527,25358,139527.0,65384.0,483.4897498414185,303.9954972679495,763.6149488234105
139527,7383,139527,25278,139527.0,65320.0,480.6687823059922,302.36833550624505,759.2380564963524
139527,7369,139527,25292,139527.0,65299.0,477.86982614174923,300.72444692588186,754.8564432545602
139527,7436,139527,25401,139527.0,65425.0,475.08233241652283,299.0529100127114,750.4437454190552
139527,7458,139527,25458,139527.0,65463.0,472.2955575550833,297.34244915797115,745.973339834928
139527,7425,139527,25417,139527.0,65427.0,469.49938832718817,295.58315100761484,741.4199707627638
139537,7375,139537,25316,139537.0,65322.0,466.6848412839365,293.7675953886204,736.7608489600447
139537,7357,139537,25216,139537.0,65273.0,463.8436217535152,291.89008570522094,731.9749953580639
139537,7361,139537,25259,139537.0,65318.0,460.96724457029654,289.9445517631224,727.0416172971893
139537,7386,139537,25379,139537.0,65379.0,458.0465161803739,287.92309632454885,721.9392543567906
139537,7432,139537,25430,139537.0,65459.0,455.0717224336961,285.8166507726571,716.6465525108623
139537,7428,139537,25384,139537.0,65360.0,452.0333847430616,283.61697314417614,711.1439043486786
139547,7372,139547,25267,139547.0,65300.0,448.92297779866345,281.3177950945259,705.4142763453185
139547,7351,139547,25207,139547.0,65246.0,445.7329048821549,278.91393215083747,699.4423839597366
139547,7370,139547,25300,139547.0,65310.0,442.45584640509674,276.3993814613433,693.2132249467742
139547,7401,139547,25433,139547.0,65385.0,439.08436223662,273.76666366633987,686.7116247605614
139547,7414,139547,25424,139547.0,65394.0,435.6112216076239,271.0083804704863,679.9233065326606
139547,7391,139547,25348,139547.0,65333.0,432.03005810743264,268.1193307176749,672.8363953159272
139558,7345,139558,25240,139558.0,65214.0,428.33564979233154,265.0969327891777,665.4417744895633
139558,7325,139558,25208,139558.0,65192.0,424.52351093086946,261.9396640942701,657.7318171028468
139558,7352,139558,25289,139558.0,65262.0,420.58918613354354,258.6451306508723,649.6986945464303
139558,7377,139558,25366,139558.0,65333.0,416.52798162508583,255.20957602474925,641.3340092744947
139558,7399,139558,25377,139558.0,65316.0,412.33541307617566,251.62915147869074,632.6300533619104
139558,7358,139558,25309,139558.0,65248.0,408.00791480323204,247.9015166715564,623.5812158376607
139568,7315,139568,25194,139568.0,65152.0,403.54308193397515,244.02610549538468,614.1840576634191
139568,7305,139568,25184,139568.0,65144.0,398.93917447113273,240.00272725530112,604.4360201276405
139568,7350,139568,25316,139568.0,65267.0,394.194464140166,235.8299663679581,594.3341914676323
139568,7358,139568,25363,139568.0,65293.0,389.3072133292629,231.50529907830992,583.8756880430074
139568,7353,139568,25340,139568.0,65260.0,384.2762639142506,227.02686450098173,573.0593890837241
139568,7309,139568,25229,139568.0,65130.0,379.1015095026863,222.39482585901015,561.8870701734292
139578,7274,139578,25157,139578.0,65053.0,373.78372900852173,217.61085274650327,550.3626342377243
139578,7258,139578,25170,139578.0,65037.0,368.3238827456828,212.67628902871428,538.4900551905773
139578,7306,139578,25276,139578.0,65153.0,362.7224639687379,207.5908216139165,526.2718332110139
139578,7331,139578,25325,139578.0,65194.0,356.97955139838956,202.35296143193483,513.7093518231457
139578,7303,139578,25285,139578.0,65143.0,351.0955222378341,196.9617841476546,500.8046570677104
139578,7259,139578,25221,139578.0,65055.0,345.07158582591944,191.418139649151,487.5617098580615
139589,7244,139589,25119,139589.0,64982.0,338.9095510292264,185.724241565307,473.9859235126187
139589,7250,139589,25187,139589.0,65060.0,332.6112057670324,179.8821710467816,460.08279379334977
139589,7299,139589,25317,139589.0,65113.0,326.17807357736933,173.89305133426512,445.85740821964987
139589,7283,139589,25331,139589.0,65110.0,319.61184869885864,167.75820239298156,431.31553063418164
139589,7259,139589,25231,139589.0,65020.0,312.91504415700615,161.48118275554776,416.4650162532391
139589,7212,139589,25121,139589.0,64892.0,306.0911343717408,155.06833052441527,401.3158793345858
139599,7165,139599,25061,139599.0,64876.0,299.1439797104627,148.52713153734703,385.87872988133745
139599,7190,139599,25111,139599.0,64956.0,292.0769254786379,141.86394038628254,370.16304221264477
139599,7236,139599,25215,139599.0,64988.0,284.8923280519076,135.08300088363865,354.17698939217144
139599,7236,139599,25213,139599.0,64982.0,277.5919896872015,128.1874133680945,337.9288168941507
139599,7211,139599,25159,139599.0,64871.0,270.17801219004605,121.18078995012723,321.4281261315498
139599,7149,139599,25079,139599.0,64800.0,262.6531344116703,114.06781266083635,304.6857420251679
139610,7158,139610,25057,139610.0,64790.0,255.02028434656387,106.8533220133694,287.7123565491311
139610,7183,139610,25171,139610.0,64886.0,247.28199737817937,99.54120267533403,270.51744748063675
139610,7216,139610,25213,139610.0,64889.0,239.44049589950436,92.13461626709886,253.1097267136147
139610,7198,139610,25173,139610.0,64816.0,231.4984281980257,84.63755686877766,235.49855117744823
139610,7132,139610,25046,139610.0,64742.0,223.45947120244824,77.05591384342097,217.69457590047296
139610,7090,139610,24965,139610.0,64670.0,215.32807453019512,69.3966232106053,199.70894869533367
139620,7081,139620,24994,139620.0,64683.0,207.1084894003278,61.66555092806118,181.55188393985486
139620,7112,139620,25080,139620.0,64722.0,198.8039484251608,53.866072903692725,163.23184551933582
139620,7151,139620,25144,139620.0,64762.0,190.41668623562566,45.999606263961255,144.75599428470332
139620,7120,139620,25111,139620.0,64712.0,181.94868750456283,38.06744417245204,126.13147476001313
139620,7070,139620,25033,139620.0,64596.0,173.40232041950242,30.072133498051585,107.36623959726307
139620,7049,139620,24933,139620.0,64531.0,164.7801735389528,22.01720532777813,88.46841586424034
139630,7061,139630,24998,139630.0,64618.0,156.08441569982256,13.905687268121255,69.44486859003564
139630,7113,139630,25116,139630.0,64673.0,147.31656325745462,5.739232940339889,50.30083729361445
139630,7104,139630,25116,139630.0,64646.0,138.4780471867599,-2.480822081340307,31.041276666509702
139630,7059,139630,25039,139630.0,64574.0,129.57102751172033,-10.751578857044592,11.672391527870559
139630,7024,139630,24926,139630.0,64440.0,120.59858885524022,-19.068057917981946,-7.798261198714499
139630,6975,139630,24879,139630.0,64401.0,111.56414097057291,-27.42462118974902,-27.363251427417254
139641,7006,139641,24937,139641.0,64465.0,102.47057663165958,-35.81694488306346,-47.01705701945116
139641,7049,139641,25027,139641.0,64515.0,93.31994162344733,-44.24272217283624,-66.75647570010847
139641,7039,139641,25056,139641.0,64530.0,84.11397493582194,-52.700492733785495,-86.57932393389251
139641,6997,139641,24923,139641.0,64440.0,74.85492209022209,-61.18792070766551,-106.48277270061021
139641,6938,139641,24882,139641.0,64325.0,65.54567240906238,-69.7014659592769,-126.46291090849945
139641,6932,139641,24853,139641.0,64325.0,56.189074442884476,-78.23768143138545,-146.5158623673285
139651,6965,139651,24956,139651.0,64400.0,46.78718835798543,-86.79446309263051,-166.6390418690271
139651,7003,139651,24996,139651.0,64440.0,37.34130694292753,-95.37079550656551,-186.83089105230692
139651,6979,139651,24970,139651.0,64405.0,27.85276135296988,-103.96525415506869,-207.0892560432519
139651,6926,139651,24863,139651.0,64293.0,18.32365146008101,-112.57487746786353,-227.41011091457744
139651,6893,139651,24783,139651.0,64188.0,8.756749956148724,-121.19568355877061,-247.78793032679778
139651,6864,139651,24802,139651.0,64183.0,-0.845266059140954,-129.82441285288007,-268.2174139988433
139661,6890,139661,24864,139661.0,64270.0,-10.480555885295075,-138.45984334279422,-288.69490373045187
139661,6939,139661,24968,139661.0,64276.0,-20.14821127157836,-147.10241577055285,-309.21810284831736
139661,6926,139661,24874,139661.0,64263.0,-29.847549923905603,-155.75254114539007,-329.78454746911143
139661,6861,139661,24820,139661.0,64135.0,-39.57728242932251,-164.4093714724679,-350.390499241277
139661,6849,139661,24759,139661.0,64090.0,-49.335447114076146,-173.07123780579195,-371.0312998547229
139661,6837,139661,24810,139661.0,64105.0,-59.12000157793284,-181.7369502148788,-391.70264508882724
139672,6891,139672,24905,139672.0,64201.0,-68.92918255645418,-190.4062638379147,-412.40116969248743
139672,6892,139672,24928,139672.0,64206.0,-78.76111408333793,-199.07875014294297,-433.1233920933314
139672,6824,139672,24827,139672.0,64074.0,-88.61307483156327,-207.75207515967298,-453.86403496884236
139672,6786,139672,24719,139672.0,63957.0,-98.48137180260892,-216.42158700767357,-474.61575160135226
139672,6748,139672,24650,139672.0,63918.0,-108.36210377591158,-225.081880628516,-495.37080864708037
139672,6758,139672,24728,139672.0,63971.0,-118.25212859387341,-233.72898396892106,-516.1230620534943
139682,6792,139682,24804,139682.0,64033.0,-128.14948967377939,-242.3611926468485,-536.8683787096834
139682,6825,139682,24832,139682.0,64027.0,-138.05300638430208,-250.97793194181963,-557.6033441569652
139682,6792,139682,24757,139682.0,63948.0,-147.96132584446036,-259.5779717117164,-578.3236569246478
139682,6740,139682,24658,139682.0,63832.0,-157.87226794418234,-268.15882573810836,-599.0237557443227
139682,6691,139682,24645,139682.0,63805.0,-167.78307885016386,-276.71781517036334,-619.6979853747159
139682,6729,139682,24735,139682.0,63930.0,-177.69125106116292,-285.2534503720598,-640.3419129452068
139692,6755,139692,24780,139692.0,63927.0,-187.59491443005618,-293.76542930261553,-660.9520404365744
139692,6759,139692,24775,139692.0,63890.0,-197.49232670812228,-302.25320391649177,-681.524132014285
139692,6693,139692,24639,139692.0,63742.0,-207.38111936369955,-310.71475583921574,-702.0521861367511
139692,6646,139692,24607,139692.0,63696.0,-217.2582600063522,-319.1469858108969,-722.5292425369084
139692,6646,139692,24598,139692.0,63686.0,-227.12081851655125,-327.5473021000197,-742.9491743105282
139692,6661,139692,24650,139692.0,63769.0,-236.9667032043094,-335.9147991208746,-763.307731000941
139703,6698,139703,24751,139703.0,63802.0,-246.79464866849833,-344.2499881625886,-783.6018938707239
139703,6668,139703,24681,139703.0,63748.0,-256.603560660732,-352.55334132406847,-803.8281870530791
139703,6628,139703,24606,139703.0,63622.0,-266.3919404709112,-360.8240956125611,-823.981622365382
139703,6588,139703,24547,139703.0,63570.0,-276.1579959935319,-369.06062250133436,-844.0563525079031
139703,6597,139703,24580,139703.0,63594.0,-285.90027358120733,-377.26182871045955,-864.0472536800014
139703,6632,139703,24707,139703.0,63677.0,-295.61805791894176,-385.42781547935874,-883.9506366886467
139713,6638,139713,24712,139713.0,63677.0,-305.3110461794713,-393.55878855441324,-903.7632752055322
139713,6618,139713,24632,139713.0,63556.0,-314.9785980232656,-401.6532105233971,-923.4808724465834
139713,6547,139713,24517,139713.0,63432.0,-324.61934261791134,-409.7072475578816,-943.0978929755786
139713,6519,139713,24462,139713.0,63416.0,-334.2316101827673,-417.7162088027319,-962.6092252323601
139713,6534,139713,24522,139713.0,63457.0,-343.8143177618514,-425.676628706105,-982.012041816218
139713,6577,139713,24593,139713.0,63513.0,-353.3673945540993,-433.58712453266946,-1001.3061294238908
139723,6580,139723,24624,139723.0,63531.0,-362.8912955465654,-441.4474362160406,-1020.4926177055984
139723,6562,139723,24563,139723.0,63461.0,-372.38610736611406,-449.2567920056713,-1039.572335461089
139723,6476,139723,24448,139723.0,63347.0,-381.851134758317,-457.0132937854323,-1058.5451965987288
139723,6468,139723,24453,139723.0,63355.0,-391.2854027968665,-464.7149170701765,-1077.4110448724225
139723,6518,139723,24541,139723.0,63427.0,-400.6884879671085,-472.36085484249816,-1096.1707087670861
139723,6527,139723,24605,139723.0,63431.0,-410.0606096296383,-479.951406203714,-1114.8257325598922
139734,6521,139734,24569,139734.0,63394.0,-419.4018867652851,-487.48639368003114,-1133.3770688835293
139734,6457,139734,24445,139734.0,63268.0,-428.7117050789832,-494.9639467248453,-1151.82434768408
139734,6414,139734,24380,139734.0,63208.0,-437.98890883930756,-502.381120653768,-1170.166654488063
139734,6396,139734,24382,139734.0,63203.0,-447.2326818854252,-509.73583097360927,-1188.404216944506
139734,6436,139734,24446,139734.0,63264.0,-456.44335489154366,-517.028320289207,-1206.5395182994491
139734,6470,139734,24525,139734.0,63309.0,-465.6224002535537,-524.260982062605,-1224.5768906907906
139744,6442,139744,24494,139744.0,63290.0,-474.7716530406242,-531.436873109305,-1242.5209909122932
139744,6407,139744,24426,139744.0,63173.0,-483.89260186396564,-538.5583738706881,-1260.3755447742706
139744,6362,139744,24343,139744.0,63110.0,-492.9864417243474,-545.6272692969471,-1278.1435518974226
139744,6384,139744,24404,139744.0,63145.0,-502.0546722559825,-552.6459709934328,-1295.828598697484
139744,6405,139744,24476,139744.0,63220.0,-511.09946017188406,-559.6182575450783,-1313.4355673951093
139744,6419,139744,24531,139744.0,63219.0,-520.1233064784959,-566.5484097756837,-1330.969749314474
139754,6381,139754,24460,139754.0,63154.0,-529.1283664746945,-573.4394713928955,-1348.4353175205736
139754,6352,139754,24319,139754.0,62985.0,-538.1161307641984,-580.2924987413218,-1365.8349314182371
139754,6301,139754,24272,139754.0,62967.0,-547.0877687513647,-587.1078336920032,-1383.1711916044385
139754,6320,139754,24333,139754.0,63050.0,-556.0448350612845,-593.887302768275,-1400.4486051780993
139754,6358,139754,24430,139754.0,63081.0,-564.9896710155372,-600.6351507928531,-1417.6739790061195
139754,6366,139754,24465,139754.0,63092.0,-573.9250235155592,-607.3568792656141,-1434.8550384282128
139765,6339,139765,24378,139765.0,62984.0,-582.8532252962437,-614.0573330943998,-1451.9989589765685
139765,6281,139765,24291,139765.0,62945.0,-591.7757904795957,-620.7400187630847,-1469.1121829597757
139765,6259,139765,24274,139765.0,62902.0,-600.6938179605706,-627.4081920979728,-1486.2013992646914
139765,6296,139765,24392,139765.0,62983.0,-609.6087047411467,-634.0662199867306,-1503.274471934949
139765,6328,139765,24425,139765.0,63009.0,-618.5222767149669,-640.7194188756977,-1520.34020830981
139765,6294,139765,24436,139765.0,62973.0,-627.4361486533408,-647.3724205012913,-1537.4070858761575
139775,6251,139775,24312,139775.0,62850.0,-636.3511471121836,-654.027786883241,-1554.4823298815838
139775,6206,139775,24212,139775.0,62804.0,-645.2675328474468,-660.6863517572496,-1571.5724868699351
139775,6199,139775,24225,139775.0,62800.0,-654.1858162934345,-667.3491284879578,-1588.6849596431548
139775,6237,139775,24280,139775.0,62852.0,-663.1074051723693,-674.0190642582216,-1605.8289836157146
139775,6267,139775,24364,139775.0,62916.0,-672.0344770996138,-680.7011024606788,-1623.015168047598
139775,6229,139775,24338,139775.0,62856.0,-680.9692046367478,-687.4007596147197,-1640.2540147036664
139785,6202,139785,24252,139785.0,62784.0,-689.913164478916,-694.1227931382645,-1657.554779624339
139785,6170,139785,24177,139785.0,62698.0,-698.8674669993969,-700.8713480794648,-1674.925754300165
139785,6154,139785,24259,139785.0,62762.0,-707.8333268294477,-707.6512568372549,-1692.375480261602
139785,6197,139785,24314,139785.0,62840.0,-716.8124936276571,-714.4686966922469,-1709.913237363134
139785,6204,139785,24373,139785.0,62813.0,-725.8071018273783,-721.3301830121318,-1727.547945407507
139785,6162,139785,24288,139785.0,62749.0,-734.8190748983532,-728.2408551611894,-1745.2866323421383
139796,6115,139796,24199,139796.0,62627.0,-743.8498631909503,-735.2037872219825,-1763.1341747494814
139796,6100,139796,24136,139796.0,62567.0,-752.9009240951816,-742.22104786136,-1781.0946503938824
139796,6117,139796,24198,139796.0,62646.0,-761.9744081804522,-749.295501421092,-1799.1731208061674
139796,6142,139796,24269,139796.0,62686.0,-771.0733207028794,-756.4315854691672,-1817.376155980003
139796,6154,139796,24330,139796.0,62701.0,-780.2010066322006,-763.6343139136965,-1835.710649725473
139796,6110,139796,24199,139796.0,62625.0,-789.360432657808,-770.9075740685778,-1854.1822408967623
139806,6074,139806,24125,139806.0,62499.0,-798.5539339012674,-778.2536562451293,-1872.7949066460478
139806,6044,139806,24114,139806.0,62486.0,-807.7836518999843,-785.6745864369442,-1891.552114058219
139806,6094,139806,24255,139806.0,62550.0,-817.0521436894346,-793.1735216185957,-1910.4582915156132
139806,6125,139806,24283,139806.0,62614.0,-826.3623564726299,-800.7543032662697,-1929.5188893936004
139806,6090,139806,24237,139806.0,62576.0,-835.7168524451122,-808.4196020789498,-1948.7388943572957
139806,6025,139806,24147,139806.0,62475.0,-845.1171984082122,-816.1697625056879,-1968.1214403570486
139816,5990,139816,24045,139816.0,62351.0,-854.5643295805039,-824.0035308786336,-1987.668054201054
139816,5983,139816,24066,139816.0,62385.0,-864.0595495940076,-831.9199912129452,-2007.3803534688575
139816,6038,139816,24159,139816.0,62458.0,-873.6051891815822,-839.9200087729678,-2027.2613773823516
139816,6054,139816,24231,139816.0,62485.0,-883.2043184168984,-848.005823506991,-2047.3150854014068
139816,6041,139816,24174,139816.0,62465.0,-892.8597917087432,-856.1792264023974,-2067.54461235408
139816,5976,139816,24072,139816.0,62333.0,-902.5735462521925,-864.4402918298359,-2087.951048720315
139827,5955,139827,24026,139827.0,62269.0,-912.3467731102133,-872.787948867533,-2108.533848907828
139827,5959,139827,24058,139827.0,62316.0,-922.180624926836,-881.2215719949957,-2129.29229274878
139827,5989,139827,24208,139827.0,62392.0,-932.0766122915219,-889.7416443630894,-2150.2261606666657
139827,6015,139827,24168,139827.0,62387.0,-942.0362414738435,-898.3485384627104,-2171.334661268799
139827,5962,139827,24170,139827.0,62375.0,-952.060235492538,-907.0405697313441,-2192.614635384334
139827,5918,139827,24003,139827.0,62175.0,-962.148162131213,-915.8132436118419,-2214.0597162781814
139837,5885,139837,23961,139837.0,62153.0,-972.2989039806798,-924.660404426925,-2235.661328492558
139837,5900,139837,24021,139837.0,62212.0,-982.511478755497,-933.5762601791444,-2257.4105804384726
139837,5927,139837,24102,139837.0,62232.0,-992.7853984036705,-942.5563022377881,-2279.298950381278
139837,5953,139837,24123,139837.0,62248.0,-1003.12024122025,-951.5962660828354,-2301.3172480303992
139837,5919,139837,24063,139837.0,62179.0,-1013.5147951840357,-960.6904061786313,-2323.4542342162713
139837,5852,139837,23970,139837.0,62065.0,-1023.9665698848904,-969.8308437415841,-2345.696216406518
139848,5827,139848,23930,139848.0,62029.0,-1034.472201228868,-979.0084995957571,-2368.027990770237
139848,5875,139848,24011,139848.0,62134.0,-1045.0282552124054,-988.2145296752162,-2390.4341072254383
139848,5895,139848,24080,139848.0,62137.0,-1055.6313744891543,-997.4405918650872,-2412.8987863632074
139848,5870,139848,24047,139848.0,62122.0,-1066.2775816582707,-1006.6775842442748,-2435.404444229308
139848,5831,139848,23944,139848.0,61999.0,-1076.961637919078,-1015.914409224547,-2457.930519338029
139848,5786,139848,23856,139848.0,61892.0,-1087.677151362108,-1025.1383646500183,-2480.453899700835
139858,5764,139858,23885,139858.0,61884.0,-1098.4172772161091,-1034.3368768677979,-2502.9506834000317
139858,5807,139858,23983,139858.0,61973.0,-1109.1753768279964,-1043.4987386303255,-2525.397658512008
139858,5830,139858,23995,139858.0,62008.0,-1119.944988002114,-1052.6135631172938,-2547.771995471173
139858,5812,139858,23983,139858.0,61960.0,-1130.719076559083,-1061.6701688159783,-2570.049535110766
139858,5765,139858,23890,139858.0,61853.0,-1141.4893484616987,-1070.6555732721654,-2592.203541025407
139858,5728,139858,23800,139858.0,61777.0,-1152.2463047350875,-1079.555486519189,-2614.2051191371493
139868,5724,139868,23863,139868.0,61847.0,-1162.9798735053373,-1088.3558249793684,-2636.024592979732
139868,5782,139868,23997,139868.0,61900.0,-1173.6798463994592,-1097.0435139856377,-2657.6320061860742
139868,5785,139868,24027,139868.0,61953.0,-1184.335502396329,-1105.6052113423966,-2678.9958647250087
139868,5734,139868,23905,139868.0,61863.0,-1194.9347473052533,-1114.0250775481773,-2700.0811377995396
139868,5668,139868,23826,139868.0,61725.0,-1205.4638215589353,-1122.2840721841962,-2720.8483640750446
139868,5661,139868,23758,139868.0,61672.0,-1215.907987528894,-1130.3614286248076,-2741.2547548143525
139879,5683,139879,23823,139879.0,61728.0,-1226.2524136244465,-1138.2366947704104,-2761.256139643819
139879,5703,139879,23899,139879.0,61787.0,-1236.4823449714652,-1145.8905069661018,-2780.8076820068436
139879,5727,139879,23927,139879.0,61791.0,-1246.5824862711404,-1153.3035877818147,-2799.8627808716674
139879,5690,139879,23889,139879.0,61709.0,-1256.5361497971808,-1160.4550408590362,-2818.37151604253
139879,5634,139879,23740,139879.0,61637.0,-1266.3248490044791,-1167.321637314626,-2836.2802090001087
139879,5615,139879,23741,139879.0,61590.0,-1275.9286883963982,-1173.87887351474,-2853.532353855624
139889,5665,139889,23858,139889.0,61684.0,-1285.32703622183,-1180.102568517505,-2870.0697666286806
139889,5682,139889,23931,139889.0,61726.0,-1294.4985396127856,-1185.9688325409597,-2885.832509733308
139889,5678,139889,23901,139889.0,61678.0,-1303.4203573600753,-1191.4522129631105,-2900.757508559497
139889,5603,139889,23777,139889.0,61586.0,-1312.067481222683,-1196.5241678292964,-2914.777450717814
139889,5571,139889,23716,139889.0,61484.0,-1320.4129357649508,-1201.1535575068365,-2927.821317791077
139889,5547,139889,23671,139889.0,61483.0,-1328.428721939178,-1205.3086717366164,-2939.81619154186
139899,5596,139899,23810,139899.0,61596.0,-1336.0866532918778,-1208.9589737465303,-2950.688703714572
139899,5610,139899,23869,139899.0,61630.0,-1343.358381437053,-1212.0750183382565,-2960.364701008357
139899,5594,139899,23837,139899.0,61590.0,-1350.2147392010806,-1214.626727069187,-2968.7675545999787
139899,5567,139899,23755,139899.0,61464.0,-1356.6251794687605,-1216.5819683119284,-2975.817114036812
139899,5528,139899,23714,139899.0,61406.0,-1362.5578408931706,-1217.9068577552616,-2981.4305687616597
139899,5541,139899,23705,139899.0,61465.0,-1367.9800674177002,-1218.5671874353675,-2985.5243698915697
139910,5566,139910,23849,139910.0,61565.0,-1372.8587937345933,-1218.5293977862143,-2988.015189170073
139910,5583,139910,23833,139910.0,61586.0,-1377.1603545387961,-1217.7600374260214,-2988.8189585431
139910,5532,139910,23802,139910.0,61443.0,-1380.8499716123702,-1216.2243715007266,-2987.8493509730597
139910,5485,139910,23689,139910.0,61417.0,-1383.8916969384372,-1213.8859407840164,-2985.0177977427093
139910,5479,139910,23634,139910.0,61310.0,-1386.2491266441925,-1210.7078598844419,-2980.2353283576936
139910,5479,139910,23716,139910.0,61374.0,-1387.8863101683503,-1206.6548357706101,-2973.4148476206365
139920,5519,139920,23784,139920.0,61472.0,-1388.7681596614557,-1201.6941228676612,-2964.4723916023377
139920,5539,139920,23818,139920.0,61478.0,-1388.8601867362636,-1195.794721719957,-2953.3267035537783
139920,5517,139920,23747,139920.0,61385.0,-1388.1278935230316,-1188.9260385366838,-2939.898190876403
139920,5484,139920,23665,139920.0,61348.0,-1386.5364586446428,-1181.0576964358233,-2924.1091377188486
139920,5448,139920,23669,139920.0,61290.0,-1384.0511361146268,-1172.1608717391978,-2905.8854590870023
139920,5505,139920,23765,139920.0,61417.0,-1380.6380323423464,-1162.2098327760884,-2885.1586349737927
139930,5523,139930,23845,139930.0,61461.0,-1376.2644488270275,-1151.1820570677542,-2861.866396112321
139930,5516,139930,23816,139930.0,61447.0,-1370.8985386674526,-1139.056941887301,-2835.9520907007154
139930,5471,139930,23740,139930.0,61372.0,-1364.5090004115214,-1125.8148027823036,-2807.3642802286176
139930,5423,139930,23655,139930.0,61352.0,-1357.0655489312076,-1111.4375732855897,-2776.057804746295
139930,5416,139930,23682,139930.0,61320.0,-1348.5401036153744,-1095.910872526601,-2741.995892217192
139930,5474,139930,23795,139930.0,61466.0,-1338.907942021734,-1079.225739357425,-2705.15203641867
139941,5505,139941,23872,139941.0,61568.0,-1328.1480205132161,-1061.378588504202,-2665.510436393854
139941,5520,139941,23856,139941.0,61624.0,-1316.2424667188766,-1042.3697512746648,-2623.064799975824
139941,5481,139941,23811,139941.0,61580.0,-1303.1760661298213,-1022.2023797938036,-2577.8169305244646
139941,5490,139941,23715,139941.0,61551.0,-1288.9364071891246,-1000.8829735151021,-2529.7767383188366
139941,5515,139941,23832,139941.0,61659.0,-1273.5144829929118,-978.4231029159331,-2478.9636198756743
139941,5557,139941,24020,139941.0,61797.0,-1256.9050538379224,-954.8403448827405,-2425.4074786243564
139951,5583,139951,24042,139951.0,61911.0,-1239.1064693666121,-930.1569014969107,-2369.148058737152
139951,5592,139951,23986,139951.0,61863.0,-1220.1202601059153,-904.3972737422889,-2310.2333864648035
139951,5565,139951,23922,139951.0,61893.0,-1199.9510023587845,-877.5876283587851,-2248.7192240367904
139951,5563,139951,23905,139951.0,61911.0,-1178.6067640008819,-849.7573164363246,-2184.670103232542
139951,5619,139951,24038,139951.0,62052.0,-1156.0998760372074,-820.9408065364466,-2118.1607043581353
139951,5672,139951,24156,139951.0,62241.0,-1132.4473011084717,-791.1781189567799,-2049.2760668020496
139961,5722,139961,24234,139961.0,62374.0,-1107.6702362957435,-760.513308725918,-1978.1100499610616
139961,5737,139961,24211,139961.0,62363.0,-1081.7933645363225,-728.9923802669417,-1904.7630617456612
139961,5744,139961,24152,139961.0,62371.0,-1054.8443853685894,-696.6624253343685,-1829.341030836098
139961,5738,139961,24170,139961.0,62481.0,-1026.8541277661395,-663.5725048606852,-1751.956194177476
139961,5827,139961,24341,139961.0,62658.0,-997.856997267119,-629.7749597862378,-1672.7280388496313
139961,5900,139961,24447,139961.0,62828.0,-967.8910136904966,-595.3252004327178,-1591.7826785529785
139972,5931,139972,24470,139972.0,62923.0,-936.9970639358355,-560.2798047575856,-1509.2508207151968
139972,5924,139972,24389,139972.0,62935.0,-905.2180546792351,-524.6949150465347,-1425.2659006713766
139972,5928,139972,24368,139972.0,62955.0,-872.5988277727719,-488.6265987654249,-1339.9637548247665
139972,5985,139972,24427,139972.0,63083.0,-839.1867418415715,-452.1326455814374,-1253.483686804192
139972,6057,139972,24551,139972.0,63296.0,-805.0320808000539,-415.2738822578755,-1165.9692566857907
139972,6121,139972,24680,139972.0,63451.0,-770.1877271775194,-378.1137184746462,-1077.5673296558803
139982,6171,139982,24714,139982.0,63587.0,-734.7083192098175,-340.7162980170823,-988.4257437393856
139982,6187,139982,24701,139982.0,63559.0,-698.6494809157426,-303.14477513070295,-898.6912897535462
139982,6190,139982,24664,139982.0,63656.0,-662.067578730614,-265.4610091591235,-808.5093181778202
139982,6261,139982,24755,139982.0,63783.0,-625.0200069431528,-227.7265297143282,-718.0245553480495
139982,6354,139982,24896,139982.0,63982.0,-587.5653565640877,-190.003232342248,-627.3813939794543
139982,6400,139982,24982,139982.0,64124.0,-549.7628647212406,-152.3525176244358,-536.7226819402392
139992,6431,139992,24963,139992.0,64168.0,-511.67149683670357,-114.83349299840393,-446.1878059967107
139992,6436,139992,24912,139992.0,64177.0,-473.3494691599108,-77.50209106955162,-355.91168893597865
139992,6458,139992,24911,139992.0,64241.0,-434.85447485590095,-40.41196056109811,-266.0254605191758
139992,6531,139992,25020,139992.0,64399.0,-396.24420903878394,-3.6160737231759867,-176.65781840331852
139992,6618,139992,25127,139992.0,64592.0,-357.5764926918232,32.83269599862376,-87.93535865363765
139992,6690,139992,25225,139992.0,64726.0,-318.9086131433866,68.88264701690821,0.018790086961871566
140002,6700,140002,25202,140002.0,64753.0,-280.29629611567134,104.4849834626093,87.08695624813777
140002,6700,140002,25164,140002.0,64756.0,-241.79316555370917,139.5946492027008,173.15778214464058
140002,6726,140002,25166,140002.0,64855.0,-203.45107596188438,174.16958969280165,258.1254033336345
140002,6828,140002,25292,140002.0,65021.0,-165.32073065155782,208.16942463580278,341.88829586111433
140002,6902,140002,25435,140002.0,65198.0,-127.45162699462026,241.5552954792878,424.34947857479756
140002,6945,140002,25444,140002.0,65292.0,-89.8911712124816,274.29139701535996,505.41821748039615
140012,6920,140012,25401,140012.0,65250.0,-52.683845465963145,306.3466299976509,585.0116952255053
140012,6927,140012,25350,140012.0,65252.0,-15.871299959929729,337.6945991006917,663.054930507599
140012,6974,140012,25350,140012.0,65335.0,20.506773042882855,368.311989611896,739.4789642647668
140012,7067,140012,25455,140012.0,65502.0,56.41197020961431,398.1768030682533,814.2191870418301
140012,7137,140012,25578,140012.0,65649.0,91.80745510257054,427.2679521892917,887.2154226928626
140012,7160,140012,25596,140012.0,65707.0,126.6589172367045,455.5664849817664,958.41348922573
140022,7157,140022,25536,140022.0,65683.0,160.93528857858666,483.05699780615817,1027.7665307159782
140022,7158,140022,25497,140022.0,65698.0,194.60861147973412,509.72756844445144,1095.2347499614389
140022,7205,140022,25558,140022.0,65803.0,227.6533079723846,535.5683270478185,1160.7839420783243
140022,7293,140022,25681,140022.0,65968.0,260.0456669017133,560.5703996908644,1224.3845687216613
140022,7330,140022,25762,140022.0,66056.0,291.7641183960991,584.7265220668285,1286.0124668617837
140022,7338,140022,25715,140022.0,66066.0,322.7899362239946,608.0326861384633,1345.650375495029
140033,7329,140033,25649,140033.0,66010.0,353.107498536487,630.4889338653602,1403.2884941256125
140033,7323,140033,25631,140033.0,66012.0,382.7037575014026,652.0983530589785,1458.923239812077
140033,7392,140033,25691,140033.0,66113.0,411.5673635625143,672.8652953304995,1512.5551502177955
140033,7451,140033,25825,140033.0,66233.0,439.6882400802855,692.794572638533,1564.1877035651537
140033,7493,140033,25857,140033.0,66329.0,467.05796692838,711.8923709640233,1613.8278467720306
140033,7498,140033,25805,140033.0,66331.0,493.6704674445143,730.1678225487276,1661.4873533709901
140043,7488,140043,25713,140043.0,66269.0,519.5222542786889,747.6333625256327,1707.183418318813
140043,7500,140043,25696,140043.0,66277.0,544.6120157758771,764.3032443192142,1750.937643405885
140043,7553,140043,25830,140043.0,66409.0,568.9399720421907,780.1916219378525,1792.7743173294475
140043,7619,140043,25934,140043.0,66547.0,592.5076847633552,795.3122366006357,1832.7199163331825
140043,7628,140043,25932,140043.0,66546.0,615.3185271933903,809.6800310412721,1870.8043771140651
140043,7607,140043,25860,140043.0,66440.0,637.3781909589036,823.3127988588808,1907.0623116992197
140053,7587,140053,25740,140053.0,66437.0,658.6944727006489,836.2309701747156,1941.5322529363725
140053,7596,140053,25749,140053.0,66477.0,679.2763525178852,848.4555249306443,1974.2544920866053
140053,7649,140053,25875,140053.0,66595.0,699.1330743019132,860.005846443046,2005.2695998247532
140053,7722,140053,25974,140053.0,66704.0,718.2739461016492,870.8995261319453,2034.618760624087
140053,7727,140053,25944,140053.0,66679.0,736.7089593906419,881.1540783299115,2062.34532222241
140053,7719,140053,25871,140053.0,66607.0,754.4495125608139,890.7884255222007,2088.4958285518287
140064,7699,140064,25848,140064.0,66576.0,771.5084531147666,899.8226093443639,2113.119265857853
140064,7716,140064,25861,140064.0,66638.0,787.8994523567135,908.2763783649248,2136.2652065560433
140064,7781,140064,26010,140064.0,66719.0,803.6364103576859,916.1683600355132,2157.9826402547283
140064,7815,140064,26018,140064.0,66814.0,818.7335343034576,923.5168219660015,2178.32040103169
140064,7796,140064,25947,140064.0,66723.0,833.2059379998827,930.3411942174023,2197.328444656042
140064,7780,140064,25860,140064.0,66639.0,847.0699262801947,936.6623991255437,2215.058191277803
140074,7769,140074,25827,140074.0,66652.0,860.3425368226085,942.5013525810696,2231.5610577293746
140074,7798,140074,25887,140074.0,66723.0,873.0407678864465,947.8769879490646,2246.8865417806296
140074,7832,140074,26004,140074.0,66791.0,885.1811369926304,952.8055302285259,2261.081667935273
140074,7898,140074,26042,140074.0,66843.0,896.7798958250692,957.3016208928029,2274.191918650675
140074,7856,140074,26000,140074.0,66805.0,907.8536984478542,961.3802101889303,2286.262520223865
140074,7808,140074,25926,140074.0,66714.0,918.4199107996974,965.0574416058018,2297.338827160736
140084,7820,140084,25870,140084.0,66743.0,928.4959679797055,968.349831861475,2307.4653259697084
140084,7883,140084,26003,140084.0,66815.0,938.0984546929274,971.2727962046304,2316.6843254497026
140084,7937,140084,26067,140084.0,66864.0,947.243057772848,973.8403742576136,2325.0358255518668
140084,7921,140084,26048,140084.0,66883.0,955.9454125086272,976.0666173131708,2332.558555358567
140084,7878,140084,26012,140084.0,66806.0,964.2217676722826,977.9670095526408,2339.2909140592965
140084,7856,140084,25869,140084.0,66727.0,972.0886693691734,979.5583624347103,2345.270694551535
140095,7852,140095,25863,140095.0,66735.0,979.5619525835455,980.8571129513759,2350.5335378414425
140095,7907,140095,25949,140095.0,66852.0,986.6559060478155,981.8773224303616,2355.111474955691
140095,7944,140095,26048,140095.0,66875.0,993.3832251452907,982.6302189800074,2359.0330305194616
140095,7954,140095,26042,140095.0,66897.0,999.7556815578209,983.1256514448507,2362.3246097195547
140095,7930,140095,25959,140095.0,66823.0,1005.784813085515,983.3737262442305,2365.0116216026036
140095,7893,140095,25924,140095.0,66769.0,1011.4819694744413,983.3849430293556,2367.1183340835455
140105,7918,140105,25949,140105.0,66819.0,1016.8577219756676,983.1690898891095,2368.6667573329673
140105,7979,140105,26042,140105.0,66917.0,1021.9213708848358,982.7345167470228,2369.6759491125727
140105,7993,140105,26079,140105.0,66938.0,1026.6812387898653,982.0888146874099,2370.162801782286
140105,7975,140105,26008,140105.0,66867.0,1031.145441620699,981.2402391800993,2370.1435028963315
140105,7928,140105,25908,140105.0,66792.0,1035.3221982235173,980.1981992866961,2369.6339243898806
140105,7905,140105,25838,140105.0,66748.0,1039.2192673824363,978.9719525009011,2368.6484156911592
140116,7949,140116,25931,140116.0,66810.0,1042.8430179601035,977.5685390534097,2367.198129495377
140116,7985,140116,25987,140116.0,66902.0,1046.1980264004094,975.9918779349,2365.2904400421075
140116,8021,140116,26058,140116.0,66926.0,1049.2875676863905,974.2437630769421,2362.930012090998
140116,7986,140116,25977,140116.0,66873.0,1052.1144653419267,972.3256100859733,2360.120463970261
140116,7954,140116,25896,140116.0,66767.0,1054.6814524281367,970.2391907997601,2356.864946873823
140116,7953,140116,25869,140116.0,66762.0,1056.990750002536,967.985683740586,2353.1650898371013
140126,7988,140126,25971,140126.0,66845.0,1059.0434397170034,965.5642283384118,2349.0195508399534
140126,8033,140126,26067,140126.0,66929.0,1060.8394136681825,962.9718649545906,2344.423938680488
140126,8026,140126,26069,140126.0,66929.0,1062.3780026534635,960.2052452399518,2339.372366725478
140126,7997,140126,25938,140126.0,66826.0,1063.6586231006786,957.2623988198543,2333.859062192619
140126,7957,140126,25866,140126.0,66722.0,1064.6807546256491,954.1426197032308,2327.8783211032933
140126,7955,140126,25851,140126.0,66740.0,1065.443246215156,950.8445635489289,2321.4227888591013
140136,7992,140136,25934,140136.0,66815.0,1065.9436006741203,947.3644601490431,2314.481843469561
140136,8026,140136,26005,140136.0,66911.0,1066.1779052098545,943.6960014778768,2307.041763395001
140136,8055,140136,26049,140136.0,66892.0,1066.1414952564392,939.8318548389143,2299.0875265473805
140136,8004,140136,25924,140136.0,66802.0,1065.8297809726496,935.7653846981573,2290.604514647743
140136,7977,140136,25880,140136.0,66750.0,1065.2384776640974,931.4909502857015,2281.5786258612097
140136,7991,140136,25916,140136.0,66792.0,1064.363104688022,927.0027326312694,2271.995152354878
140147,8049,140147,26012,140147.0,66886.0,1063.1985483046312,922.2938984032482,2261.838196020009
140147,8069,140147,26029,140147.0,66891.0,1061.7394434700673,917.3573817580058,2251.0916488635385
140147,8042,140147,25968,140147.0,66856.0,1059.9810772475344,912.1874162402244,2239.7408602827977
140147,7989,140147,25838,140147.0,66714.0,1057.9198466669775,906.7799915584352,2227.7733140697383
140147,7950,140147,25826,140147.0,66712.0,1055.5527551355776,901.1315331906555,2215.1776417165265
140147,7993,140147,25876,140147.0,66757.0,1052.876425119231,895.2370414546451,2201.942081435054
140157,8012,140157,25977,140157.0,66831.0,1049.8866006106305,889.0895600910812,2188.054149977511
140157,8042,140157,26006,140157.0,66822.0,1046.578544243281,882.6814885511542,2173.501889888893
140157,8038,140157,25970,140157.0,66811.0,1042.9478657559882,876.0065482555611,2158.2754783543783
140157,7991,140157,25847,140157.0,66722.0,1038.9911040083248,869.0607193183889,2142.3680060429297
140157,7970,140157,25801,140157.0,66688.0,1034.705651869182,861.841368798521,2125.7751206742496
140157,7999,140157,25902,140157.0,66741.0,1030.0892284867205,854.3455804512067,2108.4941831246324
140167,8053,140167,26014,140167.0,66805.0,1025.1397166098427,846.5698049095598,2090.524205089082
140167,8052,140167,25994,140167.0,66755.0,1019.8558325140884,838.5115730955099,2071.867011577994
140167,7989,140167,25904,140167.0,66675.0,1014.2379971950863,830.1714880412217,2052.5283917793977
140167,7939,140167,25784,140167.0,66555.0,1008.2883787929052,821.5533824224726,2032.517829712017
140167,7930,140167,25745,140167.0,66539.0,1002.0099868352588,812.6625102413684,2011.8468792450612
140167,7961,140167,25852,140167.0,66612.0,995.4057349823519,803.503500806181,1990.527624080943
140178,8000,140178,25923,140178.0,66650.0,988.4783322656832,794.0800297686272,1968.5726875130308
140178,7980,140178,25923,140178.0,66604.0,981.230974396999,784.3964317051598,1945.9966519317602
140178,7965,140178,25819,140178.0,66522.0,973.6680822314253,774.4594449061973,1922.8172524949457
140178,7916,140178,25730,140178.0,66458.0,965.7954518270516,764.2782952034415,1899.0552132205298
140178,7913,140178,25753,140178.0,66428.0,957.619832145465,753.8632258718426,1874.7331296706382
140178,7963,140178,25867,140178.0,66555.0,949.1485008971677,743.2243229958725,1849.8747210756228
140188,7962,140188,25879,140188.0,66518.0,940.3894697160254,732.3721497173117,1824.5055257645097
140188,7926,140188,25810,140188.0,66432.0,931.3521625989205,721.3194402570567,1798.6544057030374
140188,7873,140188,25687,140188.0,66331.0,922.0476890532794,710.0817608320788,1772.353989385391
140188,7835,140188,25624,140188.0,66248.0,912.4882886891148,698.6762364959948,1745.6394409789502
140188,7859,140188,25668,140188.0,66268.0,902.6864386649357,687.1194685986009,1718.546687958352
140188,7877,140188,25769,140188.0,66337.0,892.6544330871162,675.4265668848375,1691.1115935400596
140198,7912,140198,25780,140198.0,66324.0,882.4047962085123,663.6121416188978,1663.370738564988
140198,7871,140198,25726,140198.0,66226.0,871.9511465416264,651.6921199300338,1635.362844323814
140198,7809,140198,25573,140198.0,66107.0,861.3086938906905,639.6844249085041,1607.1290846130644
140198,7780,140198,25559,140198.0,66055.0,850.4938426907172,627.6077357748925,1578.7117757886544
140198,7795,140198,25637,140198.0,66132.0,839.5233220976379,615.4796520638959,1550.1527690291343
140198,7844,140198,25735,140198.0,66162.0,828.413823808408,603.316400301127,1521.4932696820388
140209,7831,140209,25719,140209.0,66112.0,817.1825538394131,591.134515679706,1492.7751855483966
140209,7772,140209,25585,140209.0,65977.0,805.8480298914546,578.9526323287403,1464.042268434062
140209,7707,140209,25502,140209.0,65881.0,794.4301098556446,566.7913862371299,1435.3395581453024
140209,7686,140209,25454,140209.0,65850.0,782.9490727739192,554.6714868938391,1406.7114998802413
140209,7697,140209,25544,140209.0,65907.0,771.4245530122173,542.6117844108724,1378.2003889761368
140209,7739,140209,25609,140209.0,65951.0,759.8751911278715,530.6290010440489,1349.8464327190588
140219,7718,140219,25618,140219.0,65874.0,748.3191424598568,518.7392074528635,1321.6891323830373
140219,7675,140219,25482,140219.0,65782.0,736.7747567942183,506.9594342890195,1293.768336877703
140219,7629,140219,25420,140219.0,65688.0,725.2606250950475,495.3076538969409,1266.1237686738561
140219,7618,140219,25441,140219.0,65700.0,713.7949583025982,483.80126109117634,1238.7935529563133
140219,7662,140219,25528,140219.0,65798.0,702.3950180443769,472.4559668757,1211.8133798440922
140219,7646,140219,25571,140219.0,65755.0,691.077226026185,461.28644627406237,1185.2173082826794
140229,7642,140229,25499,140229.0,65669.0,679.8577552424921,450.3080152643426,1159.0392289412716
140229,7563,140229,25356,140229.0,65573.0,668.7528516702214,439.5373955840821,1133.3131454399072
140229,7530,140229,25295,140229.0,65492.0,657.7784103460381,428.99144576413863,1108.0719024640518
140229,7551,140229,25345,140229.0,65536.0,646.9490946967667,418.6848919818959,1083.3455192659217
140229,7573,140229,25447,140229.0,65562.0,636.2778667904176,408.62924382306034,1059.1604975604132
140229,7597,140229,25511,140229.0,65597.0,625.776401586374,398.8339144381711,1035.5406047307
140240,7560,140240,25404,140240.0,65518.0,615.4559314478947,389.3083750012086,1012.5083057989026
140240,7497,140240,25288,140240.0,65409.0,605.3276806874701,380.0630826530176,990.0854105844339
140240,7484,140240,25278,140240.0,65369.0,595.4024627719316,371.1082628451503,968.2922512976522
140240,7512,140240,25335,140240.0,65448.0,585.6899538501004,362.45210603941337,947.1463713689775
140240,7552,140240,25428,140240.0,65504.0,576.1985893567262,354.10043858982544,926.662475377045
140240,7530,140240,25398,140240.0,65425.0,566.936275631871,346.0580800347779,906.853841875866
140250,7469,140250,25319,140250.0,65363.0,557.91109262278,338.33028988552843,887.7334804948789
140250,7428,140250,25208,140250.0,65247.0,549.131141491778,330.92267667278315,869.3137113819243
140250,7416,140250,25194,140250.0,65234.0,540.6036542447354,323.83951646496524,851.6045611937271
140250,7445,140250,25304,140250.0,65313.0,532.3342150864094,317.08206323840847,834.6123655419456
140250,7458,140250,25380,140250.0,65343.0,524.3267084857732,310.64860351414455,818.3398424041766
140250,7460,140250,25374,140250.0,65364.0,516.5838804427417,304.5362855739029,802.7875695080804
140260,7431,140260,25259,140260.0,65225.0,509.1079360647931,298.74284123577814,787.9554004122758
140260,7394,140260,25207,140260.0,65140.0,501.9006815937221,293.26652260260965,773.8423520541319
140260,7375,140260,25211,140260.0,65204.0,494.96313188312473,288.10459586195304,760.4450932846731
140260,7430,140260,25303,140260.0,65302.0,488.2950345590476,283.252173076126,747.7570277913808
140260,7450,140260,25381,140260.0,65310.0,481.89500496751543,278.7026873569642,735.7693699069404
140260,7426,140260,25335,140260.0,65222.0,475.761308340259,274.44964326040196,724.4730033223295
140271,7341,140271,25214,140271.0,65161.0,469.89236437702766,270.4878576774122,713.8590790145483
140271,7330,140271,25154,140271.0,65068.0,464.286231591976,266.8127667228836,703.9179195985415
140271,7351,140271,25204,140271.0,65132.0,458.9395794317555,263.41849697766037,694.6373292750444
140271,7413,140271,25298,140271.0,65210.0,453.84730984905997,260.2967897230859,686.0018173701174
140271,7418,140271,25355,140271.0,65225.0,449.00325139813265,257.4378752212375,677.9934886881632
140271,7392,140271,25265,140271.0,65174.0,444.4012278269354,254.8322894884123,670.593645973649
140281,7332,140281,25193,140281.0,65111.0,440.0355036612654,252.47165871279358,663.7834799977852
140281,7325,140281,25157,140281.0,65059.0,435.90029936915414,250.34769879081944,657.5433824088169
140281,7347,140281,25257,140281.0,65181.0,431.98900769299746,248.45072746188927,651.8518735769596
140281,7405,140281,25349,140281.0,65225.0,428.294015943026,246.76953899694715,646.6856658835395
140281,7396,140281,25305,140281.0,65211.0,424.80738945396786,245.29291090745826,642.0211383687897
140281,7339,140281,25240,140281.0,65119.0,421.52168790551,244.01103702964286,637.8356510469553
140291,7304,140291,25120,140291.0,65048.0,418.4299676554814,242.91523193334405,634.1072708939816
140291,7297,140291,25142,140291.0,65020.0,415.52496020645293,241.99609922790435,630.8131652278398
140291,7326,140291,25215,140291.0,65108.0,412.79828711610827,241.2418336296012,627.9280696876525
140291,7362,140291,25345,140291.0,65140.0,410.2403956094471,240.63828215445236,625.4241024573123
140291,7361,140291,25288,140291.0,65185.0,407.8411787367953,240.17074053152797,623.2719376928937
140291,7335,140291,25225,140291.0,65095.0,405.5906732641218,239.82561131504528,621.4421450485686
140302,7290,140302,25181,140302.0,65022.0,403.479192072234,239.59034160681833,619.9053990312163
140302,7290,140302,25194,140302.0,65079.0,401.49680031685955,239.4521548493033,618.6314316354897
140302,7343,140302,25289,140302.0,65188.0,399.63275087577387,239.39721024312223,617.5882733076996
140302,7362,140302,25345,140302.0,65227.0,397.87561806365846,239.41117778177272,616.7432079135598
140302,7358,140302,25311,140302.0,65165.0,396.21407531869687,239.48080841043515,616.064667646972
140302,7303,140302,25156,140302.0,65082.0,394.6374874980382,239.5948342378501,615.523095793685
140312,7270,140312,25137,140312.0,65050.0,393.1356847182662,239.7429202334293,615.0900498203268
140312,7282,140312,25185,140312.0,65096.0,391.6981285521523,239.9135744087369,614.7366567692948
140312,7341,140312,25303,140312.0,65169.0,390.3133431386566,240.09323078148321,614.4329963423475
140312,7366,140312,25327,140312.0,65213.0,388.96927735307554,240.26737772325632,614.1489590132447
140312,7329,140312,25328,140312.0,65158.0,387.65424425301126,240.42254622004666,613.8557301645012
140312,7293,140312,25179,140312.0,65074.0,386.3574182266976,240.54736952775502,613.526438057385
140322,7270,140322,25164,140322.0,65051.0,385.06843285511377,240.6318019495767,613.1353088495148
140322,7312,140322,25253,140322.0,65147.0,383.7766565983268,240.6654361124499,612.6563454384684
140322,7358,140322,25337,140322.0,65205.0,382.4710431519828,240.63701969731204,612.0632005379971
140322,7351,140322,25313,140322.0,65223.0,381.14080371033594,240.53575883996217,611.3305443342294
140322,7319,140322,25252,140322.0,65113.0,379.77620127919,240.35272684655047,610.4354785766623
140322,7269,140322,25209,140322.0,65046.0,378.3686275362445,240.08087088944927,609.3574538110046
140333,7256,140333,25130,140333.0,65030.0,376.9098856500351,239.71376065347346,608.076688468278
140333,7304,140333,25228,140333.0,65104.0,375.3913694284947,239.2441072204706,606.5725941079261
140333,7322,140333,25304,140333.0,65207.0,373.80393034164774,238.66330711854076,604.8237029932262
140333,7330,140333,25291,140333.0,65185.0,372.13848733708994,237.96252579799804,602.8091775861627
140333,7300,140333,25245,140333.0,65116.0,370.3866856021468,237.13409038151335,600.5104050874356
140333,7271,140333,25153,140333.0,65030.0,368.5410116087969,236.17162560363744,597.9110850112324
140343,7261,140343,25193,140343.0,65080.0,366.59435458927453,235.0689230654493,594.9959399079194
140343,7330,140343,25278,140343.0,65156.0,364.5395691851746,233.8189687141161,591.7497496895052
140343,7318,140343,25390,140343.0,65217.0,362.36967899535694,232.41455749681566,588.1579951147542
140343,7302,140343,25258,140343.0,65139.0,360.0785350676968,230.85015946926822,584.2084916582251
140343,7259,140343,25199,140343.0,65032.0,357.6610856633432,229.12292279002347,579.8921544185339
140343,7235,140343,25122,140343.0,64982.0,355.11292559851506,227.23158334964447,575.2018987811301
140354,7255,140354,25186,140354.0,65025.0,352.42956852338506,225.17448524626226,570.1306950650428
140354,7277,140354,25271,140354.0,65100.0,349.60608785144916,222.94866909936167,564.6706290981442
140354,7335,140354,25322,140354.0,65156.0,346.6374846835495,220.55078108587506,558.8137278473241
140354,7287,140354,25246,140354.0,65078.0,343.51955622293826,217.97881521026616,552.5536295562927
140354,7234,140354,25158,140354.0,65009.0,340.24944320321555,215.23285136432511,545.8864169196395
140354,7226,140354,25115,140354.0,64947.0,336.82524124809316,212.31401819657958,538.8098343545503
140364,7238,140364,25216,140364.0,65044.0,333.24517611413603,209.22287478839965,531.3218831429822
140364,7287,140364,25282,140364.0,65097.0,329.5073122428751,205.9590850734475,523.4205146824917
140364,7286,140364,25293,140364.0,65087.0,325.61006181080376,202.5227917499902,515.1048590300537
140364,7249,140364,25186,140364.0,64991.0,321.55292364483563,198.91614356312675,506.3765499271042
140364,7189,140364,25090,140364.0,64924.0,317.33662232178347,195.1432355405414,497.23962650580984
140364,7172,140364,25067,140364.0,64872.0,312.9623864055435,191.20834271262385,487.6990703074913
140374,7208,140374,25167,140374.0,64970.0,308.4310154164144,187.11406617320176,477.7593090972638
140374,7242,140374,25248,140374.0,65025.0,303.7426401006602,182.8611783004591,467.4241039249738
140374,7244,140374,25262,140374.0,64993.0,298.8973520378851,178.45029049992885,456.69792654153935
140374,7216,140374,25148,140374.0,64909.0,293.89601046265506,173.8836374334019,445.5872626985339
140374,7174,140374,25080,140374.0,64805.0,288.7404856062911,169.16520491877924,434.10036588000503
140374,7153,140374,25087,140374.0,64855.0,283.4332090073965,164.29925201680766,422.24575064447197
140385,7190,140385,25226,140385.0,64953.0,277.976538684725,159.28909912274656,410.03120214025796
140385,7217,140385,25218,140385.0,64949.0,272.37265953961776,154.13771590965206,397.46458253315075
140385,7202,140385,25178,140385.0,64871.0,266.62416866461024,148.84936225733503,384.5554626979929
140385,7125,140385,25046,140385.0,64786.0,260.73459063396507,143.43022393581595,371.31561387183285
140385,7092,140385,25002,140385.0,64717.0,254.70801117592129,137.88717472396985,357.7578590903282
140385,7129,140385,25045,140385.0,64748.0,248.5481002919712,132.22575758063232,343.8943768389895
140395,7152,140395,25143,140395.0,64801.0,242.2576255985444,126.44924445926222,329.7358569286703
140395,7164,140395,25196,140395.0,64856.0,235.83891515801855,120.55963669727385,315.29217805452754
140395,7137,140395,25138,140395.0,64783.0,229.294642351142,114.55963043047808,300.57396111451385
140395,7084,140395,25034,140395.0,64671.0,222.6281414320049,108.45366893710411,285.593421471621
140395,7075,140395,24984,140395.0,64606.0,215.84301487408027,102.24713471151637,270.3635160397047
140395,7090,140395,25061,140395.0,64703.0,208.9424958309807,95.94469096248775,254.8963015429183
140405,7134,140405,25181,140405.0,64798.0,201.92931234929512,89.54980013692233,239.20260415417658
140405,7127,140405,25134,140405.0,64700.0,194.8062819066477,83.06614178559158,223.29355866384196
140405,7093,140405,25026,140405.0,64635.0,187.5770776320589,76.49921758044997,207.18204166297187
140405,7041,140405,24945,140405.0,64529.0,180.24640721338312,69.85609737194227,190.88226403783904
140405,7016,140405,24928,140405.0,64542.0,172.8194222338003,63.143510504022345,174.4081132809091
140405,7025,140405,24998,140405.0,64576.0,165.3008778833826,56.36612982757646,157.7718864025535
140416,7062,140416,25069,140416.0,64633.0,157.6947552331987,49.52643648017556,140.9844248601371
140416,7065,140416,25062,140416.0,64607.0,150.00463935816344,42.62606611928197,124.05640825381818
140416,7020,140416,24985,140416.0,64490.0,142.23439783748324,35.667230030527094,106.99948695673038
140416,6968,140416,24926,140416.0,64403.0,134.38834192654616,28.652845033041615,89.82596421052574
140416,6962,140416,24919,140416.0,64431.0,126.47062540140018,21.585436864164137,72.54722765484712
140416,7010,140416,25021,140416.0,64501.0,118.48458519178888,14.466180940567085,55.17266017830502
140426,7038,140426,25101,140426.0,64531.0,110.43288577356799,7.295418095006028,37.71026824035653
140426,7014,140426,25039,140426.0,64474.0,102.31841256719889,0.07448739099731938,20.168315000630855
140426,6942,140426,24902,140426.0,64367.0,94.14493678991937,-7.1930202375979775,2.556237816306975
140426,6911,140426,24829,140426.0,64290.0,85.91679276570898,-14.502166076787375,-15.116070965702761
140426,6918,140426,24888,140426.0,64337.0,77.63792172127228,-21.848885719555426,-32.83987954624649
140426,6948,140426,24957,140426.0,64378.0,69.31127557852813,-29.231238444107987,-50.60845523860462
140436,6966,140436,25042,140436.0,64428.0,60.93908047740297,-36.64857298388557,-68.41628447457879
140436,6943,140436,24955,140436.0,64314.0,52.5235916120663,-44.099591264151,-86.25755884716432
140436,6897,140436,24875,140436.0,64259.0,44.067588499440035,-51.58124684414349,-104.12555647964564
140436,6856,140436,24814,140436.0,64197.0,35.57414716786144,-59.08948593119959,-122.0134896096074
140436,6873,140436,24881,140436.0,64262.0,27.045936068429796,-66.6208495597952,-139.91574401110688
140436,6932,140436,24985,140436.0,64326.0,18.484859265071634,-74.17302464366225,-157.8280311335991
140447,6925,140447,24948,140447.0,64294.0,9.89260536183599,-81.74365797091656,-175.7461374449707
140447,6875,140447,24860,140447.0,64193.0,1.271565812496192,-89.32889030512672,-193.66458857466023
140447,6820,140447,24774,140447.0,64094.0,-7.374947999124174,-96.9234522646583,-211.57678464848027
140447,6803,140447,24732,140447.0,64045.0,-16.043421717920637,-104.52234031929646,-229.47663532806018
140447,6811,140447,24829,140447.0,64116.0,-24.731038320079165,-112.12252896455055,-247.36027613183444
140447,6848,140447,24893,140447.0,64179.0,-33.43598273586474,-119.72317714820258,-265.22634641180196
140457,6867,140457,24905,140457.0,64191.0,-42.15694648788951,-127.3241590551558,-283.07457007825826
140457,6813,140457,24831,140457.0,64063.0,-50.89229381899406,-134.92437637022942,-300.90405776168336
140457,6763,140457,24761,140457.0,64002.0,-59.63974337139592,-142.52137590130076,-318.71304857771224
140457,6756,140457,24735,140457.0,64007.0,-68.39690343668701,-150.11237783945023,-336.5001057003532
140457,6793,140457,24843,140457.0,64108.0,-77.16194850128761,-157.69542966957903,-354.2650071882564
140457,6802,140457,24868,140457.0,64106.0,-85.93358922515267,-165.26925099960363,-372.0080086002117
140467,6779,140467,24814,140467.0,64018.0,-94.71044317260555,-172.8319191302756,-389.7282788111921
140467,6727,140467,24736,140467.0,63901.0,-103.4906198789144,-180.38007712808394,-407.4234315697504
140467,6693,140467,24620,140467.0,63852.0,-112.27203028032699,-187.9097734681618,-425.09083887255235
140467,6701,140467,24709,140467.0,63895.0,-121.05313320085946,-195.41829385419743,-442.72946545039383
140467,6724,140467,24773,140467.0,63956.0,-129.83339244487735,-202.9052004097702,-460.3405063028423
140467,6745,140467,24833,140467.0,64003.0,-138.6130195632398,-210.37144908789992,-477.9262991236378
140478,6737,140478,24773,140478.0,63927.0,-147.39223301966672,-217.81750409087596,-495.4884991686457
140478,6682,140478,24679,140478.0,63832.0,-156.17066516085396,-225.24232932262572,-513.0271273937485
140478,6653,140478,24594,140478.0,63762.0,-164.94743506385095,-232.64417766207401,-530.541293216334
140478,6660,140478,24704,140478.0,63805.0,-173.7217476388313,-240.0223058644861,-548.0307419384467
140478,6706,140478,24802,140478.0,63895.0,-182.49324595435974,-247.37754487325344,-565.4964925269835
140478,6705,140478,24794,140478.0,63877.0,-191.26159064523506,-254.7108108453316,-582.939778533887
140488,6669,140488,24711,140488.0,63789.0,-200.02567318856956,-262.02117585239034,-600.3604699411358
140488,6596,140488,24595,140488.0,63682.0,-208.7833696938087,-269.30560291277675,-617.7568033259072
140488,6575,140488,24548,140488.0,63624.0,-217.53221570568758,-276.56060240130773,-635.1267967684419
140488,6612,140488,24618,140488.0,63702.0,-226.27037068543189,-283.78431641733664,-652.4700098509093
140488,6625,140488,24712,140488.0,63758.0,-234.9969008596625,-290.9771896226762,-669.7879488772451
140488,6620,140488,24722,140488.0,63751.0,-243.71124288307033,-298.1407044851927,-687.0827692502289
140498,6596,140498,24626,140498.0,63660.0,-252.41256879500543,-305.275633955384,-704.3557259785248
140498,6544,140498,24584,140498.0,63559.0,-261.0996573886441,-312.3816328912511,-721.6069932605656
140498,6532,140498,24545,140498.0,63567.0,-269.77133678293956,-319.4583058269758,-738.8369198950393
140498,6553,140498,24649,140498.0,63665.0,-278.4270671837793,-326.5063344890916,-756.0471501034526
140498,6590,140498,24703,140498.0,63682.0,-287.0670041383562,-333.5272909621548,-773.2401081525527
140498,6568,140498,24658,140498.0,63635.0,-295.6913844531492,-340.52218707958195,-790.4173142124384
140509,6515,140509,24519,140509.0,63494.0,-304.29991070011636,-347.490459924991,-807.5784438037322
140509,6468,140509,24479,140509.0,63430.0,-312.8918952285835,-354.4308363301544,-824.7222438416477
140509,6486,140509,24505,140509.0,63477.0,-321.4670463180986,-361.3433073686655,-841.8484249668682
140509,6519,140509,24599,140509.0,63540.0,-330.02599593654577,-368.23019117680656,-858.9585793278911
140509,6526,140509,24666,140509.0,63603.0,-338.5699842568838,-375.09528842473344,-876.0551888636712
140509,6518,140509,24604,140509.0,63533.0,-347.1000651864523,-381.94195807314725,-893.1396549592137
140519,6450,140519,24520,140519.0,63375.0,-355.61661808112456,-388.77192656367424,-910.2112294509218
140519,6431,140519,24470,140519.0,63368.0,-364.1196088117723,-395.5858543492009,-927.2679357108991
140519,6440,140519,24543,140519.0,63405.0,-372.6093006610964,-402.38474498709513,-944.3083242896053
140519,6474,140519,24623,140519.0,63469.0,-381.0866096091438,-409.1703713726811,-961.3319666005668
140519,6492,140519,24627,140519.0,63438.0,-389.55267497074544,-415.94407553763926,-978.338344684865
140519,6436,140519,24517,140519.0,63364.0,-398.00808046097666,-422.7052654792561,-995.3256083241554
140529,6388,140529,24395,140529.0,63249.0,-406.4525938356543,-429.4514768813757,-1012.2906100650459
140529,6350,140529,24380,140529.0,63191.0,-414.8857994798677,-436.1803012786896,-1029.2303942805406
140529,6391,140529,24495,140529.0,63288.0,-423.3080249281725,-442.89140795078936,-1046.143950413719
140529,6422,140529,24535,140529.0,63347.0,-431.7206122005812,-449.5866945769478,-1063.0325163983757
140529,6435,140529,24530,140529.0,63330.0,-440.1252506233909,-456.26871641567743,-1079.898084211983
140529,6364,140529,24461,140529.0,63206.0,-448.5230874956395,-462.93925173450737,-1096.7418297208117
140540,6339,140540,24374,140540.0,63139.0,-456.914565680191,-469.59931276804434,-1113.5642112147827
140540,6321,140540,24415,140540.0,63157.0,-465.3000609407062,-476.25033704316184,-1130.3664269698475
140540,6380,140540,24513,140540.0,63276.0,-473.68046499943455,-482.89505540933055,-1147.1513092856105
140540,6377,140540,24550,140540.0,63271.0,-482.0569837397337,-489.5367435687174,-1163.922375968404
140540,6359,140540,24503,140540.0,63207.0,-490.43038325594136,-496.17744592889176,-1180.681976162212
140540,6294,140540,24362,140540.0,63126.0,-498.80056808447296,-502.81709017327967,-1197.4304651078983
140550,6259,140550,24304,140550.0,63008.0,-507.1670076448104,-509.45459339349054,-1214.1671079732732
140550,6256,140550,24352,140550.0,63040.0,-515.5296729304179,-516.090026842393,-1230.891915392678
140550,6310,140550,24427,140550.0,63069.0,-523.8896456407172,-522.725791321567,-1247.6069779320326
140550,6335,140550,24496,140550.0,63189.0,-532.2487885890234,-529.3658176398555,-1264.3161540450053
140550,6295,140550,24445,140550.0,63096.0,-540.608770795976,-536.0137047698106,-1281.023350258456
140550,6261,140550,24322,140550.0,62946.0,-548.9704327696204,-542.671614915565,-1297.7312573243057
140560,6204,140560,24298,140560.0,62913.0,-557.3340585674679,-549.3410020050995,-1314.442167269269
140560,6239,140560,24362,140560.0,62998.0,-565.7001599889269,-556.0242183384048,-1331.1598371331006
140560,6255,140560,24497,140560.0,63126.0,-574.0699168517966,-562.724888597336,-1347.889782645998
140560,6293,140560,24464,140560.0,63061.0,-582.4447835950418,-569.446324626662,-1364.6373500898246
140560,6232,140560,24385,140560.0,62972.0,-590.8256507290814,-576.1896180719227,-1381.4056850161512
140560,6182,140560,24266,140560.0,62825.0,-599.212485934533,-582.9534729526662,-1398.1957691181228
140571,6152,140571,24232,140571.0,62822.0,-607.6049080979211,-589.7359643202773,-1415.008401710738
140571,6164,140571,24273,140571.0,62889.0,-616.0031377596591,-596.5366546451394,-1431.8461627664888
140571,6221,140571,24386,140571.0,62914.0,-624.4083849748819,-603.3573417433264,-1448.7136636123969
140571,6217,140571,24396,140571.0,62895.0,-632.8223022141946,-610.2009141069599,-1465.6163280478356
140571,6162,140571,24292,140571.0,62864.0,-641.2461073631903,-617.0696168644997,-1482.5592053445557
140571,6113,140571,24237,140571.0,62753.0,-649.6803987534563,-623.9646568959473,-1499.546774210557
140581,6120,140581,24238,140581.0,62758.0,-658.1258301578002,-630.8873696449351,-1516.583745655054
140581,6142,140581,24333,140581.0,62819.0,-666.5837654102571,-637.8402780156559,-1533.6759701224153
140581,6162,140581,24389,140581.0,62876.0,-675.0561901587838,-644.826622655402,-1550.830161654986
140581,6144,140581,24365,140581.0,62806.0,-683.5450689140202,-651.8486751999312,-1568.0524530684245
140581,6100,140581,24199,140581.0,62689.0,-692.0518515906923,-658.90658490834,-1585.3474332897295
140581,6060,140581,24147,140581.0,62624.0,-700.5776293423905,-665.9992399842337,-1602.7189193497827
140592,6054,140592,24185,140592.0,62669.0,-709.1238161959657,-673.1264737194724,-1620.1716898168931
140592,6085,140592,24298,140592.0,62728.0,-717.6927189742373,-680.290316534699,-1637.7123035489303
140592,6103,140592,24320,140592.0,62774.0,-726.2874409588261,-687.4940958701468,-1655.348167808752
140592,6094,140592,24268,140592.0,62702.0,-734.9112123118506,-694.7405515531623,-1673.0857824036414
140592,6043,140592,24167,140592.0,62597.0,-743.5668129667127,-702.0309639610529,-1690.9298251474313
140592,6011,140592,24128,140592.0,62551.0,-752.2566545310792,-709.3660355807983,-1708.8838919798923
140602,6031,140602,24197,140602.0,62612.0,-760.9833571921683,-716.7474290633638,-1726.9519222281913
140602,6061,140602,24300,140602.0,62661.0,-769.7500484836113,-724.17815455848,-1745.1385684874763
140602,6065,140602,24305,140602.0,62674.0,-778.5599325397071,-731.6611647564629,-1763.4480232764035
140602,6030,140602,24217,140602.0,62560.0,-787.4155668639776,-739.1975174915146,-1781.8825509623202
140602,5979,140602,24110,140602.0,62418.0,-796.3186155284918,-746.7860243118348,-1800.44241868524
140602,5945,140602,24081,140602.0,62432.0,-805.2703600211225,-754.4247472314605,-1819.127592500164
140612,5971,140612,24157,140612.0,62493.0,-814.2725123465146,-762.1128319720038,-1837.939512957942
140612,6024,140612,24227,140612.0,62545.0,-823.3274884666639,-769.8508968690336,-1856.8810943623369
140612,6016,140612,24229,140612.0,62527.0,-832.4377514476047,-777.639738667619,-1875.9551581229516
140612,5987,140612,24146,140612.0,62433.0,-841.604841475177,-785.4788244171137,-1895.162995999288
140612,5919,140612,24089,140612.0,62382.0,-850.829053935909,-793.3660791465904,-1914.5042854856697
140612,5921,140612,24065,140612.0,62364.0,-860.1099840792879,-801.2989895789873,-1933.9780942158784
140623,5949,140623,24162,140623.0,62450.0,-869.4472178055831,-809.2757044789063,-1953.5836377382052
140623,5975,140623,24218,140623.0,62467.0,-878.8403226740695,-817.2947980773348,-1973.3197363301933
140623,5960,140623,24165,140623.0,62437.0,-888.2881330749196,-825.3537957986589,-1993.1833047986886
140623,5891,140623,24048,140623.0,62275.0,-897.7881471673008,-833.4481622708114,-2013.1684153665476
140623,5841,140623,23993,140623.0,62211.0,-907.3367823784578,-841.5720914068366,-2033.2671459597937
140623,5851,140623,24033,140623.0,62258.0,-916.9303458584332,-849.7203438504691,-2053.4715300617654
140633,5886,140633,24113,140633.0,62333.0,-926.5657567086228,-857.8892195444275,-2073.7745219214494
140633,5895,140633,24166,140633.0,62373.0,-936.2403441757635,-866.0757346716572,-2094.1689290798477
140633,5881,140633,24125,140633.0,62278.0,-945.9510740393558,-874.2758267498564,-2114.645461923439
140633,5826,140633,24003,140633.0,62193.0,-955.6940350340948,-882.4832960103225,-2135.191827094396
140633,5800,140633,23948,140633.0,62118.0,-965.464636700217,-890.6905456539233,-2155.79358348753
140633,5814,140633,24026,140633.0,62202.0,-975.2582273723757,-898.8903096675587,-2176.435636038843
140643,5859,140643,24099,140643.0,62281.0,-985.0703512965846,-907.0763467393755,-2197.102522130941
140643,5848,140643,24135,140643.0,62253.0,-994.8962301628644,-915.2422566120717,-2217.7769224386284
140643,5805,140643,24035,140643.0,62153.0,-1004.730003464231,-923.3797203363988,-2238.4379367765605
140643,5761,140643,23914,140643.0,62066.0,-1014.5645778046996,-931.4781053916792,-2259.0609347280224
140643,5751,140643,23897,140643.0,62017.0,-1024.392194628658,-939.5259924670492,-2279.618975661706
140643,5774,140643,23991,140643.0,62086.0,-1034.2050406753856,-947.5130679945612,-2300.0843256542266
140654,5781,140654,24064,140654.0,62135.0,-1043.9952841706117,-955.4303449035688,-2320.4286414065423
140654,5797,140654,24090,140654.0,62104.0,-1053.7545491498245,-963.2685034846613,-2340.6217147920074
140654,5748,140654,23981,140654.0,62007.0,-1063.4733077930873,-971.0160343778158,-2360.630213778363
140654,5687,140654,23902,140654.0,61950.0,-1073.140777926341,-978.6589324956096,-2380.4177766018915
140654,5690,140654,23908,140654.0,61923.0,-1082.745538488099,-986.1820414197476,-2399.946217425611
140654,5737,140654,23997,140654.0,62009.0,-1092.2761934547352,-993.5703690281858,-2419.1764786379345
140664,5761,140664,24065,140664.0,62062.0,-1101.721179987866,-1000.8087760957608,-2438.0681896421956
140664,5736,140664,24004,140664.0,61970.0,-1111.0678365267302,-1007.880343937205,-2456.578100536041
140664,5694,140664,23919,140664.0,61885.0,-1120.3016985449349,-1014.7652510359638,-2474.659112158755
140664,5642,140664,23844,140664.0,61809.0,-1129.4066477169138,-1021.4413977303303,-2492.261043265554
140664,5639,140664,23867,140664.0,61886.0,-1138.3656963996218,-1027.8861360498363,-2509.332185198699
140664,5675,140664,23955,140664.0,61906.0,-1147.1616591680258,-1034.0774155962017,-2525.8198769358405
140674,5701,140674,24021,140674.0,61944.0,-1155.7770542394057,-1039.9932331456148,-2541.6695780391406
140674,5680,140674,23980,140674.0,61893.0,-1164.1933365291409,-1045.609882501449,-2556.8234308133665
140674,5630,140674,23872,140674.0,61795.0,-1172.3902825156295,-1050.9007578639187,-2571.2195924401894
140674,5600,140674,23813,140674.0,61744.0,-1180.346148800999,-1055.836956080022,-2584.7929258437193
140674,5619,140674,23870,140674.0,61813.0,-1188.0383297954586,-1060.3889824701234,-2597.4763470269622
140674,5670,140674,23977,140674.0,61855.0,-1195.443649072863,-1064.5275920748247,-2609.201272711818
140685,5667,140685,23972,140685.0,61876.0,-1202.5378115772858,-1068.222795884436,-2619.896615949355
140685,5621,140685,23905,140685.0,61764.0,-1209.2945638388692,-1071.4422674716554,-2629.4875137768445
140685,5570,140685,23756,140685.0,61684.0,-1215.685520209887,-1074.1511524652797,-2637.895331302263
140685,5547,140685,23784,140685.0,61651.0,-1221.680878580232,-1076.313757483473,-2645.039187480931
140685,5581,140685,23837,140685.0,61704.0,-1227.2503242536923,-1077.8954966160647,-2650.837695765974
140685,5611,140685,23901,140685.0,61742.0,-1232.3632810736353,-1078.8632711981036,-2655.2095197930494
140695,5604,140695,23928,140695.0,61763.0,-1236.9883751862476,-1079.1842839865617,-2658.072639465152
140695,5574,140695,23854,140695.0,61657.0,-1241.0927903793863,-1078.8246831609122,-2659.3434491869593
140695,5509,140695,23791,140695.0,61571.0,-1244.6422627685295,-1077.7493323998265,-2658.937046795866
140695,5514,140695,23772,140695.0,61573.0,-1247.601821123634,-1075.922928715413,-2656.7689445661827
140695,5557,140695,23865,140695.0,61692.0,-1249.936587897485,-1073.3113196992877,-2652.7567054393094
140695,5575,140695,23902,140695.0,61701.0,-1251.611822473559,-1069.8816330397096,-2646.8199388140943
140705,5561,140705,23899,140705.0,61678.0,-1252.5922947796546,-1065.6012275062194,-2638.879138179717
140705,5501,140705,23800,140705.0,61575.0,-1252.8418869012323,-1060.4368729549099,-2628.8552128727492
140705,5465,140705,23706,140705.0,61477.0,-1252.3240552353698,-1054.355437379029,-2616.670764813471
140705,5471,140705,23748,140705.0,61547.0,-1251.002905430034,-1047.325889815755,-2602.2525056455693
140705,5506,140705,23846,140705.0,61617.0,-1248.8440394121153,-1039.3209161890668,-2585.533035881852
140705,5523,140705,23923,140705.0,61697.0,-1245.81461913245,-1030.3166575955242,-2566.450757983031
140716,5508,140716,23862,140716.0,61643.0,-1241.8829274096552,-1020.2911385562988,-2544.9486844365874
140716,5477,140716,23802,140716.0,61564.0,-1237.018147379526,-1009.2233692600271,-2520.973996555771
140716,5460,140716,23789,140716.0,61527.0,-1231.1907481057758,-997.0941100874359,-2494.479345436202
140716,5486,140716,23811,140716.0,61633.0,-1224.3731899756901,-983.8873661551075,-2465.4249719207555
140716,5515,140716,23928,140716.0,61740.0,-1216.540331570004,-969.5911412422668,-2433.779712404945
140716,5545,140716,23957,140716.0,61759.0,-1207.6692393817907,-954.1968283029771,-2399.5202320203034
140726,5512,140726,23880,140726.0,61750.0,-1197.7387371338575,-937.6980302510135,-2362.6298562579977
140726,5472,140726,23788,140726.0,61663.0,-1186.7293895723687,-920.0905334839209,-2323.0986430236608
140726,5468,140726,23800,140726.0,61680.0,-1174.6242553311745,-901.3740353908556,-2280.9250113535822
140726,5515,140726,23890,140726.0,61799.0,-1161.4098732000389,-881.554126385606,-2236.1177594037345
140726,5554,140726,24020,140726.0,61951.0,-1147.076634395053,-860.6426686800148,-2188.696700982995
140726,5582,140726,24086,140726.0,61999.0,-1131.6183813858368,-838.6562579334964,-2138.6914083311867
140736,5565,140736,24017,140736.0,61980.0,-1115.0318346342954,-815.6141840088696,-2086.139580314793
140736,5552,140736,23940,140736.0,61997.0,-1097.3165071780481,-791.5378310584499,-2031.0867532257375
140736,5552,140736,23984,140736.0,62062.0,-1078.4752488224829,-766.4520080822476,-1973.5872942726048
140736,5620,140736,24106,140736.0,62228.0,-1058.5149221144522,-740.3864951645354,-1913.705198962502
140736,5647,140736,24201,140736.0,62357.0,-1037.4465482404034,-713.3759144182094,-1851.5134864892202
140736,5699,140736,24245,140736.0,62446.0,-1015.2848315547051,-685.4580440700074,-1787.0923650958043
140747,5662,140747,24142,140747.0,62378.0,-992.0476189042829,-656.6723250928953,-1720.5276484436608
140747,5672,140747,24142,140747.0,62438.0,-967.7559105085645,-627.0600587472838,-1651.9108370008894
140747,5708,140747,24186,140747.0,62559.0,-942.4344339556599,-596.6659618601103,-1581.340414423214
140747,5773,140747,24327,140747.0,62710.0,-916.1120824446052,-565.5392389294707,-1508.922453654593
140747,5837,140747,24462,140747.0,62899.0,-888.8216376834214,-533.732835965588,-1434.7695075701367
140747,5863,140747,24458,140747.0,62934.0,-860.5989525707225,-501.30130553228855,-1358.998446534763
140757,5861,140757,24391,140757.0,62923.0,-831.482254360213,-468.2991451363443,-1281.728864293315
140757,5867,140757,24382,140757.0,63007.0,-801.5120993889066,-434.7810885724507,-1203.083218125683
140757,5924,140757,24467,140757.0,63159.0,-770.731838492977,-400.80365836803514,-1123.1878393095576
140757,6022,140757,24633,140757.0,63327.0,-739.1878207559585,-366.42589715994444,-1042.172935951487
140757,6081,140757,24716,140757.0,63453.0,-706.9287432573278,-331.708142883385,-960.171090303017
140757,6100,140757,24679,140757.0,63491.0,-674.0044954282209,-296.7098698714392,-877.3153735640499
140767,6066,140767,24655,140767.0,63495.0,-640.4654961619408,-261.4886480014632,-793.7385168026171
140767,6097,140767,24624,140767.0,63558.0,-606.3630684707259,-226.10098495936774,-709.5736416359769
140767,6159,140767,24734,140767.0,63758.0,-571.7502915042608,-190.6039286086327,-624.9554697443677
140767,6259,140767,24865,140767.0,63929.0,-536.6822637825705,-155.0557135279663,-540.0202381615561
140767,6306,140767,24947,140767.0,64063.0,-501.2153873654536,-119.51465858819586,-454.9038667101231
140767,6312,140767,24898,140767.0,64052.0,-465.40633495677423,-84.03734578553212,-369.7398525175345
140778,6328,140778,24853,140778.0,64099.0,-429.3116148677467,-48.67799086820696,-284.6586336931998
140778,6361,140778,24900,140778.0,64204.0,-392.9878817612918,-13.489538188428696,-199.7884866504587
140778,6446,140778,25047,140778.0,64411.0,-356.4923316114934,21.475084296347177,-115.25628934241536
140778,6539,140778,25156,140778.0,64555.0,-319.8824626423225,56.16333247007708,-31.18669928839745
140778,6545,140778,25162,140778.0,64585.0,-283.2151639668537,90.52487172082988,52.2997639295661
140778,6583,140778,25074,140778.0,64587.0,-246.54589503574527,124.51292176351683,135.08784962339246
140788,6564,140788,25061,140788.0,64674.0,-209.92860974207474,158.08364695489422,217.0669832799167
140788,6610,140788,25138,140788.0,64769.0,-173.41631005651766,191.19429585421028,298.13001029019733
140788,6712,140788,25267,140788.0,64905.0,-137.06156770555208,223.80212935207146,378.1726882344374
140788,6781,140788,25366,140788.0,65062.0,-100.91626339374545,255.86523359635544,457.0943116659705
140788,6825,140788,25385,140788.0,65130.0,-65.03054793910042,287.34445615357504,534.799094336227
140788,6809,140788,25293,140788.0,65132.0,-29.451936344473665,318.2047263503903,611.19733668339
140798,6811,140798,25314,140798.0,65205.0,5.77469982468142,348.41461562925485,686.205414346309
140798,6881,140798,25366,140798.0,65335.0,40.60643555057186,377.94483926609223,759.7450196426914
140798,6964,140798,25505,140798.0,65455.0,75.00186583095251,406.7675177810196,831.7430368826092
140798,7006,140798,25561,140798.0,65556.0,108.9215640876406,434.8570631274241,902.1324790416954
140798,7022,140798,25498,140798.0,65554.0,142.32891485611765,462.1917110790116,970.8535957023241
140798,7018,140798,25458,140798.0,65547.0,175.19045587843107,488.75391976324977,1037.8539928171272
140809,7022,140809,25430,140809.0,65566.0,207.47546972583177,514.5290623351118,1103.0873938751379
140809,7093,140809,25550,140809.0,65697.0,239.15525709416,539.5036893169197,1166.5119609337066
140809,7146,140809,25658,140809.0,65852.0,270.2028172682154,563.6650812574558,1228.0896948281124
140809,7204,140809,25681,140809.0,65939.0,300.5932503676669,587.002498920951,1287.7875109007655
140809,7212,140809,25660,140809.0,65906.0,330.30445929230416,609.5087593302685,1345.578831889923
140809,7196,140809,25556,140809.0,65901.0,359.3174701775673,631.1804846243069,1401.4439222203969
140819,7207,140819,25584,140819.0,65959.0,387.6160320925154,652.0167264773559,1455.3686792179192
140819,7281,140819,25732,140819.0,66103.0,415.18589932206646,672.0173929262178,1507.3434017155655
140819,7338,140819,25800,140819.0,66191.0,442.0146447069926,691.1833536376582,1557.3629531294023
140819,7356,140819,25811,140819.0,66205.0,468.0922149750753,709.5181669570729,1605.427995530962
140819,7344,140819,25699,140819.0,66130.0,493.4114918327748,727.0293908164845,1651.5456516237787
140819,7336,140819,25617,140819.0,66119.0,517.9681589364045,743.7278887613879,1695.728461326613
140829,7352,140829,25673,140829.0,66185.0,541.7599599749112,759.6255679863268,1737.9922823661336
140829,7414,140829,25781,140829.0,66321.0,564.7859956049529,774.7336193156111,1778.3549254927598
140829,7462,140829,25849,140829.0,66419.0,587.0466522716283,789.0627927424819,1816.836614612222
140829,7486,140829,25845,140829.0,66401.0,608.5441548541367,802.6250383171841,1853.461569031535
140829,7461,140829,25777,140829.0,66332.0,629.2831016047437,815.4346744898112,1888.2588655767104
140829,7421,140829,25730,140829.0,66352.0,649.2702851501783,827.5080129660953,1921.2615537742222
140840,7480,140840,25795,140840.0,66403.0,668.5137994131687,838.8619637606892,1952.5049783645331
140840,7532,140840,25885,140840.0,66524.0,687.0223307766357,849.5132125999007,1982.0259857621768
140840,7563,140840,25950,140840.0,66574.0,704.805355705631,859.4789738993729,2009.863604259811
140840,7565,140840,25857,140840.0,66483.0,721.8738195685248,868.778497143601,2036.0602011170763
140840,7528,140840,25774,140840.0,66412.0,738.2404140085362,877.4334622575857,2060.6613607086433
140840,7510,140840,25739,140840.0,66407.0,753.91906395924,885.4665044549922,2083.7139663240278
140850,7565,140850,25818,140850.0,66507.0,768.9239881715007,892.8991711523868,2105.264038385403
140850,7614,140850,25936,140850.0,66634.0,783.2692171779906,899.7512449127785,2125.356205604153
140850,7650,140850,25945,140850.0,66651.0,796.9690195319786,906.0419740868406,2144.0350706824506
140850,7626,140850,25880,140850.0,66568.0,810.0386793441737,911.7917837831949,2161.3468420421023
140850,7580,140850,25763,140850.0,66543.0,822.4947058850919,917.0225237641484,2177.3394148548405
140850,7587,140850,25794,140850.0,66525.0,834.3541469180273,921.7559105981484,2192.0609302384
140861,7651,140861,25909,140861.0,66683.0,845.6336872305062,926.011903774109,2205.558462439057
140861,7684,140861,25966,140861.0,66695.0,856.349509278725,929.8088870286381,2217.878228824888
140861,7697,140861,25939,140861.0,66698.0,866.5179579079727,933.1653385416453,2229.0669508302854
140861,7649,140861,25845,140861.0,66552.0,876.1561303302017,936.1009757955915,2239.17254503012
140861,7635,140861,25791,140861.0,66553.0,885.2816805032087,938.6361339537002,2248.243007527722
140861,7631,140861,25800,140861.0,66530.0,893.9119709284894,940.7899984079183,2256.324297586917
140871,7684,140871,25890,140871.0,66648.0,902.0633160356995,942.5792976893736,2263.4589067622724
140871,7717,140871,25961,140871.0,66714.0,909.7509358599855,944.0185792988539,2269.6860935642985
140871,7736,140871,25969,140871.0,66683.0,916.9895769898526,945.1217906658687,2275.0433471894607
140871,7684,140871,25852,140871.0,66603.0,923.7941304397727,945.903661130194,2279.5674580387204
140871,7660,140871,25815,140871.0,66555.0,930.1795295719519,946.3794901423171,2283.293971482289
140871,7696,140871,25838,140871.0,66620.0,936.159994371724,946.5636488142234,2286.2556712780274
140881,7749,140881,25977,140881.0,66741.0,941.7485464404729,946.4686440160801,2288.4819128552426
140881,7760,140881,25985,140881.0,66749.0,946.9574013671711,946.1059891480384,2289.9997383452264
140881,7748,140881,25901,140881.0,66680.0,951.7987361748037,945.4878936027824,2290.8356047180937
140881,7693,140881,25790,140881.0,66605.0,956.2849450542988,944.6276314659813,2291.0158097036056
140881,7682,140881,25766,140881.0,66560.0,960.4280632449629,943.5379333752383,2290.5652159672322
140881,7713,140881,25839,140881.0,66631.0,964.2388504318835,942.2289492684756,2289.5055496722384
140892,7754,140892,25925,140892.0,66721.0,967.7263852669862,940.7076819015422,2287.8548572140744
140892,7789,140892,25962,140892.0,66736.0,970.8985187513329,938.9792611549465,2285.628623338704
140892,7744,140892,25928,140892.0,66644.0,973.7626782302032,937.048804187737,2282.841315587698
140892,7711,140892,25776,140892.0,66557.0,976.3261515436539,934.9221754990085,2279.506569641207
140892,7702,140892,25758,140892.0,66602.0,978.5955272971905,932.6048372391947,2275.635832958256
140892,7776,140892,25898,140892.0,66690.0,980.5759932529627,930.1000038231979,2271.237224896327
140902,7815,140902,25950,140902.0,66714.0,982.2714721140737,927.4084320060108,2266.3160599099433
140902,7777,140902,25905,140902.0,66708.0,983.6855540598979,924.5300729762171,2260.876410259504
140902,7751,140902,25829,140902.0,66609.0,984.8221351163327,921.4653643911162,2254.922093121571
140902,7691,140902,25754,140902.0,66556.0,985.6850428217365,918.2147093164665,2248.4562198580024
140902,7721,140902,25796,140902.0,66552.0,986.2770295267255,914.7768665520201,2241.4797323090047
140902,7759,140902,25902,140902.0,66655.0,986.5990479359793,911.1479886944492,2233.990314296362
140912,7795,140912,25915,140912.0,66691.0,986.6504381883424,907.3223623439249,2225.982829814161
140912,7779,140912,25917,140912.0,66659.0,986.4297593143317,903.2941058452051,2217.4508872846536
140912,7765,140912,25824,140912.0,66605.0,985.9354353624037,899.0582179012956,2208.3879778424707
140912,7738,140912,25770,140912.0,66561.0,985.1657689935068,894.6101859661081,2198.787321693503
140912,7763,140912,25833,140912.0,66567.0,984.1185634171277,889.9447232459539,2188.6409610690525
140912,7809,140912,25922,140912.0,66680.0,982.790969961065,885.0551947525411,2177.9392980445505
140923,7806,140923,25957,140923.0,66717.0,981.179945853763,879.9346958715755,2166.67200636996
140923,7774,140923,25871,140923.0,66602.0,979.2829155412535,874.5777981015018,2154.8297631155215
140923,7741,140923,25799,140923.0,66525.0,977.0978848340562,868.9811428492928,2142.4048900650987
140923,7741,140923,25753,140923.0,66485.0,974.6229169004289,863.1423552635005,2129.3901523334594
140923,7732,140923,25801,140923.0,66578.0,971.8555206277242,857.0584479319934,2115.7772221357973
140923,7791,140923,25903,140923.0,66633.0,968.7924472331074,850.7252869653022,2101.5566110906134
140933,7826,140933,25926,140933.0,66638.0,965.4301542429714,844.138723635004,2086.7192048924285
140933,7766,140933,25814,140933.0,66562.0,961.7657123088807,837.2962907885852,2071.257939524623
140933,7737,140933,25751,140933.0,66472.0,957.7972564370327,830.1975821040875,2055.1681682865983
140933,7719,140933,25715,140933.0,66465.0,953.5235101970738,822.842921660243,2038.4466389111772
140933,7770,140933,25848,140933.0,66565.0,948.9431074652384,815.2319448434704,2021.0904530114888
140933,7812,140933,25903,140933.0,66600.0,944.0546568246593,807.3638492027969,2003.0975115919719
140943,7787,140943,25863,140943.0,66562.0,938.8575972359067,799.2391999095862,1984.4682504120865
140943,7741,140943,25750,140943.0,66424.0,933.3529505330861,790.8613025424689,1965.2068479580048
140943,7696,140943,25697,140943.0,66386.0,927.5431693658604,782.2356719248362,1945.3206512932145
140943,7689,140943,25677,140943.0,66374.0,921.431264714666,773.368248549089,1924.8185481962028
140943,7735,140943,25717,140943.0,66493.0,915.0200648937317,764.2639571162582,1903.7100925409502
140943,7757,140943,25795,140943.0,66463.0,908.3122919925927,754.9265743522992,1882.0063317643737
140954,7754,140954,25812,140954.0,66424.0,901.3113565025558,745.3599059437122,1859.721433526604
140954,7685,140954,25689,140954.0,66313.0,894.022040309416,735.5692079832597,1836.8734173404255
140954,7652,140954,25630,140954.0,66217.0,886.4503373747037,725.5613005990419,1813.483302640816
140954,7682,140954,25667,140954.0,66290.0,878.6026705137089,715.3432845518647,1789.5734903007208
140954,7719,140954,25808,140954.0,66289.0,870.4854939174054,704.9217730004468,1765.166961498873
140954,7728,140954,25803,140954.0,66337.0,862.1058276170992,694.3040770697343,1740.2880217598083
140964,7678,140964,25728,140964.0,66218.0,853.4721226347411,683.5002440943115,1714.9636200564235
140964,7633,140964,25562,140964.0,66111.0,844.5945115085516,672.5236149370658,1689.2236940330613
140964,7593,140964,25573,140964.0,66088.0,835.4841889299837,661.3891877048239,1663.100016331619
140964,7621,140964,25597,140964.0,66091.0,826.1525050008532,650.1114792711988,1636.624680414399
140964,7643,140964,25714,140964.0,66171.0,816.6105863155074,638.7039564274967,1609.8297446800018
140964,7663,140964,25698,140964.0,66119.0,806.8697880623981,627.1803620166716,1582.7482645407456
140974,7598,140974,25602,140974.0,66043.0,796.9424526384719,615.5563996016393,1555.4155336104618
140974,7563,140974,25542,140974.0,65942.0,786.8421122989703,603.8500115258631,1527.8691628644901
140974,7547,140974,25495,140974.0,65905.0,776.582918903535,592.0801183122036,1500.1478913943456
140974,7586,140974,25600,140974.0,65979.0,766.1790167207283,580.2652941185179,1472.2903822536382
140974,7606,140974,25626,140974.0,65997.0,755.6446288738563,568.4238023455116,1444.3353357796323
140974,7566,140974,25579,140974.0,65939.0,744.9947557835256,556.5748693720453,1416.32281592702
140985,7532,140985,25489,140985.0,65839.0,734.2456574403519,544.7395788663484,1388.2952280626416
140985,7481,140985,25390,140985.0,65742.0,723.4145827328522,532.940181932036,1360.2968136331087
140985,7471,140985,25363,140985.0,65693.0,712.5189962474445,521.1982069204118,1332.3720286530752
140985,7482,140985,25463,140985.0,65741.0,701.5759030342845,509.5328030240935,1304.5640491839313
140985,7505,140985,25543,140985.0,65760.0,690.6017423070227,497.9607841658652,1276.914523517963
140985,7507,140985,25487,140985.0,65725.0,679.6128900013816,486.4983401821212,1249.464549435178
140995,7426,140995,25397,140995.0,65580.0,668.6262232519528,475.1625063755979,1222.2555172620514
140995,7401,140995,25329,140995.0,65525.0,657.6590116431948,463.9708427557547,1195.3285444766939
140995,7401,140995,25361,140995.0,65551.0,646.7281589739898,452.93993560156315,1168.7229639556947
140995,7435,140995,25467,140995.0,65577.0,635.8496813705191,442.08457046639955,1142.4755523225404
140995,7450,140995,25484,140995.0,65576.0,625.0390101057848,431.41864259216976,1116.6211831699597
140995,7411,140995,25363,140995.0,65536.0,614.3117583826403,420.95681464731877,1091.1940094762538
141004,7343,141004,25274,141004.0,65395.0,603.6840854227391,410.7148368967297,1066.2279497244933
141004,7320,141004,25217,141004.0,65334.0,593.1721736843424,400.7079384012129,1041.7558128344094
141004,7331,141004,25282,141004.0,65375.0,582.7913084298646,390.9488085628385,1017.8076659078498
141004,7357,141004,25360,141004.0,65411.0,572.5554617051623,381.4469534611672,994.4100768784344
141004,7368,141004,25401,141004.0,65425.0,562.4776817735406,372.20987988825664,971.5869373744752
141004,7311,141004,25313,141004.0,65327.0,552.5707674533729,363.24492086454876,949.3607903324661
141015,7269,141015,25225,141015.0,65253.0,542.8474255387207,354.55991138438776,927.7531802135009
141015,7244,141015,25191,141015.0,65206.0,533.3196619697868,346.1621252441835,906.783685102039
141015,7288,141015,25294,141015.0,65328.0,523.9980458411242,338.0567982413379,886.4688300590183
141015,7319,141015,25371,141015.0,65338.0,514.8916897542839,330.2470932670771,866.8224171012727
141015,7304,141015,25338,141015.0,65288.0,506.00903116775476,322.7357236595338,847.8571255577319
141015,7255,141015,25214,141015.0,65188.0,497.358600906952,315.5263951408107,829.5855670651774
141025,7200,141025,25160,141025.0,65088.0,488.9489731138359,308.62337440987676,812.0196210254607
141025,7186,141025,25161,141025.0,65128.0,480.7879307628533,302.0296780606094,795.1687118749904
141025,7245,141025,25221,141025.0,65196.0,472.88166203063736,295.7457070954846,779.0387277177915
141025,7264,141025,25302,141025.0,65214.0,465.23483925863405,289.76944201862773,763.6326404523704
141025,7242,141025,25289,141025.0,65173.0,457.851489239424,284.0979111250569,748.9520521105485
141025,7186,141025,25215,141025.0,65108.0,450.7356428087583,278.72860852454494,734.9980948668558
141035,7153,141035,25151,141035.0,65003.0,443.89107351859013,273.6595769205916,721.7709682581823
141035,7179,141035,25183,141035.0,65072.0,437.3205077437357,268.88829688224456,709.2686114127059
