c_ts,c_val,d_ts,d_val,e_ts,e_val,c_val_filtered,d_val_filtered,e_val_filtered
207167.0,8080.0,207167.0,16057.0,207167.0,35852.0,530.4140777510696,464.41662917376505,912.0215942681698
207167.0,8038.0,207167.0,15984.0,207167.0,35779.0,526.9022567644981,459.7740371207855,901.7809066595701
207167.0,8030.0,207167.0,15914.0,207167.0,35747.0,523.127252167367,454.86827315516746,891.0639008570929
207167.0,8020.0,207167.0,15929.0,207167.0,35700.0,519.0969394939845,449.7183087091082,879.8966457716709
207167.0,7999.0,207167.0,15924.0,207167.0,35721.0,514.8189272508558,444.34103029761474,868.304236889009
207167.0,8021.0,207167.0,15959.0,207167.0,35718.0,510.3003857108929,438.75099297127656,856.3105105793609
207178.0,8041.0,207178.0,15950.0,207178.0,35717.0,505.54814688716755,432.9608672931621,843.9383692865451
207178.0,8039.0,207178.0,15959.0,207178.0,35640.0,500.56918068183927,426.9820693854421,831.2102108875206
207178.0,8039.0,207178.0,15957.0,207178.0,35662.0,495.3712061575113,420.8252700669708,818.1479231632416
207178.0,8039.0,207178.0,16014.0,207178.0,35700.0,489.9631300893415,414.50088388643155,804.77276846613
207178.0,8021.0,207178.0,16042.0,207178.0,35660.0,484.35529837175625,408.0199060087985,791.1058418831724
207178.0,7973.0,207178.0,15934.0,207178.0,35636.0,478.5595195099776,401.3949083971456,777.1687824477216
207188.0,7950.0,207188.0,15875.0,207188.0,35563.0,472.58868784298215,394.64014258917166,762.9839069814477
207188.0,7920.0,207188.0,15835.0,207188.0,35493.0,466.45609111388285,387.77031558430457,748.5735574158516
207188.0,7889.0,207188.0,15844.0,207188.0,35526.0,460.17468934397243,380.7990583433922,733.9590656162718
207188.0,7867.0,207188.0,15827.0,207188.0,35460.0,453.75646577371833,373.73809425093856,719.1600311495412
207188.0,7893.0,207188.0,15830.0,207188.0,35493.0,447.2119344537342,366.59708889573403,704.19418046271
207188.0,7923.0,207188.0,15867.0,207188.0,35496.0,440.5501359896585,359.3838529499003,689.0776105353409
207198.0,7911.0,207198.0,15851.0,207198.0,35455.0,433.7792384719782,352.1048472345367,673.8253152359066
207198.0,7880.0,207198.0,15854.0,207198.0,35432.0,426.90721914572293,344.76582174063435,658.4516336274447
207198.0,7931.0,207198.0,15870.0,207198.0,35466.0,419.9421813263806,337.37230911161816,642.9703869975647
207198.0,7902.0,207198.0,15881.0,207198.0,35469.0,412.8926138980163,329.9300857177991,627.395220184311
207198.0,7865.0,207198.0,15866.0,207198.0,35407.0,405.7677469249909,322.4457458397592,611.7403126824343
207198.0,7830.0,207198.0,15815.0,207198.0,35400.0,398.57750323841924,314.9270771110059,596.0207993429724
207209.0,7810.0,207209.0,15777.0,207209.0,35318.0,391.33192022616004,307.3828423751074,580.2525622355893
207209.0,7797.0,207209.0,15720.0,207209.0,35264.0,384.04050696259606,299.8219717530727,564.4515530530713
207209.0,7775.0,207209.0,15720.0,207209.0,35228.0,376.7118237259243,292.25253093749745,548.6327831601457
207209.0,7771.0,207209.0,15683.0,207209.0,35230.0,369.35323705306956,284.68087827348114,532.809381473383
207209.0,7774.0,207209.0,15745.0,207209.0,35269.0,361.9708136287671,277.11128762298057,516.9923288294818
207209.0,7780.0,207209.0,15767.0,207209.0,35248.0,354.56943776388493,269.5462654882443,501.19103435851184
207219.0,7806.0,207219.0,15730.0,207219.0,35195.0,347.153206901022,261.98744284915756,485.41415447430484
207219.0,7784.0,207219.0,15725.0,207219.0,35157.0,339.7260220073004,254.43629486926045,469.6698305104949
207219.0,7807.0,207219.0,15777.0,207219.0,35255.0,332.292162243314,246.89439496582838,453.96552279736113
207219.0,7757.0,207219.0,15779.0,207219.0,35213.0,324.8566616356092,239.36385886885586,438.3084628820791
207219.0,7727.0,207219.0,15729.0,207219.0,35167.0,317.4253338028759,231.84811014834452,422.7066710207233
207219.0,7703.0,207219.0,15687.0,207219.0,35099.0,310.0043514783762,224.3521596681989,407.16932648633974
207229.0,7675.0,207229.0,15629.0,207229.0,35061.0,302.59960932187414,216.8819961311528,391.7061119883175
207229.0,7666.0,207229.0,15568.0,207229.0,35041.0,295.2161794543626,209.44341539910238,376.32625234830346
207229.0,7638.0,207229.0,15606.0,207229.0,35035.0,287.85792226455413,202.04079028906085,361.03790280747785
207229.0,7666.0,207229.0,15594.0,207229.0,35024.0,280.5272664913261,194.676389808417,345.8480546376164
207229.0,7674.0,207229.0,15627.0,207229.0,34946.0,273.2253163057208,187.3505289904952,330.7626380410675
207229.0,7699.0,207229.0,15671.0,207229.0,34940.0,265.95239458828996,180.06229224087195,315.7863141554851
207240.0,7670.0,207240.0,15589.0,207240.0,34907.0,258.70878558009593,172.8104314997712,300.9219660865982
207240.0,7676.0,207240.0,15640.0,207240.0,35000.0,251.49526809297777,165.5939090220894,286.1705444991578
207240.0,7664.0,207240.0,15713.0,207240.0,35018.0,244.3133360485112,158.4122102729662,271.5318970403148
207240.0,7624.0,207240.0,15668.0,207240.0,34940.0,237.16523785370504,151.2662121610668,257.0062496569167
207240.0,7614.0,207240.0,15616.0,207240.0,34931.0,230.05380420498284,144.15916948894346,242.59510127461908
207240.0,7554.0,207240.0,15518.0,207240.0,34875.0,222.98200151172608,137.09656487674664,228.30106028716557
207250.0,7560.0,207250.0,15469.0,207250.0,34827.0,215.95231405988983,130.084688488579,214.12722181924119
207250.0,7527.0,207250.0,15435.0,207250.0,34825.0,208.96615921976445,123.12878926422098,200.0764924461771
207250.0,7528.0,207250.0,15504.0,207250.0,34793.0,202.02351168513417,116.23176278560516,186.15107881045503
207250.0,7556.0,207250.0,15522.0,207250.0,34778.0,195.1228156245043,109.39405356659711,172.3522918200904
207250.0,7581.0,207250.0,15539.0,207250.0,34754.0,188.2613385441377,102.61461179798806,158.6804902915287
207250.0,7569.0,207250.0,15510.0,207250.0,34713.0,181.4359486902287,95.891991824267,145.13496971302357
207260.0,7559.0,207260.0,15488.0,207260.0,34729.0,174.64384656297085,89.22487395035017,131.7137920645241
207260.0,7573.0,207260.0,15548.0,207260.0,34768.0,167.8829410014743,82.61213710658001,118.41387443388714
207260.0,7559.0,207260.0,15555.0,207260.0,34761.0,161.15208038524935,76.05319677743188,105.23170277436168
207260.0,7510.0,207260.0,15510.0,207260.0,34732.0,154.45121793661713,69.54876607024028,92.16433090224052
207260.0,7479.0,207260.0,15454.0,207260.0,34666.0,147.78118736214628,63.101206161440814,79.209865462788
207260.0,7442.0,207260.0,15397.0,207260.0,34633.0,141.14300788606516,56.71388933267713,66.36712124722294
207271.0,7425.0,207271.0,15386.0,207271.0,34628.0,134.53705863805106,50.38998331536175,53.634875945680506
207271.0,7441.0,207271.0,15391.0,207271.0,34606.0,127.96248259088145,44.1314319291273,41.01136994120179
207271.0,7442.0,207271.0,15392.0,207271.0,34610.0,121.41705681457518,37.938583210532556,28.494249508197868
207271.0,7449.0,207271.0,15387.0,207271.0,34581.0,114.8975027646548,31.81033545470791,16.08073693012375
207271.0,7474.0,207271.0,15418.0,207271.0,34549.0,108.40000596525408,25.744479384081103,3.767758450369456
207271.0,7474.0,207271.0,15416.0,207271.0,34516.0,101.92084804297957,19.73818992571296,-8.448182351685887
207281.0,7452.0,207281.0,15427.0,207281.0,34536.0,95.45702777483734,13.78865551522324,-20.571286503365286
207281.0,7437.0,207281.0,15470.0,207281.0,34618.0,89.00657174838136,7.893753938541863,-32.60629372558276
207281.0,7440.0,207281.0,15425.0,207281.0,34580.0,82.56850436661853,2.0527707407389357,-44.557431418008605
207281.0,7398.0,207281.0,15360.0,207281.0,34492.0,76.14272819715046,-3.7332100820748906,-56.42725956208449
207281.0,7369.0,207281.0,15294.0,207281.0,34457.0,69.72979648165636,-9.461864371252489,-68.21666410335047
207281.0,7350.0,207281.0,15321.0,207281.0,34401.0,63.33042400700651,-15.130898330806133,-79.92591981269277
207291.0,7318.0,207291.0,15261.0,207291.0,34429.0,56.944882030526855,-20.739096396333878,-91.55576014335338
207291.0,7315.0,207291.0,15310.0,207291.0,34413.0,50.57248163599195,-26.28677414711609,-103.10778624245677
207291.0,7370.0,207291.0,15324.0,207291.0,34408.0,44.21135800466391,-31.775727363353383,-114.58425556757788
207291.0,7377.0,207291.0,15317.0,207291.0,34345.0,37.85889358149848,-37.20870150708538,-125.98779849062623
207291.0,7350.0,207291.0,15269.0,207291.0,34379.0,31.512596028934695,-42.58883489014579,-137.32146352070208
207291.0,7343.0,207291.0,15319.0,207291.0,34359.0,25.170686311870895,-47.91955507033151,-148.5887935824794
207302.0,7348.0,207302.0,15367.0,207302.0,34396.0,18.832188539434696,-53.2044265008837,-159.7934961374001
207302.0,7320.0,207302.0,15340.0,207302.0,34382.0,12.496920285127885,-58.44635233565555,-170.93874549542966
207302.0,7321.0,207302.0,15363.0,207302.0,34375.0,6.165512929971783,-63.64659776631947,-182.02643493705216
207302.0,7291.0,207302.0,15264.0,207302.0,34271.0,-0.1606593920735122,-68.80438561077733,-193.05683794241668
207302.0,7259.0,207302.0,15185.0,207302.0,34246.0,-6.47969690987145,-73.9174445779434,-204.02910952754064
207302.0,7216.0,207302.0,15187.0,207302.0,34258.0,-12.789638622296252,-78.9834616597239,-214.942299837434
207312.0,7214.0,207312.0,15194.0,207312.0,34190.0,-19.089149770563836,-84.00151387119956,-225.79604422475677
207312.0,7252.0,207312.0,15200.0,207312.0,34231.0,-25.37800947820176,-88.97256468017906,-236.59079020482739
207312.0,7243.0,207312.0,15242.0,207312.0,34194.0,-31.656965525612804,-93.89914050252122,-247.32781426488532
207312.0,7244.0,207312.0,15187.0,207312.0,34175.0,-37.92715459580643,-98.78472149823006,-258.00908518346614
207312.0,7228.0,207312.0,15201.0,207312.0,34171.0,-44.1896404515802,-103.63334038342225,-268.63718024536877
207312.0,7246.0,207312.0,15225.0,207312.0,34172.0,-50.445199535990014,-108.44949236419438,-279.2152644151844
207322.0,7247.0,207322.0,15269.0,207322.0,34216.0,-56.69408684041343,-113.23779954818735,-289.7467741974996
207322.0,7214.0,207322.0,15266.0,207322.0,34187.0,-62.93571321707714,-118.00212614164883,-300.2346846712866
207322.0,7161.0,207322.0,15207.0,207322.0,34186.0,-69.16860447484066,-122.74472510278952,-310.68071982476465
207322.0,7150.0,207322.0,15188.0,207322.0,34077.0,-75.39091952945023,-127.46614670041237,-321.0850848933791
207322.0,7145.0,207322.0,15097.0,207322.0,34063.0,-81.60116945626413,-132.16598985779888,-331.44704647223966
207322.0,7126.0,207322.0,15095.0,207322.0,34046.0,-87.7986376427852,-136.84411984639343,-341.7659839850786
207333.0,7091.0,207333.0,15131.0,207333.0,34026.0,-93.98357393988908,-141.50175330970876,-352.0421374446663
207333.0,7148.0,207333.0,15155.0,207333.0,34079.0,-100.15736925360858,-146.14168207437461,-362.27671963224236
207333.0,7156.0,207333.0,15142.0,207333.0,34055.0,-106.32238070707086,-150.76763368497512,-372.4714635225439
207333.0,7150.0,207333.0,15171.0,207333.0,34000.0,-112.48122317744037,-155.3835052138416,-382.628001575188
207333.0,7149.0,207333.0,15135.0,207333.0,33996.0,-118.63604723888193,-159.9928587919493,-392.74774467495763
207333.0,7147.0,207333.0,15230.0,207333.0,34031.0,-124.78815961441819,-164.59849256542572,-402.8321230650763
207343.0,7125.0,207343.0,15175.0,207343.0,34060.0,-130.93784441806815,-169.20177936966297,-412.88231296686365
207343.0,7100.0,207343.0,15137.0,207343.0,33997.0,-137.08435277264664,-173.80203612587292,-422.89837599731607
207343.0,7074.0,207343.0,15086.0,207343.0,33945.0,-143.2261599597577,-178.39667472300982,-432.8787766734488
207343.0,7027.0,207343.0,15069.0,207343.0,33904.0,-149.36147393647843,-182.98213238432947,-442.82087703200693
207343.0,7026.0,207343.0,15017.0,207343.0,33856.0,-155.48889812620462,-187.55492186327405,-452.7219814114277
207343.0,6992.0,207343.0,15034.0,207343.0,33840.0,-161.60805830687747,-192.11248384889285,-462.5803385260559
207353.0,7027.0,207353.0,15037.0,207353.0,33884.0,-167.71997102835303,-196.65368585799547,-472.39573866724834
207353.0,7062.0,207353.0,15063.0,207353.0,33881.0,-173.8269248906468,-201.17876532173057,-482.16936812652875
207353.0,7066.0,207353.0,15033.0,207353.0,33844.0,-179.93176132867256,-205.6888828510768,-491.9031414399486
207353.0,7056.0,207353.0,15014.0,207353.0,33795.0,-186.03694339611258,-210.18580172834226,-501.59935531696715
207353.0,7061.0,207353.0,15067.0,207353.0,33854.0,-192.14394470944052,-214.6718554917337,-511.2608949058906
207353.0,7035.0,207353.0,15108.0,207353.0,33894.0,-198.2530009840259,-219.14963085160144,-520.8911221322346
207364.0,7021.0,207364.0,15082.0,207364.0,33859.0,-204.36308246338587,-223.6210339837461,-530.4929259330131
207364.0,6981.0,207364.0,15042.0,207364.0,33816.0,-210.4721054517277,-228.08646866751673,-540.0677781840861
207364.0,6943.0,207364.0,15001.0,207364.0,33743.0,-216.57742548142897,-232.54489523069395,-549.615762578818
207364.0,6940.0,207364.0,14942.0,207364.0,33745.0,-222.67652515968297,-236.99467112880768,-559.1364388043912
207364.0,6908.0,207364.0,14947.0,207364.0,33735.0,-228.76763976243666,-241.43466927998253,-568.6297062159219
207364.0,6920.0,207364.0,14976.0,207364.0,33690.0,-234.8501405413648,-245.86508529580647,-578.0961853734416
207374.0,6921.0,207374.0,14982.0,207374.0,33729.0,-240.92464949060064,-250.28746818305967,-587.5373137443153
207374.0,6953.0,207374.0,14989.0,207374.0,33684.0,-246.99281071863714,-254.70416271692682,-596.9553032859535
207374.0,6935.0,207374.0,14949.0,207374.0,33692.0,-253.05674876842102,-259.1177948431173,-606.3529598692392
207374.0,6960.0,207374.0,14987.0,207374.0,33679.0,-259.1184688316853,-263.53110562357097,-615.7335283998063
207374.0,6954.0,207374.0,15019.0,207374.0,33719.0,-265.17935058007686,-267.9467754509574,-625.1004684412121
207374.0,6907.0,207374.0,14985.0,207374.0,33741.0,-271.23979627132917,-272.3668620403316,-634.4568344281058
207385.0,6905.0,207385.0,14991.0,207385.0,33701.0,-277.2992496315993,-276.792228532075,-643.8043473928453
207385.0,6859.0,207385.0,14966.0,207385.0,33644.0,-283.3566016941405,-281.2224028191167,-653.1428360683058
207385.0,6823.0,207385.0,14881.0,207385.0,33599.0,-289.4107812392458,-285.65587009945364,-662.4705836075032
207385.0,6823.0,207385.0,14889.0,207385.0,33564.0,-295.46144487009997,-290.0908492601277,-671.7853026785856
207385.0,6824.0,207385.0,14836.0,207385.0,33550.0,-301.50951783635617,-294.52633861954746,-681.0851055617675
207385.0,6809.0,207385.0,14887.0,207385.0,33523.0,-307.55733062498064,-298.9628644349573,-690.3691475436697
207395.0,6869.0,207395.0,14912.0,207395.0,33545.0,-313.60840997737887,-303.40254971838533,-699.6379173573605
207395.0,6865.0,207395.0,14928.0,207395.0,33533.0,-319.66690605113797,-307.8484547769822,-708.8931686256406
207395.0,6865.0,207395.0,14902.0,207395.0,33540.0,-325.7367466918922,-312.303673087716,-718.1375570569935
207395.0,6878.0,207395.0,14904.0,207395.0,33525.0,-331.820935581209,-316.7708198913724,-727.374212027547
207395.0,6835.0,207395.0,14960.0,207395.0,33567.0,-337.9211762817041,-321.2518203265669,-736.6063173527518
207395.0,6831.0,207395.0,14944.0,207395.0,33586.0,-344.0378099496845,-325.7474243173202,-745.836460339181
207405.0,6793.0,207405.0,14839.0,207405.0,33510.0,-350.1700727359763,-330.2566869595713,-755.0658077169792
207405.0,6759.0,207405.0,14823.0,207405.0,33462.0,-356.31657370191874,-334.7773695815911,-764.2938571582897
207405.0,6732.0,207405.0,14821.0,207405.0,33417.0,-362.47593660748817,-339.3071461541058,-773.5191812363742
207405.0,6741.0,207405.0,14767.0,207405.0,33399.0,-368.6474599031876,-343.84458706465784,-782.7405688664144
207405.0,6727.0,207405.0,14793.0,207405.0,33406.0,-374.8314833129199,-348.38969163989384,-791.9578276332579
207405.0,6726.0,207405.0,14820.0,207405.0,33401.0,-381.0294124592923,-352.944109091765,-801.1720001458391
207416.0,6746.0,207416.0,14902.0,207416.0,33374.0,-387.2435694909793,-357.5106613595194,-810.3851947732298
207416.0,6749.0,207416.0,14820.0,207416.0,33393.0,-393.476863601436,-362.0921981601135,-819.6003909557294
207416.0,6760.0,207416.0,14818.0,207416.0,33383.0,-399.7322692304698,-366.6907798389311,-828.8212453393908
207416.0,6754.0,207416.0,14829.0,207416.0,33380.0,-406.0122838812056,-371.30773029700356,-838.0517630578249
207416.0,6726.0,207416.0,14884.0,207416.0,33421.0,-412.318565815046,-375.94374032995574,-847.295848219368
207416.0,6711.0,207416.0,14837.0,207416.0,33398.0,-418.6518992834473,-380.59834744368356,-856.5566849135755
207426.0,6680.0,207426.0,14737.0,207426.0,33321.0,-425.0124751046237,-385.2695469767307,-865.8362137307963
207426.0,6675.0,207426.0,14749.0,207426.0,33277.0,-431.4003024016863,-389.9544614094233,-875.1353856935493
207426.0,6620.0,207426.0,14696.0,207426.0,33271.0,-437.81564423652674,-394.6506146069412,-884.4551571110167
207426.0,6640.0,207426.0,14717.0,207426.0,33277.0,-444.25949332511664,-399.35685790715024,-893.7973186957845
207426.0,6645.0,207426.0,14715.0,207426.0,33257.0,-450.73389961698604,-404.07373360849203,-903.1646610724015
207426.0,6655.0,207426.0,14730.0,207426.0,33284.0,-457.2418501966996,-408.8033912427875,-912.5607356560549
207436.0,6670.0,207436.0,14726.0,207436.0,33237.0,-463.7867742995454,-413.54921649196854,-921.9895265175735
207436.0,6681.0,207436.0,14754.0,207436.0,33203.0,-470.3719242952709,-418.31537910528186,-931.4553103771182
207436.0,6669.0,207436.0,14749.0,207436.0,33248.0,-476.99976408283237,-423.1063280491006,-940.9628219796327
207436.0,6677.0,207436.0,14844.0,207436.0,33321.0,-483.6715003921539,-427.9260819871621,-950.5170690356581
207436.0,6647.0,207436.0,14810.0,207436.0,33239.0,-490.3868297772581,-432.77715104117215,-960.122318987989
207436.0,6612.0,207436.0,14750.0,207436.0,33231.0,-497.14395388529726,-437.6595430310797,-969.7811843191575
207447.0,6549.0,207447.0,14689.0,207447.0,33188.0,-503.9400370527637,-442.570805272827,-979.4946744497859
207447.0,6536.0,207447.0,14653.0,207447.0,33161.0,-510.7721164013542,-447.50718085939684,-989.2627972640548
207447.0,6531.0,207447.0,14600.0,207447.0,33128.0,-517.6380476308959,-452.46508012550964,-999.0851820378239
207447.0,6518.0,207447.0,14611.0,207447.0,33085.0,-524.537031259794,-457.44231694880636,-1008.9617095976209
207447.0,6535.0,207447.0,14652.0,207447.0,33112.0,-531.4696971163111,-462.43877202758756,-1018.8930950767469
207447.0,6584.0,207447.0,14650.0,207447.0,33118.0,-538.4378118667522,-467.4562099975741,-1028.881083285155
207457.0,6569.0,207457.0,14650.0,207457.0,33105.0,-545.4435407620538,-472.4975924026048,-1038.9280947748873
207457.0,6549.0,207457.0,14651.0,207457.0,33080.0,-552.4886217560078,-477.5665219183812,-1049.0367576507128
207457.0,6563.0,207457.0,14691.0,207457.0,33113.0,-559.5739679857257,-482.66686226606953,-1059.2096771838294
207457.0,6554.0,207457.0,14733.0,207457.0,33103.0,-566.6995548845524,-487.8020965875178,-1069.449163880454
207457.0,6539.0,207457.0,14694.0,207457.0,33089.0,-573.8642620389464,-492.9743472688939,-1079.7567479144939
207457.0,6486.0,207457.0,14603.0,207457.0,33044.0,-581.0658539526369,-498.18381398294457,-1090.1328643652953
207467.0,6447.0,207467.0,14575.0,207467.0,33016.0,-588.301429621149,-503.429392828618,-1100.5770330123253
207467.0,6438.0,207467.0,14565.0,207467.0,33002.0,-595.5682539654215,-508.71003133889906,-1111.0883667302614
207467.0,6443.0,207467.0,14534.0,207467.0,32955.0,-602.8644673056917,-514.0257994262948,-1121.6660847031314
207467.0,6419.0,207467.0,14589.0,207467.0,32995.0,-610.1893390444885,-519.3783322552291,-1132.3098706092014
207467.0,6459.0,207467.0,14628.0,207467.0,32966.0,-617.5431850160793,-524.7705903939425,-1143.0199179510512
207467.0,6428.0,207467.0,14619.0,207467.0,32997.0,-624.9270881656712,-530.2059351751641,-1153.7965937381932
207478.0,6477.0,207478.0,14609.0,207478.0,32933.0,-632.3424610056801,-535.6871343924457,-1164.6400078909232
207478.0,6482.0,207478.0,14627.0,207478.0,32936.0,-639.7904518475036,-541.2158567834676,-1175.5498688204602
207478.0,6474.0,207478.0,14635.0,207478.0,32975.0,-647.271206917523,-546.7923921394374,-1186.525530073522
207478.0,6444.0,207478.0,14609.0,207478.0,32965.0,-654.783312127236,-552.4152853426064,-1197.565677606351
207478.0,6392.0,207478.0,14540.0,207478.0,32910.0,-662.3238091265528,-558.0812283599496,-1208.6677164050102
207478.0,6379.0,207478.0,14538.0,207478.0,32861.0,-669.8887715224023,-563.7856008184367,-1219.8276761076393
207488.0,6347.0,207488.0,14490.0,207488.0,32824.0,-677.4740750613435,-569.5233779673373,-1231.0409129649715
207488.0,6337.0,207488.0,14439.0,207488.0,32799.0,-685.0760259585721,-575.2900196369237,-1242.303080072942
207488.0,6308.0,207488.0,14503.0,207488.0,32822.0,-692.6918090487889,-581.0822533244418,-1253.6107993784703
207488.0,6354.0,207488.0,14486.0,207488.0,32826.0,-700.3197457551881,-586.8983629923697,-1264.9617279884028
207488.0,6342.0,207488.0,14542.0,207488.0,32802.0,-707.9591535244649,-592.7377064346078,-1276.3541301967805
207488.0,6339.0,207488.0,14473.0,207488.0,32774.0,-715.6098553557188,-598.5999530356235,-1287.786501716164
207498.0,6334.0,207498.0,14515.0,207498.0,32766.0,-723.2717563384749,-604.4846450208363,-1299.2575821129494
207498.0,6360.0,207498.0,14510.0,207498.0,32810.0,-730.9445823287509,-610.3910457911024,-1310.7664134922907
207498.0,6341.0,207498.0,14537.0,207498.0,32828.0,-738.6275278098029,-616.317820026894,-1322.3118768147
207498.0,6322.0,207498.0,14463.0,207498.0,32768.0,-746.3188898550361,-622.2625840431159,-1333.8918111181401
207498.0,6274.0,207498.0,14448.0,207498.0,32739.0,-754.0160605887011,-628.2219214154356,-1345.5025555357456
207498.0,6246.0,207498.0,14436.0,207498.0,32687.0,-761.7160158135637,-634.1919772838967,-1357.139339166864
207509.0,6227.0,207509.0,14375.0,207509.0,32661.0,-769.4160671583131,-640.1691639608387,-1368.7971121518806
207509.0,6218.0,207509.0,14364.0,207509.0,32647.0,-777.1145135659168,-646.1508524884193,-1380.4713283581548
207509.0,6223.0,207509.0,14374.0,207509.0,32657.0,-784.8109716177751,-652.136068465356,-1392.1583904407953
207509.0,6230.0,207509.0,14448.0,207509.0,32627.0,-792.5063543898491,-658.1256721264581,-1403.855672425048
207509.0,6246.0,207509.0,14414.0,207509.0,32603.0,-800.2025474243284,-664.1216786753293,-1415.561413365801
207509.0,6260.0,207509.0,14411.0,207509.0,32614.0,-807.9018586951518,-670.1263421553248,-1427.2747594204666
207519.0,6261.0,207519.0,14409.0,207519.0,32631.0,-815.6063578681893,-676.1417374139473,-1438.9957135730497
207519.0,6259.0,207519.0,14491.0,207519.0,32663.0,-823.3172747849267,-682.1695324927739,-1450.7246146075436
207519.0,6220.0,207519.0,14411.0,207519.0,32595.0,-831.0346534133923,-688.2103645066858,-1462.4613294978244
207519.0,6181.0,207519.0,14431.0,207519.0,32607.0,-838.75745146197,-694.2632338288493,-1474.2047926374294
207519.0,6147.0,207519.0,14301.0,207519.0,32516.0,-846.4841301761966,-700.3256774842105,-1485.9531873834067
207519.0,6129.0,207519.0,14331.0,207519.0,32509.0,-854.2134773341119,-706.3947602325484,-1497.704599956604
207529.0,6135.0,207529.0,14274.0,207529.0,32503.0,-861.9452668324342,-712.4682864133833,-1509.4577976713852
207529.0,6121.0,207529.0,14335.0,207529.0,32457.0,-869.6805302626118,-718.5455465937872,-1521.2127328761876
207529.0,6144.0,207529.0,14317.0,207529.0,32516.0,-877.4214850027132,-724.62733397399,-1532.9706755005773
207529.0,6146.0,207529.0,14325.0,207529.0,32485.0,-885.1712220032447,-730.7154956795773,-1544.7339863518635
207529.0,6144.0,207529.0,14352.0,207529.0,32489.0,-892.933236173445,-736.812415568644,-1556.505595883811
207529.0,6161.0,207529.0,14330.0,207529.0,32454.0,-900.7109470073239,-742.9205276648464,-1568.2886032299164
207540.0,6162.0,207540.0,14349.0,207540.0,32519.0,-908.5072417246138,-749.0418621715655,-1580.086080409703
207540.0,6142.0,207540.0,14373.0,207540.0,32509.0,-916.3240347535436,-755.1776381625078,-1591.9005918758235
207540.0,6121.0,207540.0,14368.0,207540.0,32492.0,-924.1620478643558,-761.3277349229702,-1603.733366576576
207540.0,6091.0,207540.0,14275.0,207540.0,32413.0,-932.0209626741062,-767.4902827323342,-1615.5838327851957
207540.0,6046.0,207540.0,14221.0,207540.0,32354.0,-939.899890858101,-773.6621157981319,-1627.450104562116
207540.0,6052.0,207540.0,14232.0,207540.0,32339.0,-947.7980224362532,-779.8400712059249,-1639.3301790411706
207550.0,6025.0,207550.0,14201.0,207550.0,32344.0,-955.7151850248979,-786.0221443762222,-1651.2230108163626
207550.0,6032.0,207550.0,14204.0,207550.0,32326.0,-963.6521218204315,-792.2079891158171,-1663.1289008879078
207550.0,6045.0,207550.0,14210.0,207550.0,32353.0,-971.610500459079,-798.3990415919177,-1675.0493418549345
207550.0,6069.0,207550.0,14292.0,207550.0,32337.0,-979.5926021369401,-804.5982621677437,-1686.986614808865
207550.0,6049.0,207550.0,14204.0,207550.0,32305.0,-987.6007293925921,-810.8093797066119,-1698.9433665645818
207550.0,6042.0,207550.0,14260.0,207550.0,32346.0,-995.636692708019,-817.0362048982718,-1710.9223735805417
207560.0,6061.0,207560.0,14298.0,207560.0,32374.0,-1003.7015721616143,-823.2822573663775,-1722.9261929780305
207560.0,6020.0,207560.0,14283.0,207560.0,32344.0,-1011.7955658748429,-829.5501195660918,-1734.9563666646955
207560.0,6002.0,207560.0,14265.0,207560.0,32297.0,-1019.9179454577762,-835.8406226012635,-1747.012728939595
207560.0,5967.0,207560.0,14195.0,207560.0,32226.0,-1028.0673511743062,-842.1526592063592,-1759.0935622641448
207560.0,5954.0,207560.0,14150.0,207560.0,32218.0,-1036.2423337561108,-848.4838687376395,-1771.196522277181
207560.0,5944.0,207560.0,14118.0,207560.0,32208.0,-1044.4418535115938,-854.8318562400725,-1783.3196035615492
207571.0,5899.0,207571.0,14098.0,207571.0,32168.0,-1052.6656497498866,-861.1954053180348,-1795.461646367453
207571.0,5940.0,207571.0,14162.0,207571.0,32187.0,-1060.9145392354355,-867.5751688235187,-1807.6225300557353
207571.0,5953.0,207571.0,14170.0,207571.0,32199.0,-1069.1904311883272,-873.973491336784,-1819.8031565039296
207571.0,5948.0,207571.0,14144.0,207571.0,32162.0,-1077.495838220338,-880.3936103131196,-1832.00512026986
207571.0,5938.0,207571.0,14166.0,207571.0,32146.0,-1085.833257538185,-886.8390109109433,-1844.2304014232004
207571.0,5954.0,207571.0,14222.0,207571.0,32177.0,-1094.2048108939202,-893.3130194024429,-1856.4813258656523
207581.0,5935.0,207581.0,14222.0,207581.0,32166.0,-1102.6120076194582,-899.818040091538,-1868.7603863112015
207581.0,5930.0,207581.0,14176.0,207581.0,32162.0,-1111.0555234242402,-906.3546056347581,-1881.0697477909882
207581.0,5863.0,207581.0,14126.0,207581.0,32106.0,-1119.5352154944605,-912.9211149421808,-1893.4108888949645
207581.0,5863.0,207581.0,14053.0,207581.0,32067.0,-1128.0505640998404,-919.5145925562474,-1905.7847894967408
207581.0,5814.0,207581.0,14022.0,207581.0,32050.0,-1136.6013808328325,-926.1320830203705,-1918.192596103727
207581.0,5809.0,207581.0,14048.0,207581.0,32030.0,-1145.1884839774125,-932.7719942753226,-1930.636315526631
207592.0,5814.0,207592.0,14068.0,207592.0,32042.0,-1153.814175058807,-939.4346757897736,-1943.1191685046656
207592.0,5857.0,207592.0,14059.0,207592.0,32060.0,-1162.4822838138382,-946.1221181392846,-1955.6454959580542
207592.0,5854.0,207592.0,14092.0,207592.0,31990.0,-1171.1976196101034,-952.8373285215914,-1968.220385730891
207592.0,5868.0,207592.0,14077.0,207592.0,31990.0,-1179.965128706609,-959.5837484435825,-1980.8495438274454
207592.0,5847.0,207592.0,14078.0,207592.0,32018.0,-1188.7892145703418,-966.3647640840312,-1993.5394969966937
207592.0,5851.0,207592.0,14146.0,207592.0,32070.0,-1197.6733789480218,-973.1832525643125,-2006.297369610198
207602.0,5824.0,207602.0,14111.0,207602.0,32023.0,-1206.6201026076235,-980.0409029663258,-2019.1299371394002
207602.0,5811.0,207602.0,14065.0,207602.0,32007.0,-1215.6308927843206,-986.9375467644068,-2032.0427574012706
207602.0,5761.0,207602.0,13987.0,207602.0,31945.0,-1224.7065356994876,-993.8713172264013,-2045.0400937323311
207602.0,5744.0,207602.0,13963.0,207602.0,31916.0,-1233.8476107628844,-1000.8397895637536,-2058.1255186063195
207602.0,5721.0,207602.0,13945.0,207602.0,31873.0,-1243.0551470249757,-1007.8413571488659,-2071.3027847099024
207602.0,5719.0,207602.0,13949.0,207602.0,31890.0,-1252.3311547203728,-1014.8761396063545,-2084.576595030261
207612.0,5734.0,207612.0,14000.0,207612.0,31924.0,-1261.67883151296,-1021.946171875336,-2097.9528468402755
207612.0,5765.0,207612.0,14029.0,207612.0,31885.0,-1271.1023239748401,-1029.0548317370144,-2111.438201692234
207612.0,5750.0,207612.0,13938.0,207612.0,31883.0,-1280.6060866962023,-1036.2059266801957,-2125.039505372339
207612.0,5769.0,207612.0,13998.0,207612.0,31842.0,-1290.1941687647932,-1043.403287940686,-2138.7636121016963
207612.0,5736.0,207612.0,14005.0,207612.0,31904.0,-1299.86972294186,-1050.6507886248771,-2152.6174205101242
207612.0,5712.0,207612.0,14059.0,207612.0,31899.0,-1309.6348426427917,-1057.951877149172,-2166.6075302358754
207623.0,5702.0,207623.0,13988.0,207623.0,31862.0,-1319.490744835071,-1065.3086461131068,-2180.7394926221486
207623.0,5680.0,207623.0,13940.0,207623.0,31825.0,-1329.4381045059743,-1072.721418004427,-2195.017375743886
207623.0,5631.0,207623.0,13913.0,207623.0,31796.0,-1339.4774010182773,-1080.1893455046707,-2209.444032139918
207623.0,5626.0,207623.0,13869.0,207623.0,31763.0,-1349.6094058420597,-1087.711512353034,-2224.0217007967744
207623.0,5613.0,207623.0,13876.0,207623.0,31733.0,-1359.835724618446,-1095.287879096782,-2238.752599248973
207623.0,5621.0,207623.0,13900.0,207623.0,31778.0,-1370.1590677037066,-1102.919770185515,-2253.63931952927
207633.0,5637.0,207633.0,13922.0,207633.0,31768.0,-1380.583127713489,-1110.6097020545142,-2268.684704094324
207633.0,5678.0,207633.0,13918.0,207633.0,31781.0,-1391.1120599322855,-1118.3606938145663,-2283.891189497715
207633.0,5665.0,207633.0,13913.0,207633.0,31722.0,-1401.7496160677765,-1126.1755724732689,-2299.260160077282
207633.0,5671.0,207633.0,13949.0,207633.0,31756.0,-1412.4982631149965,-1134.0564992542486,-2314.791706206424
207633.0,5671.0,207633.0,13990.0,207633.0,31764.0,-1423.3585948240989,-1142.0043789701995,-2330.4844774375542
207633.0,5614.0,207633.0,13941.0,207633.0,31721.0,-1434.329059983798,-1150.0179722778403,-2346.335252100198
207643.0,5615.0,207643.0,13906.0,207643.0,31723.0,-1445.4060601198853,-1158.0933158852322,-2362.338533026631
207643.0,5561.0,207643.0,13843.0,207643.0,31662.0,-1456.5843883234825,-1166.2240538225801,-2378.4865438963543
207643.0,5528.0,207643.0,13817.0,207643.0,31627.0,-1467.8578373014661,-1174.4024674085936,-2394.7695980409126
207643.0,5536.0,207643.0,13774.0,207643.0,31583.0,-1479.2198655018356,-1182.6206475810525,-2411.176775191503
207643.0,5513.0,207643.0,13817.0,207643.0,31621.0,-1490.6640644915992,-1190.8713787715417,-2427.6966049353878
207643.0,5538.0,207643.0,13808.0,207643.0,31596.0,-1502.184221371229,-1199.148394581829,-2444.317237126719
207654.0,5557.0,207654.0,13801.0,207654.0,31640.0,-1513.7740047615484,-1207.4460682238537,-2461.026004501236
207654.0,5536.0,207654.0,13810.0,207654.0,31560.0,-1525.4263636096912,-1215.7590236177618,-2477.8087947631425
207654.0,5540.0,207654.0,13825.0,207654.0,31554.0,-1537.1329446054006,-1224.081827206625,-2494.6497809826847
207654.0,5553.0,207654.0,13871.0,207654.0,31578.0,-1548.8837247419337,-1232.4084631800763,-2511.5315654001315
207654.0,5537.0,207654.0,13892.0,207654.0,31615.0,-1560.6666609722884,-1240.7314020606877,-2528.435018725977
207654.0,5488.0,207654.0,13841.0,207654.0,31590.0,-1572.467409904345,-1249.0405603447546,-2545.3384269464186
207664.0,5478.0,207664.0,13766.0,207664.0,31524.0,-1584.2694639797737,-1257.3229326049905,-2562.216672770913
207664.0,5430.0,207664.0,13700.0,207664.0,31478.0,-1596.0546661455228,-1265.5634144529722,-2579.0412963163676
207664.0,5410.0,207664.0,13712.0,207664.0,31452.0,-1607.8038283173303,-1273.7463209589894,-2595.781328577794
207664.0,5418.0,207664.0,13708.0,207664.0,31429.0,-1619.4972801715062,-1281.8565385468403,-2612.4041741014103
207664.0,5400.0,207664.0,13738.0,207664.0,31469.0,-1631.1151343616075,-1289.879768497352,-2628.876023750443
207664.0,5436.0,207664.0,13754.0,207664.0,31433.0,-1642.637165580401,-1297.802070984623,-2645.1616771836384
207674.0,5441.0,207674.0,13810.0,207674.0,31399.0,-1654.0423506548177,-1305.6090035492853,-2661.2241525461964
207674.0,5435.0,207674.0,13727.0,207674.0,31370.0,-1665.3081836600902,-1313.2846479080513,-2677.024683528609
207674.0,5422.0,207674.0,13751.0,207674.0,31413.0,-1676.4100905338637,-1320.8111084063576,-2692.5230017750655
207674.0,5443.0,207674.0,13804.0,207674.0,31456.0,-1687.321111892185,-1328.1684826344344,-2707.677122711837
207674.0,5392.0,207674.0,13757.0,207674.0,31431.0,-1698.011699019331,-1335.3345499421653,-2722.4423608721286
207674.0,5369.0,207674.0,13766.0,207674.0,31385.0,-1708.4497088994233,-1342.2842250440494,-2736.7703572349246
207685.0,5317.0,207685.0,13707.0,207685.0,31314.0,-1718.6008522056957,-1348.9894654983862,-2750.6090205809196
207685.0,5303.0,207685.0,13637.0,207685.0,31321.0,-1728.429481949594,-1355.4198301701224,-2763.9033338321988
207685.0,5309.0,207685.0,13610.0,207685.0,31283.0,-1737.8993150950405,-1361.5436227906969,-2776.5962479157797
207685.0,5284.0,207685.0,13624.0,207685.0,31296.0,-1746.9737826971113,-1367.3291844584728,-2788.629152913105
207685.0,5326.0,207685.0,13640.0,207685.0,31288.0,-1755.6160158011294,-1372.7455650505965,-2799.9419647538
207685.0,5330.0,207685.0,13723.0,207685.0,31301.0,-1763.7885168510602,-1377.7622305271798,-2810.47294874039
207695.0,5339.0,207695.0,13634.0,207695.0,31257.0,-1771.4525400626526,-1382.348145089427,-2820.158445763938
207695.0,5293.0,207695.0,13608.0,207695.0,31242.0,-1778.5675401765166,-1386.471218782267,-2828.9328391404188
207695.0,5321.0,207695.0,13707.0,207695.0,31313.0,-1785.0910449981027,-1390.0985485528684,-2836.7287054335784
207695.0,5322.0,207695.0,13755.0,207695.0,31287.0,-1790.978706143036,-1393.1962577875393,-2843.4765624801285
207695.0,5286.0,207695.0,13652.0,207695.0,31283.0,-1796.1841994938156,-1395.7283910147414,-2849.1042269141617
207695.0,5241.0,207695.0,13608.0,207695.0,31234.0,-1800.6593046405376,-1397.6564089705284,-2853.5365423308185
207705.0,5215.0,207705.0,13572.0,207705.0,31196.0,-1804.35455942157,-1398.9402019322345,-2856.695830522307
207705.0,5203.0,207705.0,13557.0,207705.0,31154.0,-1807.2202199336286,-1399.5396248618586,-2858.5028658329857
207705.0,5204.0,207705.0,13555.0,207705.0,31159.0,-1809.2070236900793,-1399.4155882985503,-2858.878014904326
207705.0,5212.0,207705.0,13581.0,207705.0,31139.0,-1810.2665551502355,-1398.5305706898903,-2857.742141630029
207705.0,5233.0,207705.0,13581.0,207705.0,31159.0,-1810.351247582828,-1396.8486363867057,-2855.0171200029836
207705.0,5223.0,207705.0,13610.0,207705.0,31152.0,-1809.414154366581,-1394.3351426448612,-2850.626058583407
207716.0,5207.0,207716.0,13595.0,207716.0,31154.0,-1807.4087745848133,-1390.9563897605979,-2844.4933989768174
207716.0,5269.0,207716.0,13641.0,207716.0,31140.0,-1804.2890599010175,-1386.6793328369681,-2836.5450830516897
207716.0,5255.0,207716.0,13660.0,207716.0,31206.0,-1800.0092763753923,-1381.471234850182,-2826.708773116964
207716.0,5216.0,207716.0,13659.0,207716.0,31209.0,-1794.523732828361,-1375.2991649489381,-2814.9137874613034
207716.0,5214.0,207716.0,13649.0,207716.0,31165.0,-1787.7869782703442,-1368.1296304158113,-2801.0908426297588
207716.0,5174.0,207716.0,13569.0,207716.0,31137.0,-1779.7545771244254,-1359.9287926200889,-2785.1723575375563
207726.0,5164.0,207726.0,13533.0,207726.0,31154.0,-1770.384079191343,-1350.6635189772553,-2767.0935219953135
207726.0,5165.0,207726.0,13541.0,207726.0,31147.0,-1759.6359793560987,-1340.3029866464638,-2746.793431604196
207726.0,5178.0,207726.0,13536.0,207726.0,31164.0,-1747.4744761371098,-1328.8200416685684,-2724.215858017554
207726.0,5197.0,207726.0,13640.0,207726.0,31220.0,-1733.8678664185243,-1316.191729665253,-2699.309713181031
207726.0,5255.0,207726.0,13660.0,207726.0,31193.0,-1718.788563346228,-1302.3988633764409,-2672.0292518506612
207726.0,5257.0,207726.0,13682.0,207726.0,31243.0,-1702.2127667391355,-1287.4249960948623,-2642.334246754085
207736.0,5275.0,207736.0,13663.0,207736.0,31271.0,-1684.1200560603088,-1271.2556637277728,-2610.1903058290236
207736.0,5298.0,207736.0,13704.0,207736.0,31343.0,-1664.4932446769144,-1253.8783108843613,-2575.5690151030776
207736.0,5333.0,207736.0,13734.0,207736.0,31385.0,-1643.3183989280615,-1235.2824440957238,-2538.4476776119427
207736.0,5304.0,207736.0,13717.0,207736.0,31409.0,-1620.5848626772854,-1215.4596078251986,-2498.8089002074194
207736.0,5310.0,207736.0,13687.0,207736.0,31387.0,-1596.2855609934456,-1194.4035377515586,-2456.640553123657
207736.0,5352.0,207736.0,13689.0,207736.0,31443.0,-1570.4176682886775,-1172.1109327578542,-2411.936398313712
207747.0,5350.0,207747.0,13669.0,207747.0,31491.0,-1542.9831938860998,-1148.5826130845144,-2364.6969498066223
207747.0,5354.0,207747.0,13713.0,207747.0,31543.0,-1513.9893717647055,-1123.8245790401165,-2314.9299348648024
207747.0,5388.0,207747.0,13744.0,207747.0,31606.0,-1483.4491640293695,-1097.848652498682,-2262.6503417390254
207747.0,5463.0,207747.0,13824.0,207747.0,31696.0,-1451.3816997703275,-1070.672500626171,-2207.8802642221453
207747.0,5525.0,207747.0,13881.0,207747.0,31698.0,-1417.8121348571894,-1042.3190333520226,-2150.648637619722
207747.0,5604.0,207747.0,13928.0,207747.0,31744.0,-1382.7708794265618,-1012.8154269801769,-2090.9912539643424
207757.0,5639.0,207757.0,13954.0,207757.0,31877.0,-1346.2925909231358,-982.1922184220475,-2028.9511526608067
207757.0,5681.0,207757.0,14052.0,207757.0,31959.0,-1308.4153728855172,-950.4826695264646,-1964.5786123289217
207757.0,5707.0,207757.0,14093.0,207757.0,32082.0,-1269.1804191804576,-917.7220828003032,-1897.9303154353745
207757.0,5757.0,207757.0,14102.0,207757.0,32089.0,-1228.6320215015035,-883.9469945941312,-1829.0683175057443
207757.0,5746.0,207757.0,14056.0,207757.0,32145.0,-1186.8177768938772,-849.1949245806969,-1758.059669039515
207757.0,5802.0,207757.0,14112.0,207757.0,32193.0,-1143.7890201682537,-813.5051012710617,-1684.9769086947388
207767.0,5850.0,207767.0,14123.0,207767.0,32289.0,-1099.6013501301418,-776.9195268922631,-1609.8988548648663
207767.0,5922.0,207767.0,14176.0,207767.0,32397.0,-1054.3148432053858,-739.4836234675437,-1532.9109869996846
207767.0,5993.0,207767.0,14260.0,207767.0,32534.0,-1007.9937907535776,-701.2463372996491,-1454.1051186371585
207767.0,6065.0,207767.0,14316.0,207767.0,32570.0,-960.7061159689817,-662.2597246626257,-1373.5785840004892
207767.0,6144.0,207767.0,14386.0,207767.0,32684.0,-912.5226362557243,-622.5781365155909,-1291.433596937282
207767.0,6214.0,207767.0,14413.0,207767.0,32757.0,-863.5162660192649,-582.2574053000446,-1207.7770846242727
207778.0,6264.0,207778.0,14478.0,207778.0,32928.0,-813.7612709129343,-541.3543194330467,-1122.7205191696337
207778.0,6336.0,207778.0,14596.0,207778.0,33063.0,-763.3327168888491,-499.9261691774956,-1036.379148669793
207778.0,6401.0,207778.0,14647.0,207778.0,33148.0,-712.3060812933372,-458.029876362403,-948.8706504174722
207778.0,6403.0,207778.0,14604.0,207778.0,33181.0,-660.756983099916,-415.7210096607607,-860.3140626099848
207778.0,6462.0,207778.0,14578.0,207778.0,33288.0,-608.7612746997552,-373.0538492440055,-770.8297253544101
207778.0,6502.0,207778.0,14622.0,207778.0,33369.0,-556.3955049331651,-330.0827620871754,-680.5398183132359
207788.0,6570.0,207788.0,14695.0,207788.0,33459.0,-503.73732591218277,-286.8636537025835,-589.5687443236343
207788.0,6645.0,207788.0,14723.0,207788.0,33600.0,-450.86556794033913,-243.454488730604,-498.04318502228807
207788.0,6754.0,207788.0,14840.0,207788.0,33725.0,-397.85989703348014,-199.9150505766213,-406.0917495543222
207788.0,6806.0,207788.0,14904.0,207788.0,33816.0,-344.8000464147715,-156.3062640303774,-313.8442001133044
207788.0,6895.0,207788.0,14930.0,207788.0,33913.0,-291.7649128449543,-112.68925297428359,-221.43071762066165
207788.0,6958.0,207788.0,14996.0,207788.0,34086.0,-238.8318106725717,-69.12464118941239,-128.98141380484503
207798.0,7051.0,207798.0,15110.0,207798.0,34221.0,-186.07581831796233,-25.67214285304567,-36.62554512914585
207798.0,7078.0,207798.0,15143.0,207798.0,34342.0,-133.56914385968003,17.610144085890624,55.509838728706654
207798.0,7115.0,207798.0,15161.0,207798.0,34406.0,-81.38077037515404,60.666591804978225,147.30118665202144
207798.0,7140.0,207798.0,15179.0,207798.0,34458.0,-29.576647846915876,103.444266528762,238.62893547708563
207798.0,7175.0,207798.0,15177.0,207798.0,34530.0,21.77969608089279,145.89237856952764,329.3770714924244
207798.0,7244.0,207798.0,15221.0,207798.0,34638.0,72.62650910614548,187.9613872198579,419.4323062440685
207809.0,7313.0,207809.0,15291.0,207809.0,34734.0,122.90350142289935,229.60226808888729,508.6835686093523
207809.0,7371.0,207809.0,15383.0,207809.0,34857.0,172.55199653288423,270.766444360067,597.0220515805013
207809.0,7436.0,207809.0,15407.0,207809.0,34964.0,221.5153210181727,311.4064199927002,684.3416574961293
207809.0,7509.0,207809.0,15454.0,207809.0,35030.0,269.73922268868796,351.4764951600687,770.5395639568751
207809.0,7567.0,207809.0,15503.0,207809.0,35153.0,317.17234120246485,390.9330939346312,855.5166062635749
207809.0,7651.0,207809.0,15586.0,207809.0,35318.0,363.7667652958339,429.73496878327387,939.1776699442398
207819.0,7681.0,207819.0,15672.0,207819.0,35435.0,409.47861352790574,467.8437790945686,1021.4326935818135
207819.0,7714.0,207819.0,15656.0,207819.0,35475.0,454.26842153016855,505.224984360191,1102.1980583664126
207819.0,7733.0,207819.0,15654.0,207819.0,35555.0,498.1010781506161,541.8482781661232,1181.3973534050856
207819.0,7773.0,207819.0,15652.0,207819.0,35583.0,540.9453724911439,577.6870136646819,1258.961169398719
207819.0,7770.0,207819.0,15668.0,207819.0,35627.0,582.7733998830529,612.7170404314897,1334.8263198237323
207819.0,7818.0,207819.0,15751.0,207819.0,35699.0,623.5599027066025,646.9157549824931,1408.9348379469006
207830.0,7877.0,207830.0,15717.0,207830.0,35798.0,663.2816987553279,680.2617300218149,1481.2331645855393
207830.0,7943.0,207830.0,15811.0,207830.0,35910.0,701.9175602237606,712.7346418704328,1551.672002064115
207830.0,8030.0,207830.0,15862.0,207830.0,35958.0,739.4486857390407,744.3153328575333,1620.2067895733517
207830.0,8039.0,207830.0,15905.0,207830.0,36006.0,775.8594969722001,774.9862805146038,1686.7981539496259
207830.0,8082.0,207830.0,15951.0,207830.0,36108.0,811.1382423655577,804.7323143191722,1751.4119143705811
207830.0,8152.0,207830.0,16011.0,207830.0,36241.0,845.2772040853524,833.5412284263025,1814.019158300298
207840.0,8124.0,207840.0,16072.0,207840.0,36306.0,878.2727858326571,861.4044244402073,1874.5970211991953
207840.0,8162.0,207840.0,16015.0,207840.0,36306.0,910.125423082103,888.3175320011621,1933.1296629867543
207840.0,8164.0,207840.0,16010.0,207840.0,36346.0,940.8390892199586,914.2803416642266,1989.608399788297
207840.0,8179.0,207840.0,15985.0,207840.0,36357.0,970.4206363808148,939.2957527345723,2044.030890305246
207840.0,8213.0,207840.0,16037.0,207840.0,36369.0,998.8792157413238,963.368424148802,2096.39997815708
207840.0,8238.0,207840.0,16015.0,207840.0,36437.0,1026.2258701571018,986.5038690120671,2146.7225626642785
207850.0,8261.0,207850.0,16075.0,207850.0,36509.0,1052.4733494539046,1008.708025040469,2195.008856207769
207850.0,8294.0,207850.0,16103.0,207850.0,36591.0,1077.6360367229668,1029.9871388472213,2241.2723902097096
207850.0,8373.0,207850.0,16131.0,207850.0,36577.0,1101.730025691074,1050.3479740070115,2285.53047800484
207850.0,8368.0,207850.0,16177.0,207850.0,36637.0,1124.7735227449052,1069.7982111584365,2327.804383376234
207850.0,8403.0,207850.0,16244.0,207850.0,36713.0,1146.787320127144,1088.3469731430318,2368.119109209505
207850.0,8410.0,207850.0,16281.0,207850.0,36766.0,1167.7949430692897,1106.0056428971984,2406.503475439281
207861.0,8427.0,207861.0,16276.0,207861.0,36773.0,1187.8225228096808,1122.7887835663391,2442.990580603904
207861.0,8409.0,207861.0,16216.0,207861.0,36794.0,1206.8985262856445,1138.71447847579,2477.617982305901
207861.0,8413.0,207861.0,16227.0,207861.0,36757.0,1225.053254646507,1153.8036877704365,2510.427223154692
207861.0,8399.0,207861.0,16172.0,207861.0,36775.0,1242.3181137289835,1168.079005657479,2541.4628102756124
207861.0,8399.0,207861.0,16239.0,207861.0,36794.0,1258.7248012399004,1181.5634894691298,2570.7710174067333
207861.0,8430.0,207861.0,16206.0,207861.0,36804.0,1274.3045877359455,1194.2799625553073,2598.398961483439
207871.0,8469.0,207871.0,16260.0,207871.0,36896.0,1289.087961569543,1206.2508003953317,2624.3941687759507
207871.0,8501.0,207871.0,16265.0,207871.0,36911.0,1303.1048047688482,1217.497986709842,2648.8047140684284
207871.0,8547.0,207871.0,16319.0,207871.0,36910.0,1316.3849430441142,1228.0433902842628,2671.6796824350085
207871.0,8534.0,207871.0,16333.0,207871.0,36917.0,1328.9587573009276,1237.9092881012173,2693.069280191021
207871.0,8551.0,207871.0,16355.0,207871.0,37013.0,1340.8575318994472,1247.1189782456488,2713.024589392051
207871.0,8547.0,207871.0,16375.0,207871.0,37015.0,1352.1134091604467,1255.6972875812996,2731.597713041171
207881.0,8544.0,207881.0,16341.0,207881.0,37050.0,1362.7591130330516,1263.6708479716851,2748.8423862598393
207881.0,8529.0,207881.0,16279.0,207881.0,36966.0,1372.8275461274966,1271.0678589478186,2764.814254397592
207881.0,8501.0,207881.0,16258.0,207881.0,36936.0,1382.3511862135424,1277.9170708642316,2779.5701606672737
207881.0,8518.0,207881.0,16278.0,207881.0,36937.0,1391.3613074440168,1284.246420724342,2793.1666074701607
207881.0,8518.0,207881.0,16263.0,207881.0,36975.0,1399.8872964475545,1290.082109015772,2805.658342770314
207881.0,8566.0,207881.0,16299.0,207881.0,37022.0,1407.9563618038737,1295.4482866620563,2817.097875156034
207892.0,8577.0,207892.0,16303.0,207892.0,36988.0,1415.5937047673992,1300.3670962658107,2827.5357438193037
207892.0,8603.0,207892.0,16338.0,207892.0,37005.0,1422.822972276208,1304.8589515145304,2837.0207423961183
207892.0,8614.0,207892.0,16320.0,207892.0,37006.0,1429.6667202533254,1308.9429285627857,2845.599720652793
207892.0,8634.0,207892.0,16393.0,207892.0,37085.0,1436.146767035225,1312.637147306065,2853.317427903265
207892.0,8648.0,207892.0,16411.0,207892.0,37134.0,1442.284484766772,1315.9593341789514,2860.217011858808
207892.0,8625.0,207892.0,16367.0,207892.0,37092.0,1448.1009977022454,1318.9275658864979,2866.341039922
207902.0,8610.0,207902.0,16385.0,207902.0,37052.0,1453.6170782821,1321.5606106607738,2871.732049906547
207902.0,8599.0,207902.0,16298.0,207902.0,37034.0,1458.852647219022,1323.8775568297362,2876.4319974096184
207902.0,8604.0,207902.0,16267.0,207902.0,37009.0,1463.826133945247,1325.8968555944393,2880.481118569382
207902.0,8578.0,207902.0,16321.0,207902.0,36990.0,1468.553951779203,1327.6351012089542,2883.916870651737
207902.0,8620.0,207902.0,16366.0,207902.0,37046.0,1473.050111513669,1329.1064465139248,2886.7731920337123
207902.0,8630.0,207902.0,16365.0,207902.0,37015.0,1477.3260902810252,1330.3231349415244,2889.080274667443
207912.0,8662.0,207912.0,16346.0,207912.0,37031.0,1481.3911009565086,1331.296324881912,2890.8646921128247
207912.0,8673.0,207912.0,16354.0,207912.0,37015.0,1485.2526038805263,1332.0363722397703,2892.1494248110516
207912.0,8688.0,207912.0,16377.0,207912.0,37076.0,1488.9168096598555,1332.5527610472254,2892.9538181732555
207912.0,8715.0,207912.0,16401.0,207912.0,37121.0,1492.3891039978648,1332.8542545110113,2893.2939645091815
207912.0,8691.0,207912.0,16409.0,207912.0,37136.0,1495.674396375025,1332.949393681555,2893.1836822098508
207912.0,8681.0,207912.0,16374.0,207912.0,37123.0,1498.7772264615296,1332.8469751420612,2892.635575611266
207923.0,8673.0,207923.0,16346.0,207923.0,37071.0,1501.701480376446,1332.556046032745,2891.661466786074
207923.0,8652.0,207923.0,16316.0,207923.0,37047.0,1504.4498846237336,1332.0853088729245,2890.2719681538842
207923.0,8674.0,207923.0,16285.0,207923.0,37020.0,1507.0235224608857,1331.4422192198049,2888.475529452948
207923.0,8658.0,207923.0,16299.0,207923.0,37043.0,1509.4215142841742,1330.6321179062218,2886.277543602872
207923.0,8681.0,207923.0,16343.0,207923.0,37069.0,1511.6408964087225,1329.6577801134886,2883.679988800307
207923.0,8715.0,207923.0,16333.0,207923.0,37075.0,1513.6767043500197,1328.5196381274604,2880.681707871578
207933.0,8760.0,207933.0,16342.0,207933.0,37068.0,1515.522426650153,1327.2163377056345,2877.2789484115356
207933.0,8747.0,207933.0,16356.0,207933.0,37063.0,1517.170809170036,1325.7451423468008,2873.4656982927763
207933.0,8761.0,207933.0,16358.0,207933.0,37117.0,1518.6145526933933,1324.10221383573,2869.2338571420178
207933.0,8775.0,207933.0,16429.0,207933.0,37188.0,1519.8466430131023,1322.283046397442,2864.5738126428623
207933.0,8744.0,207933.0,16390.0,207933.0,37146.0,1520.860477655555,1320.2831760037448,2859.475646555492
207933.0,8742.0,207933.0,16348.0,207933.0,37092.0,1521.649795543869,1318.0987501102977,2853.930104606195
207943.0,8712.0,207943.0,16362.0,207943.0,37102.0,1522.208300539387,1315.7263913256354,2847.9284988166023
207943.0,8710.0,207943.0,16287.0,207943.0,37059.0,1522.5291106155355,1313.1625534649497,2841.4620100550887
207943.0,8709.0,207943.0,16268.0,207943.0,37075.0,1522.6042473937075,1310.4027100934936,2834.521147974173
207943.0,8740.0,207943.0,16338.0,207943.0,37064.0,1522.424378765444,1307.4405497288137,2827.0955001744715
207943.0,8741.0,207943.0,16372.0,207943.0,37090.0,1521.9789504558019,1304.2678983025746,2819.173770912399
207943.0,8804.0,207943.0,16396.0,207943.0,37054.0,1521.2566623106238,1300.8756908590854,2810.74405302985
207954.0,8782.0,207954.0,16307.0,207954.0,37082.0,1520.2461803658423,1297.2550375541457,2801.7940946755175
207954.0,8813.0,207954.0,16366.0,207954.0,37121.0,1518.9368523313185,1293.397449282061,2792.3116158444304
207954.0,8832.0,207954.0,16433.0,207954.0,37125.0,1517.319246738955,1289.2947594989284,2782.285011066896
207954.0,8824.0,207954.0,16442.0,207954.0,37175.0,1515.385631446237,1284.9398636523902,2771.704406259021
207954.0,8791.0,207954.0,16400.0,207954.0,37084.0,1513.1303047773497,1280.327960774925,2760.5626147647613
207954.0,8745.0,207954.0,16316.0,207954.0,37053.0,1510.5493909995644,1275.4569658561654,2748.855389835044
207964.0,8728.0,207964.0,16284.0,207964.0,37020.0,1507.6400537812328,1270.326623646033,2736.580767359079
207964.0,8746.0,207964.0,16313.0,207964.0,36991.0,1504.3996114383006,1264.9371354777907,2723.7381000405003
207964.0,8728.0,207964.0,16234.0,207964.0,36959.0,1500.8250701232598,1259.2882583789203,2710.3273133118564
207964.0,8771.0,207964.0,16309.0,207964.0,36986.0,1496.9131337417507,1253.378927072498,2696.348429569773
207964.0,8794.0,207964.0,16323.0,207964.0,37023.0,1492.6605834406075,1247.2072956761924,2681.8016015655526
207964.0,8792.0,207964.0,16331.0,207964.0,36984.0,1488.0649761785949,1240.771401504879,2666.687792565565
207974.0,8774.0,207974.0,16321.0,207974.0,36970.0,1483.125298209314,1234.0700402159762,2651.0095042528737
207974.0,8818.0,207974.0,16354.0,207974.0,36976.0,1477.8422841583028,1227.103336304343,2634.7710443812075
207974.0,8798.0,207974.0,16392.0,207974.0,37023.0,1472.2186830197973,1219.873290272889,2617.978767171794
207974.0,8791.0,207974.0,16306.0,207974.0,36981.0,1466.2596167545396,1212.3844886484578,2600.6417760491017
207974.0,8725.0,207974.0,16313.0,207974.0,36902.0,1459.9726286798286,1204.6443797757256,2582.772560314958
207974.0,8702.0,207974.0,16212.0,207974.0,36869.0,1453.3671179323562,1196.6627145444504,2564.386735740576
207985.0,8704.0,207985.0,16214.0,207985.0,36839.0,1446.4534430899728,1188.4504654933949,2545.5020950968246
207985.0,8679.0,207985.0,16205.0,207985.0,36844.0,1439.2422552309383,1180.0187562280516,2526.1378504698887
207985.0,8673.0,207985.0,16211.0,207985.0,36812.0,1431.7441936730543,1171.3783047176744,2506.3144351149954
207985.0,8691.0,207985.0,16211.0,207985.0,36775.0,1423.969755850762,1162.5394651172428,2486.0535546052342
207985.0,8705.0,207985.0,16215.0,207985.0,36751.0,1415.9294259857863,1153.5125379041883,2465.378079850826
207985.0,8693.0,207985.0,16197.0,207985.0,36748.0,1407.6341188753233,1144.3081010989767,2444.311813669345
207995.0,8696.0,207995.0,16185.0,207995.0,36730.0,1399.09563692161,1134.9372124776569,2422.879453964617
207995.0,8710.0,207995.0,16243.0,207995.0,36778.0,1390.3269801716617,1125.411561356069,2401.1069328556855
207995.0,8664.0,207995.0,16240.0,207995.0,36710.0,1381.3425960013506,1115.743972303123,2379.0220823835884
207995.0,8659.0,207995.0,16152.0,207995.0,36705.0,1372.1584364801897,1105.9491025485745,2356.6552232302674
207995.0,8602.0,207995.0,16098.0,207995.0,36607.0,1362.7916408167418,1096.0433633056628,2334.0391817567097
207995.0,8579.0,207995.0,16072.0,207995.0,36550.0,1353.2599071336751,1086.0437933598964,2311.2086068864674
208004.0,8558.0,208004.0,16071.0,208004.0,36497.0,1343.5807290917114,1075.9668153150476,2288.1987820832683
208004.0,8577.0,208004.0,16021.0,208004.0,36498.0,1333.7708104774922,1065.8275417875639,2265.0444595076833
208004.0,8577.0,208004.0,16063.0,208004.0,36499.0,1323.845964803016,1055.639473180664,2241.7793304362094
208004.0,8568.0,208004.0,16097.0,208004.0,36437.0,1313.821418430908,1045.4145906015738,2218.436144992932
208004.0,8598.0,208004.0,16055.0,208004.0,36428.0,1303.7122212494198,1035.16400335643,2195.046879061919
208004.0,8565.0,208004.0,16070.0,208004.0,36420.0,1293.5336672612143,1024.8986467226846,2171.6426801888856
208015.0,8575.0,208015.0,16093.0,208015.0,36426.0,1283.3016578110414,1014.6296572670493,2148.253986060755
208015.0,8562.0,208015.0,16120.0,208015.0,36391.0,1273.0329017199838,1004.3688827061126,2124.9109885912562
208015.0,8538.0,208015.0,16054.0,208015.0,36388.0,1262.7450003783167,994.1296412921714,2101.644116803908
208015.0,8495.0,208015.0,16024.0,208015.0,36354.0,1252.4563484498583,983.9270301272697,2078.4843331330926
208015.0,8457.0,208015.0,15964.0,208015.0,36220.0,1242.1856593925781,973.7773832998756,2055.4630600199607
208015.0,8435.0,208015.0,15918.0,208015.0,36229.0,1231.9511981804367,963.6972072041868,2032.611383677729
208025.0,8421.0,208025.0,15885.0,208025.0,36165.0,1221.7700444264774,953.7019932237879,2009.9588638850705
208025.0,8424.0,208025.0,15913.0,208025.0,36192.0,1211.6576504338009,943.8052573651215,1987.5327967521926
208025.0,8439.0,208025.0,15921.0,208025.0,36169.0,1201.6277968383333,934.0182414509364,1965.3581764056335
208025.0,8425.0,208025.0,15929.0,208025.0,36191.0,1191.6928886808641,924.3503240097136,1943.4581401959276
208025.0,8440.0,208025.0,15911.0,208025.0,36081.0,1181.864372898216,914.809652777848,1921.8544857992645
208025.0,8431.0,208025.0,15926.0,208025.0,36095.0,1172.153118976946,905.4035917361576,1900.567688770702
208035.0,8451.0,208035.0,15949.0,208035.0,36130.0,1162.5698028675183,896.1390916894683,1879.6166181652306
208035.0,8429.0,208035.0,15953.0,208035.0,36109.0,1153.125322133215,887.0232735341598,1859.018827854694
208035.0,8404.0,208035.0,15923.0,208035.0,36067.0,1143.8310780619636,878.0640964855799,1838.7913338811693
208035.0,8342.0,208035.0,15845.0,208035.0,36030.0,1134.6988309471508,869.2705504578303,1818.9509625509347
208035.0,8316.0,208035.0,15838.0,208035.0,35944.0,1125.7400067488074,860.6520485421345,1799.5139631322527
208035.0,8321.0,208035.0,15773.0,208035.0,35933.0,1116.9647947481558,852.2173754739883,1780.4951416275985
208046.0,8327.0,208046.0,15774.0,208046.0,35916.0,1108.381624738085,843.9736997503198,1761.9069805587733
208046.0,8323.0,208046.0,15782.0,208046.0,35947.0,1099.9972197275856,835.9259020906527,1743.7593190300956
208046.0,8313.0,208046.0,15816.0,208046.0,35903.0,1091.8168859280945,828.076483101921,1726.0596918308672
208046.0,8321.0,208046.0,15798.0,208046.0,35877.0,1083.844734220276,820.4260722505421,1708.8137707330488
208046.0,8312.0,208046.0,15803.0,208046.0,35859.0,1076.083855186686,812.9740624816427,1692.0254200190918
208046.0,8341.0,208046.0,15871.0,208046.0,35903.0,1068.5365770914311,805.7191458230477,1675.696637229803
208056.0,8356.0,208056.0,15881.0,208056.0,35937.0,1061.2049240773233,798.660146630147,1659.8280528996843
208056.0,8298.0,208056.0,15828.0,208056.0,35870.0,1054.0911672413686,791.7970978598182,1644.4199851577018
208056.0,8281.0,208056.0,15782.0,208056.0,35847.0,1047.1979646119164,785.1316679400261,1629.473148606106
208056.0,8251.0,208056.0,15726.0,208056.0,35776.0,1040.5278774625917,778.6665112249705,1614.9884265322498
208056.0,8233.0,208056.0,15700.0,208056.0,35749.0,1034.0826777437412,772.4040499408882,1600.9660261769054
208056.0,8218.0,208056.0,15707.0,208056.0,35746.0,1027.8627784467196,766.3453675196994,1587.4045937974813
208067.0,8241.0,208067.0,15705.0,208067.0,35749.0,1021.8668819665614,760.4896422841502,1574.3007570070586
208067.0,8245.0,208067.0,15717.0,208067.0,35742.0,1016.0919982327603,754.8341538367858,1561.6492320498712
208067.0,8255.0,208067.0,15723.0,208067.0,35710.0,1010.5338245545643,749.3746031441979,1549.443141970353
208067.0,8261.0,208067.0,15712.0,208067.0,35702.0,1005.1872424029077,744.1055076014468,1537.6741431221965
208067.0,8249.0,208067.0,15717.0,208067.0,35694.0,1000.0467349604742,739.0205072883367,1526.332360235427
208067.0,8270.0,208067.0,15799.0,208067.0,35754.0,995.1066810767963,734.1127242482669,1515.4065148138516
208077.0,8258.0,208077.0,15812.0,208077.0,35752.0,990.3616047260512,729.3756444877035,1504.8846094206697
208077.0,8235.0,208077.0,15709.0,208077.0,35713.0,985.8063760974502,724.8042314902964,1494.7548970273806
208077.0,8226.0,208077.0,15679.0,208077.0,35672.0,981.4361762870876,720.3950612626289,1485.0063323856152
208077.0,8176.0,208077.0,15620.0,208077.0,35612.0,977.2461529038338,716.1451734920676,1475.628143549293
208077.0,8175.0,208077.0,15651.0,208077.0,35630.0,973.2308517455597,712.0506730572265,1466.6089468624632
208077.0,8178.0,208077.0,15629.0,208077.0,35611.0,969.3836412473913,708.105952200591,1457.936085737304
208087.0,8181.0,208087.0,15643.0,208087.0,35597.0,965.6964557031857,704.303557785096,1449.595458703631
208087.0,8196.0,208087.0,15684.0,208087.0,35633.0,962.1599202129364,700.6344265695659,1441.5716226264615
208087.0,8209.0,208087.0,15677.0,208087.0,35580.0,958.763695717935,697.0884280280062,1433.8480298843808
208087.0,8232.0,208087.0,15650.0,208087.0,35598.0,955.4969776383755,693.6549863174155,1426.4072522709637
208087.0,8232.0,208087.0,15736.0,208087.0,35610.0,952.3490978463867,690.3234741076734,1419.2310929865134
208087.0,8230.0,208087.0,15769.0,208087.0,35654.0,949.3100623460114,687.0838339412369,1412.300949522222
208098.0,8200.0,208098.0,15706.0,208098.0,35616.0,946.3708104831153,683.9276864890858,1405.5985838413849
208098.0,8187.0,208098.0,15657.0,208098.0,35598.0,943.523088747047,680.8489182048021,1399.106745949298
208098.0,8168.0,208098.0,15612.0,208098.0,35514.0,940.7590446907172,677.84302212739,1392.809070625808
208098.0,8138.0,208098.0,15597.0,208098.0,35536.0,938.070723374859,674.9058153403599,1386.6892923981086
208098.0,8154.0,208098.0,15587.0,208098.0,35535.0,935.4495738537025,672.0323751126509,1380.730461280879
208098.0,8127.0,208098.0,15608.0,208098.0,35471.0,932.8860914357814,669.216501475129,1374.9146333654674
208108.0,8169.0,208108.0,15610.0,208108.0,35540.0,930.3697073046926,666.4507023515719,1369.2227615845054
208108.0,8183.0,208108.0,15624.0,208108.0,35562.0,927.8890067559331,663.7265253810714,1363.6348277045483
208108.0,8190.0,208108.0,15635.0,208108.0,35490.0,925.4322885290783,661.0350100124364,1358.1304590017967
208108.0,8199.0,208108.0,15626.0,208108.0,35523.0,922.9882025127802,658.3671285943252,1352.6893725510358
208108.0,8214.0,208108.0,15706.0,208108.0,35603.0,920.5462435820739,655.7142673347631,1347.291510164363
208108.0,8182.0,208108.0,15687.0,208108.0,35571.0,918.097110020563,653.0689841858289,1341.9177449407623
208118.0,8175.0,208118.0,15655.0,208118.0,35533.0,915.632807461532,650.425851666387,1336.5508990023689
208118.0,8126.0,208118.0,15595.0,208118.0,35494.0,913.1463529390159,647.7816158408264,1331.1759437894555
208118.0,8107.0,208118.0,15539.0,208118.0,35448.0,910.6311359742695,645.1343579509173,1325.7792944194255
208118.0,8116.0,208118.0,15545.0,208118.0,35452.0,908.0801777528137,642.482168790819,1320.3478623780416
208118.0,8123.0,208118.0,15554.0,208118.0,35442.0,905.4856893093947,639.8221271746663,1314.8683810139673
208118.0,8140.0,208118.0,15535.0,208118.0,35441.0,902.8391333459499,637.149975171353,1309.3271863998893
208129.0,8147.0,208129.0,15527.0,208129.0,35437.0,900.1316118458379,634.4601360560703,1303.7102880447642
208129.0,8161.0,208129.0,15534.0,208129.0,35434.0,897.3543510738616,631.7456622784221,1298.003517404837
208129.0,8134.0,208129.0,15542.0,208129.0,35415.0,894.4991182965291,628.9982208825918,1292.1926635723632
208129.0,8149.0,208129.0,15628.0,208129.0,35453.0,891.5584187199221,626.2084606319396,1286.263604688233
208129.0,8161.0,208129.0,15664.0,208129.0,35513.0,888.5255680203468,623.3670666788086,1280.2027573005003
208129.0,8149.0,208129.0,15655.0,208129.0,35430.0,885.3948875987593,620.4663067636386,1273.9979837489666
208139.0,8123.0,208139.0,15571.0,208139.0,35394.0,882.1619013477066,617.5010897451752,1267.6391383959608
208139.0,8102.0,208139.0,15477.0,208139.0,35379.0,878.8232022216991,614.4686057890411,1261.117599425944
208139.0,8069.0,208139.0,15484.0,208139.0,35329.0,875.3759685186493,611.3667163502537,1254.4253633001936
208139.0,8053.0,208139.0,15453.0,208139.0,35302.0,871.8173202161338,608.1922678121468,1247.5542546258678
208139.0,8048.0,208139.0,15527.0,208139.0,35361.0,868.1437056898399,604.9403063244033,1240.495342772641
208139.0,8075.0,208139.0,15549.0,208139.0,35369.0,864.350565806601,601.6043760857503,1233.2389965542066
208149.0,8095.0,208149.0,15544.0,208149.0,35329.0,860.4324940697854,598.1775167206994,1225.7755954707354
208149.0,8103.0,208149.0,15500.0,208149.0,35320.0,856.3838322483093,594.6531079614533,1218.096045827793
208149.0,8120.0,208149.0,15522.0,208149.0,35316.0,852.1993879779591,591.0249992545376,1210.191743833579
208149.0,8127.0,208149.0,15542.0,208149.0,35404.0,847.875072133529,587.2873757875784,1202.0546578333815
208149.0,8093.0,208149.0,15599.0,208149.0,35384.0,843.4083751786555,583.435117999848,1193.6781593241162
208149.0,8060.0,208149.0,15569.0,208149.0,35308.0,838.7984458419047,579.4647195148167,1185.058095040352
208160.0,8038.0,208160.0,15516.0,208160.0,35290.0,834.0456447029001,575.3750249911222,1176.1929751238335
208160.0,8017.0,208160.0,15436.0,208160.0,35232.0,829.1508540151102,571.1669704146125,1167.0831904826948
208160.0,7980.0,208160.0,15445.0,208160.0,35187.0,824.1148270802809,566.8423805102183,1157.7299737625735
208160.0,8003.0,208160.0,15415.0,208160.0,35187.0,818.9376378645554,562.4027217842083,1148.134435814584
208160.0,8020.0,208160.0,15470.0,208160.0,35193.0,813.6184453502847,557.8485315934394,1138.2969386877498
208160.0,8028.0,208160.0,15475.0,208160.0,35222.0,808.1557972529301,553.1796304566517,1128.2171430718436
208170.0,8039.0,208170.0,15456.0,208170.0,35164.0,802.5482525385421,548.39578164933,1117.8945379201605
208170.0,8015.0,208170.0,15411.0,208170.0,35155.0,796.794926129756,543.4971100150901,1107.32879252094
208170.0,8048.0,208170.0,15493.0,208170.0,35213.0,790.8958222704691,538.4840472656285,1096.5197913861423
208170.0,8022.0,208170.0,15517.0,208170.0,35219.0,784.8520962047609,533.3575808650903,1085.4680521626383
208170.0,8018.0,208170.0,15442.0,208170.0,35218.0,778.6663028497283,528.1201201517713,1074.1757511872593
208170.0,7977.0,208170.0,15420.0,208170.0,35125.0,772.342428023459,522.7759435120017,1062.6475249035477
208180.0,7926.0,208180.0,15378.0,208180.0,35048.0,765.8855098896641,517.3306234542193,1050.8901970947084
208180.0,7907.0,208180.0,15337.0,208180.0,35005.0,759.3008585874551,511.7900203722286,1038.9114338040577
208180.0,7904.0,208180.0,15327.0,208180.0,35033.0,752.5931956611012,506.1593365902097,1026.7182606877418
208180.0,7895.0,208180.0,15339.0,208180.0,35046.0,745.7661482244475,500.4424268110759,1014.3164888234224
208180.0,7913.0,208180.0,15359.0,208180.0,35038.0,738.8221867547264,494.6416501497748,1001.71115398216
208180.0,7939.0,208180.0,15342.0,208180.0,35020.0,731.7629234238686,488.758235294066,988.9072345571611
208191.0,7950.0,208191.0,15349.0,208191.0,34977.0,724.5897607603752,482.7927357531434,975.9100125247464
208191.0,7930.0,208191.0,15377.0,208191.0,34991.0,717.3046639205972,476.7453849155744,962.7250327418357
208191.0,7927.0,208191.0,15409.0,208191.0,35042.0,709.9106578382707,470.61664027910564,949.3581784706722
208191.0,7925.0,208191.0,15413.0,208191.0,34979.0,702.4119864420729,464.40808075257576,935.816291967837
208191.0,7906.0,208191.0,15344.0,208191.0,34950.0,694.8141746576161,458.1231996402621,922.1078076957566
208191.0,7845.0,208191.0,15331.0,208191.0,34894.0,687.1239586486702,451.7674577984848,908.2426430764843
208201.0,7806.0,208201.0,15241.0,208201.0,34846.0,679.3487603234846,445.34753208850464,894.2314578124493
208201.0,7810.0,208201.0,15221.0,208201.0,34850.0,671.4957848171448,438.87011715313764,880.0848055971297
208201.0,7804.0,208201.0,15231.0,208201.0,34839.0,663.5713417602117,432.3407275552156,865.8126291624513
208201.0,7825.0,208201.0,15243.0,208201.0,34808.0,655.580758421378,425.76308897467374,851.4242399811906
208201.0,7797.0,208201.0,15295.0,208201.0,34798.0,647.5286861943537,419.1394036342151,836.9284382655916
208201.0,7804.0,208201.0,15231.0,208201.0,34773.0,639.419417767536,412.47111543994407,822.3335179647154
208211.0,7814.0,208211.0,15231.0,208211.0,34735.0,631.2570994656224,405.7594300268954,807.6471908707229
208211.0,7797.0,208211.0,15266.0,208211.0,34796.0,623.0459984891688,399.00534478261307,792.8765570524588
208211.0,7795.0,208211.0,15301.0,208211.0,34772.0,614.7908046723801,392.20988293585566,778.0284714601175
208211.0,7788.0,208211.0,15277.0,208211.0,34764.0,606.4968128104586,385.3749181980636,763.1103246707369
208211.0,7750.0,208211.0,15212.0,208211.0,34694.0,598.1699732553201,378.5038532794579,748.1305737574487
208211.0,7703.0,208211.0,15171.0,208211.0,34659.0,589.8166810861587,371.60137105492885,733.0985515038562
208222.0,7682.0,208222.0,15139.0,208222.0,34633.0,581.4431599784498,364.6724242136082,718.0237843872903
208222.0,7687.0,208222.0,15152.0,208222.0,34583.0,573.0547400780816,357.7212302366301,702.9152925782141
208222.0,7670.0,208222.0,15169.0,208222.0,34598.0,564.6554829960319,350.7508604529588,687.7810962820356
208222.0,7690.0,208222.0,15163.0,208222.0,34604.0,556.2482124401406,343.7634837507185,672.6280839562503
208222.0,7706.0,208222.0,15129.0,208222.0,34576.0,547.8348329727734,336.76079938507155,657.4623534411214
208222.0,7706.0,208222.0,15142.0,208222.0,34538.0,539.4169084615955,329.7441832313891,642.2896270977174
208232.0,7689.0,208232.0,15165.0,208232.0,34528.0,530.9962836117061,322.7147174135812,627.1152894552717
208232.0,7698.0,208232.0,15182.0,208232.0,34571.0,522.5754692429538,315.6735869238357,611.9443446581981
208232.0,7660.0,208232.0,15174.0,208232.0,34546.0,514.1577993367864,308.62282295142165,596.7818561204397
208232.0,7631.0,208232.0,15134.0,208232.0,34533.0,505.7473719065148,301.565882893094,581.6337103611411
208232.0,7601.0,208232.0,15055.0,208232.0,34450.0,497.3486663231919,294.5075610402197,566.5069965407849
208232.0,7575.0,208232.0,15060.0,208232.0,34421.0,488.9659421986016,287.45315090381894,551.4096311552037
208242.0,7554.0,208242.0,15030.0,208242.0,34409.0,480.60264634027317,280.40743376368266,536.3495635904574
208242.0,7575.0,208242.0,15010.0,208242.0,34372.0,472.2610037077337,273.37404372991,521.3341815400222
208242.0,7562.0,208242.0,15043.0,208242.0,34366.0,463.9419703462976,266.3551970261851,506.37007792448435
208242.0,7585.0,208242.0,15077.0,208242.0,34365.0,455.6455421513331,259.35186025459177,491.4630212210436
208242.0,7592.0,208242.0,15079.0,208242.0,34294.0,447.37125954980695,252.36451541234135,476.6180318437814
208242.0,7587.0,208242.0,15028.0,208242.0,34313.0,439.11880487750125,245.3940197343709,461.8393336759473
208253.0,7591.0,208253.0,15084.0,208253.0,34334.0,430.88854876945186,238.44197952546028,447.1302898642341
208253.0,7587.0,208253.0,15096.0,208253.0,34365.0,422.6819504462303,231.51100018690113,432.49390960462347
208253.0,7547.0,208253.0,15037.0,208253.0,34300.0,414.50179973060926,224.6052414027996,417.93385091740356
208253.0,7495.0,208253.0,14984.0,208253.0,34228.0,406.3520943208988,217.73063385096305,403.45494993510556
208253.0,7471.0,208253.0,14952.0,208253.0,34205.0,398.23739235523124,210.89418458808825,389.0627099310948
208253.0,7451.0,208253.0,14901.0,208253.0,34173.0,390.1619457221925,204.10282221027455,374.7623246634853
208263.0,7424.0,208263.0,14893.0,208263.0,34153.0,382.129020743733,197.36233404759423,360.557994752412
208263.0,7433.0,208263.0,14923.0,208263.0,34162.0,374.14048502322896,190.67667849995178,346.4526704891389
208263.0,7464.0,208263.0,14932.0,208263.0,34165.0,366.1967332080459,184.04797184202027,332.4481865337939
208263.0,7459.0,208263.0,14927.0,208263.0,34155.0,358.2971054038486,177.47704615629016,318.5457499448921
208263.0,7478.0,208263.0,14909.0,208263.0,34082.0,350.44060596436236,170.9640056045705,304.7463787478714
208263.0,7455.0,208263.0,14897.0,208263.0,34091.0,342.62654422883554,164.50842482607663,291.0508457729984
208274.0,7460.0,208274.0,15013.0,208274.0,34128.0,334.85493532783175,158.10953955208527,277.459457585524
208274.0,7415.0,208274.0,14931.0,208274.0,34088.0,327.1266367837894,151.76701024656586,263.9723605845827
208274.0,7410.0,208274.0,14948.0,208274.0,34092.0,319.44320875641495,145.48185808777419,250.59018604275752
208274.0,7354.0,208274.0,14847.0,208274.0,34014.0,311.80652825793084,139.25660595234478,237.31433993228507
208274.0,7360.0,208274.0,14808.0,208274.0,33976.0,304.2182524029181,133.09444627645178,224.14667442246355
208274.0,7321.0,208274.0,14808.0,208274.0,33955.0,296.6792945555452,126.9979558134471,211.08871908531432
208284.0,7299.0,208284.0,14769.0,208284.0,33983.0,289.18939022469226,120.96804323665128,198.14105660341738
208284.0,7336.0,208284.0,14829.0,208284.0,33933.0,281.7467708926192,115.00351604403875,185.30329826498541
208284.0,7351.0,208284.0,14831.0,208284.0,33946.0,274.3482371992243,109.10129709379919,172.5743657820003
208284.0,7356.0,208284.0,14829.0,208284.0,33917.0,266.9897954527913,103.25712688171598,159.95267873726016
208284.0,7367.0,208284.0,14795.0,208284.0,33928.0,259.66746900436215,97.46618500751867,147.43631244208268
208284.0,7351.0,208284.0,14869.0,208284.0,33939.0,252.37792235384836,91.72335168280608,135.0233184961678
208294.0,7349.0,208294.0,14910.0,208294.0,33955.0,245.11884143771988,86.02373677623484,122.71232547281625
208294.0,7319.0,208294.0,14870.0,208294.0,33934.0,237.88907019490364,80.36382057852404,110.50334084946462
208294.0,7285.0,208294.0,14830.0,208294.0,33838.0,230.68847514659,74.74234634905088,98.39824018573381
208294.0,7276.0,208294.0,14760.0,208294.0,33779.0,223.5175461191883,69.16011883132319,86.40031213632551
208294.0,7235.0,208294.0,14728.0,208294.0,33770.0,216.37688691742596,63.61891317114123,74.5130008958779
208294.0,7210.0,208294.0,14718.0,208294.0,33739.0,209.26669307252632,58.12020656835341,62.7387728369506
208305.0,7214.0,208305.0,14675.0,208305.0,33756.0,202.1862227202239,52.66423854688321,51.078653638923925
208305.0,7255.0,208305.0,14748.0,208305.0,33704.0,195.13356213740167,47.249551583893094,39.53222333778558
208305.0,7229.0,208305.0,14719.0,208305.0,33729.0,188.10597130205213,41.87311732613546,28.09771105931395
208305.0,7258.0,208305.0,14779.0,208305.0,33726.0,181.1005140670003,36.53100188918813,16.772159083308452
208305.0,7243.0,208305.0,14745.0,208305.0,33705.0,174.1145885169782,31.219193913828917,5.551793896400795
208305.0,7272.0,208305.0,14819.0,208305.0,33742.0,167.1463899695052,25.934378953039072,-5.5674907994527985
208315.0,7209.0,208315.0,14768.0,208315.0,33726.0,160.19531883323634,20.674706847854168,-16.58958151540901
208315.0,7194.0,208315.0,14765.0,208315.0,33703.0,153.26202981481993,15.440374096906453,-27.517536891592954
208315.0,7181.0,208315.0,14622.0,208315.0,33656.0,146.34802332607114,10.233476889630879,-38.35329837853624
208315.0,7142.0,208315.0,14641.0,208315.0,33583.0,139.4551271485426,5.056847429055551,-49.09804743860559
208315.0,7106.0,208315.0,14628.0,208315.0,33611.0,132.58499985065362,-0.08742833146857265,-59.753027074288866
208315.0,7103.0,208315.0,14602.0,208315.0,33568.0,125.73852233648267,-5.198848326795428,-70.32021648232421
208325.0,7126.0,208325.0,14639.0,208325.0,33581.0,118.91533853472481,-10.278671262391413,-80.80250261964534
208325.0,7140.0,208325.0,14637.0,208325.0,33604.0,112.11396006055861,-15.32975250337961,-91.203478139955
208325.0,7158.0,208325.0,14663.0,208325.0,33553.0,105.33239438081739,-20.35604500748309,-101.52700120788381
208325.0,7134.0,208325.0,14674.0,208325.0,33527.0,98.56888772703678,-25.361894738786646,-111.77687528588467
208325.0,7135.0,208325.0,14701.0,208325.0,33561.0,91.82240639469683,-30.35127413287114,-121.95691186422846
208325.0,7136.0,208325.0,14705.0,208325.0,33589.0,85.09282409298737,-35.32696765520143,-132.07079723982497
208336.0,7094.0,208336.0,14674.0,208336.0,33527.0,78.38099345606054,-40.28988540377577,-142.121411107001
208336.0,7098.0,208336.0,14633.0,208336.0,33504.0,71.6886794525592,-45.238860853013875,-152.11033348872888
208336.0,7050.0,208336.0,14575.0,208336.0,33460.0,65.01828787927002,-50.17114318206143,-162.03810049769095
208336.0,7020.0,208336.0,14548.0,208336.0,33438.0,58.37241923630768,-55.08341625422793,-171.90485473270974
208336.0,7000.0,208336.0,14526.0,208336.0,33386.0,51.753241836620646,-59.97291529923848,-181.71100174037952
208336.0,7005.0,208336.0,14531.0,208336.0,33418.0,45.161886440687454,-64.83823058009364,-191.45776527908515
208346.0,7025.0,208346.0,14581.0,208346.0,33433.0,38.59823471196955,-69.6795249253463,-201.1473276983886
208346.0,7034.0,208346.0,14585.0,208346.0,33412.0,32.06122692413567,-74.49804982206979,-210.78236112479522
208346.0,7035.0,208346.0,14569.0,208346.0,33364.0,25.549468329820115,-79.29530005846595,-220.36549377606775
208346.0,7022.0,208346.0,14567.0,208346.0,33367.0,19.061780061892364,-84.07244233636084,-229.89929820887528
208346.0,7033.0,208346.0,14577.0,208346.0,33406.0,12.597528654417829,-88.83013114601954,-239.38644929912925
208346.0,7016.0,208346.0,14597.0,208346.0,33380.0,6.156835395842336,-93.56829296616479,-248.82939619820763
208356.0,6968.0,208356.0,14591.0,208356.0,33374.0,-0.2593425686810633,-98.28566426315501,-258.22972627834906
208356.0,6948.0,208356.0,14515.0,208356.0,33320.0,-6.649500217199261,-102.97943542774351,-267.5878604971035
208356.0,6920.0,208356.0,14451.0,208356.0,33267.0,-13.012217460438592,-107.64564828542927,-276.9033472721128
208356.0,6905.0,208356.0,14463.0,208356.0,33262.0,-19.346798866301356,-112.28038369576052,-286.1756051022726
208356.0,6909.0,208356.0,14414.0,208356.0,33252.0,-25.653703804191082,-116.88093189611925,-295.4046242105435
208356.0,6913.0,208356.0,14437.0,208356.0,33257.0,-31.934673939804043,-121.44643370524045,-304.59118605722597
208367.0,6946.0,208367.0,14474.0,208367.0,33247.0,-38.192483191848396,-125.97801290501525,-313.73666346379514
208367.0,6927.0,208367.0,14455.0,208367.0,33235.0,-44.43037890968753,-130.4783755460096,-322.84270893701705
208367.0,6937.0,208367.0,14441.0,208367.0,33176.0,-50.65149549131854,-134.95122422797363,-331.91112662299383
208367.0,6936.0,208367.0,14492.0,208367.0,33223.0,-56.85845284031018,-139.40092237756573,-340.944027010102
208367.0,6934.0,208367.0,14530.0,208367.0,33243.0,-63.05305660027625,-143.83202390935207,-349.9437968526929
208367.0,6920.0,208367.0,14507.0,208367.0,33219.0,-69.236035333843,-148.24831601623475,-358.9124754685936
208377.0,6862.0,208377.0,14484.0,208377.0,33182.0,-75.40700684911792,-152.65197802506805,-367.8510797039328
208377.0,6849.0,208377.0,14426.0,208377.0,33123.0,-81.56488614486693,-157.04352605837653,-376.75961819445297
208377.0,6824.0,208377.0,14378.0,208377.0,33100.0,-87.70858725527773,-161.4225414129587,-385.6377807325739
208377.0,6799.0,208377.0,14373.0,208377.0,33102.0,-93.83765678054874,-165.78877991405477,-394.4857482427092
208377.0,6815.0,208377.0,14422.0,208377.0,33120.0,-99.95269545072745,-170.14298632786108,-403.3045364961836
208377.0,6844.0,208377.0,14420.0,208377.0,33102.0,-106.0554281004953,-174.4868431469364,-412.09573392745096
208387.0,6837.0,208387.0,14360.0,208387.0,33059.0,-112.1482682382856,-178.82242609070056,-420.86111314895356
208387.0,6856.0,208387.0,14426.0,208387.0,33056.0,-118.2336321529142,-183.15196968968814,-429.60262205388085
208387.0,6837.0,208387.0,14422.0,208387.0,33064.0,-124.31336878639524,-187.4777627846479,-438.32259256164434
208387.0,6846.0,208387.0,14447.0,208387.0,33086.0,-130.38839030481813,-191.8015950947423,-447.02362257184654
208387.0,6835.0,208387.0,14442.0,208387.0,33084.0,-136.45844058400826,-196.12397740113363,-455.7079873787136
208387.0,6742.0,208387.0,14360.0,208387.0,33064.0,-142.52210682208295,-200.4437201549697,-464.376942722467
208398.0,6756.0,208398.0,14307.0,208398.0,32991.0,-148.5773717768035,-204.75834809805758,-473.0304374917305
208398.0,6715.0,208398.0,14280.0,208398.0,32964.0,-154.62251239433272,-209.06534688470595,-481.66754769961676
208398.0,6717.0,208398.0,14307.0,208398.0,32959.0,-160.656762058995,-213.3634221688618,-490.2873322282844
208398.0,6728.0,208398.0,14318.0,208398.0,32924.0,-166.6805746181642,-217.65295971662636,-498.8894789708247
208398.0,6718.0,208398.0,14327.0,208398.0,32957.0,-172.69556508521907,-221.93569467737245,-507.4745248626184
208398.0,6741.0,208398.0,14329.0,208398.0,32974.0,-178.70420796025076,-226.21411617325464,-516.0436518404622
208408.0,6730.0,208408.0,14333.0,208408.0,32907.0,-184.70943276199603,-230.49096940741117,-524.5981558615388
208408.0,6743.0,208408.0,14302.0,208408.0,32895.0,-190.71419765085147,-234.76894628898037,-533.1391900004235
208408.0,6729.0,208408.0,14342.0,208408.0,32910.0,-196.72111188991676,-239.0505523527811,-541.6680203915473
208408.0,6746.0,208408.0,14399.0,208408.0,32929.0,-202.73213134413902,-243.33778764971532,-550.18610085356
208408.0,6713.0,208408.0,14347.0,208408.0,32930.0,-208.7483067062584,-247.63132786189215,-558.6945492785019
208408.0,6719.0,208408.0,14347.0,208408.0,32842.0,-214.76965117775512,-251.9297722317757,-567.1935721552775
208418.0,6647.0,208418.0,14188.0,208418.0,32855.0,-220.79526114263626,-256.229834563188,-575.6825374097682
208418.0,6625.0,208418.0,14209.0,208418.0,32789.0,-226.82383554354203,-260.5276736394875,-584.1606085426615
208418.0,6623.0,208418.0,14223.0,208418.0,32769.0,-232.854482682612,-264.82051116865455,-592.6274564179855
208418.0,6625.0,208418.0,14185.0,208418.0,32782.0,-238.88730248445677,-269.1074081309082,-601.0838544503929
208418.0,6651.0,208418.0,14258.0,208418.0,32808.0,-244.9233981926484,-273.38918746786555,-609.5318576920286
208418.0,6626.0,208418.0,14260.0,208418.0,32785.0,-250.96448546888575,-277.6679261027955,-617.9743634285996
208429.0,6637.0,208429.0,14196.0,208429.0,32759.0,-257.01247730315913,-281.9462429321537,-626.4145571352922
208429.0,6646.0,208429.0,14242.0,208429.0,32765.0,-263.06919849271696,-286.22696758674147,-634.8557415464131
208429.0,6652.0,208429.0,14310.0,208429.0,32782.0,-269.13604952810203,-290.5130259669337,-643.3012917359297
208429.0,6636.0,208429.0,14318.0,208429.0,32772.0,-275.21357531628576,-294.80661156247265,-651.7543111328257
208429.0,6600.0,208429.0,14256.0,208429.0,32760.0,-281.3012321446804,-299.1079602007168,-660.2171239633246
208429.0,6558.0,208429.0,14156.0,208429.0,32700.0,-287.3976240535154,-303.4150961993537,-668.6910553212795
208439.0,6533.0,208439.0,14175.0,208439.0,32660.0,-293.5011803036572,-307.72493645118675,-677.1767800975081
208439.0,6538.0,208439.0,14123.0,208439.0,32674.0,-299.6109137600081,-312.03472444952115,-685.6750545464599
208439.0,6531.0,208439.0,14140.0,208439.0,32635.0,-305.72684335128463,-316.34290390506055,-694.1872678745617
208439.0,6524.0,208439.0,14160.0,208439.0,32648.0,-311.85002397269636,-320.64940370130046,-702.7155972881656
208439.0,6521.0,208439.0,14220.0,208439.0,32609.0,-317.9824367983956,-324.95531400087316,-711.263013353004
208439.0,6559.0,208439.0,14108.0,208439.0,32602.0,-324.12680068746295,-329.2621356473593,-719.833329877513
208449.0,6550.0,208449.0,14110.0,208449.0,32594.0,-330.28612249408525,-333.5715418414478,-728.4313144202383
208449.0,6544.0,208449.0,14177.0,208449.0,32645.0,-336.4630914387285,-337.8858443021511,-737.06261443524
208449.0,6535.0,208449.0,14258.0,208449.0,32688.0,-342.65968577178455,-342.2078322582256,-745.7330800032767
208449.0,6533.0,208449.0,14187.0,208449.0,32644.0,-348.87705034134115,-346.53944184867544,-754.4475538137485
208449.0,6506.0,208449.0,14154.0,208449.0,32580.0,-355.1154750169005,-350.8806522224603,-763.2090267591987
208449.0,6453.0,208449.0,14101.0,208449.0,32541.0,-361.37456095651055,-355.22971526187837,-772.0189057530722
208460.0,6446.0,208460.0,14029.0,208460.0,32517.0,-367.65375684348,-359.5843263317148,-780.8780111968431
208460.0,6416.0,208460.0,14039.0,208460.0,32492.0,-373.9530728499973,-363.9430257754825,-789.7874884895723
208460.0,6434.0,208460.0,14032.0,208460.0,32504.0,-380.27358581152623,-368.30628683807015,-798.7493077296053
208460.0,6446.0,208460.0,14077.0,208460.0,32577.0,-386.6175271669009,-372.6768347146757,-807.7661795554959
208460.0,6467.0,208460.0,14118.0,208460.0,32472.0,-392.98791113493655,-377.05913397427526,-816.8408648101336
208460.0,6463.0,208460.0,14090.0,208460.0,32498.0,-399.38787103351694,-381.4583883106952,-825.9756206577072
208470.0,6477.0,208470.0,14096.0,208470.0,32455.0,-405.82000316723395,-385.8796919866536,-835.1723173376181
208470.0,6451.0,208470.0,14162.0,208470.0,32513.0,-412.2858881886192,-390.3275493556715,-844.4326345661875
208470.0,6431.0,208470.0,14141.0,208470.0,32491.0,-418.78588902289766,-394.80523816896925,-853.7577385129644
208470.0,6427.0,208470.0,14096.0,208470.0,32439.0,-425.3192576923583,-399.31406105667907,-863.1477327465248
208470.0,6369.0,208470.0,14050.0,208470.0,32438.0,-431.8844356805382,-403.8532945740619,-872.601540831253
208470.0,6347.0,208470.0,13994.0,208470.0,32376.0,-438.479555955097,-408.4210401687626,-882.1173055759425
208480.0,6332.0,208480.0,13988.0,208480.0,32359.0,-445.10315276753727,-413.0154367533338,-891.6929751058794
208480.0,6329.0,208480.0,13963.0,208480.0,32374.0,-451.7547575145977,-417.6356844808814,-901.3268471371423
208480.0,6351.0,208480.0,13995.0,208480.0,32352.0,-458.4350791719903,-422.28258228645973,-911.0177720095189
208480.0,6366.0,208480.0,14062.0,208480.0,32354.0,-465.1457207485057,-426.9583788680551,-920.764976086022
208480.0,6349.0,208480.0,14029.0,208480.0,32295.0,-471.8886017377929,-431.66590268400876,-930.5679123300722
208480.0,6338.0,208480.0,14014.0,208480.0,32314.0,-478.6654851994281,-436.4076164727725,-940.4263890335958
208491.0,6341.0,208491.0,14026.0,208491.0,32355.0,-485.4778219081629,-441.18528630470973,-950.3406428071639
208491.0,6372.0,208491.0,14099.0,208491.0,32363.0,-492.32662415549385,-445.9998279749299,-960.3107973014448
208491.0,6338.0,208491.0,14019.0,208491.0,32320.0,-499.21208989204786,-450.8506972664079,-970.3359161089797
208491.0,6318.0,208491.0,13957.0,208491.0,32265.0,-506.1332584833799,-455.7354858177963,-980.4135564830692
208491.0,6274.0,208491.0,13938.0,208491.0,32239.0,-513.0881352027187,-460.650592815658,-990.5402023501017
208491.0,6240.0,208491.0,13931.0,208491.0,32194.0,-520.0742885416153,-465.5924201103053,-1000.7121254078834
208501.0,6220.0,208501.0,13907.0,208501.0,32179.0,-527.0896471978665,-470.55814578614945,-1010.9261867035818
208501.0,6227.0,208501.0,13890.0,208501.0,32180.0,-534.1331730184534,-475.54609045955783,-1021.180382505933
208501.0,6229.0,208501.0,13903.0,208501.0,32216.0,-541.2051225921397,-480.5559880429913,-1031.4739200581905
208501.0,6263.0,208501.0,13957.0,208501.0,32182.0,-548.306822648444,-485.5889586581193,-1041.8067524518021
208501.0,6252.0,208501.0,13961.0,208501.0,32163.0,-555.4400908033532,-490.646863964825,-1052.179034064438
208501.0,6263.0,208501.0,13935.0,208501.0,32139.0,-562.6065727987216,-495.73137272320207,-1062.5909984571285
208512.0,6251.0,208512.0,13967.0,208512.0,32200.0,-569.8072451070102,-500.84336591803526,-1073.0430179126238
208512.0,6232.0,208512.0,13974.0,208512.0,32178.0,-577.0421496425677,-505.9826085509968,-1083.5352233354504
208512.0,6216.0,208512.0,13895.0,208512.0,32155.0,-584.3103706748605,-511.1474371409953,-1094.0667755802015
208512.0,6179.0,208512.0,13880.0,208512.0,32086.0,-591.6102559705446,-516.334908162983,-1104.6355673471255
208512.0,6156.0,208512.0,13840.0,208512.0,32066.0,-598.9398457679606,-521.5416078261428,-1115.2387098308532
208512.0,6140.0,208512.0,13833.0,208512.0,32043.0,-606.2974185680508,-526.764566758061,-1125.8733630208508
208522.0,6109.0,208522.0,13790.0,208522.0,32036.0,-613.6820040464077,-532.0019397112763,-1136.5373370313037
208522.0,6149.0,208522.0,13854.0,208522.0,32079.0,-621.0937174312845,-537.2534321667787,-1147.2291953956485
208522.0,6174.0,208522.0,13884.0,208522.0,32069.0,-628.5336462250893,-542.5201500975214,-1157.9477915945681
208522.0,6138.0,208522.0,13861.0,208522.0,31965.0,-636.0032265366557,-547.803757555569,-1168.6916942100659
208522.0,6152.0,208522.0,13816.0,208522.0,31988.0,-643.5036493319236,-553.1057272602129,-1179.4593223810207
208522.0,6152.0,208522.0,13881.0,208522.0,31991.0,-651.0356082204061,-558.4272487612842,-1190.2495629311738
208532.0,6147.0,208532.0,13893.0,208532.0,32049.0,-658.5990872150645,-563.7691182171178,-1201.0617642740258
208532.0,6133.0,208532.0,13860.0,208532.0,32003.0,-666.1930953600997,-569.1310977561333,-1211.8949007181895
208532.0,6094.0,208532.0,13824.0,208532.0,31931.0,-673.8155971508102,-574.5114425868682,-1222.7468684720334
208532.0,6044.0,208532.0,13766.0,208532.0,31924.0,-681.4638452003052,-579.9072495305013,-1233.614718831258
208532.0,6035.0,208532.0,13726.0,208532.0,31907.0,-689.1351050988378,-585.3154550145015,-1244.4954319728242
208532.0,6027.0,208532.0,13749.0,208532.0,31865.0,-696.8274001853271,-590.7339422789352,-1255.3864543411673
208543.0,6020.0,208543.0,13767.0,208543.0,31867.0,-704.5398877602358,-596.1621143415347,-1266.285997696878
208543.0,6033.0,208543.0,13781.0,208543.0,31892.0,-712.2728647776784,-601.6006494647758,-1277.1931889534442
208543.0,6045.0,208543.0,13791.0,208543.0,31847.0,-720.0275103038845,-607.0508115120502,-1288.1078644446786
208543.0,6062.0,208543.0,13744.0,208543.0,31788.0,-727.8053728349784,-612.5138696792426,-1299.0303749492664
208543.0,6054.0,208543.0,13761.0,208543.0,31831.0,-735.6077157751661,-617.9909412465092,-1309.9618730085385
208543.0,6066.0,208543.0,13813.0,208543.0,31882.0,-743.4349315044433,-623.4829780430141,-1320.9044491067623
208553.0,6002.0,208553.0,13835.0,208553.0,31885.0,-751.2862122123279,-628.9902226977127,-1331.860317316219
208553.0,5978.0,208553.0,13772.0,208553.0,31843.0,-759.1597041484663,-634.5112520312115,-1342.8305866382955
208553.0,5968.0,208553.0,13689.0,208553.0,31804.0,-767.0531210327451,-640.0427003983896,-1353.8147026982522
208553.0,5960.0,208553.0,13651.0,208553.0,31753.0,-774.964328965906,-645.580258003234,-1364.8108086863974
208553.0,5924.0,208553.0,13657.0,208553.0,31748.0,-782.8916317323389,-651.1202076529477,-1375.8165358260394
208553.0,5924.0,208553.0,13674.0,208553.0,31715.0,-790.8339913123964,-656.6603708416382,-1386.829691185593
208563.0,5937.0,208563.0,13668.0,208563.0,31726.0,-798.791226156658,-662.2001536441329,-1397.8486162498098
208563.0,5943.0,208563.0,13668.0,208563.0,31725.0,-806.7639039372959,-667.7401862753957,-1408.872206200794
208563.0,5932.0,208563.0,13688.0,208563.0,31685.0,-814.7529328347637,-673.2819752492428,-1419.8997053172793
208563.0,5930.0,208563.0,13664.0,208563.0,31688.0,-822.7591791911365,-678.8275741946637,-1430.9305780432462
208563.0,5954.0,208563.0,13689.0,208563.0,31704.0,-830.7831965055244,-684.3792672171713,-1441.964488135491
208563.0,5937.0,208563.0,13743.0,208563.0,31721.0,-838.8248694517549,-689.9391574894574,-1453.0009892657235
208574.0,5889.0,208574.0,13699.0,208574.0,31697.0,-846.8830983788104,-695.5084404222856,-1464.0388643619754
208574.0,5901.0,208574.0,13695.0,208574.0,31670.0,-854.9558825013147,-701.0867296751629,-1475.0755994068638
208574.0,5860.0,208574.0,13602.0,208574.0,31607.0,-863.0406803951006,-706.6720957080933,-1486.1074187456093
208574.0,5817.0,208574.0,13577.0,208574.0,31569.0,-871.1348090627087,-712.2619362865853,-1497.1299285332027
208574.0,5809.0,208574.0,13541.0,208574.0,31561.0,-879.2360091408356,-717.8542742494088,-1508.1390426197495
208574.0,5801.0,208574.0,13579.0,208574.0,31538.0,-887.34305895547,-723.4488087108609,-1519.131691149913
208584.0,5841.0,208584.0,13632.0,208584.0,31540.0,-895.4559902522908,-729.0471004930224,-1530.106107606431
208584.0,5840.0,208584.0,13621.0,208584.0,31565.0,-903.5757194604214,-734.6518189430888,-1541.0617571304947
208584.0,5837.0,208584.0,13619.0,208584.0,31553.0,-911.7033616259919,-740.2657300633296,-1551.998912251481
208584.0,5838.0,208584.0,13600.0,208584.0,31531.0,-919.8396620958234,-745.8911523947371,-1562.91809866063
208584.0,5836.0,208584.0,13664.0,208584.0,31559.0,-927.9846612779796,-751.5297611765891,-1573.8197348242993
208584.0,5824.0,208584.0,13646.0,208584.0,31536.0,-936.137454851244,-757.182149790235,-1584.7038460298954
208594.0,5793.0,208594.0,13647.0,208594.0,31520.0,-944.2960818078249,-762.8471282043165,-1595.5697273888554
208594.0,5752.0,208594.0,13525.0,208594.0,31472.0,-952.4577245198651,-768.521474806047,-1606.4158512645215
208594.0,5722.0,208594.0,13532.0,208594.0,31436.0,-960.6192856509119,-774.2006880623007,-1617.2402377119727
208594.0,5709.0,208594.0,13484.0,208594.0,31410.0,-968.778137602607,-779.8803111027099,-1628.0411442927787
208594.0,5706.0,208594.0,13494.0,208594.0,31431.0,-976.9327005574814,-785.5569753475287,-1638.8176806979732
208594.0,5705.0,208594.0,13502.0,208594.0,31407.0,-985.0826609914611,-791.2288516586979,-1649.5699819377764
208605.0,5727.0,208605.0,13502.0,208605.0,31440.0,-993.2288468955453,-796.8956143496729,-1660.2989563160536
208605.0,5740.0,208605.0,13545.0,208605.0,31380.0,-1001.3727961476535,-802.5580496557445,-1671.0059076994335
208605.0,5746.0,208605.0,13497.0,208605.0,31394.0,-1009.5160969413896,-808.2174968872993,-1681.6923396628974
208605.0,5743.0,208605.0,13537.0,208605.0,31397.0,-1017.6597228420198,-813.875395450699,-1692.359943498544
208605.0,5713.0,208605.0,13584.0,208605.0,31428.0,-1025.803607299135,-819.5328790143843,-1703.0103592291432
208605.0,5696.0,208605.0,13565.0,208605.0,31384.0,-1033.9465952051687,-825.1900282301931,-1713.644586131666
208615.0,5674.0,208615.0,13486.0,208615.0,31342.0,-1042.0867148409252,-830.845166489922,-1724.2625972236187
208615.0,5630.0,208615.0,13466.0,208615.0,31319.0,-1050.2216144178433,-836.4950891562959,-1734.863606950022
208615.0,5614.0,208615.0,13417.0,208615.0,31301.0,-1058.3491308963307,-842.1361231110063,-1745.4467026795135
208615.0,5591.0,208615.0,13409.0,208615.0,31270.0,-1066.467928414086,-847.765241628914,-1756.0113685035262
208615.0,5599.0,208615.0,13381.0,208615.0,31254.0,-1074.5779797310483,-853.3808845794764,-1766.5578669580696
208615.0,5618.0,208615.0,13419.0,208615.0,31282.0,-1082.6806782392632,-858.9834253535141,-1777.0874908222352
208625.0,5627.0,208625.0,13465.0,208625.0,31258.0,-1090.7785056612934,-864.5750579042532,-1787.6024785643726
208625.0,5639.0,208625.0,13440.0,208625.0,31205.0,-1098.8744051530618,-870.1590411582907,-1798.1057816010355
208625.0,5615.0,208625.0,13444.0,208625.0,31249.0,-1106.9711734164111,-875.7388693989542,-1808.6011163735795
208625.0,5637.0,208625.0,13478.0,208625.0,31301.0,-1115.0710741076996,-881.3178117215921,-1819.0929004537845
208625.0,5602.0,208625.0,13455.0,208625.0,31265.0,-1123.1756279380545,-886.8985310661495,-1829.5854654490447
208625.0,5580.0,208625.0,13454.0,208625.0,31230.0,-1131.285565230787,-892.4826653530031,-1840.0821577361173
208636.0,5561.0,208636.0,13422.0,208636.0,31184.0,-1139.4010602872743,-898.0706843171855,-1850.5852618493748
208636.0,5542.0,208636.0,13351.0,208636.0,31144.0,-1147.522152421022,-903.6622101950795,-1861.0966857059361
208636.0,5513.0,208636.0,13357.0,208636.0,31147.0,-1155.6491613968187,-909.2568123621169,-1871.618814638151
208636.0,5488.0,208636.0,13344.0,208636.0,31153.0,-1163.7831255999104,-914.8548974886504,-1882.1550262087094
208636.0,5512.0,208636.0,13346.0,208636.0,31160.0,-1171.926224468461,-920.4581670273099,-1892.7096309735969
208636.0,5523.0,208636.0,13398.0,208636.0,31139.0,-1180.0818633809836,-926.0695388026468,-1903.2874657395487
208646.0,5540.0,208646.0,13346.0,208646.0,31132.0,-1188.2542448655483,-931.6926904982935,-1913.8935621371133
208646.0,5519.0,208646.0,13354.0,208646.0,31091.0,-1196.4477214890119,-937.3316337428208,-1924.5330967759403
208646.0,5521.0,208646.0,13361.0,208646.0,31140.0,-1204.6663431369357,-942.9906323562012,-1935.2114892557308
208646.0,5528.0,208646.0,13435.0,208646.0,31142.0,-1212.9136471202341,-948.674005247751,-1945.9342228857947
208646.0,5508.0,208646.0,13399.0,208646.0,31114.0,-1221.1924784926596,-954.3853463552297,-1956.7062604471603
208646.0,5487.0,208646.0,13402.0,208646.0,31105.0,-1229.5048607051458,-960.1266289733203,-1967.531574920542
208656.0,5439.0,208656.0,13312.0,208656.0,31058.0,-1237.8521694705041,-965.8979775427385,-1978.4131653644067
208656.0,5422.0,208656.0,13287.0,208656.0,31015.0,-1246.235682623931,-971.6983415892192,-1989.3534788892316
208656.0,5425.0,208656.0,13271.0,208656.0,30998.0,-1254.6572286790124,-977.5266609855453,-2000.3551151776069
208656.0,5406.0,208656.0,13277.0,208656.0,31000.0,-1263.119561666298,-983.3827980657067,-2011.421501808426
208656.0,5420.0,208656.0,13322.0,208656.0,31001.0,-1271.6264075495317,-989.267765087368,-2022.5571456671917
208656.0,5456.0,208656.0,13267.0,208656.0,31023.0,-1280.1822408172675,-995.1833664415551,-2033.767399615286
208667.0,5428.0,208667.0,13267.0,208667.0,30986.0,-1288.7917486352521,-1001.1318687643328,-2045.05798307215
208667.0,5427.0,208667.0,13274.0,208667.0,30976.0,-1297.4592677656874,-1007.1160651872983,-2056.4346388235226
208667.0,5417.0,208667.0,13336.0,208667.0,31027.0,-1306.1885523062792,-1013.1392337972442,-2067.9029946808587
208667.0,5405.0,208667.0,13355.0,208667.0,30993.0,-1314.9827628324074,-1019.204409411884,-2079.468208876575
208667.0,5397.0,208667.0,13288.0,208667.0,30966.0,-1323.8444825454935,-1025.3133409381296,-2091.1344475861506
208667.0,5358.0,208667.0,13245.0,208667.0,30930.0,-1332.775804846294,-1031.466158224804,-2102.904805575371
208677.0,5328.0,208677.0,13187.0,208677.0,30899.0,-1341.778637954513,-1037.6621551222393,-2114.781766975198
208677.0,5316.0,208677.0,13194.0,208677.0,30879.0,-1350.8552467387958,-1043.9010532883322,-2126.7678256187264
208677.0,5334.0,208677.0,13163.0,208677.0,30858.0,-1360.0087200359194,-1050.1839777354412,-2138.8660139086314
208677.0,5314.0,208677.0,13208.0,208677.0,30891.0,-1369.2430416090465,-1056.5138688868985,-2151.080172156546
208677.0,5346.0,208677.0,13216.0,208677.0,30874.0,-1378.5628334493517,-1062.8953189568974,-2163.4147923460596
208677.0,5344.0,208677.0,13199.0,208677.0,30861.0,-1387.9729271207943,-1069.3340106462201,-2175.8745859493683
208687.0,5341.0,208687.0,13226.0,208687.0,30823.0,-1397.47782573954,-1075.8361789434725,-2188.4642390850527
208687.0,5329.0,208687.0,13254.0,208687.0,30862.0,-1407.0812588099507,-1082.408162637709,-2201.1884580747374
208687.0,5327.0,208687.0,13282.0,208687.0,30868.0,-1416.7859694133363,-1089.0556891749814,-2214.0518276498246
208687.0,5302.0,208687.0,13268.0,208687.0,30868.0,-1426.5936506595185,-1095.7829250432142,-2227.058204408124
208687.0,5274.0,208687.0,13204.0,208687.0,30836.0,-1436.5050252414337,-1102.5918682696117,-2240.2100480961726
208687.0,5249.0,208687.0,13161.0,208687.0,30772.0,-1446.5201570786483,-1109.4826090670915,-2253.5082572371866
208698.0,5226.0,208698.0,13134.0,208698.0,30727.0,-1456.6389343092515,-1116.4543330899805,-2266.9527255610064
208698.0,5232.0,208698.0,13102.0,208698.0,30729.0,-1466.8615091065863,-1123.5064379066746,-2280.5433055209487
208698.0,5195.0,208698.0,13108.0,208698.0,30694.0,-1477.188544562121,-1130.6393478369769,-2294.2805555815753
208698.0,5228.0,208698.0,13169.0,208698.0,30729.0,-1487.6212908850384,-1137.8547964568281,-2308.1659818772678
208698.0,5242.0,208698.0,13184.0,208698.0,30749.0,-1498.1614139938167,-1145.155301526886,-2322.201770168824
208698.0,5231.0,208698.0,13128.0,208698.0,30697.0,-1508.8104651570275,-1152.5431884675447,-2336.3901355434587
208708.0,5212.0,208708.0,13136.0,208708.0,30704.0,-1519.569317452766,-1160.020093216595,-2350.732822028334
208708.0,5246.0,208708.0,13208.0,208708.0,30737.0,-1530.4378725595989,-1167.5869383294103,-2365.2309220413495
208708.0,5213.0,208708.0,13201.0,208708.0,30773.0,-1541.4148091754037,-1175.243439221651,-2379.8843720841464
208708.0,5183.0,208708.0,13190.0,208708.0,30716.0,-1552.497336643024,-1182.9871041040578,-2394.6909607262205
208708.0,5146.0,208708.0,13074.0,208708.0,30644.0,-1563.6813363076972,-1190.8127880534937,-2409.6457494421184
208708.0,5140.0,208708.0,13083.0,208708.0,30634.0,-1574.9618927161791,-1198.7134003223264,-2424.741537773993
208718.0,5110.0,208718.0,13064.0,208718.0,30623.0,-1586.3338161108836,-1206.6811215016803,-2439.969753714292
208718.0,5083.0,208718.0,13003.0,208718.0,30561.0,-1597.7920248270266,-1214.7082706725193,-2455.3210086105682
208718.0,5126.0,208718.0,13059.0,208718.0,30585.0,-1609.33181406072,-1222.7878146867624,-2470.785428159995
208718.0,5124.0,208718.0,13044.0,208718.0,30618.0,-1620.9487420135158,-1230.9135562434476,-2486.3527678824435
208718.0,5123.0,208718.0,13061.0,208718.0,30587.0,-1632.638050593518,-1239.0798067068538,-2502.011953166002
208718.0,5153.0,208718.0,13081.0,208718.0,30575.0,-1644.393987114286,-1247.2807927857598,-2517.75039431983
208729.0,5135.0,208729.0,13078.0,208729.0,30542.0,-1656.2091809556155,-1255.5100340386462,-2533.5537185129297
208729.0,5123.0,208729.0,13113.0,208729.0,30589.0,-1668.0741016882475,-1263.7596772334498,-2549.405777346509
208729.0,5103.0,208729.0,13096.0,208729.0,30560.0,-1679.9768134199517,-1272.0198181356177,-2565.288390191031
208729.0,5063.0,208729.0,13065.0,208729.0,30531.0,-1691.90308638401,-1280.2779910967852,-2581.18086226
208729.0,5013.0,208729.0,12969.0,208729.0,30424.0,-1703.8368357965282,-1288.5192740088469,-2597.05997821274
208729.0,4999.0,208729.0,12951.0,208729.0,30461.0,-1715.7608641489921,-1296.7272761515824,-2612.9007896722032
208739.0,4972.0,208739.0,12954.0,208739.0,30463.0,-1727.6576382894687,-1304.8854609746745,-2628.6774101702417
208739.0,5001.0,208739.0,12909.0,208739.0,30416.0,-1739.509743638254,-1312.9780049578676,-2644.3630776341315
208739.0,5024.0,208739.0,13003.0,208739.0,30426.0,-1751.2997853931483,-1320.9900109346647,-2659.9299183178273
208739.0,5006.0,208739.0,12983.0,208739.0,30426.0,-1763.0097757370486,-1328.9070844803764,-2675.3488602807483
208739.0,5031.0,208739.0,13013.0,208739.0,30413.0,-1774.6204143821685,-1336.7143932492743,-2690.589434230121
208739.0,5003.0,208739.0,12975.0,208739.0,30408.0,-1786.1105645734788,-1344.3958188738034,-2705.6194282621873
208750.0,5017.0,208750.0,13054.0,208750.0,30468.0,-1797.4568988732344,-1351.933460950779,-2720.404476412228
208750.0,5004.0,208750.0,13015.0,208750.0,30461.0,-1808.6336425599584,-1359.3070889006988,-2734.9072926668496
208750.0,4963.0,208750.0,12967.0,208750.0,30444.0,-1819.6124295636992,-1366.493600972762,-2749.0866486945306
208750.0,4936.0,208750.0,12939.0,208750.0,30370.0,-1830.362457951558,-1373.4671447122996,-2762.896829092054
208750.0,4917.0,208750.0,12863.0,208750.0,30335.0,-1840.8509964682605,-1380.2000068896455,-2776.2880127217218
208750.0,4892.0,208750.0,12872.0,208750.0,30271.0,-1851.0439577749835,-1386.6637961156357,-2789.2073185250097
208760.0,4875.0,208760.0,12853.0,208760.0,30290.0,-1860.9063593234164,-1392.830441424535,-2801.599940645882
208760.0,4886.0,208760.0,12878.0,208760.0,30284.0,-1870.4026527203453,-1398.6726535758166,-2813.409830174084
208760.0,4912.0,208760.0,12907.0,208760.0,30321.0,-1879.4967425964173,-1404.1637811667633,-2824.579658135514
208760.0,4898.0,208760.0,12937.0,208760.0,30251.0,-1888.1515848219728,-1409.2771636232426,-2835.0503569978514
208760.0,4912.0,208760.0,12871.0,208760.0,30220.0,-1896.3286404645742,-1413.9853340627092,-2844.7609832228627
208760.0,4902.0,208760.0,12868.0,208760.0,30272.0,-1903.9874740580112,-1418.259750842374,-2853.6491213319164
208770.0,4896.0,208770.0,12985.0,208770.0,30338.0,-1911.08550755126,-1422.0709392838157,-2861.6509187531833
208770.0,4889.0,208770.0,12941.0,208770.0,30283.0,-1917.5779069616099,-1425.3880124032366,-2868.7001726597155
208770.0,4858.0,208770.0,12916.0,208770.0,30245.0,-1923.4176334633898,-1428.177699098775,-2874.7274705817254
208770.0,4823.0,208770.0,12836.0,208770.0,30194.0,-1928.5557453539382,-1430.4042022848093,-2879.6604392675877
208770.0,4808.0,208770.0,12793.0,208770.0,30155.0,-1932.9420050264812,-1432.03027457601,-2883.4248530891905
208770.0,4793.0,208770.0,12808.0,208770.0,30173.0,-1936.5255921732464,-1433.0187355565008,-2885.945831253511
208781.0,4778.0,208781.0,12807.0,208781.0,30152.0,-1939.2556799607867,-1433.3335292395632,-2887.148616222155
208781.0,4753.0,208781.0,12929.0,208781.0,30140.0,-1941.0819041404793,-1432.9397906663246,-2886.9589276468164
208781.0,4807.0,208781.0,12857.0,208781.0,30189.0,-1941.9547408930166,-1431.8029814927033,-2885.3031512365897
208781.0,4831.0,208781.0,12816.0,208781.0,30167.0,-1941.8254570677962,-1429.8880751753732,-2882.108314357125
208781.0,4825.0,208781.0,12826.0,208781.0,30183.0,-1940.6455170413492,-1427.1598047353255,-2877.301872996757
208781.0,4798.0,208781.0,12911.0,208781.0,30206.0,-1938.366052864158,-1423.5833165208594,-2870.8115775612114
208791.0,4799.0,208791.0,12912.0,208791.0,30196.0,-1934.9379294806108,-1419.123935926464,-2862.5653915062617
208791.0,4790.0,208791.0,12893.0,208791.0,30159.0,-1930.3121981562604,-1413.7462951106118,-2852.4915379923104
208791.0,4774.0,208791.0,12797.0,208791.0,30148.0,-1924.4405733998508,-1407.4141169907994,-2840.519037101588
208791.0,4753.0,208791.0,12824.0,208791.0,30127.0,-1917.2759531647848,-1400.0911747276418,-2826.578693425312
208791.0,4735.0,208791.0,12775.0,208791.0,30155.0,-1908.7731235145873,-1391.7427074136226,-2810.60409714891
208791.0,4738.0,208791.0,12797.0,208791.0,30112.0,-1898.889576406646,-1382.3365099383188,-2792.5324020520893
208801.0,4751.0,208801.0,12830.0,208801.0,30170.0,-1887.5861991944307,-1371.8435423076464,-2772.3049736172034
208801.0,4785.0,208801.0,12838.0,208801.0,30167.0,-1874.827616623418,-1360.2380392077198,-2749.8678971172835
208801.0,4814.0,208801.0,12840.0,208801.0,30209.0,-1860.5821218167423,-1347.497315022032,-2725.1722079274077
208801.0,4792.0,208801.0,12845.0,208801.0,30215.0,-1844.8214199979784,-1333.601718443502,-2698.1739692360934
208801.0,4840.0,208801.0,12907.0,208801.0,30236.0,-1827.5205623840423,-1318.5347374111784,-2668.8344274080046
208801.0,4867.0,208801.0,12973.0,208801.0,30316.0,-1808.65802258991,-1302.2827349088666,-2637.1201978376757
208812.0,4868.0,208812.0,12951.0,208812.0,30366.0,-1788.2156188605195,-1284.8341643812619,-2603.003128386336
208812.0,4899.0,208812.0,12969.0,208812.0,30371.0,-1766.178428527875,-1266.1789391092834,-2566.459809093975
208812.0,4853.0,208812.0,12891.0,208812.0,30369.0,-1742.5350109741876,-1246.30863183988,-2527.471394872541
208812.0,4873.0,208812.0,12896.0,208812.0,30389.0,-1717.2780609957242,-1225.2175414144363,-2486.024189167498
208812.0,4876.0,208812.0,12901.0,208812.0,30426.0,-1690.4053593556146,-1202.9041470278225,-2442.110604672645
208812.0,4922.0,208812.0,12970.0,208812.0,30432.0,-1661.9205876669898,-1179.3721610288442,-2395.7300097537973
208822.0,4991.0,208822.0,13014.0,208822.0,30548.0,-1631.8336292252168,-1154.6306763861405,-2346.8893130705596
208822.0,5025.0,208822.0,13073.0,208822.0,30609.0,-1600.1602888754642,-1128.6935807055704,-2295.603043550031
208822.0,5090.0,208822.0,13087.0,208822.0,30633.0,-1566.9216926502909,-1101.5787646945719,-2241.8929113088197
208822.0,5135.0,208822.0,13153.0,208822.0,30681.0,-1532.1436803415659,-1073.307519252469,-2185.7875391299804
208822.0,5182.0,208822.0,13208.0,208822.0,30791.0,-1495.8562672255055,-1043.904047757636,-2127.3226248408882
208822.0,5222.0,208822.0,13272.0,208822.0,30942.0,-1458.0932166027737,-1013.3947893080756,-2066.5407160734085
208832.0,5250.0,208832.0,13289.0,208832.0,30912.0,-1418.8918172948513,-981.8076047525838,-2003.4902238793984
208832.0,5273.0,208832.0,13256.0,208832.0,31001.0,-1378.2929257101248,-949.1713548733323,-1938.2246877018488
208832.0,5291.0,208832.0,13233.0,208832.0,31036.0,-1336.3413036427903,-915.5164182416581,-1870.8030004523257
208832.0,5345.0,208832.0,13265.0,208832.0,31106.0,-1293.086141188073,-880.8760203042224,-1801.2900091174126
208832.0,5400.0,208832.0,13335.0,208832.0,31208.0,-1248.5814557047793,-845.2874519028029,-1729.7568960185588
208832.0,5462.0,208832.0,13393.0,208832.0,31289.0,-1202.8861243969823,-808.7923889047714,-1656.2811827806588
208843.0,5551.0,208843.0,13490.0,208843.0,31414.0,-1156.0635528042662,-771.4363339856939,-1580.9463182636628
208843.0,5627.0,208843.0,13483.0,208843.0,31484.0,-1108.1810238362223,-733.2677094270787,-1503.8410098361164
208843.0,5694.0,208843.0,13540.0,208843.0,31555.0,-1059.3088204142134,-694.3372369302682,-1425.058629196343
208843.0,5765.0,208843.0,13641.0,208843.0,31687.0,-1009.519372510363,-654.6977081143508,-1344.6968983057252
208843.0,5847.0,208843.0,13735.0,208843.0,31812.0,-958.8865416642786,-614.4034236141097,-1262.8574942061578
208843.0,5881.0,208843.0,13748.0,208843.0,31924.0,-907.4849940899624,-573.5090339656457,-1179.6451506427927
208853.0,5924.0,208853.0,13791.0,208853.0,31984.0,-855.3898239026717,-532.0685960855822,-1095.1666073481142
208853.0,5977.0,208853.0,13761.0,208853.0,32028.0,-802.6765940364289,-490.13550533358034,-1009.5301483212561
208853.0,6004.0,208853.0,13769.0,208853.0,32127.0,-749.4216284911691,-447.7632649750815,-922.8459502704743
208853.0,6080.0,208853.0,13831.0,208853.0,32205.0,-695.7023389366516,-405.0066622708274,-835.2267074819235
208853.0,6103.0,208853.0,13886.0,208853.0,32373.0,-641.5974961683069,-361.92260471163297,-746.7878455107225
208853.0,6247.0,208853.0,13974.0,208853.0,32459.0,-587.1872961647489,-318.5701430809371,-657.6470448034768
208863.0,6302.0,208863.0,14059.0,208863.0,32525.0,-532.552938915197,-275.0098150830336,-567.9234610824369
208863.0,6370.0,208863.0,14094.0,208863.0,32648.0,-477.7757720578818,-231.3026698712447,-477.7373247140076
208863.0,6453.0,208863.0,14132.0,208863.0,32762.0,-422.9365147729727,-187.50948149768055,-387.20984031799935
208863.0,6555.0,208863.0,14239.0,208863.0,32929.0,-368.1146442950426,-143.690367873254,-296.46270274698645
208863.0,6579.0,208863.0,14302.0,208863.0,33017.0,-313.38768137442844,-99.90431746176318,-205.6170433707489
208863.0,6632.0,208863.0,14334.0,208863.0,33110.0,-258.8306696008535,-56.20837486999312,-114.79232686660589
208874.0,6684.0,208874.0,14322.0,208874.0,33192.0,-204.51618201316614,-12.657135062238012,-24.10578147034994
208874.0,6721.0,208874.0,14336.0,208874.0,33257.0,-150.51460161682462,30.696868773001142,66.32757642786919
208874.0,6770.0,208874.0,14375.0,208874.0,33339.0,-96.89442655363291,73.80216880392345,156.39456595078855
208874.0,6829.0,208874.0,14408.0,208874.0,33417.0,-43.722579417275256,116.60745950967134,245.98331775646648
208874.0,6907.0,208874.0,14491.0,208874.0,33570.0,8.935437342727937,159.06118027109278,334.98292787285936
208874.0,6980.0,208874.0,14595.0,208874.0,33638.0,61.015732335411485,201.11173705103397,423.28361678019473
208884.0,7061.0,208884.0,14638.0,208884.0,33781.0,112.45654435122378,242.70839114551313,510.777284016925
208884.0,7134.0,208884.0,14647.0,208884.0,33858.0,163.1989420088828,283.80224598491486,597.3581259354432
208884.0,7180.0,208884.0,14712.0,208884.0,33979.0,213.1875197432987,324.3466172284118,682.9232088089389
208884.0,7260.0,208884.0,14845.0,208884.0,34123.0,262.37092407329806,364.29714593161384,767.3731079773088
208884.0,7268.0,208884.0,14855.0,208884.0,34229.0,310.7021573039183,403.61251233094254,850.6128410006208
208884.0,7315.0,208884.0,14852.0,208884.0,34294.0,358.13858140593743,442.2553570545954,932.5529482853649
208894.0,7323.0,208894.0,14825.0,208894.0,34309.0,404.6415325368919,480.1922393660675,1013.1099936992982
208894.0,7358.0,208894.0,14852.0,208894.0,34376.0,450.17566295072334,517.3925162829644,1092.2060489347723
208894.0,7408.0,208894.0,14915.0,208894.0,34471.0,494.7082584595771,553.8271089856942,1169.767684436873
208894.0,7454.0,208894.0,14954.0,208894.0,34564.0,538.2087916465262,589.4679710640423,1245.7253740462534
208894.0,7525.0,208894.0,15008.0,208894.0,34676.0,580.6488474929765,624.2882433692848,1320.0136314561523
208894.0,7589.0,208894.0,15042.0,208894.0,34731.0,622.00239813506,658.2626248616662,1392.5715448125075
208905.0,7646.0,208905.0,15088.0,208905.0,34814.0,662.2463426781917,691.3676931951054,1463.3432319658473
208905.0,7689.0,208905.0,15157.0,208905.0,34904.0,701.3611064950849,723.5822264527978,1532.2780503868153
208905.0,7738.0,208905.0,15191.0,208905.0,34991.0,739.3310842183032,754.8876826189987,1599.33083271841
208905.0,7771.0,208905.0,15267.0,208905.0,35070.0,776.1448946837115,785.2688455681621,1664.4623378196711
208905.0,7775.0,208905.0,15272.0,208905.0,35149.0,811.7954301215689,814.7144823430888,1727.6397750871083
208905.0,7791.0,208905.0,15262.0,208905.0,35148.0,846.2795583126745,843.2176985370095,1788.8371220356444
208915.0,7790.0,208915.0,15211.0,208915.0,35204.0,879.5974556926237,870.7755266925503,1848.0349022984346
208915.0,7818.0,208915.0,15240.0,208915.0,35235.0,911.7517779429545,897.3877034328796,1905.219451214095
208915.0,7858.0,208915.0,15233.0,208915.0,35279.0,942.7469594989209,923.0552891037344,1960.3821148722695
208915.0,7907.0,208915.0,15314.0,208915.0,35333.0,972.588904989392,947.779813975623,2013.5186360496855
208915.0,7967.0,208915.0,15339.0,208915.0,35382.0,1001.2851594982121,971.5631816945274,2064.628747577759
208915.0,7990.0,208915.0,15375.0,208915.0,35468.0,1028.8453955653981,994.4081113797042,2113.7160421053413
208925.0,8020.0,208925.0,15396.0,208925.0,35488.0,1055.2818827735473,1016.3186285701827,2160.788120304728
208925.0,8057.0,208925.0,15431.0,208925.0,35553.0,1080.6097230708833,1037.3003519674876,2205.856790760813
208925.0,8084.0,208925.0,15502.0,208925.0,35654.0,1104.846966789451,1057.3607903586487,2248.9382605961227
208925.0,8089.0,208925.0,15512.0,208925.0,35664.0,1128.014706013697,1076.5099085731076,2290.053585611953
208925.0,8084.0,208925.0,15479.0,208925.0,35645.0,1150.136954493753,1094.7606627195312,2329.22905765784
208925.0,8062.0,208925.0,15518.0,208925.0,35670.0,1171.2401130840512,1112.1289417879443,2366.495787878721
208936.0,8081.0,208936.0,15441.0,208936.0,35674.0,1191.3520948236392,1128.6329435366713,2401.888650951726
208936.0,8091.0,208936.0,15466.0,208936.0,35697.0,1210.5014649974687,1144.2922492710354,2435.4452753703154
208936.0,8127.0,208936.0,15472.0,208936.0,35726.0,1228.7169332553467,1159.126801339689,2467.2053033067086
208936.0,8127.0,208936.0,15560.0,208936.0,35754.0,1246.0272029509701,1173.1563655636994,2497.2099067161907
208936.0,8187.0,208936.0,15533.0,208936.0,35805.0,1262.4610067908447,1186.4008118783886,2525.5015847280083
208936.0,8213.0,208936.0,15537.0,208936.0,35808.0,1278.0473440606293,1198.8806013909548,2552.1241823179453
208946.0,8219.0,208946.0,15568.0,208946.0,35832.0,1292.8159205263064,1210.6168336470762,2577.1229022432317
208946.0,8237.0,208946.0,15638.0,208946.0,35925.0,1306.7974784215698,1221.6312278341782,2600.5442825238033
208946.0,8261.0,208946.0,15622.0,208946.0,35920.0,1320.023865807912,1231.946616023367,2622.4365002613577
208946.0,8253.0,208946.0,15636.0,208946.0,35955.0,1332.5280304992875,1241.587579430449,2642.849925418901
208946.0,8224.0,208946.0,15584.0,208946.0,35916.0,1344.3438666981765,1250.5805429404086,2661.837309821476
208946.0,8210.0,208946.0,15545.0,208946.0,35906.0,1355.505629967798,1258.9531308041787,2679.4533163182596
208957.0,8210.0,208957.0,15540.0,208957.0,35874.0,1366.0470226688267,1266.7329850383758,2695.753511886643
208957.0,8237.0,208957.0,15561.0,208957.0,35866.0,1376.0004162490745,1273.9466163424356,2710.793110301478
208957.0,8244.0,208957.0,15569.0,208957.0,35917.0,1385.3965209651533,1280.6188431804967,2724.62588960311
208957.0,8284.0,208957.0,15623.0,208957.0,35958.0,1394.264451407962,1286.7728546106675,2737.303780435704
208957.0,8309.0,208957.0,15650.0,208957.0,35944.0,1402.632051255648,1292.430730118687,2748.8771680534464
208957.0,8330.0,208957.0,15576.0,208957.0,35944.0,1410.5263994124584,1297.6140595300308,2759.3952202834303
208967.0,8328.0,208967.0,15652.0,208967.0,35980.0,1417.9742983079132,1302.344083501554,2768.9058087700823
208967.0,8341.0,208967.0,15690.0,208967.0,36036.0,1425.0025188475051,1306.6416351911305,2777.4555015383216
208967.0,8336.0,208967.0,15714.0,208967.0,36046.0,1431.637803173724,1310.5277101181,2785.0900968587484
208967.0,8320.0,208967.0,15673.0,208967.0,36016.0,1437.9067012781638,1314.0243539090766,2791.855298238476
208967.0,8302.0,208967.0,15570.0,208967.0,35973.0,1443.8351839445168,1317.1547380133327,2797.7967458809608
208967.0,8287.0,208967.0,15561.0,208967.0,35943.0,1449.448008915046,1319.9419572257457,2802.959180536416
208977.0,8295.0,208977.0,15583.0,208977.0,35955.0,1454.7680195661187,1322.4073557488464,2807.385250285414
208977.0,8275.0,208977.0,15581.0,208977.0,35993.0,1459.8155817268125,1324.569575062896,2811.1147076057496
208977.0,8332.0,208977.0,15615.0,208977.0,36016.0,1464.6082591017353,1326.4445030424556,2814.184400104866
208977.0,8354.0,208977.0,15642.0,208977.0,36005.0,1469.1609027124982,1328.0456602931986,2816.6287763925307
208977.0,8370.0,208977.0,15629.0,208977.0,36001.0,1473.4862084340348,1329.384764158683,2818.4802664113695
208977.0,8379.0,208977.0,15660.0,208977.0,35998.0,1477.595361685957,1330.4722250864672,2819.769259888881
208988.0,8417.0,208988.0,15718.0,208988.0,36062.0,1481.4984916162998,1331.3175931838693,2820.5240279233035
208988.0,8425.0,208988.0,15746.0,208988.0,36053.0,1485.2051023816116,1331.9303674587277,2820.771058252055
208988.0,8374.0,208988.0,15688.0,208988.0,36036.0,1488.72443262569,1332.3209994597034,2820.535637346909
208988.0,8369.0,208988.0,15637.0,208988.0,36003.0,1492.0652935872,1332.5011661640785,2819.842010654874
208988.0,8368.0,208988.0,15582.0,208988.0,35958.0,1495.2353936404838,1332.4828665595014,2818.7128530429886
208988.0,8349.0,208988.0,15575.0,208988.0,35957.0,1498.240685282336,1332.27691831571,2817.1683400918223
208998.0,8361.0,208998.0,15568.0,208998.0,35923.0,1501.0849367019046,1331.891683904336,2815.2252323619973
208998.0,8370.0,208998.0,15628.0,208998.0,35982.0,1503.7694609713967,1331.3325034349957,2812.896299842859
208998.0,8418.0,208998.0,15653.0,208998.0,35992.0,1506.293144404799,1330.6019857276508,2810.1903450919103
208998.0,8471.0,208998.0,15621.0,208998.0,35997.0,1508.6529845123914,1329.7008174651899,2807.1127841842917
208998.0,8454.0,208998.0,15650.0,208998.0,35980.0,1510.8450444935254,1328.6283577517793,2803.6662468804043
208998.0,8436.0,208998.0,15682.0,208998.0,35985.0,1512.8652152201362,1327.3828986502076,2799.8507870456765
209007.0,8502.0,209007.0,15702.0,209007.0,36068.0,1514.7094144937946,1325.9621401419645,2795.664035128437
209007.0,8457.0,209007.0,15691.0,209007.0,36063.0,1516.3736790446121,1324.363926106252,2791.1018957622027
209007.0,8456.0,209007.0,15664.0,209007.0,36057.0,1517.854323446379,1322.5867051026262,2786.1596246210124
209007.0,8426.0,209007.0,15650.0,209007.0,35999.0,1519.147733006292,1320.629426633333,2780.832412433505
209007.0,8412.0,209007.0,15583.0,209007.0,35981.0,1520.249766472555,1318.4909721020545,2775.1150756132556
209007.0,8422.0,209007.0,15594.0,209007.0,35987.0,1521.1551228396058,1316.1692864591357,2769.0013150769805
209018.0,8431.0,209018.0,15598.0,209018.0,35988.0,1521.856955718664,1313.6605627111644,2762.4832355429594
209018.0,8456.0,209018.0,15675.0,209018.0,35999.0,1522.346881162946,1310.95906827533,2755.5513683723234
209018.0,8472.0,209018.0,15679.0,209018.0,35986.0,1522.6153184626935,1308.057860199544,2748.194955369819
209018.0,8487.0,209018.0,15630.0,209018.0,35999.0,1522.6519982370282,1304.9497964801685,2740.4022348180356
209018.0,8500.0,209018.0,15628.0,209018.0,36000.0,1522.446484327705,1301.627910761563,2732.160707833772
209018.0,8532.0,209018.0,15734.0,209018.0,36081.0,1521.9886733966848,1298.0853064705054,2723.4576262492587
209028.0,8527.0,209028.0,15734.0,209028.0,36073.0,1521.2693312492277,1294.3157119843197,2714.280979668085
209028.0,8500.0,209028.0,15720.0,209028.0,36040.0,1520.2805063327046,1290.3147415710905,2704.6206542576483
209028.0,8479.0,209028.0,15622.0,209028.0,35989.0,1519.0154867967008,1286.0805630698176,2694.4689116747554
209028.0,8481.0,209028.0,15602.0,209028.0,35996.0,1517.4683337560095,1281.6132418873121,2683.819994173263
209028.0,8464.0,209028.0,15575.0,209028.0,35935.0,1515.633391678788,1276.913362424209,2672.6694774327343
209028.0,8421.0,209028.0,15476.0,209028.0,36000.0,1513.5048853840992,1271.980693936256,2661.0138529511996
209038.0,8498.0,209038.0,15606.0,209038.0,35945.0,1511.0765269417634,1266.8131214195635,2648.850512171151
209038.0,8494.0,209038.0,15662.0,209038.0,35912.0,1508.341517175358,1261.40651544012,2636.1779179449595
209038.0,8532.0,209038.0,15663.0,209038.0,35912.0,1505.2931949387107,1255.7560833328978,2622.995463570778
209038.0,8525.0,209038.0,15621.0,209038.0,35926.0,1501.9258810696915,1249.8580058758664,2609.303195517367
209038.0,8528.0,209038.0,15651.0,209038.0,35935.0,1498.2354861782176,1243.7100765418406,2595.101992811357
209038.0,8535.0,209038.0,15661.0,209038.0,35923.0,1494.2198480430923,1237.3117744923093,2580.394162612157
209049.0,8520.0,209049.0,15650.0,209049.0,35945.0,1489.878910051889,1230.6645565824122,2565.184071484094
209049.0,8504.0,209049.0,15603.0,209049.0,35880.0,1485.2147690862255,1223.7721680444467,2549.4786261039067
209049.0,8477.0,209049.0,15572.0,209049.0,35853.0,1480.2314896479577,1216.6404314707922,2533.2873766030543
209049.0,8436.0,209049.0,15494.0,209049.0,35822.0,1474.9346295247508,1209.2764310083428,2516.6221128060615
209049.0,8427.0,209049.0,15516.0,209049.0,35779.0,1469.3305416327382,1201.6873870515617,2499.496246502324
209049.0,8436.0,209049.0,15497.0,209049.0,35758.0,1463.4257210233077,1193.8797514348469,2481.9242404406455
209059.0,8439.0,209059.0,15557.0,209059.0,35737.0,1457.2265489862866,1185.8590045481233,2463.92113016962
209059.0,8457.0,209059.0,15563.0,209059.0,35751.0,1450.739478567788,1177.630206787812,2445.502294091225
209059.0,8462.0,209059.0,15520.0,209059.0,35743.0,1443.9714629731009,1169.1988508487548,2426.683631120063
209059.0,8485.0,209059.0,15513.0,209059.0,35722.0,1436.9304951007873,1160.5712982898935,2407.4820179565404
209059.0,8481.0,209059.0,15594.0,209059.0,35769.0,1429.6261992895304,1151.7548204271363,2387.9158289181505
209059.0,8454.0,209059.0,15583.0,209059.0,35762.0,1422.0703110919765,1142.758103422016,2368.005645269649
209069.0,8411.0,209069.0,15541.0,209069.0,35694.0,1414.2767391796224,1133.5922132763221,2347.775092736844
209069.0,8403.0,209069.0,15475.0,209069.0,35600.0,1406.2611159098926,1124.2709357320393,2327.2510132344673
209069.0,8356.0,209069.0,15394.0,209069.0,35582.0,1398.0401255043528,1114.8099544325173,2306.4625511358054
209069.0,8331.0,209069.0,15368.0,209069.0,35529.0,1389.6308177865874,1105.2252959379334,2285.4398756937044
209069.0,8318.0,209069.0,15441.0,209069.0,35519.0,1381.0499089766138,1095.5319861828825,2264.213305675245
209069.0,8322.0,209069.0,15348.0,209069.0,35490.0,1372.3132430418175,1085.7436747448314,2242.8128898890836
209080.0,8356.0,209080.0,15392.0,209080.0,35474.0,1363.4357024635788,1075.872813608455,2221.2682604987713
209080.0,8339.0,209080.0,15430.0,209080.0,35422.0,1354.431612431593,1065.9308334633351,2199.608571972132
209080.0,8345.0,209080.0,15396.0,209080.0,35420.0,1345.3153101394955,1055.9286490171748,2177.862346623626
209080.0,8333.0,209080.0,15388.0,209080.0,35440.0,1336.1015265863844,1045.8773371217394,2156.0574038953773
209080.0,8340.0,209080.0,15439.0,209080.0,35454.0,1326.8055925578578,1035.7885016590265,2134.221301480456
209080.0,8332.0,209080.0,15385.0,209080.0,35413.0,1317.4436362754475,1025.6746263554792,2112.3822185757817
209090.0,8294.0,209090.0,15378.0,209090.0,35346.0,1308.0327337662864,1015.54945561747,2090.569549801752
209090.0,8243.0,209090.0,15325.0,209090.0,35289.0,1298.5907281114814,1005.4279193130288,2068.813638183231
209090.0,8230.0,209090.0,15284.0,209090.0,35240.0,1289.1355753656298,995.325550463905,2047.1448324255655
209090.0,8199.0,209090.0,15239.0,209090.0,35207.0,1279.6845322795793,985.2576017920983,2025.5924402270925
209090.0,8177.0,209090.0,15247.0,209090.0,35183.0,1270.2535130995525,975.2381055006507,2004.1839530716104
