c_ts,c_val,d_ts,d_val,e_ts,e_val,c_val_filtered,d_val_filtered,e_val_filtered
70107,7163,70107.0,37717.0,70107.0,32280.0,-26.34510539070061,-55.50232875829195,-77.29726743651419
70107,7146,70107.0,37700.0,70107.0,32272.0,-28.59552417994183,-55.868168174381154,-79.33518883282503
70117,7149,70117.0,37732.0,70117.0,32275.0,-30.907880085791344,-56.27073058086168,-81.41355057153969
70117,7152,70117.0,37738.0,70117.0,32269.0,-33.279417539977615,-56.712577296529254,-83.53048328133961
70117,7155,70117.0,37737.0,70117.0,32262.0,-35.70749407491732,-57.195859775973794,-85.68424033852357
70117,7150,70117.0,37718.0,70117.0,32274.0,-38.18947663075947,-57.722069693659435,-87.87324745197307
70117,7141,70117.0,37713.0,70117.0,32269.0,-40.722668519722944,-58.29210143562783,-90.09609449230385
70117,7138,70117.0,37725.0,70117.0,32264.0,-43.30435213013355,-58.90649338500274,-92.35145949784301
70128,7152,70128.0,37720.0,70128.0,32270.0,-45.9318604379853,-59.56555453152609,-94.63806406589484
70128,7145,70128.0,37731.0,70128.0,32261.0,-48.60252765922629,-60.26931162696262,-96.95466826770802
70128,7133,70128.0,37719.0,70128.0,32266.0,-51.31357174664501,-61.01741246540971,-99.30005858349276
70128,7129,70128.0,37714.0,70128.0,32261.0,-54.06210511919605,-61.80910873502499,-101.67303496900269
70128,7117,70128.0,37686.0,70128.0,32247.0,-56.84529192744712,-62.64341154313412,-104.07242542510309
70128,7124,70128.0,37691.0,70128.0,32245.0,-59.66051635837717,-63.519433802329296,-106.49718679639582
70138,7123,70138.0,37701.0,70138.0,32258.0,-62.50545481275525,-64.43672320477329,-108.94653921894788
70138,7122,70138.0,37722.0,70138.0,32258.0,-65.37802977831701,-65.39530248949029,-111.41995211551085
70138,7130,70138.0,37718.0,70138.0,32241.0,-68.27630416252552,-66.39538868472957,-113.91700807186122
70138,7111,70138.0,37697.0,70138.0,32243.0,-71.19838293647784,-67.4371070268957,-116.43737733955624
70138,7109,70138.0,37703.0,70138.0,32238.0,-74.14240512655785,-68.5204909667775,-118.98093333463713
70138,7112,70138.0,37722.0,70138.0,32238.0,-77.10664240529476,-69.64562255247158,-121.54784724479387
70148,7107,70148.0,37718.0,70148.0,32249.0,-80.08956672869971,-70.8125732032164,-124.13858484690208
70148,7118,70148.0,37726.0,70148.0,32257.0,-83.08980612717016,-72.02116308579079,-126.7537771975262
70148,7112,70148.0,37700.0,70148.0,32242.0,-86.10602715092442,-73.27081027125396,-129.39400161016135
70148,7089,70148.0,37694.0,70148.0,32235.0,-89.13684924924047,-74.56062752898218,-132.05966920145434
70148,7087,70148.0,37686.0,70148.0,32233.0,-92.18094695358236,-75.88972225382778,-134.7511181510207
70148,7099,70148.0,37700.0,70148.0,32236.0,-95.23726503102588,-77.25747491892095,-137.46875076373655
70159,7088,70159.0,37722.0,70159.0,32239.0,-98.30508356635166,-78.66355323424624,-140.21305040138552
70159,7102,70159.0,37718.0,70159.0,32244.0,-101.38391276924041,-80.10762155648007,-142.9844762465595
70159,7089,70159.0,37709.0,70159.0,32241.0,-104.47336323860063,-81.58899852850189,-145.78330671449015
70159,7083,70159.0,37676.0,70159.0,32226.0,-107.57307467415147,-83.10660901802052,-148.6095367330118
70159,7080,70159.0,37683.0,70159.0,32215.0,-110.68275364196982,-84.65930323140996,-151.46294423429492
70159,7094,70159.0,37699.0,70159.0,32227.0,-113.8022354098644,-86.24621721615449,-154.3432833596536
70169,7087,70169.0,37709.0,70169.0,32230.0,-116.93141201253523,-87.86679027936037,-157.25037367920947
70169,7070,70169.0,37706.0,70169.0,32224.0,-120.07010547780646,-89.52047172926999,-160.18399234253855
70169,7069,70169.0,37691.0,70169.0,32215.0,-123.21810073232692,-91.20647515810899,-163.14375939592622
70169,7067,70169.0,37678.0,70169.0,32210.0,-126.37530783676866,-92.92381301361108,-166.12917412400327
70169,7066,70169.0,37681.0,70169.0,32204.0,-129.5418592796338,-94.67154470200333,-169.13974778745865
70169,7079,70169.0,37690.0,70169.0,32208.0,-132.71807352541578,-96.44898123983519,-172.1751174196831
70179,7070,70179.0,37703.0,70179.0,32203.0,-135.9043131455586,-98.25564613498524,-175.2350820088264
70179,7060,70179.0,37690.0,70179.0,32195.0,-139.1008468044732,-100.09104918343544,-178.31959547922241
70179,7064,70179.0,37664.0,70179.0,32191.0,-142.30784258470734,-101.95456663767763,-181.4288055216809
70179,7043,70179.0,37668.0,70179.0,32194.0,-145.52546026369683,-103.84563620581234,-184.56313422593556
70179,7058,70179.0,37682.0,70179.0,32201.0,-148.75395551620446,-105.76404833830088,-187.72328718161282
70179,7050,70179.0,37705.0,70179.0,32198.0,-151.99373127734378,-107.70993109872718,-190.91013841749242
70190,7056,70190.0,37690.0,70190.0,32199.0,-155.2452836410565,-109.68340029355485,-194.12457412974373
70190,7044,70190.0,37670.0,70190.0,32189.0,-158.50910906431778,-111.68427555551898,-197.36740040573835
70190,7031,70190.0,37653.0,70190.0,32181.0,-161.78570237980261,-113.7121983159614,-200.63935943752426
70190,7041,70190.0,37667.0,70190.0,32185.0,-165.07566786190563,-115.76701203448746,-203.94122586660455
70190,7035,70190.0,37656.0,70190.0,32177.0,-168.37980571671687,-117.84902221105975,-207.27388609639473
70190,7047,70190.0,37691.0,70190.0,32201.0,-171.6990566004243,-119.95897428512956,-210.63830947921446
70200,7035,70200.0,37711.0,70200.0,32179.0,-175.03435878131992,-122.0977352459881,-214.03539718330595
70200,7043,70200.0,37679.0,70200.0,32179.0,-178.38652315004902,-124.26578214411487,-217.46584227528552
70200,7025,70200.0,37656.0,70200.0,32164.0,-181.75617664251723,-126.46295281666181,-220.93016491068033
70200,7016,70200.0,37661.0,70200.0,32174.0,-185.1438125006856,-128.68872594428052,-224.42885785085025
70200,7038,70200.0,37689.0,70200.0,32182.0,-188.54990687622112,-130.9425690355742,-227.96242979800815
70200,7030,70200.0,37701.0,70200.0,32180.0,-191.97490546013464,-133.2238241396833,-231.5312574883993
70210,7023,70210.0,37687.0,70210.0,32171.0,-195.4190538151802,-135.53125070448937,-235.1353841411386
70210,7004,70210.0,37655.0,70210.0,32163.0,-198.8823385283547,-137.86276593770106,-238.7744585289621
70210,7009,70210.0,37647.0,70210.0,32151.0,-202.36464440919872,-140.21568019915287,-242.44784300201292
70210,7006,70210.0,37645.0,70210.0,32149.0,-205.86593143270193,-142.58718666722672,-246.15479738364115
70210,7011,70210.0,37644.0,70210.0,32161.0,-209.38626346042986,-144.97470668853933,-249.89460721484613
70210,7003,70210.0,37669.0,70210.0,32153.0,-212.92572516747666,-147.3759431656419,-253.66654708883578
70221,7000,70221.0,37651.0,70221.0,32156.0,-216.4843526442257,-149.78870075251243,-257.46973981029174
70221,6997,70221.0,37628.0,70221.0,32143.0,-220.06213231138605,-152.21072792140524,-261.3030672298166
70221,6980,70221.0,37635.0,70221.0,32132.0,-223.65905600501736,-154.63984810326613,-265.16520563636215
70221,6991,70221.0,37648.0,70221.0,32137.0,-227.27521806523387,-157.0741917677304,-269.05475741104857
70221,6985,70221.0,37657.0,70221.0,32149.0,-230.91087955032614,-159.51215107669915,-272.97032113379146
70221,7001,70221.0,37649.0,70221.0,32146.0,-234.56639838708378,-161.95209562263227,-276.9103565035709
70231,6989,70231.0,37648.0,70231.0,32135.0,-238.24204568707634,-164.39215083990655,-280.87296756530634
70231,6976,70231.0,37638.0,70231.0,32120.0,-241.93786404544346,-166.8301646146855,-284.8558511881208
70231,6974,70231.0,37619.0,70231.0,32118.0,-245.6537074512696,-169.26382572761298,-288.85645537820375
70231,6960,70231.0,37642.0,70231.0,32117.0,-249.38941019123098,-171.69085729605197,-292.87217345930924
70231,6966,70231.0,37634.0,70231.0,32120.0,-253.1449430892599,-174.10910113019642,-296.90041230371094
70231,6972,70231.0,37636.0,70231.0,32114.0,-256.9204660184032,-176.51641415054848,-300.93853671996874
70241,6969,70241.0,37634.0,70241.0,32110.0,-260.71623013974806,-178.91054692909486,-304.98379936197716
70241,6958,70241.0,37626.0,70241.0,32118.0,-264.53243104996477,-181.28911168140974,-309.0333048140166
70241,6959,70241.0,37611.0,70241.0,32104.0,-268.3691706804798,-183.64964383004772,-313.0839613956594
70241,6968,70241.0,37645.0,70241.0,32109.0,-272.22647532622995,-185.9897066225219,-317.1324288752535
70241,6965,70241.0,37640.0,70241.0,32115.0,-276.10420992774056,-188.30682032168238,-321.17507635840553
70241,6959,70241.0,37631.0,70241.0,32100.0,-280.00191693883187,-190.59818973987672,-325.2078978432795
70252,6944,70252.0,37612.0,70252.0,32090.0,-283.9187538252889,-192.86057625457175,-329.2264665092762
70252,6948,70252.0,37595.0,70252.0,32096.0,-287.8535818265014,-195.09051272030885,-333.2260250066331
70252,6926,70252.0,37605.0,70252.0,32090.0,-291.8051108917052,-197.28468126853335,-337.2015783237432
70252,6947,70252.0,37634.0,70252.0,32093.0,-295.772015829682,-199.44009995271412,-341.1478740330629
70252,6948,70252.0,37621.0,70252.0,32100.0,-299.7529245501578,-201.55391799627955,-345.0593085272603
70252,6940,70252.0,37613.0,70252.0,32091.0,-303.7462359420698,-203.6230888950967,-348.92978977215483
70262,6936,70262.0,37609.0,70262.0,32077.0,-307.74994956916373,-205.64429788054886,-352.75264377851215
70262,6929,70262.0,37599.0,70262.0,32072.0,-311.76165294396054,-207.6141114632313,-356.5206884368374
70262,6925,70262.0,37617.0,70262.0,32076.0,-315.7785915678247,-209.52911643579128,-360.2264000521168
70262,6927,70262.0,37643.0,70262.0,32083.0,-319.7977246761167,-211.38584809670618,-363.8619663900127
70262,6921,70262.0,37632.0,70262.0,32088.0,-323.8157283260915,-213.18043090534917,-367.41914957566564
70262,6927,70262.0,37604.0,70262.0,32069.0,-327.8289479493991,-214.90824333628996,-370.8890886166347
70273,6910,70273.0,37597.0,70273.0,32061.0,-331.83334297505,-216.56400775623902,-374.2622583551804
70273,6901,70273.0,37583.0,70273.0,32048.0,-335.8245086373353,-218.14221642843617,-377.5286539427244
70273,6906,70273.0,37589.0,70273.0,32050.0,-339.79780343069035,-219.63753358872412,-380.67805341061774
70273,6909,70273.0,37615.0,70273.0,32068.0,-343.74843259769557,-221.04494710971431,-383.7001502147114
70273,6904,70273.0,37621.0,70273.0,32042.0,-347.67137649511426,-222.35957278513283,-386.5844852519622
70273,6921,70273.0,37604.0,70273.0,32051.0,-351.56123482364046,-223.57627936635868,-389.3203628401023
70283,6894,70283.0,37596.0,70283.0,32058.0,-355.4120678341494,-224.68952508978805,-391.89686635050396
70283,6900,70283.0,37611.0,70283.0,32060.0,-359.21732980154036,-225.69347871623586,-394.3028038482961
70283,6888,70283.0,37620.0,70283.0,32054.0,-362.96994555174456,-226.58208730096362,-396.5265456428207
70283,6904,70283.0,37606.0,70283.0,32061.0,-366.6623885929399,-227.34893707984276,-398.5559119612553
70283,6885,70283.0,37613.0,70283.0,32044.0,-370.28664572726086,-227.9871302766933,-400.3781515969199
70283,6877,70283.0,37590.0,70283.0,32045.0,-373.83418373789215,-228.48933791322042,-401.98000180741553
70293,6870,70293.0,37577.0,70293.0,32031.0,-377.2960620940114,-228.8480227724114,-403.3478420157088
70293,6871,70293.0,37579.0,70293.0,32043.0,-380.66311707052,-229.05579632165228,-404.4678729341781
70293,6881,70293.0,37599.0,70293.0,32048.0,-383.9260354352583,-229.10570139169909,-405.32619203161295
70293,6867,70293.0,37623.0,70293.0,32041.0,-387.07527954832756,-228.99114359815434,-405.90872733730396
70293,6868,70293.0,37597.0,70293.0,32044.0,-390.1010038112396,-228.7055364894647,-406.2011615731665
70293,6862,70293.0,37598.0,70293.0,32022.0,-392.99307003180314,-228.24207752308433,-406.188984681272
70304,6858,70304.0,37596.0,70304.0,32034.0,-395.74111345378503,-227.593855432368,-405.8576792559679
70304,6862,70304.0,37593.0,70304.0,32032.0,-398.33459299572985,-226.754058499904,-405.19291590018486
70304,6864,70304.0,37624.0,70304.0,32041.0,-400.762787582748,-225.7160471835448,-404.18061933624097
70304,6870,70304.0,37614.0,70304.0,32040.0,-403.0147065327137,-224.47322250793337,-402.8069219223679
70304,6850,70304.0,37603.0,70304.0,32034.0,-405.078981127023,-223.018836144417,-401.05813049988916
70304,6837,70304.0,37597.0,70304.0,32024.0,-406.94390973760744,-221.34602976110114,-398.9208142755911
70314,6840,70314.0,37594.0,70314.0,32034.0,-408.5977074694674,-219.4481099314294,-396.38201620373246
70314,6849,70314.0,37620.0,70314.0,32040.0,-410.0287380854829,-217.31877752299468,-393.42943247262474
70314,6850,70314.0,37634.0,70314.0,32042.0,-411.2255221728219,-214.95207905315237,-390.0514451601004
70314,6829,70314.0,37605.0,70314.0,32036.0,-412.1766453727372,-212.34216318706956,-386.2371116631335
70314,6844,70314.0,37597.0,70314.0,32038.0,-412.87079572460885,-209.48325540950202,-381.97625698343313
70314,6829,70314.0,37599.0,70314.0,32030.0,-413.29689811313887,-206.3700109318847,-377.25967326766954
70324,6827,70324.0,37599.0,70324.0,32033.0,-413.4442308308813,-202.9979161515241,-372.0793682398919
70324,6838,70324.0,37621.0,70324.0,32050.0,-413.3025367541769,-199.36346562853248,-366.4287838943476
70324,6841,70324.0,37657.0,70324.0,32070.0,-412.8620667421987,-195.4640418696204,-360.30284201960217
70324,6832,70324.0,37630.0,70324.0,32068.0,-412.11351916292733,-191.29754660209318,-353.6977864085602
70324,6833,70324.0,37621.0,70324.0,32058.0,-411.0480316869714,-186.86217015526813,-346.61106274055123
70324,6816,70324.0,37606.0,70324.0,32063.0,-409.6573227873471,-182.1566430495223,-339.0414629123451
70335,6836,70335.0,37605.0,70335.0,32064.0,-407.9339063281948,-177.180779618526,-330.98944080656327
70335,6833,70335.0,37654.0,70335.0,32080.0,-405.8712257046666,-171.93587050479692,-322.4573728752272
70335,6829,70335.0,37660.0,70335.0,32102.0,-403.46366325174586,-166.4246083297956,-313.4496441194021
70335,6843,70335.0,37658.0,70335.0,32114.0,-400.7065485789931,-160.650678037498,-303.9725411717542
70335,6846,70335.0,37653.0,70335.0,32112.0,-397.59617815415993,-154.61851573210328,-294.0340838808108
70335,6846,70335.0,37654.0,70335.0,32115.0,-394.12977747959474,-148.33343219272354,-283.6440178019352
70345,6854,70345.0,37674.0,70345.0,32135.0,-390.30547276307584,-141.80184593170227,-272.8139855470008
70345,6868,70345.0,37694.0,70345.0,32165.0,-386.1222863381831,-135.03133825395267,-261.55762775743347
70345,6864,70345.0,37706.0,70345.0,32176.0,-381.5800810167814,-128.0304592780022,-249.89043725805703
70345,6866,70345.0,37694.0,70345.0,32179.0,-376.6795181635195,-120.80848906933272,-237.8295278469575
70345,6866,70345.0,37692.0,70345.0,32203.0,-371.42213675258296,-113.3754389542264,-225.39355399518558
70345,6871,70345.0,37699.0,70345.0,32208.0,-365.81051088499567,-105.74231699688447,-212.60274245120553
70355,6877,70355.0,37691.0,70355.0,32235.0,-359.8483885751499,-97.92144684524284,-199.47889348471995
70355,6892,70355.0,37739.0,70355.0,32264.0,-353.5407591034113,-89.92665947320147,-186.04528837829895
70355,6900,70355.0,37769.0,70355.0,32290.0,-346.89382452666183,-81.7731631405059,-172.3264417495849
70355,6906,70355.0,37764.0,70355.0,32291.0,-339.9149156584763,-73.4770587442272,-158.34777485320106
70355,6922,70355.0,37768.0,70355.0,32303.0,-332.61242517147764,-65.05492100641374,-144.13545394016631
70355,6917,70355.0,37776.0,70355.0,32323.0,-324.9957757976087,-56.5237606800323,-129.71645558738183
70366,6950,70366.0,37804.0,70366.0,32368.0,-317.0754010930091,-47.90112843899098,-115.11859911293743
70366,6948,70366.0,37845.0,70366.0,32384.0,-308.86267775022264,-39.204983489816556,-100.37030640451295
70366,6962,70366.0,37833.0,70366.0,32413.0,-300.3698070959574,-30.453273721482958,-85.50018539988696
70366,6972,70366.0,37831.0,70366.0,32411.0,-291.6097445679761,-21.663599178999192,-70.53670950411725
70366,6987,70366.0,37841.0,70366.0,32414.0,-282.5961727283918,-12.853269934060393,-55.50816808264182
70366,6990,70366.0,37851.0,70366.0,32461.0,-273.343456681772,-4.039549339722271,-40.442820325041396
70376,7000,70376.0,37885.0,70376.0,32482.0,-263.8666300231903,4.760270021163535,-25.36891157706117
70376,7036,70376.0,37910.0,70376.0,32500.0,-254.18139263651415,13.529083724526032,-10.314395398531644
70376,7045,70376.0,37902.0,70376.0,32524.0,-244.3039620058504,22.250369413411562,4.693382554405559
70376,7046,70376.0,37900.0,70376.0,32533.0,-234.2508180068026,30.90841172135731,19.62786163869447
70376,7061,70376.0,37905.0,70376.0,32537.0,-224.03859361792817,39.48816649154426,34.46330925729541
70376,7082,70376.0,37927.0,70376.0,32574.0,-213.684108995369,47.97500562462292,49.17475293745753
70386,7100,70386.0,37956.0,70386.0,32603.0,-203.2043176678161,56.35468302952046,63.7379965661209
70386,7120,70386.0,37957.0,70386.0,32609.0,-192.61610764281784,64.61357881651759,78.12985920438956
70386,7118,70386.0,37975.0,70386.0,32615.0,-181.93609448897206,72.7389914886403,92.32839239444866
70386,7130,70386.0,37967.0,70386.0,32630.0,-171.1805556030193,80.71927012746158,106.3128439819481
70386,7144,70386.0,37955.0,70386.0,32647.0,-160.36550714703108,88.54372627238595,120.06350273138162
70386,7159,70386.0,37976.0,70386.0,32665.0,-149.50676932432737,96.20235015757427,133.5616308284961
70397,7176,70397.0,37994.0,70397.0,32687.0,-138.61992840627966,103.6855684317506,146.78951729015103
70397,7187,70397.0,38009.0,70397.0,32700.0,-127.72023951819924,110.98429260527277,159.7306002729709
70397,7205,70397.0,38016.0,70397.0,32716.0,-116.82252836701079,118.09015532610749,172.3695920720096
70397,7198,70397.0,38015.0,70397.0,32723.0,-105.94114200931864,124.99567776586457,184.69254461051548
70397,7227,70397.0,38008.0,70397.0,32733.0,-95.08998865305301,131.69423886804685,196.68682960856017
70397,7229,70397.0,38044.0,70397.0,32753.0,-84.28259924367478,138.17992157941876,208.34107031077298
70407,7255,70407.0,38050.0,70407.0,32763.0,-73.53210919679233,144.44749936381317,219.64511422806015
70407,7267,70407.0,38056.0,70407.0,32784.0,-62.851159837726925,150.49264413940864,230.59008571413165
70407,7266,70407.0,38050.0,70407.0,32784.0,-52.25179197598851,156.31208867740372,241.1684620428415
70407,7283,70407.0,38042.0,70407.0,32785.0,-41.74543643798319,161.903539206792,251.37406601797312
70407,7287,70407.0,38051.0,70407.0,32811.0,-31.343005213999447,167.26540713928534,261.2019429815905
70407,7311,70407.0,38068.0,70407.0,32814.0,-21.054959400304767,172.39658057770816,270.64827015511844
70417,7320,70417.0,38101.0,70417.0,32826.0,-10.891280726974173,177.29646636615763,279.7103794247648
70417,7342,70417.0,38068.0,70417.0,32841.0,-0.8613604974395344,181.9652662916783,288.38679655874955
70417,7336,70417.0,38064.0,70417.0,32827.0,9.02611748254941,186.40407866496002,296.6772321851396
70417,7348,70417.0,38074.0,70417.0,32842.0,18.76318493934764,190.61461480792224,304.5824719636803
70417,7358,70417.0,38108.0,70417.0,32854.0,28.34247829337056,194.5989351586722,312.1041983435209
70417,7384,70417.0,38095.0,70417.0,32871.0,37.75716705891523,198.35956313920263,319.24493411417427
70428,7390,70428.0,38118.0,70428.0,32882.0,47.00104112157851,201.8997622057691,326.0081663850152
70428,7398,70428.0,38107.0,70428.0,32876.0,56.06865997692955,205.22369470177478,332.3984950861517
70428,7394,70428.0,38071.0,70428.0,32852.0,64.95538199742566,208.3363672919014,338.42158124586047
70428,7410,70428.0,38077.0,70428.0,32871.0,73.65723747827724,211.24324951713584,344.08380383132135
70428,7416,70428.0,38094.0,70428.0,32881.0,82.17077918064507,213.94975554375878,349.39189008168796
70428,7441,70428.0,38101.0,70428.0,32894.0,90.49304609290232,216.46104022428074,354.3528328083552
70438,7439,70438.0,38124.0,70438.0,32904.0,98.62164861861459,218.78217608143228,358.97403980757565
70438,7442,70438.0,38112.0,70438.0,32893.0,106.55484172293421,220.91844796504324,363.2634783846745
70438,7445,70438.0,38108.0,70438.0,32903.0,114.29145052712147,222.87552236890298,367.2296730900023
70438,7455,70438.0,38096.0,70438.0,32894.0,121.83069697937822,224.65935564690767,370.8815725996716
70438,7473,70438.0,38136.0,70438.0,32920.0,129.1720915644524,226.27599474848398,374.22842308051463
70438,7476,70438.0,38130.0,70438.0,32922.0,136.3154609101578,227.73160824305637,377.2797833411445
70448,7493,70448.0,38117.0,70448.0,32915.0,143.26104250190758,229.03271910625432,380.04565111523436
70448,7489,70448.0,38123.0,70448.0,32914.0,150.0095534206048,230.1862707510748,382.53649172547546
70448,7487,70448.0,38100.0,70448.0,32913.0,156.56216429073555,231.19944109713396,384.7630919046428
70448,7497,70448.0,38108.0,70448.0,32909.0,162.92034806191907,232.07937040045692,386.736367955588
70448,7520,70448.0,38122.0,70448.0,32909.0,169.0857412018509,232.83294427600197,388.46719671129165
70448,7520,70448.0,38130.0,70448.0,32920.0,175.06018927153787,233.4667976294666,389.96628513509563
70459,7527,70459.0,38130.0,70459.0,32935.0,180.8458857640129,233.9875230866886,391.24416927908976
70459,7528,70459.0,38112.0,70459.0,32913.0,186.44541189424808,234.40182062162955,392.3113382076307
70459,7522,70459.0,38102.0,70459.0,32918.0,191.86164489089964,234.7163878211132,393.1782660080628
70459,7539,70459.0,38084.0,70459.0,32916.0,197.097599467811,234.93756676160808,393.85526048292274
70459,7548,70459.0,38125.0,70459.0,32933.0,202.15632583211203,235.07098406081514,394.3523366295758
70459,7554,70459.0,38141.0,70459.0,32925.0,207.04095317740587,235.12155221935228,394.67925825977045
70469,7559,70469.0,38137.0,70469.0,32920.0,211.75478749741984,235.09389885297577,394.8456179181703
70469,7550,70469.0,38113.0,70469.0,32912.0,216.30132398318898,234.9927541511637,394.8607766978732
70469,7553,70469.0,38089.0,70469.0,32911.0,220.68412330542145,234.82285321526575,394.73367173902466
70469,7558,70469.0,38114.0,70469.0,32917.0,224.9066103597363,234.58848466625932,394.4726368183825
70469,7582,70469.0,38129.0,70469.0,32934.0,228.97196333157325,234.2932155868083,394.0853733562833
70469,7581,70469.0,38137.0,70469.0,32921.0,232.88320427682936,233.9400780061328,393.5790897859878
70480,7583,70480.0,38133.0,70480.0,32920.0,236.64336969303844,233.53195170462482,392.9606309489053
70480,7582,70480.0,38105.0,70480.0,32913.0,240.2555586116336,233.0717364700248,392.2364353850559
70480,7592,70480.0,38101.0,70480.0,32904.0,243.722856089865,232.56215788457,391.41236886764494
70480,7600,70480.0,38124.0,70480.0,32931.0,247.04828378242536,232.00542106567372,390.4935817073321
70480,7602,70480.0,38130.0,70480.0,32937.0,250.2348422536042,231.4031230894983,389.48456974904445
70480,7596,70480.0,38124.0,70480.0,32921.0,253.28555184246426,230.75647866827728,388.3894328236527
70490,7600,70490.0,38104.0,70490.0,32918.0,256.20338675200935,230.06648261764695,387.2120168313617
70490,7605,70490.0,38105.0,70490.0,32921.0,258.9911467884568,229.33377432291525,385.9558118296208
70490,7606,70490.0,38122.0,70490.0,32906.0,261.65137796139675,228.55840452152836,384.62380230269315
70490,7614,70490.0,38124.0,70490.0,32917.0,264.18635602273594,227.73982008293683,383.21836056978475
70490,7619,70490.0,38145.0,70490.0,32927.0,266.5981045317138,226.87710321166293,381.7412075221759
70490,7633,70490.0,38139.0,70490.0,32917.0,268.8884655866491,225.96930116814278,380.1935094199664
70500,7617,70500.0,38116.0,70500.0,32928.0,271.0591988735994,225.01564618556935,378.57601962517634
70500,7636,70500.0,38118.0,70500.0,32924.0,273.112011834209,224.01548550086088,376.88916404692145
70500,7622,70500.0,38129.0,70500.0,32930.0,275.0485128017288,222.9680469959188,375.13311884244655
70500,7647,70500.0,38138.0,70500.0,32930.0,276.8701801422833,221.87238652763457,373.30790666798185
70500,7647,70500.0,38154.0,70500.0,32930.0,278.57842222807034,220.72761208720215,371.41348921201495
70500,7650,70500.0,38131.0,70500.0,32931.0,280.1747221237553,219.5331864929936,369.4498418436792
70511,7641,70511.0,38113.0,70511.0,32921.0,281.6607313512384,218.28901318081856,367.41698811623337
70511,7636,70511.0,38102.0,70511.0,32917.0,283.03819126220867,216.99515737766853,365.31495972353713
70511,7640,70511.0,38122.0,70511.0,32921.0,284.30873660749967,215.65144753486652,363.14369809977785
70511,7657,70511.0,38125.0,70511.0,32920.0,285.4737593370593,214.2573415292218,360.9029988487628
70511,7663,70511.0,38154.0,70511.0,32939.0,286.53447626392955,212.81215275422724,358.59258197815086
70511,7666,70511.0,38131.0,70511.0,32942.0,287.4921438835004,211.31544183993648,356.21231020530456
70521,7660,70521.0,38117.0,70521.0,32913.0,288.34822400707367,209.76724820171216,353.7624339187788
70521,7660,70521.0,38104.0,70521.0,32912.0,289.1043929111974,208.16794286861207,351.24359364399237
70521,7661,70521.0,38128.0,70521.0,32922.0,289.76244859638496,206.51790698674026,348.65659619502514
70521,7666,70521.0,38137.0,70521.0,32925.0,290.32423145460996,204.81746096904553,346.0023166204261
70521,7671,70521.0,38159.0,70521.0,32925.0,290.79162304822233,203.06717582112435,343.2818351989543
70521,7670,70521.0,38121.0,70521.0,32917.0,291.1666047284231,201.2682893807605,340.4965969663044
70531,7674,70531.0,38110.0,70531.0,32918.0,291.45131532138316,199.42280449204222,337.6484561240339
70531,7669,70531.0,38117.0,70531.0,32912.0,291.6480693675588,197.5331901484833,334.7396457576712
70531,7675,70531.0,38113.0,70531.0,32913.0,291.75933989308714,195.60207611992956,331.7727456581251
70531,7675,70531.0,38128.0,70531.0,32916.0,291.78774004252847,193.6322141884547,328.750684601865
70531,7679,70531.0,38115.0,70531.0,32909.0,291.7360378971357,191.6266047240102,325.67678712513447
70531,7676,70531.0,38111.0,70531.0,32896.0,291.60719022880835,189.58859423307172,322.55479589105937
70542,7671,70542.0,38110.0,70542.0,32907.0,291.4043404605487,187.5218446205782,319.3888047836521
70542,7670,70542.0,38088.0,70542.0,32896.0,291.1307463356612,185.43020643658392,316.1831936754897
70542,7671,70542.0,38105.0,70542.0,32902.0,290.7896736226928,183.31755467879336,312.94264366239804
70542,7679,70542.0,38124.0,70542.0,32891.0,290.38434074876807,181.18773273576548,309.67217191227166
70542,7676,70542.0,38112.0,70542.0,32879.0,289.9179527077294,179.04476017150202,306.377105028144
70542,7674,70542.0,38076.0,70542.0,32880.0,289.39375938070935,176.89303911872207,303.0629583844626
70552,7674,70552.0,38080.0,70552.0,32873.0,288.8150551934112,174.73716654901165,299.73529007223783
70552,7669,70552.0,38093.0,70552.0,32874.0,288.1851240531551,172.5815506034118,296.39962236751586
70552,7676,70552.0,38108.0,70552.0,32885.0,287.50718005329355,170.43033271936446,293.06145482913223
70552,7681,70552.0,38092.0,70552.0,32873.0,286.78436050415513,168.2876477919894,289.7263708706605
70552,7668,70552.0,38091.0,70552.0,32874.0,286.0197772584686,166.15784177519978,286.40015465517547
70552,7677,70552.0,38071.0,70552.0,32851.0,285.2165311155692,164.04543004909613,283.08878254213005
70562,7671,70562.0,38054.0,70562.0,32849.0,284.3776649197351,161.9548429590273,279.7982544966002
70562,7683,70562.0,38076.0,70562.0,32860.0,283.5061503678318,159.8901020670674,276.53438871600093
70562,7684,70562.0,38089.0,70562.0,32858.0,282.60495902127263,157.85470624898915,273.3027816539942
70562,7691,70562.0,38102.0,70562.0,32858.0,281.6771992123158,155.85190357054643,270.1089453960071
70562,7677,70562.0,38081.0,70562.0,32851.0,280.72624184626846,153.88510598102846,266.95843602257753
70562,7677,70562.0,38056.0,70562.0,32841.0,279.75572571762683,151.958025782118,263.856863499909
70573,7674,70573.0,38055.0,70573.0,32836.0,278.769442231599,150.07439614743663,260.80979101261903
70573,7666,70573.0,38072.0,70573.0,32836.0,277.77119857721476,148.23759734602305,257.82259438833444
70573,7686,70573.0,38079.0,70573.0,32830.0,276.7647320854148,146.45059734314316,254.90037047923147
70573,7673,70573.0,38070.0,70573.0,32832.0,275.7537282671818,144.71618238531858,252.04790647032513
70573,7668,70573.0,38056.0,70573.0,32828.0,274.74188169993204,143.0371192744608,249.26967757071074
70573,7673,70573.0,38028.0,70573.0,32828.0,273.7328579832374,141.41600841749573,246.56986079058143
70583,7669,70583.0,38045.0,70583.0,32818.0,272.7302052143303,139.8549024413959,243.95233835087745
70583,7663,70583.0,38067.0,70583.0,32833.0,271.7373079570957,138.35505456209887,241.42068451901727
70583,7670,70583.0,38073.0,70583.0,32826.0,270.75733906948574,136.91709615302514,238.97820657495572
70583,7670,70583.0,38068.0,70583.0,32833.0,269.7932254707593,135.54145728906508,236.62806407556138
70583,7677,70583.0,38067.0,70583.0,32807.0,268.84769452909893,134.22864168779026,234.37334690977121
70583,7666,70583.0,38049.0,70583.0,32799.0,267.92335645315137,132.97924472561994,232.21696228686034
70593,7672,70593.0,38059.0,70593.0,32809.0,267.0227295080153,131.79381569770266,230.1613690099609
70593,7674,70593.0,38065.0,70593.0,32813.0,266.14821808977575,130.67274036645358,228.20842202633978
70593,7680,70593.0,38069.0,70593.0,32822.0,265.3021407156419,129.61629556064938,226.35947288389906
70593,7664,70593.0,38062.0,70593.0,32816.0,264.48679773335743,128.6248070057748,224.6155863966456
70593,7666,70593.0,38036.0,70593.0,32805.0,263.704447133457,127.69867764799385,222.9776711013799
70593,7658,70593.0,38044.0,70593.0,32802.0,262.95716208258375,126.83817110985399,221.44642835487912
70604,7664,70604.0,38048.0,70604.0,32808.0,262.246683434909,126.04313644856836,220.0222090858045
70604,7677,70604.0,38071.0,70604.0,32821.0,261.57437846097287,125.31297372101847,218.70498055122403
70604,7660,70604.0,38087.0,70604.0,32813.0,260.94131990464814,124.64692535622407,217.4944678451409
70604,7670,70604.0,38052.0,70604.0,32816.0,260.3483537823091,124.044472766303,216.3903183800222
70604,7664,70604.0,38037.0,70604.0,32798.0,259.79607291693867,123.50541930740269,215.39212947481656
70604,7665,70604.0,38028.0,70604.0,32801.0,259.28477308133324,123.02950782808293,214.49932287063547
70614,7662,70614.0,38038.0,70614.0,32801.0,258.8144200640886,122.61593910801608,213.7109714215476
70614,7674,70614.0,38051.0,70614.0,32816.0,258.38462360230085,122.26317975402996,213.0257358306764
70614,7669,70614.0,38075.0,70614.0,32788.0,257.9946728228142,121.96913445932653,212.4419236047271
70614,7676,70614.0,38052.0,70614.0,32798.0,257.64362106219477,121.73151268162846,211.9574739698228
70614,7678,70614.0,38045.0,70614.0,32786.0,257.3303634236912,121.54804172491333,211.5697959502221
70614,7669,70614.0,38055.0,70614.0,32800.0,257.05368888754856,121.41636642302412,211.27562157533873
70624,7679,70624.0,38071.0,70624.0,32808.0,256.81228272544445,121.3339329842943,211.07100786536543
70624,7683,70624.0,38075.0,70624.0,32823.0,256.60471973257324,121.29813634644896,210.95151603304697
70624,7673,70624.0,38073.0,70624.0,32814.0,256.4295110551168,121.30659958119449,210.91248910157483
70624,7693,70624.0,38053.0,70624.0,32815.0,256.2851560898535,121.35730413334694,210.9492418968853
70624,7668,70624.0,38030.0,70624.0,32799.0,256.170165100552,121.4484090729324,211.05704821074295
70624,7683,70624.0,38057.0,70624.0,32815.0,256.0830364099801,121.5778545424827,211.2309940920715
70635,7685,70635.0,38062.0,70635.0,32814.0,256.0221983348356,121.74312992161833,211.4658795550015
70635,7689,70635.0,38071.0,70635.0,32828.0,255.9860312644741,121.94141724414074,211.75628219135004
70635,7678,70635.0,38069.0,70635.0,32826.0,255.97294969710137,122.16987519710904,212.09672619090057
70635,7682,70635.0,38055.0,70635.0,32826.0,255.98139250695763,122.4257804696981,212.4818334961111
70635,7681,70635.0,38052.0,70635.0,32820.0,256.0097316126898,122.70644761693896,212.90637024640972
70635,7688,70635.0,38083.0,70635.0,32832.0,256.05622052125295,123.00907930546403,213.36520487484984
70645,7690,70645.0,38088.0,70645.0,32843.0,256.1190273225069,123.33085260949665,213.85331968613855
70645,7694,70645.0,38093.0,70645.0,32832.0,256.1963177876868,123.66927180173042,214.36594286368702
70645,7687,70645.0,38054.0,70645.0,32832.0,256.28632589502513,124.02241333925241,214.89864524069912
70645,7686,70645.0,38042.0,70645.0,32817.0,256.387347082346,124.38872718660555,215.44725628100662
70645,7691,70645.0,38047.0,70645.0,32814.0,256.49766440254314,124.76650382107172,216.00763584081227
70645,7699,70645.0,38076.0,70645.0,32835.0,256.6155169183454,125.15349873869437,216.57545362732753
70655,7697,70655.0,38074.0,70655.0,32826.0,256.7391711036696,125.54702414885853,217.14614850628618
70655,7714,70655.0,38081.0,70655.0,32844.0,256.86704673853666,125.94429139206872,217.71505768025384
70655,7695,70655.0,38062.0,70655.0,32841.0,256.99783866431085,126.34262572965585,218.27757624737558
70655,7696,70655.0,38062.0,70655.0,32833.0,257.13054338181144,126.7394159801012,218.82927038774537
70655,7687,70655.0,38058.0,70655.0,32835.0,257.2643237519103,127.13190432175375,219.36587349456033
70655,7686,70655.0,38101.0,70655.0,32843.0,257.39829885255165,127.5170774072804,219.88319979614477
70666,7696,70666.0,38103.0,70666.0,32835.0,257.53138853966016,127.89190779612872,220.37711321980314
70666,7704,70666.0,38094.0,70666.0,32849.0,257.6622997622022,128.253818305163,220.8435556803679
70666,7686,70666.0,38066.0,70666.0,32830.0,257.78962228728915,128.6008937972383,221.27856207302776
70666,7690,70666.0,38065.0,70666.0,32848.0,257.91183960005014,128.9316239513044,221.6782337693265
70666,7695,70666.0,38072.0,70666.0,32834.0,258.0272105022295,129.2444786116169,222.03869300528842
70666,7698,70666.0,38091.0,70666.0,32855.0,258.13370764112494,129.5377245596526,222.3560769754243
70676,7712,70676.0,38092.0,70676.0,32860.0,258.22910004539,129.80958089857373,222.62662842152832
70676,7710,70676.0,38075.0,70676.0,32848.0,258.311121044505,130.0584581169676,222.8468646258283
70676,7704,70676.0,38058.0,70676.0,32843.0,258.377618432433,130.2829469742979,223.0136488647989
70676,7699,70676.0,38063.0,70676.0,32839.0,258.42656552407607,130.4815127377532,223.1240571781875
70676,7714,70676.0,38098.0,70676.0,32855.0,258.45596555315694,130.65224694527132,223.1752105476116
70676,7704,70676.0,38101.0,70676.0,32848.0,258.46381542218614,130.7930288723217,223.16425876209348
70687,7708,70687.0,38113.0,70687.0,32856.0,258.4481389881052,130.90198950511748,223.08847558935204
70687,7705,70687.0,38090.0,70687.0,32857.0,258.4069806677435,130.97787738763,222.94534796816998
70687,7701,70687.0,38057.0,70687.0,32845.0,258.3383493084624,131.02003295973302,222.73262085764446
70687,7709,70687.0,38056.0,70687.0,32842.0,258.24015690947124,131.02793095305884,222.4482472306915
70687,7715,70687.0,38097.0,70687.0,32861.0,258.1102109464396,131.00068144740536,222.09027364052244
70687,7720,70687.0,38098.0,70687.0,32848.0,257.9463129831802,130.93702791773856,221.65683141862158
70697,7712,70697.0,38073.0,70697.0,32852.0,257.74639483363393,130.83571885414375,221.14621940096336
70697,7708,70697.0,38069.0,70697.0,32854.0,257.5085547310311,130.69563171216274,220.55693051063602
70697,7708,70697.0,38064.0,70697.0,32837.0,257.2309652384921,130.51551161969698,219.88761820330924
70697,7710,70697.0,38078.0,70697.0,32852.0,256.9117602200989,130.2937053369705,219.13702508496567
70697,7713,70697.0,38085.0,70697.0,32857.0,256.54899604720464,130.02814145318817,218.30394052803612
70697,7717,70697.0,38115.0,70697.0,32853.0,256.1406891243946,129.71656699174045,217.387292559276
70707,7710,70707.0,38096.0,70707.0,32839.0,255.6848771808135,129.35693930184786,216.38624858655086
70707,7707,70707.0,38073.0,70707.0,32858.0,255.17962546530632,128.9476758180058,215.30017929036504
70707,7718,70707.0,38080.0,70707.0,32848.0,254.62297183736018,128.48751081015297,214.1286192711081
70707,7714,70707.0,38091.0,70707.0,32851.0,254.01291807325055,127.97520606898627,212.87132363391243
70707,7726,70707.0,38110.0,70707.0,32851.0,253.3475139958792,127.40954459698797,211.52832136280418
70707,7725,70707.0,38103.0,70707.0,32843.0,252.6249859223569,126.7896215108126,210.0999209690211
70718,7724,70718.0,38089.0,70718.0,32842.0,251.8438629447999,126.11510232543907,208.58667853015046
70718,7711,70718.0,38069.0,70718.0,32835.0,251.00302217487894,125.38617139749455,206.9893179911375
70718,7709,70718.0,38067.0,70718.0,32834.0,250.10158824006254,124.60319077593108,205.30863204158373
70718,7736,70718.0,38079.0,70718.0,32823.0,249.138810514998,123.76635277749797,203.54538175986605
70718,7716,70718.0,38102.0,70718.0,32838.0,248.11411846452233,122.87562578859159,201.70020916509816
70718,7717,70718.0,38094.0,70718.0,32855.0,247.02725798346052,121.93103173783913,199.77368205133382
70728,7718,70728.0,38084.0,70728.0,32844.0,245.8782861416401,120.93295370373795,197.76654798224712
70728,7703,70728.0,38072.0,70728.0,32827.0,244.66746886339473,119.88216604822179,195.67996672082958
70728,7702,70728.0,38050.0,70728.0,32829.0,243.39515439415842,118.77957694409127,193.51546405474147
70728,7713,70728.0,38071.0,70728.0,32836.0,242.0616346892972,117.62587552687758,191.2747567337919
70728,7711,70728.0,38103.0,70728.0,32823.0,240.6671201851883,116.4214094629105,188.95970548216582
70728,7714,70728.0,38083.0,70728.0,32828.0,239.2118481799987,115.16648516458608,186.57234746088864
70738,7710,70738.0,38066.0,70738.0,32819.0,237.69618720318442,113.86171625118256,184.11488467287356
70738,7706,70738.0,38059.0,70738.0,32803.0,236.12066653415297,112.50796288191631,181.58961407776727
70738,7700,70738.0,38053.0,70738.0,32813.0,234.4859328807896,111.1059934826504,178.99879125075284
70738,7703,70738.0,38088.0,70738.0,32806.0,232.7926645563525,109.65627965500644,176.34451048391227
70738,7706,70738.0,38089.0,70738.0,32802.0,231.04152205899007,108.15915494791017,173.6286862536387
70738,7696,70738.0,38091.0,70738.0,32812.0,229.23316741137154,106.61522819319673,170.8530793218298
70749,7693,70749.0,38042.0,70749.0,32802.0,227.36826319510604,105.02562438572039,168.01934919420046
70749,7702,70749.0,38061.0,70749.0,32789.0,225.44741483125003,103.39177178906735,165.12910049740998
70749,7695,70749.0,38047.0,70749.0,32805.0,223.47115929456587,101.7149942673201,162.1838422715328
70749,7708,70749.0,38069.0,70749.0,32799.0,221.44004273922872,99.99632568525915,159.18496940534777
70749,7699,70749.0,38081.0,70749.0,32806.0,219.35473440034127,98.23664347468468,156.13388151602402
70749,7701,70749.0,38067.0,70749.0,32808.0,217.21612413476257,96.43697764728448,153.03216030057635
70759,7691,70759.0,38066.0,70759.0,32785.0,215.0253489372964,94.59874023361579,149.88169602987819
70759,7690,70759.0,38052.0,70759.0,32784.0,212.78373828375817,92.72371119037122,146.6846578982766
70759,7684,70759.0,38046.0,70759.0,32790.0,210.49272278573136,90.81386370179739,143.44334054629203
70759,7697,70759.0,38063.0,70759.0,32767.0,208.15377694432,88.8711967870951,140.1600647734236
70759,7685,70759.0,38062.0,70759.0,32792.0,205.76845464414967,86.89773704811442,136.8371546280094
70759,7686,70759.0,38058.0,70759.0,32787.0,203.3384586511068,84.89570746855678,133.4769928219647
70769,7680,70769.0,38029.0,70769.0,32770.0,200.8656428764862,82.86760618495707,130.0821726064342
70769,7668,70769.0,38021.0,70769.0,32761.0,198.35194128043162,80.81599076180976,126.65553556252628
70769,7665,70769.0,38032.0,70769.0,32746.0,195.79923752094862,78.74310752813221,123.19997177545271
70769,7677,70769.0,38041.0,70769.0,32772.0,193.20923599825204,76.65071802235158,119.7181947910922
70769,7682,70769.0,38054.0,70769.0,32760.0,190.5834880361921,74.54026818164995,116.21274017932942
70769,7670,70769.0,38041.0,70769.0,32746.0,187.9235711206102,72.41320998713073,112.68611880927523
70780,7674,70780.0,38032.0,70780.0,32755.0,185.231218770329,70.27119219360269,109.14085964555701
70780,7660,70780.0,38021.0,70780.0,32748.0,182.508311943781,68.11599259995404,105.57945817207403
70780,7673,70780.0,38039.0,70780.0,32750.0,179.75682299112,65.94933953742127,102.00440035209999
70780,7668,70780.0,38036.0,70780.0,32754.0,176.97881934718387,63.772881554431976,98.418251923888
70780,7656,70780.0,38034.0,70780.0,32742.0,174.17652285312468,61.5883335736784,94.82375830859112
70780,7651,70780.0,38015.0,70780.0,32717.0,171.3522910735091,59.39757281020049,91.22385385953567
70790,7639,70790.0,38001.0,70790.0,32716.0,168.50846589633286,57.20250833051209,87.6214548929203
70790,7650,70790.0,38017.0,70790.0,32720.0,165.64720469228314,55.00481121265895,84.01917401903196
70790,7644,70790.0,38023.0,70790.0,32725.0,162.77042145253392,52.805792614834886,80.41923090644778
70790,7643,70790.0,38034.0,70790.0,32725.0,159.8798378352483,50.606581477519114,76.82358975059174
70790,7645,70790.0,38031.0,70790.0,32714.0,156.97704691930926,48.40844598793045,73.23413516680657
70790,7645,70790.0,37997.0,70790.0,32698.0,154.06356734682066,46.212979493245214,69.65270633075488
70800,7627,70800.0,37994.0,70800.0,32707.0,151.14088780097552,44.021948447402934,66.08096906628947
70800,7638,70800.0,38023.0,70800.0,32716.0,148.2104349862427,41.83697638023243,62.52033021614747
70800,7641,70800.0,38022.0,70800.0,32716.0,145.27353184442165,39.65952321659695,58.9720743512805
70800,7630,70800.0,38011.0,70800.0,32707.0,142.3314653585918,37.491178106111235,55.437601347580994
70800,7633,70800.0,38008.0,70800.0,32690.0,139.38557080967013,35.333844780186865,51.91851586793601
70800,7627,70800.0,37977.0,70800.0,32678.0,136.43723530382545,33.18963522434248,48.41647965851055
70811,7624,70811.0,37971.0,70811.0,32676.0,133.48787516643034,31.06054243468978,44.9329358885943
70811,7614,70811.0,37986.0,70811.0,32687.0,130.53889929924804,28.948062185936564,41.46891797209844
70811,7616,70811.0,38011.0,70811.0,32687.0,127.59163214642105,26.853097662571386,38.025086508942366
70811,7618,70811.0,37998.0,70811.0,32685.0,124.6472549112826,24.776268328036906,34.60192145752603
70811,7610,70811.0,37974.0,70811.0,32676.0,121.70682164472117,22.718230398419436,31.19987523719371
70811,7607,70811.0,37977.0,70811.0,32659.0,118.77128743078778,20.679624390845674,27.819365319103497
70821,7595,70821.0,37962.0,70821.0,32664.0,115.84146161464878,18.66078329009531,24.460622479392327
70821,7600,70821.0,37993.0,70821.0,32669.0,112.91790223135115,16.6615493934884,21.12355862228341
70821,7605,70821.0,37985.0,70821.0,32666.0,110.00085886608383,14.681361721827244,17.80780594432065
70821,7602,70821.0,37979.0,70821.0,32661.0,107.0903428522241,12.719498648195554,14.51284851626366
70821,7601,70821.0,37970.0,70821.0,32663.0,104.18625599093593,10.77519243963863,11.23809856075934
70821,7586,70821.0,37956.0,70821.0,32642.0,101.28844422442985,8.847510499900807,7.982893155622321
70831,7593,70831.0,37972.0,70831.0,32635.0,98.3966418611446,6.935157140807888,4.7463850724879535
70831,7596,70831.0,37982.0,70831.0,32665.0,95.51041563767065,5.03642459325269,1.5273945548156576
70831,7591,70831.0,37980.0,70831.0,32656.0,92.62921790581818,3.149388413988561,-1.6755209256327817
70831,7588,70831.0,37981.0,70831.0,32646.0,89.7524801509974,1.2721712773072227,-4.863799135249536
70831,7584,70831.0,37965.0,70831.0,32637.0,86.87963555337424,-0.59693727985632,-8.038757827406386
70831,7581,70831.0,37969.0,70831.0,32653.0,84.01008679837909,-2.459531409531735,-11.201674227989798
70842,7577,70842.0,37959.0,70842.0,32648.0,81.14316772321686,-4.317212607767942,-14.353779943998717
70842,7588,70842.0,37988.0,70842.0,32646.0,78.27813524491575,-6.171636666231848,-17.496110543983065
70842,7587,70842.0,37988.0,70842.0,32646.0,75.41425230159084,-8.02434625670341,-20.629377741528742
70842,7577,70842.0,37983.0,70842.0,32638.0,72.55093147300852,-9.876447785581007,-23.753924862720055
70842,7559,70842.0,37956.0,70842.0,32626.0,69.6877632386715,-11.728438053851448,-26.869749386876066
70842,7566,70842.0,37950.0,70842.0,32613.0,66.82435401385601,-13.580383060407058,-29.976635048071955
70852,7573,70852.0,37971.0,70852.0,32627.0,63.96017230129283,-15.432238465384131,-33.074346951517526
70852,7565,70852.0,37963.0,70852.0,32620.0,61.094585105884136,-17.283943392974123,-36.16271162393221
70852,7566,70852.0,37961.0,70852.0,32631.0,58.22697737170168,-19.135283527033465,-39.24151927078054
70852,7554,70852.0,37967.0,70852.0,32611.0,55.35678649129068,-20.985780514511816,-42.31038181310092
70852,7551,70852.0,37952.0,70852.0,32611.0,52.48343773960897,-22.834666373930816,-45.368698492162196
70852,7556,70852.0,37934.0,70852.0,32597.0,49.60625350402725,-24.680946972648854,-48.41576143546189
70862,7558,70862.0,37959.0,70862.0,32602.0,46.724443585609265,-26.523580905825867,-51.45090811273775
70862,7556,70862.0,37964.0,70862.0,32606.0,43.83720694817953,-28.361541081241597,-54.473593210421626
70862,7554,70862.0,37963.0,70862.0,32615.0,40.94384780021804,-30.19359512337826,-57.483301021575585
70862,7545,70862.0,37934.0,70862.0,32598.0,38.04382103693581,-32.01809200031454,-60.47935705905496
70862,7530,70862.0,37922.0,70862.0,32592.0,35.1366706365375,-33.833088828436814,-63.46083723581904
70862,7536,70862.0,37927.0,70862.0,32579.0,32.22186912297286,-35.63673493548515,-66.42667986947723
70873,7544,70873.0,37947.0,70873.0,32594.0,29.298701794300143,-37.427520640740454,-69.37586495227765
70873,7533,70873.0,37947.0,70873.0,32601.0,26.366321204110307,-39.20415808317618,-72.30743204086087
70873,7547,70873.0,37937.0,70873.0,32583.0,23.42388085041418,-40.96529044840318,-75.22030846774152
70873,7526,70873.0,37921.0,70873.0,32569.0,20.470628697653893,-42.709381765807464,-78.11321706231027
70873,7532,70873.0,37922.0,70873.0,32575.0,17.505926153588916,-44.43487434175698,-80.98482329127978
70873,7524,70873.0,37920.0,70873.0,32572.0,14.529196571363286,-46.14040948258328,-83.83390936993439
70883,7530,70883.0,37935.0,70883.0,32576.0,11.539884245223135,-47.82490108983161,-86.65938313396475
70883,7528,70883.0,37949.0,70883.0,32574.0,8.537488676561196,-49.48738527077367,-89.46018242349649
70883,7535,70883.0,37928.0,70883.0,32570.0,5.52166400805433,-51.126733021394784,-92.23518025002451
70883,7509,70883.0,37926.0,70883.0,32562.0,2.492312809697779,-52.74148910025092,-94.98314947070571
70883,7503,70883.0,37904.0,70883.0,32548.0,-0.550473505086643,-54.32999700540192,-97.70283152979576
70883,7511,70883.0,37920.0,70883.0,32552.0,-3.6066276303199913,-55.890664393654134,-100.39309514111966
70893,7504,70893.0,37915.0,70893.0,32543.0,-6.676241983816965,-57.42212412415569,-103.05308578945846
70893,7516,70893.0,37911.0,70893.0,32551.0,-9.759521757589113,-58.92322621736588,-105.68228513813222
70893,7514,70893.0,37904.0,70893.0,32563.0,-12.856640396792415,-60.393016599790556,-108.28045001507502
70893,7494,70893.0,37899.0,70893.0,32548.0,-15.96760678404479,-61.830818023805975,-110.8474370675178
70893,7503,70893.0,37906.0,70893.0,32539.0,-19.092265549028696,-63.23634236323815,-113.38307499338188
70893,7506,70893.0,37928.0,70893.0,32559.0,-22.230367769427318,-64.60967443296002,-115.88719161346197
70904,7506,70904.0,37945.0,70904.0,32550.0,-25.381517792771575,-65.95098973094474,-118.35960353903047
70904,7500,70904.0,37905.0,70904.0,32533.0,-28.54503059218871,-67.26014574092036,-120.80001177784652
70904,7492,70904.0,37890.0,70904.0,32525.0,-31.719867639764487,-68.53660010667394,-123.2080501792953
70904,7468,70904.0,37877.0,70904.0,32535.0,-34.90473024628503,-69.77982567577126,-125.58349887085245
70904,7483,70904.0,37891.0,70904.0,32522.0,-38.0982820688304,-70.98982375467472,-127.9264137798948
70904,7482,70904.0,37917.0,70904.0,32521.0,-41.29931059769439,-72.16728429885859,-130.23714391518382
70914,7469,70914.0,37917.0,70914.0,32534.0,-44.50670219485846,-73.31330804038225,-132.51633961589954
70914,7481,70914.0,37897.0,70914.0,32518.0,-47.71937440776625,-74.42901230470787,-134.76491128382554
70914,7477,70914.0,37896.0,70914.0,32508.0,-50.936234402631186,-75.51542522864042,-136.98399119571235
70914,7452,70914.0,37882.0,70914.0,32522.0,-54.156135222310155,-76.57368251166707,-139.17501371914096
70914,7456,70914.0,37894.0,70914.0,32511.0,-57.37795942298925,-77.60526155974512,-141.33978640170346
70914,7461,70914.0,37917.0,70914.0,32525.0,-60.60079977107566,-78.61202835048584,-143.4804324884724
70925,7468,70925.0,37916.0,70925.0,32513.0,-63.82397800069111,-79.59599578668488,-145.59928171199073
70925,7454,70925.0,37887.0,70925.0,32524.0,-67.0468854723155,-80.55901608963956,-147.69877607108396
70925,7458,70925.0,37886.0,70925.0,32514.0,-70.26886634197402,-81.50279370018748,-149.7813965967298
70925,7441,70925.0,37879.0,70925.0,32504.0,-73.48923433031979,-82.4291963670355,-151.84964138372771
70925,7435,70925.0,37881.0,70925.0,32507.0,-76.70738466336792,-83.34053247550457,-153.90609933068805
70925,7446,70925.0,37901.0,70925.0,32510.0,-79.92293442419907,-84.23962253759785,-155.95354260658019
70935,7444,70935.0,37913.0,70935.0,32518.0,-83.13575169855426,-85.12962429404419,-157.99489407662122
70935,7452,70935.0,37895.0,70935.0,32514.0,-86.34581686367108,-86.01370443075879,-160.03307364672924
70935,7432,70935.0,37890.0,70935.0,32510.0,-89.55305768723872,-86.89486036897452,-162.07085497601173
70935,7433,70935.0,37886.0,70935.0,32493.0,-92.7573181134473,-87.77602761808916,-164.11085388842014
70935,7419,70935.0,37891.0,70935.0,32496.0,-95.95847288230786,-88.66026212797803,-166.15566863183318
70935,7445,70935.0,37899.0,70935.0,32503.0,-99.15653418509785,-89.55078707806081,-168.20803226321124
70945,7426,70945.0,37918.0,70945.0,32497.0,-102.35159453422062,-90.45084936415091,-170.27082124891803
70945,7427,70945.0,37885.0,70945.0,32490.0,-105.54368679721259,-91.36348079583647,-172.34698697484112
70945,7406,70945.0,37863.0,70945.0,32479.0,-108.73277995525177,-92.29148162484003,-174.4395881611223
70945,7409,70945.0,37876.0,70945.0,32490.0,-111.91894498919069,-93.23778010869685,-176.5519200389288
70945,7416,70945.0,37898.0,70945.0,32509.0,-115.1025148303452,-94.20575517838313,-178.68753174770552
70945,7415,70945.0,37914.0,70945.0,32509.0,-118.28407445224806,-95.19908903776334,-180.84998411647257
70956,7423,70956.0,37915.0,70956.0,32502.0,-121.46429930716289,-96.22128315305523,-183.04250759169344
70956,7406,70956.0,37886.0,70956.0,32487.0,-124.64378779872459,-97.27528475974529,-185.26785363983367
70956,7402,70956.0,37885.0,70956.0,32487.0,-127.82301728962403,-98.36351114610514,-187.5284022581405
70956,7398,70956.0,37907.0,70956.0,32493.0,-131.0024418400667,-99.48809757965012,-189.82632718081368
70956,7406,70956.0,37884.0,70956.0,32501.0,-134.18259202546437,-100.65098226735344,-192.16360418914962
70956,7406,70956.0,37911.0,70956.0,32482.0,-137.36403920628612,-101.85380804271935,-194.54187864566558
70966,7397,70966.0,37899.0,70966.0,32470.0,-140.54727077965651,-103.09780059160624,-196.96243301192612
70966,7391,70966.0,37874.0,70966.0,32470.0,-143.73263222241053,-104.38369804317739,-199.42637167302814
70966,7375,70966.0,37870.0,70966.0,32460.0,-146.9204148362228,-105.71190187902255,-201.93485708137348
70966,7384,70966.0,37875.0,70966.0,32472.0,-150.11102644840184,-107.08281068430307,-204.48923326103431
70966,7383,70966.0,37900.0,70966.0,32467.0,-153.3050953031298,-108.49696840905449,-207.0910143731848
70966,7392,70966.0,37882.0,70966.0,32480.0,-156.50340594408635,-109.95488344183045,-209.7417625845561
70976,7384,70976.0,37864.0,70976.0,32464.0,-159.706727781248,-111.45683620316788,-212.4429260222596
70976,7372,70976.0,37865.0,70976.0,32467.0,-162.9156982164912,-113.0029889197622,-215.1957460478223
70976,7364,70976.0,37861.0,70976.0,32455.0,-166.13087565703472,-114.5936579337152,-218.00128035103637
70976,7381,70976.0,37886.0,70976.0,32481.0,-169.35287537696627,-116.22942272139244,-220.8604365912759
70976,7374,70976.0,37901.0,70976.0,32465.0,-172.5823696475528,-117.91092590364215,-223.7738688218513
70976,7375,70976.0,37887.0,70976.0,32458.0,-175.81993795147753,-119.63846137028546,-226.74181559501068
70987,7363,70987.0,37884.0,70987.0,32442.0,-179.06595951438476,-121.41167025017154,-229.76411447926574
70987,7351,70987.0,37845.0,70987.0,32440.0,-182.32065741764114,-123.22959363831879,-232.84041321891613
70987,7348,70987.0,37843.0,70987.0,32432.0,-185.5842659484033,-125.09106185428269,-235.97039945242278
70987,7351,70987.0,37867.0,70987.0,32438.0,-188.85720177948753,-126.99513693852734,-239.15393364700873
70987,7358,70987.0,37871.0,70987.0,32437.0,-192.14009528664252,-128.94120367730523,-242.39105894993884
70987,7346,70987.0,37855.0,70987.0,32433.0,-195.4336819901427,-130.92871930395393,-245.6819223645718
70997,7350,70997.0,37846.0,70997.0,32423.0,-198.73869980958034,-132.9570671156531,-249.02671450796032
70997,7336,70997.0,37839.0,70997.0,32419.0,-202.055879129812,-135.02570020691826,-252.42570889509534
70997,7339,70997.0,37863.0,70997.0,32422.0,-205.3859952996661,-137.13432237479765,-255.87934812729856
70997,7342,70997.0,37854.0,70997.0,32431.0,-208.72991068645183,-139.28284312971425,-259.38824138707804
70997,7341,70997.0,37864.0,70997.0,32436.0,-212.08853138430322,-141.47115336777586,-262.95299834873987
70997,7334,70997.0,37844.0,70997.0,32412.0,-215.46270688183802,-143.6989524137209,-266.5740107921038
71006,7323,71006.0,37830.0,71006.0,32420.0,-218.8532001555481,-145.96577821908878,-270.2513883213391
71006,7313,71006.0,37836.0,71006.0,32412.0,-222.26079292123097,-148.27122453550206,-273.98503805950395
71006,7319,71006.0,37847.0,71006.0,32408.0,-225.68645518824502,-150.61511639648373,-277.7747183233462
71006,7324,71006.0,37862.0,71006.0,32398.0,-229.13141921676942,-152.9974051215795,-281.62006425743823
71006,7322,71006.0,37844.0,71006.0,32413.0,-232.59708094553588,-155.41786177484096,-285.5206259096479
71006,7318,71006.0,37833.0,71006.0,32395.0,-236.08484217987495,-157.87589287727835,-289.4758418589743
71017,7319,71017.0,37825.0,71017.0,32384.0,-239.5960189678092,-160.37065039861136,-293.4850010275941
71017,7311,71017.0,37816.0,71017.0,32383.0,-243.13181004994465,-162.90129236341667,-297.54733637931133
71017,7299,71017.0,37815.0,71017.0,32390.0,-246.69331522325035,-165.46720791438406,-301.6621513650234
71017,7313,71017.0,37847.0,71017.0,32385.0,-250.28160560408077,-168.0680834107706,-305.82879295770607
71017,7306,71017.0,37837.0,71017.0,32382.0,-253.89773647441774,-170.70369018271973,-310.0465239167434
71017,7295,71017.0,37817.0,71017.0,32369.0,-257.54267232159566,-173.37356799367714,-314.3144582252079
71027,7303,71027.0,37797.0,71027.0,32351.0,-261.2172576036745,-176.07701503567117,-318.6316426972389
71027,7289,71027.0,37808.0,71027.0,32356.0,-264.92224332889873,-178.81340875719812,-322.9972604990036
71027,7283,71027.0,37820.0,71027.0,32362.0,-268.6583188295436,-181.58243863491762,-327.410782572622
71027,7290,71027.0,37822.0,71027.0,32360.0,-272.42617299043536,-184.3839938956434,-331.8719071149144
71027,7299,71027.0,37814.0,71027.0,32357.0,-276.2264877716912,-187.2178883340332,-336.3803761724734
71027,7273,71027.0,37802.0,71027.0,32355.0,-280.0598073404415,-190.08372376595545,-340.93583935714025
71037,7272,71037.0,37792.0,71037.0,32338.0,-283.9264932573065,-192.98098116924345,-345.5378132617794
71037,7281,71037.0,37809.0,71037.0,32366.0,-287.8268385546682,-195.909189769209,-350.18568194860006
71037,7273,71037.0,37822.0,71037.0,32348.0,-291.76110999159255,-198.8679130256875,-354.8786009142663
71037,7273,71037.0,37813.0,71037.0,32335.0,-295.72945776470453,-201.8564746364711,-359.61533490901184
71037,7267,71037.0,37780.0,71037.0,32323.0,-299.7318464698459,-204.87373622640163,-364.394276531926
71037,7254,71037.0,37797.0,71037.0,32311.0,-303.7680680224265,-207.91821208975537,-369.21367599786754
71048,7244,71048.0,37781.0,71048.0,32321.0,-307.83784665644356,-210.9883226984777,-374.0718655883417
71048,7250,71048.0,37787.0,71048.0,32322.0,-311.94100362846643,-214.0825016780758,-378.96730480108704
71048,7249,71048.0,37776.0,71048.0,32337.0,-316.0775379504399,-217.1992028461851,-383.8983997066868
71048,7252,71048.0,37797.0,71048.0,32317.0,-320.24755030292044,-220.33687819389073,-388.86320989261617
71048,7242,71048.0,37777.0,71048.0,32304.0,-324.4511092919668,-223.4938742444629,-393.8592818481913
71048,7242,71048.0,37767.0,71048.0,32303.0,-328.6881774238264,-226.66834397891904,-398.88373027833785
71058,7240,71058.0,37763.0,71058.0,32297.0,-332.9585988205324,-229.85833830370225,-403.9334014807388
71058,7228,71058.0,37765.0,71058.0,32296.0,-337.2620980856743,-233.06198200475126,-409.004934720267
71058,7241,71058.0,37801.0,71058.0,32293.0,-341.59827818358184,-236.27746104849712,-414.0947358678837
71058,7235,71058.0,37785.0,71058.0,32296.0,-345.9665707961013,-239.5026978448881,-419.1989099584522
71058,7225,71058.0,37758.0,71058.0,32283.0,-350.3661290524693,-242.73499583114733,-424.31317099831097
71058,7216,71058.0,37756.0,71058.0,32278.0,-354.7957982409042,-245.97106628520297,-429.4327979561978
71068,7220,71068.0,37743.0,71068.0,32277.0,-359.25420298051125,-249.2073605546846,-434.55266743248643
71068,7213,71068.0,37748.0,71068.0,32273.0,-363.7398092305708,-252.44034555990524,-439.667280187338
71068,7218,71068.0,37782.0,71068.0,32268.0,-368.25089237513885,-255.66652840583382,-444.77073312422345
71068,7220,71068.0,37774.0,71068.0,32277.0,-372.7854397652664,-258.8821512926559,-449.8566591681144
71068,7205,71068.0,37743.0,71068.0,32257.0,-377.3410282506095,-262.0827976636319,-454.91814130143405
71068,7187,71068.0,37737.0,71068.0,32242.0,-381.9148062848348,-265.2633731464251,-459.9476960792884
71079,7201,71079.0,37740.0,71079.0,32251.0,-386.5036413949016,-268.41842702829297,-464.93740982000486
71079,7195,71079.0,37749.0,71079.0,32252.0,-391.1042287103524,-271.54235706786574,-469.8790435538394
71079,7197,71079.0,37753.0,71079.0,32245.0,-395.7130149458429,-274.6293116360312,-474.7639471117922
71079,7188,71079.0,37753.0,71079.0,32242.0,-400.32606948602717,-277.6729451939726,-479.5829242816911
71079,7167,71079.0,37710.0,71079.0,32241.0,-404.93906863379584,-280.6662883595189,-484.3261768068534
71079,7165,71079.0,37697.0,71079.0,32221.0,-409.5474477894942,-283.60198370852305,-488.9833052652262
71089,7186,71089.0,37713.0,71089.0,32211.0,-414.14657194475143,-286.4727863478109,-493.5434055961712
71089,7172,71089.0,37737.0,71089.0,32227.0,-418.7316797679401,-289.27180737443155,-497.99524137285505
71089,7183,71089.0,37750.0,71089.0,32230.0,-423.2976520249353,-291.9922090382498,-502.32726349177096
71089,7156,71089.0,37707.0,71089.0,32217.0,-427.8388554323379,-294.6267120552715,-506.5274128840054
71089,7163,71089.0,37715.0,71089.0,32196.0,-432.3491592492625,-297.16746574795144,-510.5830000621039
71089,7153,71089.0,37700.0,71089.0,32204.0,-436.8220418179985,-299.6063075583887,-514.4808420041284
71099,7163,71099.0,37718.0,71099.0,32216.0,-441.25063951998754,-301.9350013726024,-518.2074139388051
71099,7151,71099.0,37724.0,71099.0,32208.0,-445.6276877648844,-304.14521611893076,-521.7487594454506
71099,7160,71099.0,37722.0,71099.0,32217.0,-449.9454250654673,-306.22830359508373,-525.0902665637934
71099,7147,71099.0,37702.0,71099.0,32191.0,-454.1955130514015,-308.1751064988405,-528.2165349999777
71099,7139,71099.0,37690.0,71099.0,32193.0,-458.36900910101843,-309.9760276477972,-531.1114239462954
71099,7133,71099.0,37687.0,71099.0,32176.0,-462.45643840663,-311.62132830389,-533.7582466092163
71110,7129,71110.0,37712.0,71110.0,32185.0,-466.44792326386744,-313.1013665188063,-536.1399824475106
71110,7124,71110.0,37705.0,71110.0,32182.0,-470.3332808466085,-314.40654106206694,-538.2393862346644
71110,7134,71110.0,37697.0,71110.0,32178.0,-474.1020513352543,-315.5270727850824,-540.0389863994578
71110,7126,71110.0,37689.0,71110.0,32166.0,-477.7434364903499,-316.452943480629,-541.5210905773584
71110,7111,71110.0,37670.0,71110.0,32157.0,-481.2462238880289,-317.1740775505539,-542.6679163124268
71110,7110,71110.0,37686.0,71110.0,32166.0,-484.59884287455804,-317.6806210961861,-543.4618009347446
71120,7106,71120.0,37684.0,71120.0,32167.0,-487.7895181988798,-317.96311638248255,-543.8853232175395
71120,7101,71120.0,37706.0,71120.0,32165.0,-490.8063780121219,-318.01244449854266,-543.9212807196191
71120,7112,71120.0,37698.0,71120.0,32158.0,-493.6374801865767,-317.81959925604497,-543.5526589649213
71120,7090,71120.0,37668.0,71120.0,32140.0,-496.27078971709403,-317.3755395159362,-542.7627407461946
71120,7080,71120.0,37671.0,71120.0,32139.0,-498.69422496632166,-316.67136712886156,-541.5353844330336
71120,7087,71120.0,37674.0,71120.0,32161.0,-500.89585206678237,-315.69870733270955,-539.8553119476715
71131,7096,71131.0,37682.0,71131.0,32161.0,-502.8640335919083,-314.4499255987307,-537.7081620574652
71131,7093,71131.0,37709.0,71131.0,32150.0,-504.5873558174031,-312.9180516762236,-535.0803641171033
71131,7089,71131.0,37683.0,71131.0,32147.0,-506.05447660969094,-311.09653857711396,-531.9591464006169
71131,7084,71131.0,37675.0,71131.0,32152.0,-507.2540865648153,-308.9791521903497,-528.3327442200367
71131,7081,71131.0,37683.0,71131.0,32152.0,-508.1749878125361,-306.5601718487413,-524.1906058695215
71131,7078,71131.0,37690.0,71131.0,32170.0,-508.80620990190135,-303.83464503620587,-519.5234793968252
71141,7084,71141.0,37718.0,71141.0,32169.0,-509.1371024172946,-300.79838476560064,-514.3233886360557
71141,7090,71141.0,37696.0,71141.0,32182.0,-509.1573500381244,-297.4477543085078,-508.5835574880564
71141,7076,71141.0,37699.0,71141.0,32180.0,-508.85692455204315,-293.7795368997668,-502.29836365492054
71141,7071,71141.0,37679.0,71141.0,32163.0,-508.2261178387864,-289.79109897759406,-495.4634090669057
71141,7066,71141.0,37691.0,71141.0,32179.0,-507.2557370962555,-285.48074385122425,-488.0757699163214
71141,7080,71141.0,37709.0,71141.0,32181.0,-505.93732500749365,-280.84798267512576,-480.1343009659842
71151,7079,71151.0,37693.0,71151.0,32201.0,-504.26323515088023,-275.8935831441416,-471.63978577924087
71151,7082,71151.0,37728.0,71151.0,32199.0,-502.2265831624025,-270.6195153224804,-462.59493695253536
71151,7082,71151.0,37713.0,71151.0,32196.0,-499.82121150947216,-265.0288957670208,-453.0044223859135
71151,7071,71151.0,37702.0,71151.0,32216.0,-497.04174702335524,-259.1259824977376,-442.8750207109175
71151,7081,71151.0,37714.0,71151.0,32217.0,-493.88375138786347,-252.91636439653468,-432.21580048823796
71151,7081,71151.0,37756.0,71151.0,32250.0,-490.3438838068339,-246.4071668070872,-421.0381792684827
71162,7099,71162.0,37756.0,71162.0,32274.0,-486.41996063951973,-239.60689876541073,-409.3558055564447
71162,7112,71162.0,37739.0,71162.0,32259.0,-482.1108655650088,-232.52512578934613,-397.184328068142
71162,7100,71162.0,37751.0,71162.0,32279.0,-477.4163832002024,-225.17245162086544,-384.5413149225019
71162,7098,71162.0,37762.0,71162.0,32299.0,-472.33716262698897,-217.56076206606423,-371.4463870193188
71162,7108,71162.0,37786.0,71162.0,32320.0,-466.87489583069635,-209.7033298912839,-357.92127361777204
71162,7114,71162.0,37796.0,71162.0,32354.0,-461.0325106783072,-201.6146630133063,-343.98964377117466
71172,7129,71172.0,37819.0,71172.0,32368.0,-454.81421445749686,-193.3102392385636,-329.67680398217374
71172,7140,71172.0,37829.0,71172.0,32387.0,-448.22541621178584,-184.80623636485004,-315.00939487989507
71172,7141,71172.0,37829.0,71172.0,32401.0,-441.2726127312595,-176.11932393018688,-300.0152055013491
71172,7131,71172.0,37838.0,71172.0,32426.0,-433.96337361258486,-167.2666051306556,-284.72309217386646
71172,7166,71172.0,37872.0,71172.0,32461.0,-426.306471722241,-158.26564158497644,-269.1628594391273
71172,7171,71172.0,37888.0,71172.0,32474.0,-418.31194430201674,-149.1343155230505,-253.3650110181267
71182,7192,71182.0,37890.0,71182.0,32512.0,-409.9909387239195,-139.89051466493737,-237.36043663673593
71182,7201,71182.0,37894.0,71182.0,32503.0,-401.3554862537137,-130.55192860529667,-221.18016324449175
71182,7200,71182.0,37894.0,71182.0,32532.0,-392.4183613134112,-121.1361058803507,-204.85527081402196
71182,7218,71182.0,37899.0,71182.0,32555.0,-383.19307037566836,-111.66066186293638,-188.41693124211565
71182,7236,71182.0,37932.0,71182.0,32586.0,-373.69388305610244,-102.14345275610552,-171.89635280747237
71182,7243,71182.0,37959.0,71182.0,32597.0,-363.93576937627506,-92.6025046459007,-155.324564416594
71193,7259,71193.0,37964.0,71193.0,32610.0,-353.93428320906713,-83.05566465641478,-138.73223492820975
71193,7277,71193.0,37965.0,71193.0,32629.0,-343.70547237039636,-73.52027515959672,-122.14965606989009
71193,7277,71193.0,37950.0,71193.0,32650.0,-333.26579664041594,-64.01317199834996,-105.60679486190048
71193,7294,71193.0,37972.0,71193.0,32676.0,-322.6320896211828,-54.55097580485335,-89.13327088207214
71193,7316,71193.0,38012.0,71193.0,32720.0,-311.8215638970735,-45.15031766767041,-72.75817847548129
71193,7333,71193.0,38047.0,71193.0,32736.0,-300.85172741064497,-35.827616125247516,-56.50972866666763
71203,7360,71203.0,38033.0,71203.0,32742.0,-289.740163951354,-26.598506134880125,-40.41487173254768
71203,7351,71203.0,38024.0,71203.0,32751.0,-278.5042965908693,-17.4774922019692,-24.499174750711234
71203,7364,71203.0,38017.0,71203.0,32769.0,-267.1613115838366,-8.478153007906343,-8.786963369103603
71203,7380,71203.0,38047.0,71203.0,32795.0,-255.72826847786075,0.3864024454157118,6.698530045027837
71203,7403,71203.0,38080.0,71203.0,32825.0,-244.22217933670007,9.10335378535055,21.935210991731367
71203,7412,71203.0,38088.0,71203.0,32835.0,-232.6599209333701,17.66044182668233,36.90234270032852
71213,7430,71213.0,38085.0,71213.0,32855.0,-221.05809066588893,26.046361238931127,51.58076389458034
71213,7443,71213.0,38091.0,71213.0,32859.0,-209.43290885890138,34.25088313953333,65.95296954250449
71213,7449,71213.0,38090.0,71213.0,32871.0,-197.80016691376073,42.26471202528421,80.00305521176904
71213,7464,71213.0,38111.0,71213.0,32886.0,-186.17523089969737,50.07930605510629,93.71658833483565
71213,7493,71213.0,38125.0,71213.0,32901.0,-174.57305150421948,57.68683300361522,107.08050201678958
71213,7498,71213.0,38139.0,71213.0,32929.0,-163.00806651611924,65.080304661572,120.08309482835233
71224,7507,71224.0,38130.0,71224.0,32923.0,-151.49406011542916,72.25375030007058,132.71411879566915
71224,7519,71224.0,38146.0,71224.0,32941.0,-140.04414242354355,79.20224931318441,144.9648163304131
71224,7517,71224.0,38122.0,71224.0,32938.0,-128.67084886587378,85.92179894839887,156.8278133429094
71224,7549,71224.0,38154.0,71224.0,32960.0,-117.386261781576,92.40909621172614,168.2969477495826
71224,7561,71224.0,38176.0,71224.0,32984.0,-106.20203244866806,98.6614303806032,179.3671874194681
71224,7579,71224.0,38187.0,71224.0,32988.0,-95.12924444393582,104.67688658104424,190.03471871051977
71234,7582,71234.0,38166.0,71234.0,32993.0,-84.17825152537728,110.45465409643495,200.29707219426723
71234,7579,71234.0,38152.0,71234.0,32997.0,-73.35866574147184,115.99499627504048,210.1530914166661
71234,7602,71234.0,38151.0,71234.0,33000.0,-62.679511620210064,121.2988132579589,219.60275894303294
71234,7625,71234.0,38196.0,71234.0,33028.0,-52.14934779956744,126.36721440959894,228.64703353042938
71234,7647,71234.0,38190.0,71234.0,33037.0,-41.77614938589693,131.20151731258068,237.28784616260333
71234,7644,71234.0,38201.0,71234.0,33036.0,-31.567045877384714,135.8035538932449,245.52822861023253
71244,7643,71244.0,38181.0,71244.0,33028.0,-21.528211881336688,140.1758384164711,253.3723295850341
71244,7649,71244.0,38172.0,71244.0,33038.0,-11.665033840463593,144.32140098925817,260.8251989926016
71244,7658,71244.0,38204.0,71244.0,33051.0,-1.9823886439017429,148.24345851020178,267.89253240650487
71244,7682,71244.0,38212.0,71244.0,33061.0,7.515188664957975,151.9452933103766,274.5805880946356
71244,7694,71244.0,38220.0,71244.0,33066.0,16.823537289082992,155.43046890155364,280.89625010814325
71244,7704,71244.0,38217.0,71244.0,33075.0,25.93902845777842,158.70309333293756,286.8470955716398
71255,7720,71255.0,38218.0,71255.0,33075.0,34.85870706064708,161.767897312022,292.4414092884567
71255,7712,71255.0,38195.0,71255.0,33057.0,43.580348446473465,164.6301208847683,297.6881029191552
71255,7725,71255.0,38211.0,71255.0,33077.0,52.1024021515957,167.2952510224689,302.5964898989224
71255,7746,71255.0,38245.0,71255.0,33093.0,60.42388131976844,169.7688366053926,307.1760878251987
71255,7753,71255.0,38228.0,71255.0,33097.0,68.54436785822867,172.05663966333782,311.43667264975613
71255,7741,71255.0,38222.0,71255.0,33100.0,76.46409086571191,174.16488794220874,315.38846699268436
71265,7747,71265.0,38202.0,71265.0,33089.0,84.1838314545301,176.10019958165043,319.0422012026189
71265,7758,71265.0,38212.0,71265.0,33082.0,91.70466205727666,177.8692181544031,322.40896183687505
71265,7772,71265.0,38212.0,71265.0,33089.0,99.02777518534367,179.47829177074595,325.499908166139
71265,7785,71265.0,38236.0,71265.0,33089.0,106.1545088652079,180.93339840928923,328.32603038927857
71265,7783,71265.0,38233.0,71265.0,33101.0,113.08645336398536,182.24030917565165,330.89805848191213
71265,7795,71265.0,38231.0,71265.0,33101.0,119.82549345420153,183.4048112077133,333.226488946783
71275,7801,71275.0,38217.0,71275.0,33097.0,126.37377402498237,184.4327654064001,335.3216319814726
71275,7802,71275.0,38216.0,71275.0,33111.0,132.73365981042292,185.32994011735474,337.19360789447694
71275,7824,71275.0,38235.0,71275.0,33111.0,138.90771345238284,186.10180271011342,338.85234707733343
71275,7823,71275.0,38246.0,71275.0,33102.0,144.89872217863945,186.75352385883076,340.30762760914274
71275,7836,71275.0,38235.0,71275.0,33110.0,150.7097750382768,187.29020041926242,341.5690489875484
71275,7824,71275.0,38231.0,71275.0,33095.0,156.34428941924915,187.71700936569937,342.64591738688
71286,7831,71286.0,38221.0,71286.0,33102.0,161.80590580107884,188.03911858258567,343.5471008228445
71286,7834,71286.0,38230.0,71286.0,33104.0,167.0982971805194,188.26148183853314,344.28089844782596
71286,7842,71286.0,38252.0,71286.0,33124.0,172.2250185265309,188.3887565764798,344.85502690154254
71286,7857,71286.0,38255.0,71286.0,33125.0,177.18947102666857,188.4254880442934,345.2767902321055
71286,7861,71286.0,38246.0,71286.0,33118.0,181.99497291707416,188.3764179536484,345.55330766639736
71286,7866,71286.0,38228.0,71286.0,33109.0,186.64486595671912,188.2465937229759,345.69158245447255
71296,7872,71296.0,38208.0,71296.0,33104.0,191.14257041901544,188.04113041940872,345.69835287003633
71296,7865,71296.0,38219.0,71296.0,33123.0,195.49156420879945,187.76477701867924,345.57990120604603
71296,7888,71296.0,38255.0,71296.0,33126.0,199.69532039870165,187.4216652572868,345.34204518246617
71296,7885,71296.0,38254.0,71296.0,33123.0,203.757292117801,187.01553031738047,344.99031156395756
71296,7891,71296.0,38243.0,71296.0,33121.0,207.6809709899381,186.550164410866,344.53007526115226
71296,7876,71296.0,38223.0,71296.0,33116.0,211.46988139861304,186.02958911396942,343.96655040796117
71306,7893,71306.0,38205.0,71306.0,33111.0,215.1274335662455,185.45779050240083,343.30469192943593
71306,7905,71306.0,38228.0,71306.0,33106.0,218.65679521006814,184.83829016148124,342.5490600503101
71306,7904,71306.0,38238.0,71306.0,33129.0,222.0609374929254,184.17395466676706,341.70372246388416
71306,7906,71306.0,38235.0,71306.0,33113.0,225.34274183971894,183.46717091791186,340.7723012725599
71306,7908,71306.0,38234.0,71306.0,33118.0,228.50500157931157,182.72009986481618,339.75808969135556
71306,7905,71306.0,38210.0,71306.0,33111.0,231.55033855703078,181.9347211794023,338.66407042891507
71317,7913,71317.0,38222.0,71317.0,33119.0,234.48110343598336,181.11265868414284,337.49286599555165
71317,7920,71317.0,38228.0,71317.0,33103.0,237.29931222158592,180.25499694182488,336.2467098863033
71317,7932,71317.0,38242.0,71317.0,33124.0,240.00668167041982,179.36232168328374,334.9274284370351
71317,7927,71317.0,38252.0,71317.0,33127.0,242.60474125818087,178.43499010882022,333.53649399353486
71317,7922,71317.0,38223.0,71317.0,33104.0,245.0948860625811,177.47341248063142,332.0751675477519
71317,7935,71317.0,38223.0,71317.0,33123.0,247.47830170625048,176.47808190904507,330.544550682441
71327,7936,71327.0,38219.0,71327.0,33118.0,249.75588678663382,175.44934220073594,328.9455447597413
71327,7949,71327.0,38225.0,71327.0,33119.0,251.9282901318416,174.38717302824716,327.2788933815835
71327,7952,71327.0,38242.0,71327.0,33126.0,253.99602845116124,173.2911866890776,325.54528380849115
71327,7948,71327.0,38236.0,71327.0,33111.0,255.9595973393216,172.16081621845586,323.7454182688434
71327,7945,71327.0,38228.0,71327.0,33104.0,257.81948252695935,170.99552082720984,321.87999847228883
71327,7949,71327.0,38216.0,71327.0,33100.0,259.5760551726913,169.79479821511333,319.9495767603622
71337,7955,71337.0,38223.0,71337.0,33110.0,261.2294665351166,168.55801591943333,317.95439327318695
71337,7962,71337.0,38253.0,71337.0,33124.0,262.77964320085243,167.28433289461498,315.8943933934401
71337,7980,71337.0,38248.0,71337.0,33133.0,264.2263990546455,165.97293192855327,313.7694800999122
71337,7975,71337.0,38254.0,71337.0,33118.0,265.5696356615096,164.62341721291372,311.57984742782486
71337,7969,71337.0,38229.0,71337.0,33116.0,266.809503571576,163.23603912931313,309.32614814233665
71337,7968,71337.0,38204.0,71337.0,33106.0,267.9463808664839,161.81156615130843,307.0094288348527
71348,7984,71348.0,38208.0,71348.0,33108.0,268.9807539395272,160.35085849653512,304.6309801528487
71348,7984,71348.0,38254.0,71348.0,33126.0,269.9132129892517,158.85453408603982,302.1922781946669
71348,7992,71348.0,38232.0,71348.0,33119.0,270.7445824490246,157.32312748192416,299.69511416680456
71348,7981,71348.0,38242.0,71348.0,33105.0,271.47603455474473,155.75750905532738,297.14178476098806
71348,7995,71348.0,38221.0,71348.0,33101.0,272.1091050751695,154.15907462445784,294.5350983225092
71348,7977,71348.0,38209.0,71348.0,33108.0,272.6456516418178,152.5296266076094,291.87823113881836
71358,7981,71358.0,38235.0,71358.0,33100.0,273.08776677273175,150.87115104197792,289.1746583914344
71358,7998,71358.0,38246.0,71358.0,33105.0,273.4376738642836,149.18579599321686,286.4281920491203
71358,8006,71358.0,38238.0,71358.0,33102.0,273.6977720297024,147.4761625955239,283.64303654684335
71358,7982,71358.0,38209.0,71358.0,33091.0,273.87081757044746,145.74554438183458,280.82382367629117
71358,7996,71358.0,38195.0,71358.0,33081.0,273.9599667771926,143.9977525733138,277.9755638168197
71358,7990,71358.0,38212.0,71358.0,33089.0,273.96865366340324,142.2366870971488,275.10350728718856
71369,7989,71369.0,38225.0,71369.0,33084.0,273.9005028788871,140.46612473935016,272.213057317605
71369,7992,71369.0,38218.0,71369.0,33089.0,273.75929388420246,138.68989025355907,269.30980935103025
71369,7992,71369.0,38214.0,71369.0,33084.0,273.5489297249336,136.91210472185034,266.3996416215218
71369,7992,71369.0,38200.0,71369.0,33066.0,273.273432545687,135.13722569773145,263.4887515947814
71369,7987,71369.0,38192.0,71369.0,33061.0,272.9369373866099,133.36988506857375,260.5835470137559
71369,7983,71369.0,38192.0,71369.0,33068.0,272.5436335406725,131.61465401299213,257.6904480144775
71379,8001,71379.0,38220.0,71379.0,33074.0,272.097693813749,129.87592715900922,254.81581664445287
71379,8004,71379.0,38219.0,71379.0,33058.0,271.6033251183648,128.1580998355003,251.96605809861182
71379,7988,71379.0,38193.0,71379.0,33069.0,271.0649261001379,126.46587637582607,249.14770930864898
71379,7993,71379.0,38179.0,71379.0,33039.0,270.48713309908976,124.80429041971264,246.3674114683109
71379,7988,71379.0,38147.0,71379.0,33035.0,269.87470978206335,123.1783034966721,243.63175009409025
71379,7983,71379.0,38185.0,71379.0,33048.0,269.23242802911244,121.59228326633543,240.94701502544396
71389,7984,71389.0,38191.0,71389.0,33045.0,268.5649723016478,120.04981052584897,238.3191027629102
71389,7993,71389.0,38200.0,71389.0,33046.0,267.87687138763346,118.55396055275925,235.75362974813257
71389,7999,71389.0,38175.0,71389.0,33033.0,267.17254236960963,117.10768023063915,233.25604390455229
71389,7981,71389.0,38173.0,71389.0,33027.0,266.4564082186404,115.71385408736704,230.83158854857197
71389,7987,71389.0,38158.0,71389.0,33024.0,265.7329107841631,114.37507533952505,228.48515694612843
71389,7979,71389.0,38187.0,71389.0,33023.0,265.0063907052582,113.09340921911233,226.22115269846083
71400,7991,71400.0,38192.0,71400.0,33030.0,264.2809858799765,111.87042170256548,224.04344484409506
71400,7995,71400.0,38203.0,71400.0,33033.0,263.5606515634269,110.70749988293375,221.95543979614737
71400,7991,71400.0,38180.0,71400.0,33008.0,262.8492776766599,109.60618870592005,219.9601809456598
71400,7984,71400.0,38158.0,71400.0,33016.0,262.1507716563391,108.56822022684779,218.06030582832145
71400,7981,71400.0,38153.0,71400.0,33015.0,261.4690035098146,107.59517057984645,216.25789313594467
71400,7983,71400.0,38174.0,71400.0,33019.0,260.8076756854135,106.68805423522114,214.55440995526462
71410,7975,71410.0,38194.0,71410.0,33034.0,260.17022084435445,105.84727035992287,212.95081987873115
71410,7985,71410.0,38161.0,71410.0,33015.0,259.55974158262615,105.07288708337062,211.4477628953083
71410,7983,71410.0,38170.0,71410.0,33023.0,258.97899806445014,104.36481236516669,210.04566739172284
71410,7980,71410.0,38159.0,71410.0,33006.0,258.43044346770523,103.72266325561596,208.7447132936048
71410,7979,71410.0,38185.0,71410.0,33020.0,257.9162342986995,103.14562496733949,207.54472728159354
71410,7997,71410.0,38192.0,71410.0,33014.0,257.4382215684202,102.6325588068065,206.4451315004049
71420,7991,71420.0,38188.0,71420.0,33025.0,256.99803811228435,102.18230435049108,205.44499028899583
71420,7996,71420.0,38178.0,71420.0,33029.0,256.5972577081926,101.79390674517617,204.54313471279414
71420,7983,71420.0,38171.0,71420.0,33004.0,256.2374721365981,101.46658703311752,203.73827588334078
71420,7985,71420.0,38146.0,71420.0,33011.0,255.920229467235,101.19949803101912,203.02895734745917
71420,7998,71420.0,38180.0,71420.0,33011.0,255.64693673143233,100.99141757017561,202.4133749202913
71420,7988,71420.0,38202.0,71420.0,33028.0,255.41886252010954,100.8406867327962,201.8893109041322
71431,7985,71431.0,38182.0,71431.0,33030.0,255.23718482240466,100.74554085566179,201.45428798512626
71431,7983,71431.0,38176.0,71431.0,33019.0,255.10293633327024,100.70442253757311,201.10578705207826
71431,7992,71431.0,38165.0,71431.0,33016.0,255.0168998095845,100.71590838887742,200.8413145014059
71431,7974,71431.0,38155.0,71431.0,33020.0,254.97955867608903,100.77840135224433,200.65830089547998
71431,7996,71431.0,38198.0,71431.0,33027.0,254.99106440673654,100.88990434366022,200.55402128484604
71431,7995,71431.0,38201.0,71431.0,33029.0,255.05124292754783,101.04814037402994,200.5256506060386
71441,7996,71441.0,38181.0,71441.0,33021.0,255.1597068186062,101.25094231348339,200.5703651995015
71441,7992,71441.0,38179.0,71441.0,33010.0,255.3159620158136,101.49643679552716,200.6853326884614
71441,7986,71441.0,38164.0,71441.0,33012.0,255.51938760145032,101.78285031331716,200.8675457888454
71441,7982,71441.0,38164.0,71441.0,33019.0,255.7691109610031,102.10819053496841,201.11364180379763
71441,7994,71441.0,38183.0,71441.0,33030.0,256.06386939547406,102.47002753132503,201.4198819415385
71441,8001,71441.0,38199.0,71441.0,33027.0,256.4019877370686,102.86553485695129,201.7822925893879
71451,7992,71451.0,38202.0,71451.0,33047.0,256.7814881995066,103.29180472812465,202.19685331148543
71451,8006,71451.0,38180.0,71451.0,33021.0,257.2001888328758,103.74615406585787,202.65964872403447
71451,7988,71451.0,38173.0,71451.0,33020.0,257.65571981622156,104.2261138901212,203.16687104807323
71451,7997,71451.0,38179.0,71451.0,33026.0,258.14547384821265,104.72915072125551,203.71463704004134
71451,8019,71451.0,38205.0,71451.0,33035.0,258.66656559079524,105.25248636322746,204.2988440569701
71451,8015,71451.0,38233.0,71451.0,33045.0,259.2159581000928,105.7933116142199,204.9152454941207
71462,8015,71462.0,38200.0,71462.0,33044.0,259.7906976488407,106.34927054531468,205.5596546597149
71462,8012,71462.0,38171.0,71462.0,33030.0,260.38801823819824,106.91867105390445,206.2280829453466
71462,8012,71462.0,38177.0,71462.0,33021.0,261.005291608732,107.50011416194897,206.91666267119498
71462,8014,71462.0,38191.0,71462.0,33031.0,261.6399483108107,108.09198126316292,207.6214033050476
71462,8013,71462.0,38197.0,71462.0,33038.0,262.28942860845035,108.69230351211931,208.338028076021
71462,8011,71462.0,38205.0,71462.0,33048.0,262.9511491349307,109.29895876942354,209.0620368212542
71472,8020,71472.0,38199.0,71472.0,33048.0,263.62246919418965,109.90989463189207,209.78890008869763
71472,8013,71472.0,38177.0,71472.0,33043.0,264.3006810768691,110.52318131326285,210.5142126236552
71472,8022,71472.0,38184.0,71472.0,33045.0,264.9830224531611,111.13682361162654,211.2337173399943
71472,8020,71472.0,38218.0,71472.0,33046.0,265.6666886693862,111.74855868346366,211.94324848694436
71472,8026,71472.0,38190.0,71472.0,33062.0,266.34885920365133,112.35594122409111,212.63872164335606
71472,8027,71472.0,38207.0,71472.0,33062.0,267.02674241854754,112.95654815878588,213.31624757477945
71482,8033,71482.0,38211.0,71482.0,33055.0,267.6976306068125,113.54804591003011,213.97229115924517
71482,8020,71482.0,38182.0,71482.0,33048.0,268.3589391114774,114.12818507666003,214.60369944248322
71482,8018,71482.0,38194.0,71482.0,33032.0,269.00815068321793,114.69469224489038,215.20752810673483
71482,8027,71482.0,38210.0,71482.0,33054.0,269.64267123072295,115.24508733741074,215.7807838325383
71482,8024,71482.0,38199.0,71482.0,33053.0,270.25974073096313,115.77668358740404,216.32030526001057
71482,8038,71482.0,38226.0,71482.0,33052.0,270.8564661670874,116.28676009912105,216.82284740676653
71493,8030,71493.0,38210.0,71493.0,33046.0,271.4299138480358,116.77274315897992,217.28516727253668
71493,8027,71493.0,38199.0,71493.0,33049.0,271.9771660880842,117.232301268313,217.7039791933781
71493,8034,71493.0,38203.0,71493.0,33064.0,272.49528567671314,117.6632426755236,218.075901472944
71493,8045,71493.0,38219.0,71493.0,33076.0,272.98128739534786,118.0633490491929,218.39756438862278
71493,8059,71493.0,38218.0,71493.0,33064.0,273.4322664306169,118.43040844699883,218.66585539570085
71493,8044,71493.0,38228.0,71493.0,33060.0,273.84563318610356,118.76241122485645,218.87806688457147
71503,8042,71503.0,38200.0,71503.0,33048.0,274.2192299517864,119.05768027614963,219.03180290603188
71503,8029,71503.0,38196.0,71503.0,33042.0,274.5512121383025,119.31476364892455,219.12473197271893
71503,8032,71503.0,38207.0,71503.0,33050.0,274.83980342776044,119.53214626073168,219.1543377955971
71503,8047,71503.0,38221.0,71503.0,33064.0,275.08311918026084,119.70809646009351,219.11782183595278
71503,8048,71503.0,38242.0,71503.0,33064.0,275.2791917208576,119.8408518802125,219.0122306088756
71503,8055,71503.0,38222.0,71503.0,33071.0,275.4261489985936,119.92898678867337,218.83468438040208
71513,8043,71513.0,38202.0,71513.0,33048.0,275.5223645450575,119.9715886227213,218.58251105057727
71513,8045,71513.0,38207.0,71513.0,33062.0,275.56646748684557,119.96805150142058,218.2531982936894
71513,8042,71513.0,38207.0,71513.0,33078.0,275.5572470672764,119.91774578123548,217.8443158203542
71513,8053,71513.0,38229.0,71513.0,33064.0,275.49357516903916,119.81991378057998,217.3536162848946
71513,8055,71513.0,38223.0,71513.0,33085.0,275.37443996843854,119.6738301453878,216.77922991907909
71513,8044,71513.0,38213.0,71513.0,33067.0,275.1990401644932,119.47900629380067,216.1197930886159
71524,8044,71524.0,38197.0,71524.0,33056.0,274.9667920835689,119.2351799258648,215.37446428532817
71524,8044,71524.0,38207.0,71524.0,33048.0,274.6772254007624,118.94207949531523,214.54275474486204
71524,8050,71524.0,38209.0,71524.0,33072.0,274.3299030865402,118.59922268974366,213.62429109430522
71524,8046,71524.0,38246.0,71524.0,33058.0,273.92443440082883,118.20598165653281,212.61877717743775
71524,8049,71524.0,38217.0,71524.0,33070.0,273.46051821347794,117.76190082306314,211.52613078548202
71524,8044,71524.0,38207.0,71524.0,33063.0,272.93795595169155,117.2669334150394,210.3465990008279
71534,8039,71534.0,38201.0,71534.0,33050.0,272.356617994069,116.72130729387987,209.08078334802005
71534,8033,71534.0,38193.0,71534.0,33043.0,271.7163493520287,116.12518808399001,207.7295342688566
71534,8051,71534.0,38221.0,71534.0,33055.0,271.01686726036024,115.47846945143368,206.2937614484193
71534,8051,71534.0,38240.0,71534.0,33057.0,270.2577903187588,114.7808848068643,204.77436638475007
71534,8052,71534.0,38215.0,71534.0,33044.0,269.4388093112581,114.0323878182529,203.17233359958718
71534,8038,71534.0,38210.0,71534.0,33049.0,268.55981150839216,113.23339699448975,201.48878415988187
71544,8040,71544.0,38188.0,71544.0,33035.0,267.6208329901323,112.38463518462643,199.72491457569538
71544,8038,71544.0,38210.0,71544.0,33044.0,266.62192398920376,111.4867906364019,197.88190805794147
71544,8047,71544.0,38205.0,71544.0,33047.0,265.5630810568798,110.54034767246779,195.9609071407403
71544,8049,71544.0,38220.0,71544.0,33051.0,264.44430676140297,109.54567803129078,193.96310429356316
71544,8048,71544.0,38222.0,71544.0,33035.0,263.2657422778392,108.50326333810665,191.88987763077407
71544,8040,71544.0,38199.0,71544.0,33025.0,262.027759539283,107.41387667513177,189.74278954357948
71555,8037,71555.0,38202.0,71555.0,33027.0,260.73093806594085,106.27856538326586,187.52341380615755
71555,8038,71555.0,38210.0,71555.0,33040.0,259.3759689577242,105.09848768656035,185.2331975251543
71555,8040,71555.0,38217.0,71555.0,33047.0,257.96359328898285,103.8748763074898,182.87355620603603
71555,8041,71555.0,38211.0,71555.0,33038.0,256.49462345238686,102.60918974715264,180.44613308117377
71555,8038,71555.0,38188.0,71555.0,33024.0,254.97000492938764,101.30320631916929,177.95296159111197
71555,8029,71555.0,38173.0,71555.0,33017.0,253.39083953501023,99.95884232857412,175.3963832321394
71565,8025,71565.0,38180.0,71565.0,33012.0,251.75831748920555,98.57776719362232,172.778825937334
71565,8030,71565.0,38201.0,71565.0,33030.0,250.07360280112056,97.16115948404853,170.1026594543432
71565,8035,71565.0,38200.0,71565.0,33019.0,248.33779739869235,95.7098304799975,167.37025108871111
71565,8027,71565.0,38207.0,71565.0,33022.0,246.5520183688538,94.22455129096605,164.58412662028434
71565,8011,71565.0,38197.0,71565.0,33001.0,244.7174385168209,92.70630220820786,161.74703596587844
71565,8025,71565.0,38177.0,71565.0,33001.0,242.83518497448267,91.15631272023352,158.86185065127168
71575,8018,71575.0,38198.0,71575.0,33007.0,240.90623748021932,89.57591846687583,155.9314083554098
71575,8027,71575.0,38205.0,71575.0,33023.0,238.93146390651094,87.96647996197444,152.95851692426766
71575,8024,71575.0,38195.0,71575.0,33017.0,236.911734315044,86.3295370809551,149.9461906149346
71575,8022,71575.0,38190.0,71575.0,32996.0,234.84802648950506,84.6669786824091,146.89789181953518
71575,8009,71575.0,38171.0,71575.0,32989.0,232.74146018072625,82.98098851376655,143.81750699031582
71575,8007,71575.0,38174.0,71575.0,32974.0,230.5932134861728,81.2738179329977,140.70908093774082
71586,8008,71586.0,38168.0,71586.0,32972.0,228.40438608669623,79.54755536960724,137.5765178205969
71586,8005,71586.0,38193.0,71586.0,32982.0,226.17592667874663,77.80405030452292,134.42339845519442
71586,8017,71586.0,38188.0,71586.0,32997.0,223.90866301729704,76.04506860244355,131.25302714647336
71586,8009,71586.0,38184.0,71586.0,32975.0,221.60341227685186,74.27255568802389,128.06867959184808
71586,7996,71586.0,38155.0,71586.0,32962.0,219.26107658716504,72.48872620920964,124.87375426117747
71586,8000,71586.0,38155.0,71586.0,32962.0,216.88260431648249,70.69584251090832,121.67163893917719
71596,8000,71596.0,38169.0,71596.0,32966.0,214.46888992629388,68.89590041037583,118.46551088142728
71596,8009,71596.0,38190.0,71596.0,32967.0,212.02078640625874,67.09059456702454,115.2583193918869
71596,8003,71596.0,38186.0,71596.0,32966.0,209.53924037791154,65.2816443303658,112.05291226831963
71596,7990,71596.0,38165.0,71596.0,32951.0,207.02540412994614,63.47114002306704,108.85214007305504
71596,7976,71596.0,38132.0,71596.0,32941.0,204.48057277408537,61.661508904329054,105.65881671246575
71596,7988,71596.0,38126.0,71596.0,32934.0,201.90597886370787,59.855044081986144,102.4755342084283
71607,7981,71607.0,38169.0,71607.0,32952.0,199.30266097210693,58.05341723242347,99.30449549294764
71607,7994,71607.0,38163.0,71607.0,32951.0,196.67151344804353,56.2576850344424,96.14755941905871
71607,7995,71607.0,38162.0,71607.0,32941.0,194.01345255485475,54.468698195795824,93.00645136989537
71607,7981,71607.0,38138.0,71607.0,32932.0,191.329597775479,52.687360560001636,89.88288036728994
71607,7960,71607.0,38136.0,71607.0,32925.0,188.6212962351748,50.91450958267248,86.77845536483862
71607,7970,71607.0,38138.0,71607.0,32912.0,185.88991532743097,49.150644804411876,83.69450590307427
71617,7966,71617.0,38169.0,71617.0,32917.0,183.13662813300357,47.39583820781871,80.63190421429124
71617,7974,71617.0,38158.0,71617.0,32944.0,180.36240003187305,45.64997417396942,77.59102230019676
71617,7977,71617.0,38150.0,71617.0,32940.0,177.5681299243005,43.913084281872614,74.57197775540533
71617,7967,71617.0,38140.0,71617.0,32913.0,174.75482055693885,42.18543494291016,71.57498213891199
71617,7954,71617.0,38125.0,71617.0,32915.0,171.92364638054906,40.46734358273608,68.60039928475524
71617,7950,71617.0,38145.0,71617.0,32911.0,169.07584200410417,38.758939900878545,65.64853985102138
71627,7966,71627.0,38137.0,71627.0,32901.0,166.21255286740762,37.060082666088235,62.719497677120756
71627,7957,71627.0,38154.0,71627.0,32928.0,163.33485653516402,35.37048061296382,59.81312710218569
71627,7951,71627.0,38136.0,71627.0,32897.0,160.44389791046933,33.689877806428356,56.92913898021362
71627,7946,71627.0,38114.0,71627.0,32901.0,157.54092786453808,32.0180950384416,54.067185877144226
71627,7942,71627.0,38130.0,71627.0,32889.0,154.6272270307294,30.354836197430345,51.226780631469325
71627,7947,71627.0,38150.0,71627.0,32902.0,151.7040422159244,28.699528771336972,48.407165664889135
71638,7940,71638.0,38164.0,71638.0,32904.0,148.77259812268733,27.051542525442017,45.60733340638822
71638,7928,71638.0,38130.0,71638.0,32906.0,145.83412160585073,25.410610307253776,42.82620190024923
71638,7939,71638.0,38116.0,71638.0,32902.0,142.8898015218108,23.77693697089518,40.06281408620103
71638,7924,71638.0,38120.0,71638.0,32891.0,139.94074281783375,22.150883099812958,37.31643531258794
71638,7920,71638.0,38103.0,71638.0,32875.0,136.98794720190074,20.532593863569872,34.586488400044146
71638,7929,71638.0,38126.0,71638.0,32884.0,134.03226976405935,18.92182191804929,31.872364729683426
71648,7929,71648.0,38127.0,71648.0,32895.0,131.07443246463578,17.317960536015192,29.173311723187425
71648,7927,71648.0,38135.0,71648.0,32890.0,128.11515517153504,15.720264714581162,26.488552560384363
71648,7917,71648.0,38128.0,71648.0,32861.0,125.15527267936086,14.128112544489667,23.817443880173727
71648,7907,71648.0,38105.0,71648.0,32858.0,122.19571626194256,12.541100442877408,21.159363883393297
71648,7905,71648.0,38120.0,71648.0,32887.0,119.23737996754075,10.958915603917688,18.51345835263828
71648,7910,71648.0,38118.0,71648.0,32867.0,116.28099709729428,9.381179957298826,15.87863518677051
71658,7905,71658.0,38126.0,71658.0,32884.0,113.3271340952086,7.807478135626951,13.253787239895729
71658,7903,71658.0,38110.0,71658.0,32860.0,110.37625932718984,6.237486490047047,10.637948034772336
71658,7897,71658.0,38124.0,71658.0,32858.0,107.42877947237648,4.671029126350234,8.030277173986406
71658,7893,71658.0,38106.0,71658.0,32853.0,104.48501720176947,3.108067041836506,5.429920000943014
71658,7893,71658.0,38099.0,71658.0,32861.0,101.54516858067154,1.5486406051271757,2.8358791508051127
71658,7896,71658.0,38108.0,71658.0,32870.0,98.6092968477904,-0.007260927485276625,0.2470518215550328
71669,7901,71669.0,38126.0,71669.0,32869.0,95.67741113255138,-1.5597470339328368,-2.337567204204703
71669,7887,71669.0,38103.0,71669.0,32848.0,92.74959570326513,-3.1088652160715213,-4.9186928175682
71669,7885,71669.0,38090.0,71669.0,32843.0,89.82606629676343,-4.654490991085439,-7.496773511137292
71669,7869,71669.0,38103.0,71669.0,32840.0,86.90708674256513,-6.196477026732708,-10.072203621994845
71669,7879,71669.0,38093.0,71669.0,32864.0,83.99282075185332,-7.734830720485959,-12.64545269672496
71669,7880,71669.0,38125.0,71669.0,32846.0,81.08326457065638,-9.269679404283906,-15.216948044730827
71679,7880,71679.0,38107.0,71679.0,32828.0,78.1783313215362,-10.8010454365525,-17.786920932810546
71679,7873,71679.0,38106.0,71679.0,32831.0,75.27798584623804,-12.328615338608373,-20.35549770536599
71679,7865,71679.0,38081.0,71679.0,32832.0,72.38228838961953,-13.851733681141553,-22.922910352847964
71679,7855,71679.0,38087.0,71679.0,32839.0,69.49131474487481,-15.369641968687944,-25.489541179786556
71679,7863,71679.0,38114.0,71679.0,32844.0,66.60502571162993,-16.88167922147676,-28.055777280835997
71679,7859,71679.0,38087.0,71679.0,32840.0,63.72321133500935,-18.387205479666463,-30.621800285490224
71689,7858,71689.0,38083.0,71689.0,32838.0,60.845544329689346,-19.88545871814894,-33.18742469074357
71689,7853,71689.0,38086.0,71689.0,32822.0,57.971645555971406,-21.375634585212282,-35.752061680288875
71689,7846,71689.0,38087.0,71689.0,32810.0,55.10108870295238,-22.857029116485663,-38.314840817087315
71689,7844,71689.0,38083.0,71689.0,32806.0,52.23335026096896,-24.329046125383343,-40.874855224645614
71689,7857,71689.0,38081.0,71689.0,32825.0,49.367779673786686,-25.791162383758845,-43.43135624360829
71689,7848,71689.0,38113.0,71689.0,32811.0,46.50368277719622,-27.24287085025972,-45.98372760003454
71700,7853,71700.0,38083.0,71700.0,32813.0,43.64047402108534,-28.68349470834822,-48.53134231988153
71700,7835,71700.0,38074.0,71700.0,32802.0,40.777759882039504,-30.112042225269406,-51.07351490180025
71700,7830,71700.0,38066.0,71700.0,32784.0,37.91528467699109,-31.527363514391,-53.60959936311127
71700,7835,71700.0,38055.0,71700.0,32795.0,35.052791406686964,-32.92848376147538,-56.13918056417148
71700,7832,71700.0,38074.0,71700.0,32799.0,32.18994739236601,-34.31484379466043,-58.66220300496755
71700,7833,71700.0,38090.0,71700.0,32813.0,29.32639340142495,-35.6862901776844,-61.17886711523704
71710,7820,71710.0,38081.0,71710.0,32799.0,26.461806990897685,-37.04279865535236,-63.68936589588637
71710,7823,71710.0,38069.0,71710.0,32800.0,23.595889011531625,-38.38420618501709,-66.19369463652691
71710,7825,71710.0,38052.0,71710.0,32773.0,20.728323874543662,-39.710244996673296,-68.69166929498314
71710,7820,71710.0,38067.0,71710.0,32794.0,17.85880668057129,-41.02079773884721,-71.18309889977795
71710,7823,71710.0,38089.0,71710.0,32795.0,14.987119006080007,-42.316015519775334,-73.66788532500203
71710,7815,71710.0,38093.0,71710.0,32783.0,12.113186572511665,-43.596074215388015,-76.14592497351441
71720,7811,71720.0,38063.0,71720.0,32794.0,9.237094518680266,-44.8608118879189,-78.61698034170209
71720,7801,71720.0,38049.0,71720.0,32779.0,6.3590400403791705,-46.1097066967301,-81.08064087072174
71720,7800,71720.0,38037.0,71720.0,32764.0,3.479230488848316,-47.34226613678305,-83.53636095132504
71720,7805,71720.0,38061.0,71720.0,32767.0,0.5978038228933826,-48.55844513627916,-85.98361759380359
71720,7801,71720.0,38060.0,71720.0,32788.0,-2.285151691185632,-49.758738874899905,-88.4220501672801
71720,7802,71720.0,38079.0,71720.0,32771.0,-5.169506869694914,-50.94395234691868,-90.85136568777506
71731,7793,71731.0,38058.0,71731.0,32759.0,-8.055023187526814,-52.11489759659176,-93.27117763672325
71731,7779,71731.0,38045.0,71731.0,32760.0,-10.941375352372773,-53.272285733999055,-95.68105759394604
71731,7785,71731.0,38050.0,71731.0,32759.0,-13.828272980561394,-54.416892631812686,-98.08069648904839
71731,7788,71731.0,38067.0,71731.0,32769.0,-16.715557938316067,-55.5497412673903,-100.46993871005591
71731,7780,71731.0,38061.0,71731.0,32764.0,-19.60316605379657,-56.67203153013334,-102.84866681908392
71731,7783,71731.0,38065.0,71731.0,32762.0,-22.491040226032965,-57.784928766419,-105.21665830514056
71741,7769,71741.0,38050.0,71741.0,32737.0,-25.379106239148314,-58.88945589502731,-107.57356211138233
71741,7770,71741.0,38042.0,71741.0,32739.0,-28.267317356349082,-59.986565958587704,-109.91906982255784
71741,7767,71741.0,38045.0,71741.0,32744.0,-31.155725198797654,-61.07733234231512,-112.2531479576364
71741,7774,71741.0,38071.0,71741.0,32751.0,-34.044495962758816,-62.163052232510594,-114.57609460164116
71741,7772,71741.0,38076.0,71741.0,32753.0,-36.93382542907946,-63.245054837607995,-116.88838192733428
71741,7761,71741.0,38046.0,71741.0,32745.0,-39.82382561549932,-64.32436813470079,-119.1904566154802
71751,7755,71751.0,38041.0,71751.0,32738.0,-42.714510561743936,-65.40166503463854,-121.48265803508872
71751,7750,71751.0,38027.0,71751.0,32730.0,-45.605901482221185,-66.47757392951002,-123.76528857433661
71751,7753,71751.0,38048.0,71751.0,32731.0,-48.49813795792738,-67.553013613764,-126.03875313927409
71751,7760,71751.0,38050.0,71751.0,32737.0,-51.39148183886911,-68.62926114064695,-128.3036403157021
71751,7759,71751.0,38074.0,71751.0,32732.0,-54.2861895691172,-69.70772627519145,-130.56068244610663
71751,7749,71751.0,38053.0,71751.0,32729.0,-57.182352090725146,-70.78960452161172,-132.81066948097083
71762,7746,71762.0,38038.0,71762.0,32706.0,-60.07984195745996,-71.87569807484579,-135.05446228988384
71762,7729,71762.0,38021.0,71762.0,32710.0,-62.97839801299148,-72.96659893657392,-137.29316814219902
71762,7740,71762.0,38037.0,71762.0,32722.0,-65.87777073666848,-74.063068223519,-139.5283305971792
71762,7732,71762.0,38054.0,71762.0,32737.0,-68.7778108894033,-75.16621297365003,-141.76187877890104
71762,7726,71762.0,38052.0,71762.0,32720.0,-71.67846706444479,-76.27729650325296,-143.9958420587731
71762,7727,71762.0,38033.0,71762.0,32711.0,-74.57978523943353,-77.3974615535731,-146.2321518575488
71772,7723,71772.0,38028.0,71772.0,32710.0,-77.48193461698568,-78.52771831554676,-148.47271061475954
71772,7714,71772.0,38015.0,71772.0,32712.0,-80.3852213026488,-79.6691932486865,-150.71954572946512
71772,7730,71772.0,38050.0,71772.0,32721.0,-83.2900918393972,-80.82335129208704,-152.97482782541292
71772,7714,71772.0,38061.0,71772.0,32724.0,-86.19708611572588,-81.9918959672197,-155.24072696739782
71772,7711,71772.0,38037.0,71772.0,32709.0,-89.10676999033797,-83.17638780106,-157.51922818387266
71772,7706,71772.0,38028.0,71772.0,32710.0,-92.01976296924954,-84.37803433077579,-159.8120701492987
71782,7689,71782.0,38009.0,71782.0,32699.0,-94.93685687020331,-85.59790055857931,-162.12083124832066
71782,7707,71782.0,38039.0,71782.0,32709.0,-97.85914450546179,-86.83725042516366,-164.4470334476776
71782,7704,71782.0,38050.0,71782.0,32722.0,-100.78804300519246,-88.09760035551463,-166.7921222648833
71782,7707,71782.0,38039.0,71782.0,32711.0,-103.72515103575248,-89.38042614842746,-169.15728028749555
71782,7712,71782.0,38047.0,71782.0,32702.0,-106.67204915032832,-90.68686314775894,-171.54324823865198
71782,7706,71782.0,38031.0,71782.0,32691.0,-109.63013226744971,-92.01762226039139,-173.9503579481841
71793,7695,71793.0,38020.0,71793.0,32673.0,-112.60051065665587,-93.37307524064545,-176.37875899228055
71793,7710,71793.0,38021.0,71793.0,32696.0,-115.58400367326848,-94.75345660098984,-178.82867506805223
71793,7701,71793.0,38029.0,71793.0,32696.0,-118.58111692751288,-96.15904856952895,-181.3004715348144
71793,7685,71793.0,38037.0,71793.0,32696.0,-121.59197453106265,-97.59017099824194,-183.79447137969584
71793,7686,71793.0,38033.0,71793.0,32680.0,-124.61636425563759,-99.04700252165503,-186.3107644675643
71793,7678,71793.0,38012.0,71793.0,32662.0,-127.6538895288665,-100.52945151865802,-188.84925291301482
71803,7681,71803.0,38012.0,71803.0,32680.0,-130.7040704240207,-102.03725293634392,-191.4098799552321
71803,7677,71803.0,38020.0,71803.0,32688.0,-133.7663552054982,-103.57018169783254,-193.99274080404945
71803,7674,71803.0,38033.0,71803.0,32680.0,-136.8400910153395,-105.12809735712185,-196.59791760915743
71803,7660,71803.0,38032.0,71803.0,32682.0,-139.92452252607006,-106.71074310742054,-199.22525711263972
71803,7669,71803.0,38022.0,71803.0,32658.0,-143.01885500868673,-108.31750759243707,-201.87432168872317
71803,7663,71803.0,38008.0,71803.0,32653.0,-146.12230089215717,-109.94738023530516,-204.54454008520372
71814,7647,71814.0,38001.0,71814.0,32670.0,-149.23407543743366,-111.59913653279725,-207.2354263382906
71814,7658,71814.0,38028.0,71814.0,32667.0,-152.35343666662942,-113.27154692692991,-209.9466199846538
71814,7657,71814.0,38020.0,71814.0,32663.0,-155.47972707535672,-114.96334620939004,-212.67772127825526
71814,7656,71814.0,38023.0,71814.0,32664.0,-158.6122957303637,-116.67300194950616,-215.4281501054191
71814,7648,71814.0,38013.0,71814.0,32652.0,-161.75038172413014,-118.39855519106064,-218.19711968060386
71814,7617,71814.0,37974.0,71814.0,32632.0,-164.89314316738415,-120.13770548492067,-220.98371897166953
71824,7645,71824.0,37986.0,71824.0,32640.0,-168.03986210021299,-121.88816662827807,-223.78712209260846
71824,7641,71824.0,38007.0,71824.0,32651.0,-171.1900723837644,-123.64802605046438,-226.60675672312595
71824,7641,71824.0,37988.0,71824.0,32652.0,-174.3434223902526,-125.4157537659014,-229.44221909079414
71824,7619,71824.0,38001.0,71824.0,32631.0,-177.4995072591388,-127.19000666293508,-232.29306707698294
71824,7628,71824.0,37981.0,71824.0,32630.0,-180.6579075077667,-128.96954995020175,-235.15879097162974
71824,7620,71824.0,37964.0,71824.0,32621.0,-183.81831056401222,-130.7533565169367,-238.03898010551057
71834,7628,71834.0,37979.0,71834.0,32626.0,-186.98053107644455,-132.54083972406315,-240.93348098031026
71834,7623,71834.0,37992.0,71834.0,32628.0,-190.14442798901558,-134.33199704876276,-243.8424275092608
71834,7611,71834.0,37994.0,71834.0,32617.0,-193.309821597385,-136.12724603932622,-246.7661757526036
71834,7608,71834.0,37988.0,71834.0,32619.0,-196.4765117788466,-137.9271245981029,-249.70525647243494
71834,7605,71834.0,37964.0,71834.0,32608.0,-199.64438121263692,-139.7321773529783,-252.6604021604238
71834,7593,71834.0,37962.0,71834.0,32606.0,-202.8134905059539,-141.54313333454928,-255.6326141181998
71845,7592,71845.0,37986.0,71845.0,32608.0,-205.98416522881865,-143.36115840249278,-258.62322706838006
71845,7606,71845.0,37980.0,71845.0,32615.0,-209.15705461819482,-145.18785253015037,-261.63390043354735
71845,7601,71845.0,37985.0,71845.0,32602.0,-212.33304658967103,-147.02501012287138,-264.6665139798058
71845,7595,71845.0,37983.0,71845.0,32612.0,-215.513085583026,-148.8744144989268,-267.72306693478515
71845,7577,71845.0,37952.0,71845.0,32594.0,-218.6981097529861,-150.7378040901671,-270.80564123231426
71845,7577,71845.0,37970.0,71845.0,32596.0,-221.8891843771214,-152.6170305423721,-273.9164227489383
71855,7591,71855.0,37996.0,71855.0,32604.0,-225.08765336325894,-154.51419009669368,-277.0577420145673
71855,7581,71855.0,37990.0,71855.0,32605.0,-228.2951064499303,-156.43140844532275,-280.23201695129933
71855,7577,71855.0,37986.0,71855.0,32607.0,-231.51323693465622,-158.37044494059424,-283.4415712582228
71855,7571,71855.0,37968.0,71855.0,32581.0,-234.74379629941632,-160.33253297839082,-286.6884963344252
71855,7568,71855.0,37937.0,71855.0,32583.0,-237.98865175105902,-162.31857792361873,-289.974714516514
71855,7573,71855.0,37943.0,71855.0,32581.0,-241.2498272212602,-164.32960325482424,-293.302168685072
71865,7574,71865.0,37967.0,71865.0,32575.0,-244.5294549123185,-166.36712717031762,-296.6729358047744
71865,7577,71865.0,37973.0,71865.0,32577.0,-247.82963732476287,-168.4331134446703,-300.0892339781526
71865,7567,71865.0,37968.0,71865.0,32573.0,-251.1522966013859,-170.52959767269743,-303.5533998465907
71865,7558,71865.0,37959.0,71865.0,32566.0,-254.4991183790387,-172.65840774990914,-307.0678625755223
71865,7549,71865.0,37957.0,71865.0,32582.0,-257.87163663272014,-174.82114447208056,-310.63511030137767
71865,7552,71865.0,37955.0,71865.0,32574.0,-261.27138255594633,-177.01927851194165,-314.2575862276865
71876,7566,71876.0,37969.0,71876.0,32577.0,-264.69993148230833,-179.25418361031532,-317.9375122678242
71876,7562,71876.0,37977.0,71876.0,32574.0,-268.15874863705596,-181.5270027246028,-321.6767453910136
71876,7557,71876.0,37970.0,71876.0,32567.0,-271.6489510456369,-183.83838351918934,-325.4767030287526
71876,7535,71876.0,37931.0,71876.0,32558.0,-275.1712162583664,-186.18834219895948,-329.33835545917293
71876,7525,71876.0,37932.0,71876.0,32543.0,-278.72593904233895,-188.5765025591488,-333.2623195267629
71876,7533,71876.0,37942.0,71876.0,32549.0,-282.3135044759689,-191.002513947895,-337.24902533266527
71886,7534,71886.0,37945.0,71886.0,32547.0,-285.9344224429224,-193.4662130507771,-341.29882433239
71886,7535,71886.0,37953.0,71886.0,32552.0,-289.5892364921024,-195.96746272383217,-345.4119437112269
71886,7517,71886.0,37944.0,71886.0,32542.0,-293.2783851351233,-198.50591477486546,-349.5883517853316
71886,7517,71886.0,37926.0,71886.0,32531.0,-297.00219972343393,-201.08090514270515,-353.82768215375165
71886,7518,71886.0,37906.0,71886.0,32520.0,-300.76099841738926,-203.6916049333324,-358.12930564655005
71886,7514,71886.0,37950.0,71886.0,32544.0,-304.55511636297007,-206.33729376743216,-362.49244889467684
71896,7520,71896.0,37949.0,71896.0,32535.0,-308.3848356391856,-209.01733655529213,-366.916132885195
71896,7518,71896.0,37940.0,71896.0,32525.0,-312.25026555951223,-211.73079694046706,-371.398955812432
71896,7504,71896.0,37917.0,71896.0,32519.0,-316.15122796061405,-214.476175151413,-375.93899143638004
71896,7488,71896.0,37901.0,71896.0,32521.0,-320.0872688993229,-217.2515758749339,-380.5338454932069
71896,7494,71896.0,37919.0,71896.0,32507.0,-324.0578311668243,-220.05507549493305,-385.1807042755263
71896,7489,71896.0,37923.0,71896.0,32513.0,-328.0624075228054,-222.88488603499366,-389.876343079871
71907,7500,71907.0,37918.0,71907.0,32516.0,-332.1005228877582,-225.7392086079182,-394.6170986596855
71907,7489,71907.0,37927.0,71907.0,32503.0,-336.1715900320077,-228.61601118209734,-399.39876733812264
71907,7481,71907.0,37907.0,71907.0,32500.0,-340.2747865099186,-231.51290476486668,-404.21651794381984
71907,7479,71907.0,37908.0,71907.0,32491.0,-344.40905404577455,-234.42714235506733,-409.0649127972962
71907,7479,71907.0,37922.0,71907.0,32494.0,-348.57315361612103,-237.35567800714202,-413.9379660743463
71907,7483,71907.0,37920.0,71907.0,32492.0,-352.7656426978259,-240.29510396140574,-418.8291385361449
71917,7474,71917.0,37933.0,71917.0,32499.0,-356.9847666278529,-243.24141737111648,-423.7312364405032
71917,7465,71917.0,37899.0,71917.0,32487.0,-361.2283774508828,-246.1898069683286,-428.6362512741288
71917,7467,71917.0,37905.0,71917.0,32475.0,-365.49395114276734,-249.13466014812022,-433.5352599395992
71917,7451,71917.0,37882.0,71917.0,32453.0,-369.7786486394024,-252.0697865793299,-438.4185131510205
71917,7458,71917.0,37880.0,71917.0,32464.0,-374.07936813564896,-254.9886986470798,-443.2756738752803
71917,7454,71917.0,37893.0,71917.0,32463.0,-378.3927624374924,-257.8848153583142,-448.09597340442156
71927,7457,71927.0,37895.0,71927.0,32457.0,-382.71517492260654,-260.75146647119146,-452.8681558740499
71927,7451,71927.0,37899.0,71927.0,32461.0,-387.0425205270457,-263.5816889661287,-457.5803431176267
71927,7440,71927.0,37875.0,71927.0,32439.0,-391.37020699262854,-266.3680346375841,-462.2199639060085
71927,7432,71927.0,37880.0,71927.0,32447.0,-395.69316531461004,-269.102581286671,-466.77377831296167
71927,7440,71927.0,37884.0,71927.0,32450.0,-400.0059429927745,-271.77705871240664,-471.22791666488945
71927,7433,71927.0,37900.0,71927.0,32441.0,-404.3027206131794,-274.3828307217732,-475.5678120801218
71938,7418,71938.0,37879.0,71938.0,32418.0,-408.57725800798687,-276.9106909285334,-479.77813228010064
71938,7418,71938.0,37858.0,71938.0,32423.0,-412.82292196053686,-279.35076403693176,-483.8428973254396
71938,7415,71938.0,37855.0,71938.0,32418.0,-417.0327855387602,-281.692727421852,-487.74567246718306
71938,7405,71938.0,37848.0,71938.0,32401.0,-421.19967987166723,-283.9261732120782,-491.46966865975753
71938,7412,71938.0,37854.0,71938.0,32402.0,-425.3162006160519,-286.04083598067825,-494.9978322135147
71938,7407,71938.0,37879.0,71938.0,32407.0,-429.37468148763656,-288.02658316691384,-498.31295650798484
71948,7412,71948.0,37864.0,71948.0,32407.0,-433.367102717564,-289.8731746327521,-501.3976766797844
71948,7400,71948.0,37856.0,71948.0,32398.0,-437.2849771816453,-291.5700082218666,-504.23435998424037
71948,7399,71948.0,37848.0,71948.0,32387.0,-441.1192954119414,-293.10611878533757,-506.80507250359267
71948,7385,71948.0,37840.0,71948.0,32393.0,-444.86056012183616,-294.4703824479633,-509.0916774125832
71948,7390,71948.0,37853.0,71948.0,32390.0,-448.4988741089775,-295.6517079066134,-511.0759297916889
71948,7396,71948.0,37871.0,71948.0,32395.0,-452.02397863317685,-296.63903905505526,-512.7394653642045
71958,7378,71958.0,37847.0,71958.0,32387.0,-455.4251879489532,-297.42115310419615,-514.0637363635201
71958,7375,71958.0,37821.0,71958.0,32372.0,-458.69135186648964,-297.98657835114375,-515.030018571518
71958,7367,71958.0,37815.0,71958.0,32365.0,-461.81095596737805,-298.323921350902,-515.6195811942623
71958,7358,71958.0,37828.0,71958.0,32377.0,-464.7722788862113,-298.42235494073293,-515.8139392296696
71958,7374,71958.0,37852.0,71958.0,32363.0,-467.5634997717661,-298.27179595494283,-515.5950027478544
71958,7367,71958.0,37843.0,71958.0,32362.0,-470.1726773808862,-297.86267988675144,-514.9451418928909
71969,7355,71969.0,37832.0,71969.0,32361.0,-472.5876457093086,-297.1856869751273,-513.8473058014497
71969,7351,71969.0,37817.0,71969.0,32358.0,-474.7960187992948,-296.2317741780181,-512.285173745636
71969,7344,71969.0,37815.0,71969.0,32354.0,-476.7853395205085,-294.99249107201615,-510.2432864323912
71969,7350,71969.0,37855.0,71969.0,32365.0,-478.54322296837654,-293.46024605451265,-507.70716810334966
71969,7350,71969.0,37849.0,71969.0,32372.0,-480.0573957191214,-291.62821349042406,-504.6633792216031
71969,7354,71969.0,37848.0,71969.0,32373.0,-481.3156333651171,-289.49000549603556,-501.09945973809806
71979,7336,71979.0,37831.0,71979.0,32365.0,-482.30569184263123,-287.0395376108659,-497.0038847949529
71979,7327,71979.0,37833.0,71979.0,32365.0,-483.01538067873065,-284.27122213016764,-492.3661688567789
71979,7332,71979.0,37830.0,71979.0,32365.0,-483.4327906943712,-281.1802747787761,-487.1770882849279
71979,7330,71979.0,37847.0,71979.0,32364.0,-483.5464923972037,-277.76292038917114,-481.42891138566546
71979,7337,71979.0,37854.0,71979.0,32379.0,-483.345584023731,-274.0164066677362,-475.11557551493144
71979,7334,71979.0,37863.0,71979.0,32393.0,-482.81965031069115,-269.9388646210438,-468.23275077491087
71989,7320,71989.0,37849.0,71989.0,32383.0,-481.9587537709113,-265.52917965274463,-460.777792520107
71989,7330,71989.0,37842.0,71989.0,32373.0,-480.7535397585515,-260.7870615972853,-452.74979125409845
71989,7329,71989.0,37851.0,71989.0,32400.0,-479.19537671874787,-255.713319795772,-444.14983332791223
71989,7334,71989.0,37872.0,71989.0,32409.0,-477.27640240457424,-250.31009227896882,-434.9812134298428
71989,7333,71989.0,37887.0,71989.0,32420.0,-474.98950669497077,-244.58079630076674,-425.24940657507784
71989,7329,71989.0,37878.0,71989.0,32434.0,-472.32834840550424,-238.52989729069304,-414.96195531253585
72000,7325,72000.0,37874.0,72000.0,32443.0,-469.28745489006735,-232.16281586287556,-404.12840756032745
72000,7322,72000.0,37874.0,72000.0,32442.0,-465.86240463645356,-225.48611237300514,-392.7603169673606
72000,7341,72000.0,37897.0,72000.0,32470.0,-462.0500060100427,-218.50774849735677,-380.8713156090544
72000,7333,72000.0,37935.0,72000.0,32482.0,-457.84835895764087,-211.23710182377272,-368.47715745519264
72000,7350,72000.0,37934.0,72000.0,32505.0,-453.25682203376107,-203.68462593949738,-355.5956249101237
72000,7347,72000.0,37927.0,72000.0,32513.0,-448.2759779008403,-195.86147141448149,-342.2463727922088
72009,7345,72009.0,37927.0,72009.0,32527.0,-442.9076418453433,-187.77945589798924,-328.4508346472863
72009,7358,72009.0,37922.0,72009.0,32549.0,-437.1549395979573,-179.451354635124,-314.23220492573574
72009,7373,72009.0,37967.0,72009.0,32561.0,-431.02237142507613,-170.8911811513701,-299.61541740330347
72009,7387,72009.0,37991.0,72009.0,32607.0,-424.51572477654577,-162.1141298461762,-284.6270340979819
72009,7386,72009.0,37989.0,72009.0,32626.0,-417.6418899843435,-153.1361678993987,-269.2949710224426
72009,7395,72009.0,37984.0,72009.0,32631.0,-410.4087548889997,-143.97371110067493,-253.64813479175322
72019,7405,72019.0,37984.0,72019.0,32641.0,-402.82521459795544,-134.6437048576583,-237.71624643413907
72019,7404,72019.0,37998.0,72019.0,32668.0,-394.9012091000115,-125.16393176350104,-221.52992027588482
72019,7420,72019.0,38039.0,72019.0,32694.0,-386.6477641617198,-115.55317280746507,-205.12072373506476
72019,7446,72019.0,38056.0,72019.0,32725.0,-378.0769906606194,-105.8309990419878,-188.52102477848723
72019,7445,72019.0,38064.0,72019.0,32761.0,-369.20194890687424,-96.0173286884474,-171.76366042332353
72019,7454,72019.0,38067.0,72019.0,32758.0,-360.03648481846847,-86.13211534449499,-154.8815628509101
72030,7470,72030.0,38083.0,72030.0,32790.0,-350.59519335371476,-76.19530224012794,-137.90753634928595
72030,7489,72030.0,38094.0,72030.0,32813.0,-340.89340554331955,-66.2268658339199,-120.87419616228144
72030,7509,72030.0,38129.0,72030.0,32839.0,-330.9470468706613,-56.24675382642039,-103.81385771703387
72030,7523,72030.0,38146.0,72030.0,32866.0,-320.7723948367913,-46.274631948383984,-86.75830636800907
72030,7528,72030.0,38156.0,72030.0,32887.0,-310.38586066679284,-36.329513757914725,-69.73853767982033
72030,7545,72030.0,38140.0,72030.0,32883.0,-299.8038856993551,-26.429533872524445,-52.78457852576571
72040,7535,72040.0,38147.0,72040.0,32898.0,-289.04295799971135,-16.592066393401865,-35.925529658773144
72040,7546,72040.0,38167.0,72040.0,32930.0,-278.11975068567807,-6.8340381776645245,-19.189768069042316
72040,7571,72040.0,38192.0,72040.0,32955.0,-267.0513166709125,2.827929900342923,-2.605006649125926
72040,7610,72040.0,38223.0,72040.0,32971.0,-255.85508631810006,12.377728288640071,13.801884868907791
72040,7612,72040.0,38230.0,72040.0,32996.0,-244.54854602642465,21.800179693203404,30.005100277905854
72040,7616,72040.0,38210.0,72040.0,33018.0,-233.14889062975246,31.081354356682596,45.98005824427281
72051,7620,72051.0,38232.0,72051.0,33048.0,-221.67297081243663,40.20852315721896,61.703584400425314
72051,7644,72051.0,38234.0,72051.0,33052.0,-210.13744998989387,49.169904805370095,77.15413116512121
72051,7671,72051.0,38250.0,72051.0,33076.0,-198.55885440670113,57.95452730156603,92.31192676042843
72051,7684,72051.0,38275.0,72051.0,33083.0,-186.9533823460297,66.55226879734471,107.15900352976564
72051,7688,72051.0,38260.0,72051.0,33077.0,-175.33664797916322,74.95398917309583,121.67912036441885
72051,7691,72051.0,38260.0,72051.0,33101.0,-163.72360622513634,83.15155635962401,135.85755351515866
72061,7698,72061.0,38267.0,72061.0,33117.0,-152.12869454135597,91.13763008842454,149.6808696474593
72061,7729,72061.0,38296.0,72061.0,33130.0,-140.5660070002453,98.9054299930875,163.13686375561792
72061,7746,72061.0,38297.0,72061.0,33151.0,-129.04927959648674,106.44875745695128,176.21461987583274
72061,7743,72061.0,38320.0,72061.0,33168.0,-117.59170656433525,113.7621965501585,188.90459988002527
72061,7750,72061.0,38292.0,72061.0,33163.0,-106.20586450909013,120.84124938639724,201.19872427751125
72061,7771,72061.0,38323.0,72061.0,33183.0,-94.90383296821244,127.68227048547527,213.09034819605154
72071,7784,72071.0,38326.0,72071.0,33191.0,-83.69728433665233,134.28233183002487,224.57414494803368
72071,7805,72071.0,38358.0,72071.0,33225.0,-72.59740919792694,140.63927574801812,235.6460754865464
72071,7813,72071.0,38370.0,72071.0,33231.0,-61.614763701929974,146.75200428473738,246.30353701629826
72071,7825,72071.0,38345.0,72071.0,33204.0,-50.759149931826755,152.62078454678402,256.5455006612033
72071,7824,72071.0,38321.0,72071.0,33211.0,-40.03959570085573,158.2471997120561,266.37231043254644
72071,7835,72071.0,38343.0,72071.0,33221.0,-29.46445167382825,163.63365665563055,275.78520222316274
72082,7845,72082.0,38326.0,72082.0,33248.0,-19.041540759419803,168.78286703226502,284.78598399335
72082,7862,72082.0,38363.0,72082.0,33256.0,-8.778248195275296,173.69762149202046,293.3770734143685
72082,7881,72082.0,38365.0,72082.0,33263.0,1.3185126888542982,178.3808387324438,301.56169256546514
72082,7890,72082.0,38376.0,72082.0,33265.0,11.242437009276102,182.83579013551332,309.34397068888484
72082,7886,72082.0,38348.0,72082.0,33270.0,20.987941921363245,187.06625907155353,316.7288941875212
72082,7903,72082.0,38361.0,72082.0,33263.0,30.550132001607835,191.07641013141654,323.7221624210408
72092,7908,72092.0,38384.0,72092.0,33289.0,39.92468136007329,194.87054625332883,330.3300199727298
72092,7923,72092.0,38407.0,72092.0,33299.0,49.10777430437031,198.45315430743767,336.55920484200897
72092,7933,72092.0,38394.0,72092.0,33314.0,58.096120887337406,201.8292592363115,342.4170993822447
72092,7938,72092.0,38367.0,72092.0,33293.0,66.88699484692631,205.00462924383476,347.9119097260143
72092,7951,72092.0,38358.0,72092.0,33295.0,75.47824952422303,207.98549390918157,353.05261037601224
72092,7954,72092.0,38371.0,72092.0,33311.0,83.86830375429616,210.77799765171426,357.8486860775056
72102,7965,72102.0,38399.0,72102.0,33295.0,92.05611601444204,213.38790035173298,362.3099317449928
72102,7961,72102.0,38402.0,72102.0,33314.0,100.04113271697912,215.8207394464476,366.44635870948116
72102,7981,72102.0,38393.0,72102.0,33310.0,107.82320258783534,218.08216797049522,370.26811995290745
72102,7989,72102.0,38389.0,72102.0,33311.0,115.40253000502284,220.17807373502995,373.7854641266948
72102,7990,72102.0,38385.0,72102.0,33305.0,122.77970980189508,222.11442684490981,377.00866541135053
72102,7995,72102.0,38391.0,72102.0,33318.0,129.95573829689084,223.8970658316175,379.94789043746346
72113,8015,72113.0,38403.0,72113.0,33325.0,136.9319600577307,225.5315982751307,382.61312538478114
72113,8013,72113.0,38404.0,72113.0,33333.0,143.71006572118785,227.02346429693108,385.0142499518961
72113,8015,72113.0,38400.0,72113.0,33331.0,150.29212666046277,228.37805953333594,387.1611749013208
72113,8028,72113.0,38389.0,72113.0,33329.0,156.6805531189152,229.6007433733459,389.0639092948337
72113,8017,72113.0,38376.0,72113.0,33313.0,162.87800002960768,230.69665336245532,390.7324822211476
72113,8026,72113.0,38384.0,72113.0,33330.0,168.88724675374385,231.67040250326443,392.17674702628256
72123,8040,72123.0,38410.0,72123.0,33334.0,174.71106077387947,232.52589606547605,393.406243788305
72123,8053,72123.0,38425.0,72123.0,33332.0,180.35217679625907,233.2665004854939,394.43023911940054
72123,8050,72123.0,38405.0,72123.0,33330.0,185.81341545883396,233.89544078113136,395.25780537501237
72123,8047,72123.0,38395.0,72123.0,33314.0,191.0977472803802,234.41599329411235,395.89776695508306
72123,8053,72123.0,38402.0,72123.0,33319.0,196.20818843230154,234.83131985224952,396.35850733442805
72123,8076,72123.0,38412.0,72123.0,33325.0,201.14767799410612,235.1442650169867,396.64777212902936
72133,8076,72133.0,38435.0,72133.0,33350.0,205.91912884999124,235.35742392117055,396.77266625382345
72133,8086,72133.0,38434.0,72133.0,33351.0,210.525597491942,235.47346441451168,396.7399157519853
72133,8076,72133.0,38406.0,72133.0,33338.0,214.97037633440323,235.49542010980446,396.5561937157673
72133,8074,72133.0,38391.0,72133.0,33322.0,219.25691535101112,235.42661425712498,396.22819640294904
72133,8074,72133.0,38373.0,72133.0,33309.0,223.3886093560631,235.27019006523847,395.7623802894238
72133,8101,72133.0,38416.0,72133.0,33339.0,227.36861676742137,235.02863389809642,395.1646168569536
72144,8098,72144.0,38410.0,72144.0,33328.0,231.19988985476147,234.7037101594451,394.4401008480121
72144,8101,72144.0,38429.0,72144.0,33341.0,234.8853394709658,234.29679564450635,393.5935198951808
72144,8112,72144.0,38423.0,72144.0,33338.0,238.42792775195738,233.80926117229598,392.6292465577462
72144,8106,72144.0,38406.0,72144.0,33337.0,241.83068059565375,233.24266165143445,391.5514554739611
72144,8103,72144.0,38399.0,72144.0,33324.0,245.09665827555307,232.59865965528553,390.3641533440626
72144,8116,72144.0,38422.0,72144.0,33339.0,248.22885778456953,231.87880792773018,389.07111553820454
72154,8126,72154.0,38437.0,72154.0,33344.0,251.23015811647775,231.08454289385242,387.67587086058427
72154,8123,72154.0,38413.0,72154.0,33343.0,254.10340350413094,230.2174599555151,386.1818436286388
72154,8123,72154.0,38405.0,72154.0,33334.0,256.8514909566372,229.27947387565752,384.59251533967654
72154,8117,72154.0,38396.0,72154.0,33325.0,259.4773243913798,228.27263147137697,382.9114277263911
72154,8115,72154.0,38398.0,72154.0,33320.0,261.98365752971165,227.19880321228464,381.1420311366098
72154,8129,72154.0,38426.0,72154.0,33326.0,264.37293069859714,226.0595572185319,379.2875137139292
72164,8142,72164.0,38422.0,72164.0,33316.0,266.64724513576806,224.8563390465291,377.350722574678
72164,8140,72164.0,38404.0,72164.0,33320.0,268.80851721869186,223.5907690045736,375.33415259551305
72164,8125,72164.0,38389.0,72164.0,33302.0,270.85861422504695,222.2646785145716,373.23990963009
72164,8146,72164.0,38395.0,72164.0,33323.0,272.7993035941757,220.8798389221987,371.0696399802282
72164,8135,72164.0,38415.0,72164.0,33313.0,274.6321512191114,219.43774899106083,368.8245292643548
72164,8153,72164.0,38422.0,72164.0,33331.0,276.3585245398473,217.93976232224585,366.5054333650848
72175,8156,72175.0,38416.0,72175.0,33333.0,277.9796801511121,216.38743120294006,364.11310094215224
72175,8155,72175.0,38417.0,72175.0,33324.0,279.49689135859063,214.78275923234247,361.6484146266509
72175,8151,72175.0,38383.0,72175.0,33312.0,280.91152862259844,213.12820684552045,359.11250920961476
72175,8146,72175.0,38389.0,72175.0,33310.0,282.2250058285055,211.42644967070757,356.50668179974446
